24622
24562
24656
24660
24674
24721
24693
24621
24656
24786
24771
24697
24732
24800
24860
24819
24818
24846
24784
24770
24849
24799
24791
24766
24804
24790
24789
24773
24836
24853
24830
24866
24803
24759
24803
24908
24885
24904
24932
24906
24858
24908
25003
24959
24970
25041
24923
25027
24956
24981
25011
25072
25054
24996
25017
25081
25095
24987
25059
25009
25044
25041
25116
25083
25098
25095
25141
25121
25082
25223
25163
25172
25201
25208
25277
25241
25301
25266
25221
25301
25247
25370
25333
25356
25313
25444
25405
25352
25380
25387
25363
25481
25445
25508
25409
25386
25433
25534
25457
25571
25561
25461
25547
25494
25520
25566
25583
25619
25545
25606
25606
25600
25694
25676
25630
25632
25629
25664
25619
25621
25647
25756
25665
25746
25738
25759
25756
25795
25775
25753
25791
25668
25804
25735
25760
25775
25842
25819
25771
25763
25711
25776
25731
25760
25788
25802
25804
25744
25733
25744
25758
25805
25847
25822
25786
25911
25936
25898
25897
25838
25841
25845
25913
25954
25843
25908
25834
25888
25773
25794
25682
25725
25541
25522
25509
25405
25360
25384
25284
25177
25151
25116
25023
25058
24956
24905
24869
24800
24779
24758
24720
24693
24629
24653
24595
24487
24484
24485
24468
24436
24359
24329
24324
24301
24262
24162
24151
24103
24161
24117
24109
24113
24139
24159
24083
24194
24169
24219
24142
24232
24211
24132
24145
24286
24202
24157
24194
24276
24244
24236
24196
24293
24241
24310
24308
24331
24263
24305
24345
24348
24391
24336
24391
24299
24334
24401
24371
24331
24444
24342
24425
24344
24419
24468
24430
24515
24492
24465
24506
24486
24480
24468
24465
24481
24429
24418
24428
24484
24537
24446
24458
24494
24505
24454
24540
24549
24521
24564
24544
24499
24528
24522
24526
24461
24567
24459
24528
24470
24510
24537
24492
24583
24500
24497
24629
24530
24500
24556
24540
24576
24660
24632
24659
24676
24644
24619
24658
24595
24640
24708
24734
24698
24619
24703
24708
24665
24678
24741
24718
24609
24610
24669
24730
24678
24701
24631
24683
24588
24646
24659
24674
24656
24723
24600
24616
24719
24605
24641
24737
24672
24698
24659
24724
24757
24735
24760
24778
24855
24812
24783
24902
24923
24867
24958
24898
24929
24969
24971
25034
25009
24955
25033
25004
25081
25047
25063
25046
24983
25055
25014
24904
24836
24850
24820
24775
24708
24708
24673
24559
24592
24432
24387
24422
24402
24374
24374
24328
24261
24195
24236
24149
24220
24132
24160
24113
24090
24081
24097
23940
23970
23907
23972
23833
23795
23821
23885
23848
23771
23819
23789
23781
23775
23842
23803
23921
23848
23901
23937
23863
23912
23932
23976
24010
24103
24072
24089
24141
24181
24164
24175
24169
24167
24169
24170
24128
24166
24191
24228
24180
24113
24176
24145
24187
24149
24224
24245
24243
24275
24198
24308
24266
24250
24295
24310
24357
24334
24371
24385
24253
24405
24412
24326
24359
24308
24444
24386
24483
24408
24393
24498
24397
24391
24403
24448
24473
24508
24474
24494
24490
24492
24418
24465
24503
24503
24477
24483
24490
24492
24452
24505
24577
24532
24586
24604
24526
24583
24550
24574
24605
24645
24616
24648
24735
24658
24722
24778
24710
24731
24697
24818
24824
24761
24794
24814
24803
24880
24868
24839
24955
24841
24866
24918
24990
24962
24979
24964
24895
24915
25043
25030
25050
25072
25003
25073
25019
25100
25005
25131
25036
25114
25020
25033
25090
25081
25070
25087
25165
25081
25112
25136
25075
25153
25161
25090
25206
25071
25110
25087
25075
25039
25077
25142
25098
25011
25036
25064
25101
25098
25133
25134
25145
25114
25056
25136
25035
25110
25103
25159
25087
25135
25161
25174
25148
25174
25231
25226
25205
25191
25266
25284
25270
25388
25378
25319
25408
25417
25461
25415
25394
25315
25351
25227
25331
25290
25153
25100
25036
25034
24966
24869
24935
24859
24755
24760
24671
24612
24624
24599
24529
24549
24484
24339
24395
24445
24363
24298
24345
24238
24323
24327
24265
24258
24307
24247
24239
24241
24142
24116
24112
24070
24184
24141
24042
24074
24095
24116
24060
24112
24117
24177
24129
24173
24215
24189
24207
24277
24257
24327
24258
24346
24333
24275
24335
24347
24403
24406
24447
24381
24485
24457
24464
24495
24474
24522
24505
24466
24513
24586
24484
24493
24607
24521
24561
24558
24543
24589
24554
24552
24535
24484
24511
24610
24550
24540
24567
24595
24553
24566
24586
24548
24623
24585
24654
24559
24538
24601
24579
24650
24539
24588
24588
24583
24662
24634
24606
24591
24619
24593
24549
24580
24685
24678
24634
24701
24622
24621
24600
24595
24662
24602
24564
24650
24555
24636
24706
24631
24637
24652
24618
24563
24620
24542
24573
24583
24462
24487
24527
24448
24575
24594
24523
24449
24588
24605
24491
24618
24616
24597
24603
24602
24581
24564
24578
24591
24580
24605
24575
24560
24605
24609
24547
24594
24533
24663
24599
24602
24690
24590
24571
24670
24677
24614
24548
24651
24697
24698
24654
24693
24631
24648
24652
24607
24661
24618
24648
24619
24631
24625
24551
24655
24596
24650
24688
24582
24531
24580
24641
24559
24654
24627
24582
24594
24598
24509
24563
24532
24653
24661
24636
24617
24568
24576
24638
24665
24547
24592
24536
24569
24510
24423
24468
24329
24260
24277
24279
24234
24184
24073
23988
24056
23969
24005
23900
23822
23846
23837
23721
23691
23592
23604
23601
23614
23523
23502
23517
23459
23335
23432
23404
23365
23352
23288
23311
23259
23351
23317
23326
23165
23187
23183
23161
23229
23171
23191
23212
23181
23233
23189
23251
23290
23339
23268
23230
23274
23364
23270
23288
23341
23401
23277
23349
23336
23398
23345
23346
23398
23365
23390
23475
23473
23455
23550
23474
23469
23519
23597
23567
23637
23588
23652
23590
23614
23655
23694
23610
23743
23665
23664
23712
23724
23745
23663
23714
23734
23688
23760
23771
23678
23756
23803
23714
23799
23843
23809
23719
23734
23783
23777
23755
23704
23800
23738
23748
23820
23751
23822
23771
23776
23700
23772
23746
23755
23753
23789
23834
23823
23812
23813
23883
23862
23843
23878
23882
23927
23968
23942
23942
24044
23951
24079
24042
24076
24106
24142
24085
24145
24170
24216
24249
24138
24260
24242
24199
24273
24288
24240
24229
24258
24290
24244
24373
24273
24242
24302
24409
24305
24319
24297
24358
24314
24324
24383
24250
24267
24210
24132
24139
24120
23983
24013
23884
23845
23716
23748
23647
23624
23560
23571
23470
23507
23478
23424
23406
23459
23369
23365
23401
23391
23459
23305
23314
23366
23365
23323
23238
23257
23262
23153
23165
23189
23122
23084
23051
23102
23025
23019
23029
23063
22981
23051
23105
23058
23108
23076
23205
23135
23211
23237
23235
23363
23340
23369
23427
23377
23476
23474
23506
23459
23536
23603
23530
23573
23661
23627
23663
23641
23723
23735
23673
23687
23705
23686
23756
23804
23791
23739
23790
23731
23818
23706
23794
23856
23808
23777
23820
23852
23803
23727
23817
23818
23799
23839
23792
23749
23724
23737
23763
23747
23820
23817
23776
23772
23857
23903
23790
23763
23834
23840
23830
23773
23798
23834
23831
23804
23770
23813
23742
23708
23738
23723
23720
23751
23763
23704
23787
23723
23700
23748
23743
23800
23789
23830
23867
23814
23803
23935
23952
23916
23949
23885
23928
23997
23916
23982
23928
23974
23900
23962
23954
23944
23882
23906
23805
23881
23821
23830
23763
23829
23857
23845
23794
23765
23814
23786
23707
23670
23706
23640
23537
23492
23449
23438
23485
23410
23409
23382
23249
23233
23232
23221
23204
23194
23150
23038
23083
22970
23008
22897
22909
22851
22835
22835
22794
22784
22780
22807
22711
22751
22712
22666
22641
22648
22648
22676
22637
22657
22612
22664
22626
22696
22664
22690
22674
22750
22755
22721
22798
22793
22930
22848
22851
22949
22920
23008
23087
22994
23089
23007
23132
23189
23151
23106
23046
23079
23060
23125
23189
23137
23134
23105
23030
23027
23041
23028
23058
23091
23114
23093
23150
23120
23207
23194
23183
23183
23207
23199
23207
23205
23245
23250
23264
23301
23285
23279
23310
23344
23319
23316
23316
23329
23307
23322
23316
23312
23340
23363
23318
23285
23351
23338
23349
23379
23365
23357
23384
23398
23428
23457
23493
23505
23532
23477
23505
23585
23541
23584
23656
23666
23654
23546
23555
23591
23586
23598
23691
23649
23625
23604
23675
23685
23650
23714
23641
23647
23779
23759
23815
23761
23740
23768
23851
23756
23769
23872
23853
23830
23798
23784
23771
23824
23749
23669
23701
23689
23628
23566
23462
23403
23446
23409
23287
23328
23182
23166
23159
23120
23116
23024
23013
22999
22958
22893
22925
22817
22886
22855
22836
22785
22813
22764
22735
22725
22684
22636
22693
22574
22598
22545
22554
22505
22569
22493
22634
22634
22665
22563
22590
22665
22663
22677
22716
22763
22832
22787
22761
22885
22887
22875
22853
22911
22917
22958
23022
23062
22996
23035
22988
23071
23049
22986
23016
23014
23098
23055
23039
23093
22960
23079
23016
23099
23136
23039
23018
23062
23091
23115
23213
23196
23196
23220
23238
23159
23303
23220
23221
23240
23263
23304
23235
23213
23231
23327
23242
23333
23314
23360
23288
23282
23382
23407
23298
23369
23377
23430
23406
23389
23390
23384
23458
23501
23455
23402
23493
23438
23482
23456
23517
23471
23555
23514
23571
23535
23574
23661
23602
23668
23693
23617
23738
23655
23720
23770
23642
23713
23715
23743
23683
23667
23702
23716
23746
23833
23818
23822
23799
23832
23870
23893
23838
23887
23872
23990
23970
23896
24036
23952
24063
24008
24037
24030
24112
24073
24052
24054
24108
24102
24120
24123
24068
24165
24152
24174
24142
24162
24155
24199
24187
24165
24205
24140
24179
24167
24232
24233
24179
24252
24187
24244
24245
24212
24297
24260
24204
24199
24242
24317
24325
24338
24319
24225
24247
24366
24239
24359
24391
24336
24359
24384
24309
24445
24368
24444
24434
24354
24401
24421
24411
24412
24531
24464
24528
24467
24432
24515
24440
24527
24457
24512
24497
24463
24601
24549
24484
24579
24620
24548
24554
24495
24566
24570
24529
24537
24599
24558
24538
24546
24552
24551
24575
24531
24486
24442
24564
24557
24444
24487
24511
24539
24409
24484
24433
24440
24487
24512
24495
24521
24502
24501
24509
24545
24505
24478
24549
24529
24517
24570
24541
24449
24447
24500
24445
24399
24357
24280
24272
24188
24116
24073
24036
23925
23832
23799
23808
23707
23631
23603
23615
23433
23473
23390
23434
23287
23272
23310
23229
23312
23237
23157
23160
23161
23189
23187
23079
23160
23031
23046
23137
23054
23103
23048
23055
23064
23123
23071
23039
23015
23081
23108
23083
23134
23103
23201
23172
23193
23145
23118
23192
23103
23161
23220
23218
23148
23199
23161
23165
23228
23274
23266
23266
23191
23184
23199
23185
23175
23275
23216
23243
23318
23333
23311
23329
23306
23347
23352
23376
23354
23419
23338
23406
23392
23333
23447
23336
23369
23329
23354
23335
23375
23413
23359
23404
23405
23342
23414
23426
23426
23410
23452
23433
23461
23326
23455
23465
23430
23349
23463
23393
23379
23412
23405
23448
23415
23387
23424
23501
23487
23445
23431
23474
23458
23570
23468
23511
23500
23482
23581
23525
23534
23587
23572
23602
23629
23597
23564
23628
23647
23616
23674
23660
23680
23691
23709
23748
23661
23748
23740
23693
23821
23708
23713
23761
23809
23811
23743
23752
23753
23669
23686
23765
23715
23601
23592
23689
23606
23676
23718
23659
23638
23683
23666
23697
23707
23669
23766
23764
23764
23705
23816
23764
23841
23805
23874
23778
23867
23844
23877
23870
23874
23902
23908
23891
23832
23910
23777
23819
23860
23806
23744
23758
23783
23698
23731
23615
23579
23512
23558
23473
23431
23316
23324
23360
23291
23267
23170
23184
23081
23109
23037
22964
22961
22983
22939
22828
22844
22759
22760
22697
22654
22696
22706
22646
22529
22543
22601
22490
22439
22416
22405
22363
22352
22359
22356
22314
22332
22424
22302
22421
22357
22392
22396
22424
22392
22410
22510
22419
22564
22470
22609
22594
22554
22694
22592
22666
22693
22717
22742
22740
22734
22672
22765
22734
22818
22832
22765
22740
22782
22879
22813
22845
22860
22866
22859
22809
22812
22820
22892
22927
22918
22870
22848
22887
22853
22833
22887
22895
22944
22874
22913
22956
22960
22884
22987
23011
22992
22893
22871
22917
22954
22928
23000
23005
22965
23057
23022
23092
23027
23022
23069
23118
23092
23087
23098
23095
23067
23138
23170
23151
23072
23179
23108
23138
23204
23120
23124
23106
23176
23140
23230
23135
23205
23128
23236
23201
23209
23268
23264
23366
23312
23271
23251
23362
23257
23391
23317
23366
23380
23368
23421
23461
23350
23444
23506
23485
23474
23347
23467
23439
23361
23414
23424
23366
23293
23206
23204
23193
23149
23188
23037
23063
22971
22981
22934
22839
22815
22795
22854
22755
22814
22691
22693
22739
22757
22704
22651
22694
22634
22669
22680
22566
22577
22550
22587
22537
22596
22570
22601
22543
22560
22520
22560
22438
22515
22511
22489
22597
22576
22630
22643
22668
22605
22657
22606
22678
22817
22757
22766
22835
22826
22849
22860
22931
22928
22915
22890
22982
22886
22945
22977
22996
22999
22950
22932
22989
23041
22994
23028
23058
23092
23086
23104
23079
23082
23094
23069
23119
23111
23166
23146
23106
23243
23187
23244
23277
23280
23164
23222
23182
23263
23275
23192
23190
23273
23189
23276
23249
23251
23302
23345
23293
23373
23357
23315
23349
23296
23400
23433
23349
23440
23425
23328
23400
23436
23391
23441
23392
23410
23494
23442
23342
23384
23482
23484
23485
23533
23530
23532
23518
23517
23500
23515
23557
23580
23529
23551
23537
23508
23560
23581
23565
23536
23538
23620
23635
23586
23604
23685
23602
23665
23733
23727
23715
23748
23763
23778
23845
23858
23743
23876
23857
23858
23888
23785
23828
23896
23835
23907
23912
23859
23883
23968
23828
23851
23829
23850
23896
23839
23829
23891
23883
23875
23848
23943
23815
23867
23934
23967
23980
23915
23974
23939
24000
23961
24004
24032
24045
24034
24094
24046
23969
24077
24098
24042
24007
24051
24056
24000
23996
24073
24145
24051
24046
24092
24063
24107
24148
24085
24088
24088
24149
24109
24072
24062
24101
24022
24161
24145
24166
24065
24167
24107
24119
24168
24190
24107
24201
24141
24135
24200
24219
24214
24216
24232
24221
24203
24259
24142
24253
24225
24175
24184
24265
24247
24205
24225
24189
24176
24291
24178
24248
24306
24251
24188
24137
24239
24156
24208
24122
24108
24173
24123
23972
24037
23917
23915
23911
23821
23772
23620
23619
23590
23524
23381
23368
23323
23266
23154
23138
23108
23018
23103
23084
23019
22972
22837
22937
22902
22804
22822
22877
22876
22735
22832
22807
22777
22806
22712
22671
22727
22703
22707
22628
22644
22702
22731
22669
22673
22782
22772
22769
22785
22827
22773
22810
22753
22885
22866
22824
22932
22929
22946
22856
22925
23001
23001
22996
22940
22915
22972
22990
22947
22919
23062
22989
23052
23073
22971
23029
22980
23032
23039
23021
22986
23054
23077
23090
23177
23098
23092
23081
23112
23062
23129
23193
23059
23091
23139
23154
23094
23195
23191
23168
23125
23162
23165
23143
23185
23102
23195
23215
23222
23154
23122
23146
23179
23147
23200
23185
23166
23149
23239
23199
23209
23190
23134
23114
23201
23187
23222
23245
23243
23215
23147
23220
23225
23162
23271
23236
23265
23290
23239
23317
23262
23311
23256
23312
23305
23339
23383
23383
23452
23441
23361
23458
23442
23445
23496
23418
23466
23528
23489
23473
23553
23473
23538
23554
23495
23600
23596
23446
23543
23535
23409
23508
23502
23499
23450
23462
23534
23459
23440
23459
23469
23466
23483
23534
23581
23530
23543
23534
23587
23609
23588
23611
23534
23557
23547
23643
23624
23552
23525
23549
23615
23524
23527
23583
23585
23480
23453
23475
23476
23411
23405
23293
23261
23279
23236
23252
23199
23234
23158
23193
23088
23109
23081
23129
23044
23004
23020
22997
23070
23004
22953
23044
23015
22959
22903
22891
22861
22868
22880
22795
22844
22809
22668
22629
22734
22654
22597
22691
22630
22532
22620
22561
22606
22698
22605
22625
22721
22669
22698
22697
22714
22721
22707
22781
22738
22737
22879
22798
22837
22800
22837
22795
22757
22857
22858
22859
22787
22853
22798
22779
22706
22843
22748
22748
22642
22600
22627
22479
22370
22445
22258
22239
22188
22131
22162
22082
22139
22141
22157
22124
22175
22142
22208
22132
22176
22140
22114
22142
22122
22137
22157
22136
22145
22078
22095
22202
22128
22215
22145
22131
22210
22147
22137
22153
22185
22196
22140
22153
22237
22223
22165
22237
22233
22318
22232
22294
22382
22428
22453
22422
22439
22549
22547
22574
22628
22641
22611
22635
22661
22612
22600
22622
22602
22574
22648
22647
22621
22690
22603
22660
22646
22713
22704
22639
22612
22597
22672
22658
22631
22635
22585
22560
22520
22576
22483
22420
22424
22378
22280
22259
22225
22181
22160
22080
22130
22057
22102
21964
21893
21905
21884
21814
21726
21762
21723
21760
21557
21586
21621
21577
21541
21535
21543
21419
21510
21439
21447
21325
21378
21359
21427
21330
21310
21269
21385
21397
21409
21348
21313
21385
21413
21488
21437
21532
21463
21531
21644
21607
21604
21706
21570
21673
21670
21644
21577
21709
21626
21580
21674
21585
21600
21667
21614
21693
21670
21704
21689
21757
21682
21693
21695
21769
21758
21853
21822
21901
21850
21890
21865
21971
21950
21927
21993
22014
21999
21952
22045
22045
22039
22018
22110
22090
22070
22048
22130
22048
22137
22048
22090
22065
22121
22103
22056
22107
22187
22157
22180
22157
22151
22195
22136
22210
22305
22279
22307
22312
22285
22233
22327
22282
22272
22211
22257
22197
22293
22191
22208
22224
22249
22206
22265
22247
22255
22299
22300
22235
22227
22230
22248
22243
22317
22379
22407
22419
22465
22353
22490
22445
22514
22427
22498
22563
22537
22477
22528
22495
22514
22596
22487
22473
22453
22490
22467
22333
22348
22283
22195
22162
22078
22037
22044
21935
21893
21824
21809
21720
21772
21676
21655
21654
21758
21678
21638
21723
21724
21584
21601
21610
21602
21646
21714
21666
21565
21602
21677
21491
21635
21554
21573
21519
21471
21529
21569
21549
21465
21588
21538
21600
21600
21625
21615
21663
21740
21677
21736
21649
21700
21705
21828
21710
21847
21795
21794
21841
21922
21880
21960
21881
21922
21927
21987
21970
21886
21964
21955
21962
21868
21953
21923
21879
21921
21848
21892
21924
21900
21950
21916
21932
21923
22007
21931
22064
22001
22023
22042
22041
22080
22189
22144
22231
22199
22223
22140
22141
22253
22244
22228
22190
22198
22196
22223
22219
22195
22186
22208
22220
22188
22199
22175
22252
22138
22192
22089
22169
22143
22141
22054
22145
22067
22082
22053
22120
22072
22079
22110
22101
22202
22216
22097
22222
22291
22193
22229
22266
22208
22269
22291
22284
22234
22198
22206
22178
22309
22311
22275
22342
22253
22363
22304
22253
22343
22355
22349
22310
22286
22305
22208
22214
22215
22195
22089
22070
22039
21922
21894
21907
21800
21849
21730
21627
21647
21576
21568
21627
21514
21629
21484
21501
21575
21510
21459
21382
21357
21441
21380
21370
21316
21282
21353
21350
21349
21234
21197
21275
21289
21279
21244
21257
21266
21175
21314
21303
21310
21325
21344
21308
21303
21352
21339
21461
21442
21447
21409
21477
21511
21546
21482
21507
21604
21532
21523
21636
21533
21563
21610
21563
21562
21581
21640
21556
21619
21685
21657
21698
21725
21745
21776
21725
21805
21792
21819
21812
21824
21856
21854
21798
21814
21841
21834
21843
21916
21842
21842
21889
21930
21906
21923
21886
21964
21891
21901
21959
21893
21965
21948
21984
21918
21883
21933
21941
21907
21931
21971
21986
21947
21885
21941
21937
21953
22039
22045
21989
21935
22052
21996
22092
22056
22090
22090
22022
22090
22060
22149
22119
22141
22217
22181
22170
22217
22208
22254
22271
22327
22266
22355
22359
22338
22366
22382
22344
22284
22407
22370
22412
22338
22371
22396
22392
22432
22455
22445
22463
22438
22515
22559
22457
22544
22448
22559
22473
22590
22584
22591
22505
22594
22618
22571
22629
22696
22625
22726
22642
22682
22684
22662
22703
22741
22712
22689
22723
22749
22717
22784
22768
22746
22761
22791
22843
22769
22793
22879
22750
22774
22871
22798
22818
22775
22831
22749
22767
22829
22754
22826
22860
22763
22771
22841
22872
22895
22854
22918
22960
22949
22983
22933
22948
23035
22947
22989
23114
23071
23056
23103
23051
23131
23046
23078
23192
23070
23110
23102
23168
23167
23235
23233
23236
23249
23285
23234
23222
23152
23283
23140
23234
23208
23299
23244
23213
23241
23303
23303
23336
23307
23298
23336
23285
23325
23333
23268
23327
23404
23348
23427
23352
23385
23368
23278
23302
23347
23362
23261
23244
23186
23125
23064
23149
23002
23032
22871
22883
22852
22755
22762
22719
22575
22504
22523
22447
22421
22419
22363
22370
22326
22344
22226
22265
22247
22175
22209
22179
22258
22140
22112
22205
22165
22084
22120
22177
22079
22015
22068
22139
22125
22121
22047
22111
22043
21996
22125
22115
22085
22112
22087
22045
22196
22175
22191
22190
22317
22287
22358
22320
22415
22325
22340
22369
22423
22343
22405
22445
22444
22475
22441
22504
22403
22381
22427
22457
22456
22451
22518
22490
22446
22434
22532
22476
22433
22462
22485
22441
22504
22520
22465
22500
22417
22426
22399
22425
22470
22388
22467
22430
22427
22444
22498
22512
22473
22463
22462
22449
22472
22516
22525
22539
22582
22552
22454
22514
22542
22498
22527
22501
22531
22442
22441
22493
22476
22539
22603
22516
22603
22593
22612
22564
22583
22648
22684
22692
22685
22653
22685
22631
22585
22657
22637
22730
22741
22702
22641
22656
22698
22742
22747
22765
22742
22800
22722
22757
22743
22801
22809
22855
22756
22762
22812
22752
22772
22841
22823
22727
22765
22753
22812
22805
22741
22808
22825
22782
22874
22825
22804
22833
22823
22834
22844
22898
22879
22917
22851
22845
22878
22859
22939
22839
22920
22889
22971
22984
22966
22979
22970
22920
22984
22911
22983
22945
22934
22927
22949
22941
22932
22879
22899
22893
22823
22758
22708
22685
22660
22620
22493
22510
22405
22358
22448
22310
22321
22373
22294
22240
22228
22221
22161
22181
22124
22107
22149
22114
22008
22117
22010
22046
22104
22049
22048
21974
21997
21993
22077
21995
22084
22047
22001
21960
21977
21967
21966
22058
22098
22065
22129
22165
22176
22094
22227
22135
22191
22164
22162
22255
22304
22345
22257
22372
22306
22348
22473
22415
22452
22481
22530
22477
22499
22522
22563
22610
22522
22486
22580
22516
22583
22604
22535
22497
22614
22527
22650
22509
22542
22547
22653
22603
22645
22591
22692
22640
22716
22714
22647
22671
22788
22689
22774
22744
22715
22769
22754
22793
22794
22734
22808
22838
22844
22791
22818
22904
22848
22878
22900
22904
22910
22915
22880
22884
22864
22923
22873
22945
22984
23000
22887
22906
22987
22897
22899
22931
22906
22941
22977
22939
22900
22961
23012
22977
22959
22985
23010
22944
23004
22954
22963
23021
22949
23049
23093
23080
23138
23111
23178
23100
23118
23158
23184
23158
23194
23160
23166
23153
23208
23166
23109
23196
23201
23163
23151
23209
23144
23066
23124
23096
23090
23067
22966
22998
22880
22821
22799
22779
22792
22756
22721
22607
22653
22522
22530
22475
22401
22452
22428
22334
22342
22251
22259
22289
22214
22152
22173
22144
22128
22110
22092
22053
22116
22031
22013
22066
21986
21983
21935
22034
22018
22001
22029
21936
22019
22047
22010
22041
21991
22027
22069
22093
21993
22141
22149
22204
22144
22144
22251
22254
22267
22259
22312
22253
22287
22286
22274
22396
22349
22373
22381
22414
22340
22379
22453
22409
22358
22459
22366
22433
22449
22334
22430
22428
22405
22465
22438
22374
22377
22489
22492
22411
22482
22489
22493
22528
22509
22499
22435
22495
22460
22509
22429
22513
22473
22497
22495
22544
22516
22453
22571
22522
22581
22490
22480
22518
22634
22615
22614
22627
22557
22584
22684
22578
22560
22553
22578
22605
22609
22599
22693
22635
22613
22658
22651
22692
22755
22731
22731
22791
22765
22848
22841
22799
22868
22769
22911
22837
22894
22950
22898
22812
22950
22867
22913
22873
22882
23030
22947
22903
22884
23022
22923
22999
22982
22935
22966
22924
22940
22929
22970
22857
22818
22787
22743
22736
22680
22662
22514
22507
22487
22353
22401
22242
22307
22271
22242
22196
22126
22212
22061
22146
22110
22006
22115
22028
22014
21978
22013
21990
21958
22000
21950
21905
22010
21990
21895
21864
21900
21875
21900
21871
21947
21892
21905
21914
21969
22059
22031
21946
22091
22069
22062
22035
22125
22075
22136
22063
22074
22097
22208
22226
22221
22280
22190
22289
22282
22292
22273
22254
22333
22416
22344
22363
22317
22354
22292
22318
22392
22306
22337
22305
22354
22320
22368
22346
22346
22356
22417
22374
22357
22352
22359
22406
22374
22451
22478
22400
22361
22448
22461
22443
22428
22405
22448
22375
22399
22425
22494
22497
22514
22515
22424
22487
22538
22452
22469
22455
22516
22512
22448
22527
22515
22446
22490
22533
22453
22541
22470
22468
22487
22514
22500
22530
22495
22547
22539
22486
22480
22507
22441
22433
22524
22523
22479
22492
22435
22527
22453
22507
22429
22449
22439
22564
22477
22513
22577
22603
22599
22663
22575
22640
22529
22615
22559
22638
22557
22604
22639
22559
22499
22490
22457
22449
22349
22412
22263
22234
22227
22135
22147
22054
22034
22025
22016
21932
21899
21928
21819
21855
21878
21850
21778
21695
21739
21744
21740
21696
21741
21653
21626
21650
21591
21552
21523
21604
21599
21581
21581
21554
21456
21464
21450
21460
21547
21536
21544
21506
21576
21621
21518
21632
21626
21727
21714
21720
21723
21848
21754
21789
21855
21781
21836
21855
21911
21875
21948
21935
21945
21931
21954
21938
22081
22053
22014
22074
22017
22090
22066
22048
22133
22132
22069
22073
22127
22123
22107
22149
22143
22226
22130
22122
22171
22225
22223
22276
22202
22192
22196
22237
22231
22311
22283
22298
22285
22276
22302
22269
22258
22317
22279
22395
22353
22287
22349
22339
22293
22414
22329
22409
22386
22350
22395
22304
22351
22325
22406
22443
22435
22390
22440
22313
22398
22401
22364
22397
22478
22385
22510
22419
22412
22439
22548
22456
22531
22533
22585
22627
22551
22600
22661
22566
22671
22684
22645
22706
22669
22652
22658
22754
22777
22788
22754
22691
22770
22752
22826
22772
22814
22805
22747
22774
22815
22795
22878
22869
22843
22904
22890
22945
22867
22928
22934
22925
22930
22899
22937
22906
22936
23061
23031
23075
23082
23000
23021
23048
23015
23099
23118
23095
23035
22992
22978
23071
23042
22946
23018
22977
22956
22912
22935
22931
22921
22953
22931
22892
22989
22933
22923
23020
22884
22932
23029
22977
23053
22978
22918
23014
22994
22982
23042
22951
22933
22894
22904
22994
22980
22961
23049
23085
23089
23187
23093
23138
23140
23168
23149
23216
23164
23245
23200
23218
23217
23306
23308
23268
23226
23213
23281
23306
23309
23385
23262
23376
23354
23439
23461
23441
23386
23422
23421
23418
23455
23431
23425
23462
23466
23522
23466
23485
23490
23477
23457
23364
23446
23338
23294
23223
23223
23155
23117
23078
23047
22968
22984
22952
22897
22889
22802
22740
22704
22687
22672
22645
22613
22691
22616
22613
22567
22558
22515
22443
22450
22427
22433
22302
22385
22342
22358
22309
22396
22290
22327
22265
22328
22237
22157
22307
22214
22174
22208
22264
22271
22236
22215
22307
22353
22332
22332
22448
22444
22423
22442
22585
22487
22593
22474
22513
22518
22589
22610
22542
22515
22572
22608
22552
22517
22535
22546
22484
22500
22514
22538
22486
22542
22584
22575
22558
22520
22513
22593
22541
22600
22591
22493
22500
22545
22533
22604
22603
22546
22553
22596
22591
22604
22569
22596
22658
22619
22536
22593
22574
22576
22642
22603
22622
22574
22578
22611
22554
22581
22592
22625
22591
22606
22674
22683
22601
22706
22628
22721
22745
22712
22672
22678
22663
22752
22738
22701
22714
22728
22800
22781
22802
22803
22868
22867
22889
22822
22763
22848
22777
22813
22819
22873
22946
22913
22847
22902
22916
22906
22888
22959
22977
22934
22983
23010
23083
23028
23067
23056
23124
23136
23089
23102
23203
23127
23098
23083
23226
23221
23217
23193
23208
23213
23209
23207
23207
23204
23292
23299
23243
23240
23265
23206
23293
23368
23302
23280
23338
23231
23245
23306
23281
23302
23324
23297
23285
23352
23404
23398
23363
23324
23323
23368
23331
23328
23312
23363
23358
23321
23425
23383
23417
23264
23309
23319
23247
23192
23123
23092
22997
22986
22862
22856
22866
22824
22805
22650
22633
22666
22700
22578
22615
22550
22591
22537
22584
22507
22417
22477
22442
22463
22377
22460
22417
22311
22330
22271
22277
22171
22234
22273
22202
22164
22133
22150
22194
22192
22174
22263
22187
22280
22335
22275
22291
22330
22329
22338
22404
22379
22333
22318
22314
22424
22454
22372
22392
22370
22403
22363
22428
22408
22473
22452
22433
22437
22502
22485
22547
22551
22596
22578
22518
22613
22631
22578
22630
22639
22634
22576
22552
22536
22650
22648
22591
22682
22589
22624
22638
22682
22672
22745
22744
22662
22686
22813
22762
22747
22789
22846
22852
22752
22878
22903
22818
22807
22876
22851
22866
22877
22833
22892
22924
22936
22978
22992
22942
22975
22954
22993
22946
22914
22920
22995
22941
22981
23019
22958
22985
23031
23125
23000
23121
23124
23144
23103
23113
23157
23262
23214
23232
23217
23291
23330
23381
23295
23280
23343
23426
23429
23386
23357
23449
23352
23428
23501
23401
23500
23493
23379
23492
23426
23426
23383
23357
23373
23301
23369
23298
23274
23205
23157
23095
23045
23040
23028
22946
22918
22842
22785
22731
22753
22641
22669
22608
22628
22583
22562
22475
22443
22483
22350
22350
22362
22338
22391
22306
22333
22346
22315
22407
22329
22329
22286
22237
22274
22322
22384
22294
22294
22313
22309
22368
22388
22406
22356
22386
22462
22467
22486
22480
22569
22528
22582
22553
22536
22670
22676
22571
22624
22641
22690
22731
22647
22674
22750
22673
22690
22775
22805
22777
22654
22675
22769
22685
22689
22727
22706
22758
22824
22742
22805
22818
22828
22866
22820
22873
22868
22898
22840
22920
22919
22878
22994
22989
22999
22939
23014
23079
22977
23005
23003
23090
23034
23031
23086
23037
23101
23038
23033
23071
23166
23094
23167
23116
23099
23172
23144
23164
23154
23160
23116
23133
23127
23138
23142
23211
23165
23213
23188
23204
23153
23168
23237
23155
23241
23320
23237
23214
23273
23356
23306
23366
23402
23389
23451
23401
23472
23447
23495
23525
23452
23541
23489
23456
23479
23558
23531
23550
23543
23584
23573
23541
23545
23554
23577
23626
23609
23626
23647
23614
23531
23583
23605
23608
23660
23621
23546
23583
23554
23633
23613
23552
23603
23551
23609
23647
23687
23705
23717
23637
23711
23744
23774
23777
23768
23804
23790
23803
23770
23758
23815
23820
23869
23894
23785
23790
23826
23778
23869
23835
23795
23827
23865
23903
23891
23902
23884
23844
23891
23919
23893
23906
23937
23914
23918
23937
24003
24036
24079
24032
23996
24066
24023
24034
24115
24064
24082
24010
24030
24031
24020
24070
24056
23990
23998
24004
23971
24032
24039
24004
24009
23988
24003
24067
24093
24016
24109
24104
24054
24153
24091
24145
24195
24161
24091
24165
24163
24124
24104
24179
24146
24082
24093
24075
23994
24065
23976
24005
23889
23897
23799
23817
23764
23733
23587
23612
23580
23474
23448
23373
23445
23354
23413
23245
23224
23228
23178
23139
23201
23171
23076
23065
23002
23069
23063
23042
22939
22984
22938
22955
22920
22812
22875
22851
22817
22762
22803
22720
22769
22780
22796
22744
22729
22782
22774
22780
22795
22798
22844
22872
22817
22933
22823
22985
22917
22930
22959
22942
22995
23021
22953
22985
22990
23048
23042
22964
23052
23039
23085
23002
23000
22991
23065
23034
23090
23063
23095
23092
23080
23076
23160
23087
23074
23061
23133
23054
23088
23094
23062
23147
23089
23073
23106
23031
23081
23134
23083
23106
23108
23002
23072
23049
23102
23033
23066
23064
23116
23145
23162
23057
23169
23143
23157
23222
23250
23134
23114
23259
23144
23203
23247
23156
23189
23244
23244
23217
23256
23214
23195
23237
23243
23232
23188
23198
23293
23274
23318
23274
23338
23332
23353
23264
23273
23336
23294
23325
23431
23463
23412
23466
23459
23507
23408
23421
23520
23531
23524
23553
23541
23573
23519
23473
23565
23603
23521
23511
23612
23566
23535
23563
23600
23591
23584
23599
23536
23601
23571
23648
23659
23659
23668
23621
23659
23715
23733
23791
23786
23773
23726
23843
23763
23874
23881
23797
23802
23895
23820
23814
23760
23804
23860
23788
23708
23710
23729
23605
23576
23607
23472
23443
23399
23346
23385
23236
23265
23226
23220
23252
23249
23102
23094
23170
23148
23055
23083
23018
23084
23011
22968
22938
22938
23040
22896
22972
22941
22920
22884
22865
22944
22974
22951
22905
22830
22956
22922
22995
22893
22950
22938
22944
22972
22951
22958
22999
22979
23016
23118
23076
23130
23153
23101
23161
23226
23186
23270
23253
23221
23235
23241
23323
23291
23288
23332
23340
23325
23325
23444
23405
23441
23376
23465
23399
23519
23568
23539
23483
23492
23441
23531
23550
23593
23541
23584
23520
23484
23586
23512
23578
23507
23628
23617
23612
23686
23615
23661
23581
23642
23726
23723
23718
23697
23746
23714
23798
23836
23758
23754
23766
23777
23801
23754
23789
23880
23800
23900
23852
23753
23847
23911
23853
23908
23824
23783
23814
23843
23825
23806
23914
23802
23809
23844
23867
23821
23792
23862
23791
23832
23908
23877
23840
23958
23954
23962
23941
23954
23984
23927
23883
23979
23991
23913
23958
23924
23912
23909
23975
23945
23885
23919
23884
23849
23813
23777
23706
23576
23596
23596
23516
23528
23478
23358
23360
23307
23261
23278
23202
23206
23076
23118
23054
22994
22945
22889
22922
22860
22869
22780
22820
22781
22708
22710
22755
22725
22774
22683
22648
22685
22747
22687
22673
22730
22636
22691
22637
22703
22703
22723
22736
22791
22776
22833
22882
22866
22860
22822
22861
22873
22891
23010
22941
22993
23014
22976
22965
23036
23087
23061
23130
23062
23055
23084
23052
23135
23069
23100
23121
23116
23129
23051
23091
23085
23151
23067
23074
23061
23098
23076
23149
23082
23099
23013
23042
23166
23127
23055
23051
23045
23029
23147
23084
23077
23102
23097
23094
23062
23092
23102
23111
23051
23137
23169
23129
23156
23155
23182
23185
23141
23152
23154
23189
23199
23240
23310
23381
23368
23362
23321
23429
23414
23319
23440
23420
23416
23451
23563
23486
23515
23522
23629
23573
23573
23661
23647
23693
23745
23756
23807
23755
23760
23843
23853
23796
23747
23854
23868
23916
23861
23825
23791
23849
23869
23785
23738
23781
23654
23665
23644
23571
23547
23539
23525
23377
23342
23370
23226
23280
23293
23273
23192
23132
23099
23077
23058
23023
23002
22975
22972
22900
22953
22897
22910
22878
22854
22828
22810
22765
22793
22726
22745
22733
22715
22702
22606
22705
22692
22654
22673
22677
22667
22711
22714
22711
22752
22760
22799
22810
22831
22852
22832
22933
22947
22969
22966
22993
23027
23050
23062
23033
23078
23108
23091
23124
23158
23151
23219
23194
23237
23215
23195
23248
23224
23312
23301
23328
23261
23339
23299
23278
23367
23413
23424
23445
23468
23359
23412
23466
23522
23441
23426
23577
23488
23588
23520
23653
23591
23645
23568
23577
23573
23649
23632
23706
23641
23728
23654
23741
23684
23696
23709
23721
23734
23853
23769
23826
23782
23797
23835
23791
23805
23782
23789
23862
23864
23808
23770
23850
23806
23858
23876
23927
23971
23939
23920
23870
23977
23971
23870
23918
23950
23903
23982
23954
23944
23893
23963
24024
24004
23916
23942
23891
24026
23939
24040
23967
24065
24044
24001
24080
24051
23991
24072
24102
24071
24123
24183
24137
24099
24199
24219
24215
24186
24244
24216
24217
24209
24152
24280
24224
24289
24357
24272
24149
24289
24328
24232
24253
24200
24281
24239
24239
24248
24257
24334
24292
24321
24353
24224
24270
24308
24300
24281
24322
24366
24264
24301
24319
24347
24340
24335
24344
24362
24324
24399
24356
24411
24402
24403
24410
24360
24426
24390
24386
24441
24405
24427
24409
24376
24349
24467
24348
24303
24344
24337
24360
24346
24324
24277
24337
24320
24363
24244
24358
24346
24238
24285
24243
24309
24297
24373
24350
24334
24320
24349
24315
24396
24267
24288
24256
24296
24269
24352
24235
24362
24319
24205
24243
24192
24225
24195
24060
24035
23991
24008
23989
23848
23803
23752
23773
23620
23599
23551
23522
23451
23466
23360
23378
23284
23333
23234
23246
23190
23126
23189
23135
23057
23116
23089
22954
23021
22995
22949
22944
22896
22896
22874
22919
22868
22878
22863
22850
22828
22899
22831
22865
22899
22890
22885
22929
23011
22938
22949
23031
22960
23081
23018
23088
23196
23168
23119
23261
23226
23239
23236
23297
23249
23211
23301
23272
23322
23350
23292
23358
23318
23329
23382
23391
23393
23383
23359
23386
23407
23434
23522
23448
23502
23438
23436
23480
23458
23489
23538
23589
23501
23611
23562
23609
23541
23544
23600
23512
23643
23541
23516
23620
23549
23617
23615
23608
23596
23629
23550
23547
23623
23663
23646
23732
23675
23631
23702
23794
23675
23675
23728
23812
23813
23709
23795
23806
23851
23903
23884
23916
23817
23923
23861
23937
23936
23906
23860
23918
23911
23982
23980
23984
24006
23939
23953
23972
23971
24044
24035
23947
24001
24022
23986
24007
24036
24111
24085
24097
24031
24062
24128
24122
24135
24229
24092
24186
24221
24211
24215
24190
24143
24165
24284
24155
24221
24259
24238
24235
24265
24217
24286
24298
24315
24232
24336
24259
24363
24257
24274
24297
24266
24381
24348
24461
24465
24455
24480
24514
24420
24523
24597
24627
24545
24599
24567
24654
24635
24671
24620
24662
24641
24604
24577
24566
24490
24364
24353
24280
24205
24155
24098
24079
24006
23996
23933
23894
23919
23832
23809
23766
23725
23703
23636
23651
23660
23563
23509
23501
23526
23488
23537
23469
23499
23413
23334
23371
23395
23364
23252
23318
23278
23311
23223
23263
23242
23255
23195
23253
23214
23226
23304
23296
23255
23322
23281
23380
23334
23385
23462
23396
23510
23503
23463
23516
23524
23523
23593
23521
23607
23644
23555
23698
23621
23621
23664
23680
23665
23692
23651
23625
23663
23638
23587
23618
23685
23674
23695
23661
23623
23688
23705
23679
23676
23746
23704
23676
23722
23769
23754
23798
23780
23707
23763
23741
23749
23764
23774
23800
23814
23874
23880
23805
23778
23872
23884
23860
23871
23839
23880
23855
23867
23887
23921
23865
23885
23880
23886
23889
23848
23819
23850
23951
23885
23825
23897
23830
23853
23849
23935
23877
23897
23896
23890
23917
23903
23884
23922
23926
23983
23941
24022
23974
23919
24048
24021
24036
24081
24093
23992
23987
24042
23962
23976
24043
23983
24006
23972
23998
23991
23909
23871
23857
23916
23763
23801
23722
23608
23611
23491
23521
23524
23425
23326
23371
23357
23302
23306
23191
23222
23231
23111
23069
23129
23067
23010
22954
22950
23032
22911
22901
22878
22841
22859
22813
22798
22775
22817
22750
22699
22712
22671
22701
22775
22723
22719
22785
22740
22744
22779
22766
22829
22851
22879
22927
22939
22975
22970
22979
23023
23054
23092
23156
23110
23091
23142
23086
23183
23108
23144
23108
23137
23144
23161
23180
23148
23182
23219
23133
23159
23162
23169
23191
23214
23267
23215
23219
23223
23205
23307
23279
23295
23275
23323
23378
23359
23412
23335
23335
23322
23357
23422
23343
23450
23398
23453
23390
23447
23427
23442
23363
23492
23470
23376
23364
23473
23444
23466
23428
23486
23378
23513
23416
23421
23406
23507
23440
23508
23478
23406
23523
23463
23497
23497
23531
23584
23533
23503
23492
23545
23578
23556
23512
23516
23590
23606
23578
23528
23641
23549
23616
23571
23684
23594
23637
23611
23645
23622
23666
23698
23671
23729
23648
23739
23692
23627
23708
23766
23759
23738
23776
23721
23726
23761
23867
23787
23818
23803
23832
23824
23853
23831
23935
23895
23848
23953
23876
23991
23960
23967
23994
23957
23950
23975
23892
23890
24023
24001
24044
23928
23998
24071
24007
24019
23927
24100
24021
24020
24045
24087
24109
24029
24075
24078
24105
24066
24141
24084
24187
24169
24104
24145
24144
24203
24229
24190
24238
24261
24255
24288
24341
24250
24256
24352
24330
24371
24327
24319
24348
24315
24392
24317
24394
24368
24376
24312
24307
24379
24280
24432
24418
24379
24423
24369
24391
24371
24418
24434
24384
24445
24450
24466
24501
24520
24491
24603
24425
24518
24512
24461
24492
24412
24316
24315
24289
24198
24179
24102
24043
23970
23941
23866
23837
23802
23719
23674
23617
23553
23575
23534
23445
23437
23479
23364
23347
23303
23345
23312
23314
23292
23176
23208
23144
23206
23089
23096
23090
23051
23089
23085
23079
22998
23076
23117
23066
23066
23096
23143
23073
23138
23175
23150
23186
23159
23256
23217
23286
23270
23315
23328
23265
23301
23409
23323
23282
23314
23419
23448
23322
23366
23360
23398
23465
23423
23433
23516
23472
23467
23457
23522
23553
23580
23607
23545
23557
23645
23538
23536
23556
23585
23593
23633
23580
23677
23672
23702
23706
23633
23640
23705
23679
23708
23788
23840
23759
23728
23821
23831
23805
23733
23855
23839
23837
23830
23869
23887
23816
23831
23785
23780
23793
23845
23873
23801
23798
23843
23859
23788
23834
23865
23792
23870
23843
23921
23910
23913
23837
23855
23885
23933
23909
23984
23898
23938
23879
23966
23869
23921
23928
23930
23973
23942
23994
23935
23973
23953
23939
23965
23967
23967
23925
23981
23982
24006
24002
23923
23941
24052
23984
23921
23998
24065
23998
23992
24003
24032
24027
23992
24006
23922
23927
23934
23931
23915
23953
23943
23970
23948
23963
23912
23921
23908
23940
23907
23842
23938
23892
23857
23924
23849
23907
23858
23910
23899
23907
24000
23976
23908
23965
23917
23915
23893
23935
23881
23810
23872
23776
23703
23674
23667
23663
23619
23543
23513
23520
23370
23415
23331
23245
23184
23256
23125
23150
23052
23122
23136
23064
22995
23012
22974
22967
22902
22927
22879
22890
22807
22798
22806
22851
22822
22748
22743
22752
22729
22720
22704
22770
22766
22724
22832
22819
22879
22855
22791
22813
22799
22912
22825
22899
22853
22948
22972
22995
23041
23052
23014
22966
23048
22961
23054
23074
23109
23081
23128
23046
23093
23148
23137
23213
23117
23123
23093
23222
23202
23085
23105
23120
23209
23093
23193
23093
23201
23116
23088
23117
23095
23152
23219
23210
23192
23140
23137
23103
23145
23181
23171
23144
23181
23207
23175
23176
23297
23247
23359
23300
23381
23316
23302
23350
23347
23389
23337
23431
23414
23467
23481
23554
23486
23531
23586
23543
23557
23642
23612
23647
23593
23688
23600
23624
23633
23631
23639
23676
23700
23650
23675
23740
23697
23758
23674
23753
23796
23807
23808
23830
23753
23796
23921
23884
23871
23851
23918
23925
23971
23946
23927
23914
23970
24000
24064
23999
24055
24011
24033
23993
24079
23919
23948
23951
23845
23863
23766
23741
23694
23561
23470
23519
23386
23443
23341
23312
23242
23312
23260
23283
23175
23219
23157
23116
23170
23107
23085
23157
23022
23093
23077
23061
23047
22979
22990
22971
23003
22930
22990
22923
22957
22892
22872
22830
22876
22858
22863
22927
22904
22891
22978
23036
22979
23002
23041
23137
23104
23140
23093
23129
23180
23185
23217
23190
23244
23279
23191
23265
23360
23286
23267
23334
23326
23348
23267
23264
23341
23269
23363
23292
23338
23276
23355
23325
23370
23446
23410
23424
23397
23378
23448
23400
23453
23402
23510
23481
23436
23493
23462
23409
23476
23509
23440
23412
23408
23524
23454
23508
23545
23589
23543
23455
23540
23586
23523
23560
23602
23586
23590
23537
23580
23593
23572
23582
23597
23621
23603
23596
23640
23587
23556
23607
23669
23615
23600
23562
23573
23597
23626
23601
23661
23666
23643
23590
23687
23632
23681
23590
23696
23645
23669
23719
23740
23655
23681
23790
23718
23714
23834
23791
23830
23811
23834
23742
23739
23731
23778
23720
23589
23615
23583
23514
23404
23388
23359
23358
23290
23207
23180
23132
23132
23015
23040
23055
22990
22948
22898
22949
22882
22928
22927
22842
22876
22783
22820
22796
22731
22775
22689
22702
22608
22616
22588
22603
22625
22671
22589
22523
22566
22620
22555
22616
22614
22645
22668
22639
22637
22646
22738
22752
22800
22765
22779
22832
22872
22858
22906
22873
22815
22899
22911
22941
22841
22961
22974
22983
22894
22927
22925
22938
22970
22996
23063
23070
23066
23019
23037
23024
23055
23167
23123
23177
23144
23125
23138
23158
23164
23143
23181
23156
23185
23257
23264
23138
23270
23169
23198
23257
23241
23252
23225
23249
23259
23225
23253
23294
23324
23281
23265
23331
23288
23306
23332
23303
23270
23348
23313
23354
23319
23376
23319
23280
23283
23380
23401
23256
23304
23417
23361
23313
23388
23318
23423
23378
23427
23384
23387
23357
23426
23387
23416
23459
23423
23404
23456
23418
23342
23443
23341
23382
23361
23420
23392
23363
23492
23394
23383
23390
23474
23323
23316
23266
23401
23260
23264
23175
23211
23076
23045
23029
22911
22926
22870
22808
22786
22712
22741
22703
22617
22622
22683
22606
22609
22578
22594
22476
22512
22453
22498
22442
22461
22470
22355
22358
22400
22340
22331
22355
22282
22282
22331
22352
22365
22273
22394
22365
22415
22407
22331
22367
22429
22460
22390
22455
22509
22498
22480
22586
22585
22611
22600
22576
22645
22666
22666
22715
22682
22649
22736
22751
22764
22767
22782
22804
22716
22760
22841
22757
22839
22822
22786
22861
22868
22816
22904
22943
22855
22916
23005
22878
23013
22971
22928
22950
23019
23022
23061
22932
23014
22985
23027
22978
23037
23129
23112
23109
23171
23206
23077
23130
23160
23208
23222
23155
23270
23270
23289
23210
23274
23214
23243
23321
23259
23218
23278
23244
23332
23287
23374
23300
23401
23368
23402
23323
23372
23342
23364
23448
23380
23477
23356
23439
23482
23420
23464
23394
23358
23431
23499
23441
23406
23478
23446
23405
23434
23448
23421
23496
23466
23506
23457
23400
23524
23529
23498
23533
23556
23596
23502
23521
23662
23625
23613
23602
23575
23590
23649
23542
23641
23644
23545
23547
23575
23670
23640
23614
23628
23595
23673
23659
23572
23669
23695
23679
23591
23619
23619
23676
23573
23629
23646
23610
23556
23613
23531
23567
23545
23546
23553
23557
23532
23550
23535
23596
23533
23509
23584
23674
23634
23623
23619
23617
23660
23715
23620
23705
23670
23751
23691
23720
23830
23761
23783
23741
23731
23721
23762
23725
23764
23722
23671
23771
23725
23654
23700
23704
23736
23812
23767
23692
23790
23796
23824
23791
23836
23805
23895
23852
23884
23949
23964
24018
24033
23936
23992
24028
24003
23896
23976
23911
23893
23838
23832
23816
23693
23655
23583
23522
23511
23511
23429
23413
23337
23223
23243
23248
23170
23090
23033
23018
23013
23014
22990
22954
22894
22818
22820
22820
22818
22797
22744
22715
22664
22723
22679
22671
22645
22691
22652
22707
22658
22674
22567
22569
22628
22664
22628
22683
22660
22720
22775
22700
22732
22777
22853
22870
22892
22861
22866
22874
22958
22944
23070
22960
23069
23072
22994
23047
23048
23027
23095
23103
23073
23078
23088
23135
23116
23104
23129
23139
23106
23167
23179
23092
23200
23177
23131
23239
23270
23250
23264
23237
23311
23224
23303
23214
23257
23323
23335
23299
23261
23235
23323
23392
23274
23371
23320
23293
23296
23428
23286
23415
23365
23388
23358
23419
23375
23431
23494
23470
23528
23496
23503
23488
23534
23441
23560
23457
23540
23497
23491
23467
23508
23544
23487
23583
23516
23575
23517
23612
23592
23485
23602
23521
23645
23659
23640
23656
23673
23631
23677
23604
23615
23702
23637
23718
23780
23775
23687
23686
23715
23775
23670
23811
23832
23721
23781
23789
23872
23858
23769
23905
23841
23861
23831
23905
23967
23895
23865
23892
23936
23914
23905
23954
24000
23982
23919
23941
23950
23999
23997
24029
24021
24033
24061
23976
24045
24043
24078
24002
24009
24052
24090
24066
24084
24055
24069
24055
24122
24091
24066
24097
24075
24149
24101
24174
24095
24087
24031
24007
24061
24008
23884
23930
23879
23777
23799
23773
23697
23662
23580
23620
23532
23466
23462
23317
23277
23268
23336
23222
23193
23185
23132
23176
23153
23110
23065
23126
23049
23074
22948
23056
23012
22965
22992
22920
22884
22941
22859
22774
22848
22890
22824
22912
22894
22860
22886
22912
22890
22836
22924
22892
22940
23001
22998
23001
23003
23019
23058
23079
23059
23073
23102
23045
23122
22999
23056
23058
23072
23117
23012
23011
23099
23057
23125
23044
23089
23037
23122
23129
23070
23088
23172
23121
23149
23205
23168
23188
23245
23238
23232
23198
23181
23294
23311
23331
23257
23247
23307
23362
23342
23387
23339
23382
23258
23387
23335
23223
23318
23325
23302
23348
23247
23283
23386
23356
23326
23400
23372
23418
23394
23428
23434
23353
23434
23480
23399
23429
23437
23457
23427
23379
23485
23480
23409
23434
23414
23378
23462
23428
23455
23403
23413
23429
23407
23503
23450
23527
23463
23464
23530
23491
23453
23459
23537
23458
23553
23525
23517
23488
23417
23454
23431
23481
23406
23417
23377
23310
23272
23227
23239
23236
23158
23108
22988
22993
22988
22925
22816
22808
22836
22728
22674
22630
22751
22653
22651
22539
22487
22482
22502
22448
22377
22375
22426
22359
22405
22327
22315
22328
22303
22326
22151
22190
22193
22159
22153
22100
22108
22135
22125
22161
22166
22189
22122
22155
22252
22178
22272
22249
22206
22293
22306
22231
22325
22269
22326
22376
22341
22442
22406
22351
22413
22411
22397
22480
22452
22439
22400
22421
22520
22461
22423
22466
22487
22535
22481
22565
22542
22602
22490
22654
22634
22544
22640
22593
22710
22615
22662
22709
22666
22661
22722
22740
22666
22737
22632
22750
22690
22713
22695
22717
22703
22711
22711
22665
22664
22756
22702
22778
22802
22686
22739
22773
22710
22690
22720
22691
22743
22730
22775
22658
22777
22679
22783
22795
22727
22760
22758
22752
22818
22725
22865
22857
22881
22856
22860
22930
22975
22904
22852
22892
22964
22917
22979
22937
22902
22930
22979
22992
22970
23039
22918
22910
23001
22874
22932
22836
22893
22798
22726
22738
22692
22649
22650
22546
22522
22470
22486
22314
22398
22269
22320
22224
22275
22212
22118
22169
22108
22065
21990
22025
21923
21886
21937
21917
21850
21789
21837
21727
21793
21753
21738
21716
21787
21704
21659
21734
21708
21692
21647
21683
21711
21675
21782
21787
21705
21868
21815
21765
21820
21808
21844
21868
21914
21912
21965
21858
21857
21926
21869
21845
21927
21909
21932
21850
21828
21857
21925
21879
21919
21929
21908
21835
21936
21912
21895
21866
21935
21895
21905
21988
21918
21973
21908
21836
21886
21983
21969
21937
21970
21995
21931
21915
21941
21951
22033
22059
22040
22063
22074
22054
22150
22180
22112
22221
22277
22241
22230
22273
22327
22384
22383
22318
22368
22366
22452
22376
22484
22535
22489
22565
22509
22554
22596
22657
22617
22634
22703
22646
22665
22734
22700
22735
22834
22742
22831
22805
22860
22822
22897
22879
22920
22983
22980
23033
22988
22968
22979
23051
22996
23099
23028
23093
23030
23017
22969
22900
22846
22821
22837
22795
22717
22730
22635
22595
22528
22603
22446
22432
22484
22394
22436
22458
22360
22394
22331
22282
22342
22304
22306
22242
22284
22296
22196
22203
22226
22145
22244
22208
22071
22083
22128
22167
22194
22179
22176
22192
22130
22200
22121
22140
22153
22222
22230
22177
22179
22215
22250
22218
22308
22310
22367
22367
22355
22422
22369
22385
22392
22483
22483
22470
22438
22485
22506
22471
22576
22562
22606
22613
22625
22544
22579
22564
22577
22574
22637
22626
22666
22679
22658
22638
22711
22617
22686
22664
22673
22668
22678
22671
22689
22726
22775
22774
22775
22826
22811
22808
22807
22785
22784
22943
22816
22944
22884
22948
22916
22932
22985
22894
22998
22981
22911
22971
22989
22942
23021
23052
23003
23069
22981
22998
23045
23021
22989
23073
23008
23079
22995
23037
23135
23128
23079
23079
23041
23029
23115
23189
23140
23056
23137
23125
23138
23127
23225
23139
23175
23189
23173
23232
23273
23292
23231
23259
23274
23284
23195
23311
23288
23282
23163
23164
23088
23058
23059
22981
22924
22902
22814
22859
22747
22668
22660
22602
22575
22483
22522
22526
22501
22479
22428
22412
22323
22332
22358
22306
22289
22265
22187
22264
22205
22177
22127
22220
22069
22124
22072
22052
22078
22129
22014
22087
22074
22055
22079
22135
22124
22056
22107
22097
22230
22133
22134
22248
22209
22285
22327
22260
22310
22331
22256
22358
22394
22258
22302
22324
22386
22307
22360
22272
22318
22410
22337
22409
22441
22376
22457
22437
22422
22465
22376
22460
22485
22492
22464
22489
22444
22434
22477
22444
22534
22489
22545
22541
22522
22491
22455
22518
22586
22649
22597
22571
22648
22621
22667
22721
22689
22708
22781
22750
22791
22765
22747
22824
22868
22826
22826
22909
22896
22839
22862
22843
22913
22860
22902
22908
22900
22786
22815
22782
22759
22748
22768
22672
22679
22724
22624
22632
22576
22596
22600
22540
22537
22530
22541
22624
22584
22526
22631
22617
22629
22607
22674
22689
22647
22661
22730
22711
22802
22683
22785
22688
22726
22772
22731
22780
22729
22713
22681
22675
22741
22651
22663
22742
22754
22619
22749
22669
22733
22687
22740
22694
22757
22703
22776
22688
22769
22714
22790
22829
22748
22784
22848
22825
22870
22920
22903
22822
22871
22957
22950
22878
22913
22983
23000
22922
23030
22997
23032
23107
23098
23055
23033
23093
23156
23102
23144
23099
23118
23178
23103
23121
23176
23211
23153
23139
23177
23278
23215
23313
23250
23195
23275
23325
23269
23343
23261
23237
23335
23376
23279
23329
23345
23408
23443
23450
23435
23363
23468
23441
23411
23413
23409
23488
23471
23565
23557
23522
23583
23668
23622
23654
23622
23705
23712
23758
23728
23752
23691
23747
23786
23714
23689
23699
23780
23661
23621
23557
23532
23516
23480
23523
23473
23427
23300
23217
23204
23210
23157
23086
23071
22991
23009
22895
22950
22862
22891
22807
22791
22720
22692
22713
22637
22638
22601
22568
22569
22470
22538
22479
22439
22449
22392
22418
22430
22411
22385
22422
22401
22399
22426
22449
22450
22372
22399
22421
22482
22452
22403
22478
22479
22447
22458
22372
22441
22460
22454
22445
22441
22445
22438
22446
22443
22412
22385
22409
22360
22371
22347
22346
22382
22343
22391
22415
22406
22398
22381
22375
22429
22397
22437
22408
22353
22364
22415
22442
22427
22367
22513
22429
22470
22453
22446
22487
22506
22471
22491
22503
22620
22520
22610
22626
22596
22691
22700
22730
22650
22652
22751
22776
22713
22768
22690
22806
22794
22768
22801
22785
22790
22810
22819
22744
22798
22803
22735
22800
22782
22800
22832
22865
22943
22952
22987
22988
22989
22994
23090
23120
23145
23098
23126
23201
23225
23123
23251
23178
23234
23193
23253
23292
23287
23261
23315
23326
23324
23364
23375
23391
23398
23468
23467
23492
23530
23534
23567
23576
23595
23592
23637
23632
23671
23692
23692
23711
23716
23726
23753
23766
23838
23814
23793
23850
23821
23951
23901
23998
23998
24038
24028
24043
24076
24066
24086
24143
24130
24100
24105
24094
24067
24058
24094
24053
24065
23956
23919
23964
23851
23854
23814
23772
23776
23687
23597
23587
23529
23491
23392
23397
23379
23282
23222
23178
23110
23030
23036
23076
22928
22875
22889
22773
22819
22705
22723
22698
22708
22631
22670
22545
22624
22540
22528
22509
22531
22534
22536
22616
22640
22565
22587
22734
22730
22789
22831
22764
22864
22784
22869
22979
22952
23017
22968
22924
22971
23054
22983
22980
23085
23065
23107
23073
23058
23102
23167
23150
23093
23168
23169
23232
23304
23259
23292
23319
23278
23293
23409
23350
23384
23333
23405
23401
23436
23463
23450
23478
23461
23418
23475
23503
23516
23544
23493
23476
23537
23472
23550
23518
23563
23564
23579
23618
23658
23600
23693
23702
23652
23665
23683
23676
23738
23657
23761
23686
23737
23703
23717
23679
23686
23750
23730
23692
23679
23648
23687
23687
23644
23633
23674
23659
23718
23673
23661
23704
23751
23720
23756
23650
23679
23709
23736
23725
23780
23800
23729
23733
23736
23804
23784
23645
23702
23720
23739
23721
23719
23662
23593
23673
23551
23514
23581
23456
23450
23374
23333
23370
23392
23220
23163
23177
23206
23103
23059
23146
23103
23055
23054
22959
23039
23021
22951
22931
22938
22849
22812
22900
22851
22872
22859
22835
22713
22798
22749
22697
22775
22767
22760
22721
22712
22734
22724
22812
22875
22913
22851
22888
22850
22997
22898
22985
22901
22924
22978
23060
23048
23033
23027
23022
23113
23106
23039
23135
23176
23129
23148
23126
23111
23164
23233
23156
23228
23216
23153
23145
23189
23210
23208
23267
23224
23187
23213
23187
23203
23296
23243
23287
23318
23292
23249
23244
23301
23315
23324
23313
23408
23286
23314
23323
23440
23385
23367
23450
23393
23380
23357
23390
23405
23386
23426
23345
23348
23477
23474
23379
23393
23408
23436
23364
23401
23420
23415
23485
23389
23449
23422
23425
23363
23459
23419
23482
23381
23449
23411
23482
23453
23451
23466
23530
23518
23558
23526
23547
23516
23574
23570
23595
23562
23558
23540
23509
23415
23425
23327
23398
23380
23264
23200
23218
23159
23116
23196
23147
23150
22990
23005
23027
22995
23008
22959
22836
22860
22797
22839
22787
22812
22720
22764
22762
22668
22709
22656
22637
22710
22620
22650
22607
22604
22649
22564
22549
22607
22653
22580
22589
22765
22657
22646
22701
22787
22691
22736
22695
22760
22777
22761
22775
22777
22859
22788
22792
22846
22837
22905
22928
22856
22889
22872
22952
22910
22915
22924
22933
22965
23031
22938
23033
23049
23071
23055
23082
23151
23211
23259
23191
23278
23285
23333
23380
23354
23277
23417
23310
23432
23316
23419
23383
23333
23328
23369
23356
23276
23342
23401
23399
23294
23343
23402
23278
23372
23361
23360
23283
23374
23316
23316
23399
23343
23374
23323
23308
23336
23230
23352
23270
23253
23247
23206
23253
23256
23255
23278
23302
23220
23354
23245
23280
23232
23254
23360
23344
23363
23374
23360
23383
23326
23316
23335
23340
23342
23318
23324
23365
23305
23346
23300
23280
23167
23196
23067
23134
23039
23036
23038
22937
22983
22881
22813
22766
22797
22780
22672
22640
22677
22581
22647
22538
22529
22476
22516
22427
22413
22362
22470
22392
22337
22398
22324
22329
22313
22274
22196
22286
22255
22250
22267
22205
22125
22202
22195
22196
22150
22120
22144
22177
22177
22115
22195
22225
22178
22284
22275
22264
22314
22250
22280
22243
22341
22289
22249
22318
22340
22386
22398
22323
22414
22307
22396
22325
22405
22408
22349
22490
22395
22437
22501
22476
22586
22539
22595
22623
22695
22674
22738
22781
22770
22809
22867
22864
22888
22866
22866
22896
22865
22947
22902
22950
22971
22997
22980
23036
23096
23107
23027
23083
23120
23086
23101
23157
23170
23218
23160
23198
23126
23167
23192
23221
23207
23135
23194
23192
23262
23167
23185
23198
23210
23268
23319
23257
23258
23363
23409
23425
23383
23382
23471
23469
23475
23468
23619
23601
23590
23541
23577
23635
23629
23718
23706
23676
23676
23671
23740
23688
23752
23713
23820
23772
23775
23700
23643
23660
23690
23613
23605
23518
23426
23522
23402
23356
23359
23407
23285
23273
23237
23162
23246
23113
23139
23091
23133
23131
23046
23029
23008
23092
23030
23068
23009
22987
23025
22987
22967
22929
23016
22926
22893
22874
23000
22906
22946
23014
23059
23013
23077
23108
23086
23121
23119
23159
23159
23132
23203
23160
23065
23136
23085
23149
23097
23129
23119
23133
23168
23144
23118
23197
23179
23181
23222
23218
23201
23176
23250
23300
23256
23227
23332
23343
23319
23255
23342
23323
23317
23426
23392
23401
23414
23457
23347
23421
23392
23468
23392
23414
23416
23488
23487
23502
23431
23383
23496
23529
23435
23448
23505
23395
23475
23409
23453
23392
23429
23492
23432
23407
23389
23412
23375
23463
23460
23370
23464
23390
23474
23383
23417
23395
23317
23328
23418
23344
23420
23449
23357
23377
23458
23427
23408
23490
23462
23470
23445
23486
23573
23527
23549
23451
23552
23531
23605
23653
23561
23582
23647
23561
23594
23508
23427
23435
23472
23324
23311
23305
23267
23240
23125
23089
23091
23027
23043
23011
22986
22944
22903
22912
22906
22769
22796
22824
22801
22754
22794
22748
22635
22681
22618
22672
22707
22626
22661
22640
22708
22706
22732
22695
22694
22740
22779
22785
22743
22722
22832
22797
22842
22839
22911
22855
22910
22973
22954
23008
23022
22986
23007
23028
23063
23049
22944
23037
23053
22981
22917
22942
22983
23000
22879
22957
22950
22953
22956
22948
23014
22948
23013
23019
22996
23043
23068
23037
22943
23067
22947
23057
22975
23059
23050
23096
22967
23066
23046
23073
23026
23073
23097
23129
23119
23149
23199
23213
23191
23198
23236
23340
23283
23261
23326
23419
23417
23496
23390
23388
23517
23449
23430
23485
23576
23567
23539
23546
23618
23569
23584
23570
23625
23592
23645
23566
23588
23646
23575
23560
23649
23594
23611
23726
23668
23612
23683
23711
23764
23789
23723
23811
23689
23734
23697
23766
23679
23751
23761
23727
23708
23669
23713
23656
23493
23563
23461
23461
23395
23301
23273
23206
23157
23212
23106
23022
23003
23013
22907
22901
22848
22841
22773
22808
22804
22711
22715
22708
22786
22695
22660
22739
22670
22670
22624
22598
22695
22677
22626
22599
22659
22649
22618
22574
22667
22574
22591
22692
22625
22726
22684
22772
22785
22737
22788
22840
22830
22907
22924
22905
22999
22994
23049
23056
23132
23069
23135
23098
23108
23111
23064
23087
23059
23049
23096
23039
23084
23120
23069
23027
23106
23072
23072
23136
23092
23113
23098
23039
23080
23111
23175
23078
23087
23094
23064
23147
23173
23082
23191
23090
23194
23154
23173
23156
23164
23150
23138
23219
23191
23188
23246
23205
23210
23320
23298
23329
23305
23292
23325
23328
23384
23326
23300
23353
23381
23384
23418
23384
23423
23427
23474
23432
23496
23447
23535
23538
23509
23589
23592
23622
23607
23645
23566
23585
23665
23616
23699
23645
23605
23688
23681
23601
23668
23621
23574
23625
23591
23640
23661
23643
23637
23593
23597
23624
23652
23656
23637
23663
23672
23598
23704
23697
23686
23669
23675
23659
23718
23712
23793
23750
23818
23736
23851
23776
23801
23794
23822
23821
23809
23800
23804
23875
23874
23875
23806
23864
23840
23854
23854
23869
23859
23873
23874
23931
23888
23855
23928
23873
23935
23968
23988
24009
24062
24003
24075
23988
23998
24028
23970
24036
24098
24038
24129
24088
23974
24059
24021
24003
24098
24025
24021
24080
24094
24036
24084
24034
24088
24159
24083
24087
24142
24127
24145
24223
24220
24136
24171
24227
24234
24191
24227
24194
24112
24200
24251
24243
24160
24210
24177
24271
24244
24160
24230
24275
24201
24230
24207
24253
24247
24315
24240
24249
24232
24305
24299
24315
24262
24241
24231
24148
24103
24136
24083
24091
23968
23984
23945
23928
23927
23832
23768
23842
23744
23702
23784
23761
23719
23708
23664
23626
23600
23663
23575
23574
23547
23520
23554
23538
23411
23359
23338
23340
23290
23290
23346
23259
23339
23211
23240
23277
23240
23246
23213
23223
23270
23189
23265
23218
23233
23305
23309
23269
23275
23368
23322
23303
23343
23376
23386
23413
23449
23460
23476
23415
23402
23467
23488
23486
23490
23498
23494
23489
23444
23500
23455
23430
23465
23321
23387
23400
23393
23272
23273
23362
23369
23367
23330
23326
23293
23331
23318
23265
23252
23305
23338
23313
23305
23310
23268
23266
23279
23231
23270
23200
23214
23267
23180
23171
23236
23257
23245
23201
23170
23120
23238
23107
23167
23117
23166
23141
23220
23142
23247
23212
23249
23257
23282
23259
23304
23284
23232
23295
23267
23247
23258
23309
23306
23257
23326
23344
23377
23281
23408
23438
23401
23443
23433
23476
23438
23422
23465
23397
23413
23416
23423
23434
23391
23383
23453
23355
23426
23403
23373
23425
23453
23402
23407
23458
23466
23453
23472
23537
23528
23469
23532
23469
23513
23552
23525
23517
23491
23513
23437
23494
23477
23445
23409
23431
23438
23414
23448
23441
23467
23418
23399
23328
23317
23345
23236
23182
23196
23118
23121
23102
23030
23063
23062
22934
23018
22928
22884
22923
22899
22854
22756
22747
22817
22754
22766
22700
22713
22637
22583
22618
22523
22505
22482
22437
22475
22427
22444
22461
22478
22519
22502
22544
22556
22491
22513
22630
22544
22707
22622
22663
22717
22818
22746
22836
22753
22822
22807
22930
22995
22911
22861
22959
22972
23005
22914
23057
22978
23018
22999
22970
23046
22999
23105
23110
23090
23139
23093
23125
23069
23133
23168
23109
23110
23105
23061
23152
23177
23160
23196
23163
23064
23157
23148
23157
23173
23083
23126
23124
23062
23175
23151
23063
23184
23065
23174
23184
23178
23144
23236
23267
23292
23214
23279
23286
23255
23284
23422
23420
23356
23414
23415
23500
23511
23499
23509
23505
23490
23489
23494
23486
23525
23561
23529
23574
23539
23588
23638
23684
23636
23604
23618
23611
23668
23645
23654
23659
23616
23744
23651
23698
23743
23741
23796
23735
23673
23770
23750
23738
23723
23755
23678
23657
23672
23628
23523
23553
23461
23435
23526
23399
23379
23286
23345
23261
23326
23263
23144
23207
23247
23142
23103
23074
23156
23100
23140
23105
23107
23038
23038
22977
23019
22965
22957
23022
22985
22944
22985
22938
22954
22994
22973
22996
23074
23075
23138
23151
23057
23178
23220
23233
23286
23241
23212
23329
23275
23263
23294
23402
23400
23333
23350
23403
23409
23362
23347
23374
23433
23397
23317
23413
23459
23363
23388
23374
23434
23417
23410
23415
23435
23435
23375
23451
23541
23463
23492
23481
23556
23526
23505
23536
23507
23548
23549
23588
23582
23590
23565
23610
23590
23496
23572
23491
23587
23558
23526
23575
23592
23612
23511
23521
23556
23524
23586
23515
23576
23552
23488
23566
23473
23470
23575
23463
23470
23558
23518
23528
23542
23623
23507
23591
23558
23547
23606
23559
23595
23666
23597
23611
23752
23674
23655
23695
23698
23753
23795
23723
23698
23714
23749
23733
23794
23749
23675
23794
23763
23636
23715
23681
23624
23672
23612
23529
23563
23446
23455
23419
23390
23310
23312
23368
23277
23163
23278
23189
23228
23147
23065
23099
23022
23047
23012
23019
22985
22995
22978
22993
22955
23001
22973
22931
22995
23005
22972
22994
23070
23083
23093
23073
23117
23155
23137
23074
23140
23173
23197
23211
23215
23205
23293
23221
23309
23243
23277
23288
23306
23335
23338
23333
23271
23255
23265
23207
23322
23341
23338
23256
23232
23255
23305
23306
23292
23263
23257
23265
23232
23255
23234
23234
23302
23198
23237
23192
23254
23280
23167
23235
23196
23204
23240
23271
23205
23172
23242
23297
23256
23263
23239
23276
23232
23296
23324
23286
23196
23246
23218
23223
23298
23265
23254
23316
23347
23202
23212
23282
23320
23269
23380
23322
23309
23401
23309
23348
23402
23402
23431
23500
23479
23451
23508
23505
23557
23539
23608
23629
23523
23606
23581
23585
23530
23585
23669
23639
23637
23656
23616
23600
23678
23592
23678
23570
23654
23661
23651
23661
23629
23563
23584
23571
23542
23425
23397
23453
23333
23323
23277
23270
23209
23078
23114
23037
23070
23045
22930
22943
22935
22910
22841
22805
22792
22799
22743
22718
22767
22794
22700
22712
22683
22750
22625
22614
22622
22515
22575
22570
22454
22486
22531
22488
22398
22452
22402
22438
22559
22493
22537
22557
22620
22588
22575
22666
22648
22790
22714
22784
22795
22846
22901
22863
22923
22921
22951
22890
22996
22957
22984
23002
22947
23037
22969
23020
23095
23036
22998
23050
23093
23139
23129
23121
23194
23159
23228
23184
23296
23337
23289
23338
23294
23342
23275
23329
23253
23337
23355
23318
23300
23405
23360
23387
23460
23337
23360
23397
23359
23425
23394
23424
23477
23450
23558
23521
23568
23528
23526
23538
23592
23560
23526
23569
23518
23613
23525
23624
23594
23646
23540
23661
23673
23669
23687
23705
23673
23663
23573
23737
23619
23741
23680
23625
23611
23661
23670
23655
23694
23733
23715
23666
23770
23818
23809
23831
23784
23819
23785
23822
23772
23738
23777
23749
23859
23820
23888
23764
23815
23823
23851
23750
23792
23724
23807
23655
23622
23592
23538
23539
23490
23388
23279
23345
23201
23204
23097
23040
23037
23050
22999
23059
23023
22993
23040
22945
23012
22907
22872
22929
22869
22923
22824
22853
22817
22757
22863
22760
22799
22786
22763
22714
22664
22611
22612
22647
22632
22638
22650
22631
22573
22602
22631
22500
22565
22546
22549
22596
22652
22641
22613
22661
22745
22758
22760
22729
22807
22794
22839
22768
22840
22860
22819
22923
22929
22921
22970
22984
23041
23034
23109
23155
23143
23324
23205
23298
23279
23303
23376
23323
23409
23448
23412
23456
23569
23537
23482
23607
23567
23616
23669
23676
23660
23590
23703
23733
23715
23747
23765
23792
23834
23766
23841
23843
23876
23864
23926
23944
23992
23964
24013
24017
24073
24095
24068
24112
24140
24165
24191
24270
24175
24280
24319
24331
24272
24353
24351
24304
24370
24304
24283
24242
24278
24267
24259
24322
24347
24282
24233
24323
24260
24217
24226
24234
24174
24218
24211
24213
24108
24193
24193
24135
24139
24185
24177
24134
24123
24227
24168
24205
24203
24153
24219
24218
24258
24216
24241
24278
24318
24347
24416
24466
24436
24448
24471
24463
24556
24575
24578
24582
24597
24600
24685
24745
24670
24697
24784
24769
24765
24790
24804
24782
24862
24915
24890
24931
24964
24945
24959
25043
24962
24958
25059
25107
25069
25162
25204
25137
25223
25199
25279
25216
25360
25359
25425
25410
25400
25451
25516
25482
25561
25561
25551
25603
25536
25633
25550
25665
25633
25625
25655
25688
25597
25631
25615
25600
25569
25607
25646
25620
25546
25568
25683
25596
25557
25571
25678
25631
25635
25638
25613
25732
25636
25718
25649
25629
25659
25685
25661
25546
25534
25565
25578
25487
25408
25444
25341
25346
25293
25245
25280
25239
25236
25178
25164
25110
25093
25098
25030
25067
25042
24951
24965
24869
24896
24828
24795
24865
24746
24814
24809
24689
24660
24682
24618
24676
24593
24537
24633
24579
24479
24517
24460
24495
24469
24425
24382
24470
24398
24454
24387
24414
24419
24448
24434
24481
24430
24454
24468
24358
24497
24443
24483
24459
24492
24384
24475
24491
24450
24520
24488
24408
24447
24470
24410
24404
24392
24374
24380
24397
24395
24453
24430
24447
24430
24522
24450
24431
24464
24423
24491
24537
24538
24500
24613
24554
24620
24648
24642
24612
24607
24636
24746
24655
24617
24729
24669
24703
24832
24833
24771
24827
24842
24923
24916
24812
24954
24932
24941
25001
24969
24953
25074
24989
25021
25048
25091
25022
25116
25128
25063
25091
25148
25108
25055
25075
25131
25132
25160
25122
25074
25115
25061
25089
25063
25133
25038
25124
25075
25035
25129
25142
25044
25119
25113
25076
25145
25103
25104
25112
25090
25142
25198
25141
25128
25160
25202
25159
25147
25148
25068
25078
25065
25095
25040
24991
24952
24946
25016
24926
24993
24964
24972
24910
24948
24911
24943
24925
25006
24951
24937
25015
25067
25027
25061
25074
25115
25043
25043
25102
25057
25111
25025
25036
25126
25093
25025
25055
25076
24964
24969
24939
24941
24807
24859
24750
24759
24662
24572
24492
24520
24407
24333
24341
24267
24169
24133
24136
24094
24061
24025
24008
23949
23953
23933
23930
23853
23818
23891
23789
23860
23809
23795
23695
23687
23673
23705
23661
23609
23658
23627
23554
23573
23660
23589
23617
23671
23636
23633
23658
23769
23705
23816
23814
23823
23862
23851
23966
23912
24038
24009
23991
24003
24056
24055
24073
24073
24109
24040
24129
24149
24073
24139
24221
24113
24162
24237
24175
24248
24223
24277
24246
24288
24335
24420
24407
24506
24569
24592
24584
24637
24621
24711
24716
24740
24690
24820
24769
24807
24783
24842
24873
24877
24914
24859
24838
24868
24821
24797
24767
24728
24777
24774
24664
24753
24648
24588
24740
24706
24689
24611
24707
24717
24696
24772
24724
24759
24762
24762
24740
24849
24812
24803
24820
24934
24944
24981
24935
24998
24955
24947
25050
25109
25109
25113
25120
25089
25138
25187
25134
25166
25132
25112
25080
25043
25135
25092
25116
25105
25107
25129
25169
25202
25332
25293
25331
25300
25344
25368
25453
25427
25390
25288
25364
25384
25279
25197
25204
25191
25022
25003
25030
24887
24941
24835
24753
24746
24717
24630
24676
24628
24623
24539
24608
24486
24474
24454
24391
24340
24281
24288
24282
24202
24283
24228
24147
24182
24136
24099
24111
24177
24115
24199
24202
24199
24152
24194
24252
24197
24290
24298
24355
24327
24409
24373
24448
24365
24440
24419
24464
24577
24548
24471
24513
24541
24553
24608
24545
24530
24615
24624
24583
24591
24589
24638
24615
24672
24630
24606
24619
24607
24572
24614
24704
24674
24647
24738
24687
24723
24723
24738
24762
24678
24800
24709
24808
24732
24816
24889
24764
24885
24850
24807
24782
24768
24808
24808
24858
24873
24922
24885
24890
24827
24834
24806
24865
24778
24820
24871
24827
24841
24866
24916
24868
24852
24860
24857
24958
24927
24859
24865
24862
24842
24876
24847
24916
24822
24828
24824
24799
24850
24901
24849
24888
24812
24795
24840
24887
24840
24763
24864
24762
24815
24814
24872
24894
24847
24935
24980
24967
24951
24946
25022
24947
24961
25018
25028
25002
25044
25089
25049
25063
24990
24989
24949
24833
24845
24806
24728
24642
24616
24567
24473
24463
24433
24316
24379
24251
24267
24215
24215
24130
24073
24062
24033
24046
24010
23924
23855
23884
23873
23802
23778
23752
23719
23770
23656
23691
23715
23726
23733
23658
23616
23586
23580
23586
23675
23651
23624
23698
23750
23675
23802
23796
23733
23828
23834
23857
23884
23936
23997
23992
23966
24124
24115
24159
24104
24180
24161
24267
24234
24201
24260
24238
24312
24334
24392
24374
24425
24408
24375
24370
24409
24439
24367
24396
24447
24405
24548
24576
24541
24544
24500
24567
24541
24580
24601
24562
24635
24596
24639
24741
24656
24773
24778
24755
24757
24794
24875
24903
24876
24904
24969
24943
24928
24930
25049
25013
24995
25006
24994
25078
25047
25083
25088
25037
25076
25059
25092
25100
25006
25112
25109
25034
25145
25163
25123
25121
25087
25118
25159
25186
25198
25180
25200
25140
25199
25256
25213
25201
25155
25125
25173
25253
25238
25240
25175
25142
25187
25119
25119
25230
25139
25180
25138
25276
25234
25165
25205
25213
25199
25240
25253
25228
25285
25209
25184
25264
25241
25256
25294
25284
25306
25350
25350
25357
25310
25298
25339
25272
25357
25358
25314
25352
25361
25400
25301
25365
25363
25291
25287
25312
25281
25333
25313
25288
25212
25319
25201
25263
25219
25226
25198
25236
25237
25260
25248
25230
25301
25241
25292
25326
25308
25257
25260
25283
25329
25268
25291
25371
25383
25297
25324
25368
25287
25366
25309
25314
25386
25354
25392
25319
25390
25424
25350
25318
25464
25389
25451
25378
25438
25408
25415
25479
25494
25502
25490
25515
25431
25456
25494
25491
25526
25420
25471
25444
25452
25471
25455
25388
25301
25361
25319
25254
25105
25080
25077
25024
24880
24819
24780
24706
24656
24506
24529
24400
24438
24297
24287
24291
24268
24068
24084
24056
24058
23959
24047
23944
23959
23890
23951
23963
23895
23908
23938
23846
23889
23844
23851
23869
23879
23900
23864
23893
23877
23847
23898
23896
23936
23908
23910
23858
23894
23950
24020
23933
23958
23992
24067
24087
24125
24145
24137
24122
24183
24191
24101
24188
24219
24165
24199
24301
24247
24206
24273
24237
24327
