28382
28220
28076
27954
27857
27789
27755
27751
27775
27825
27896
27981
28081
28197
28322
28453
28595
28742
28882
29012
29133
29246
29354
29454
29535
29593
29633
29656
29667
29661
29635
29594
29546
29492
29424
29345
29257
29164
29066
28967
28868
28767
28664
28560
28450
28333
28215
28098
27985
27876
27773
27671
27571
27475
27378
27282
27189
27098
27012
26934
26863
26794
26727
26667
26615
26567
26519
26482
26455
26430
26403
26375
26344
26317
26298
26286
26275
26261
26244
26229
26220
26210
26198
26187
26175
26160
26140
26114
26079
26034
25982
25933
25884
25826
25762
25699
25636
25578
25529
25487
25450
25433
25451
25509
25617
25780
25999
26278
26616
27004
27433
27889
28353
28813
29268
29711
30124
30492
30819
31111
31364
31574
31742
31867
31952
32002
32015
31990
31932
31849
31746
31624
31485
31334
31175
31010
30837
30659
30483
30310
30136
29969
29804
29633
29458
29285
29115
28948
28789
28641
28511
28406
28330
28279
28250
28244
28263
28310
28378
28462
28560
28679
28816
28958
29096
29234
29371
29502
29622
29730
29823
29901
29961
30001
30023
30030
30023
30001
29967
29922
29871
29813
29745
29668
29582
29489
29391
29287
29183
29081
28979
28879
28785
28696
28608
28519
28425
28322
28215
28111
28012
27914
27817
27724
27638
27558
27481
27403
27330
27265
27203
27149
27106
27067
27033
27004
26975
26946
26919
26896
26874
26854
26833
26812
26795
26781
26762
26742
26729
26717
26703
26691
26679
26660
26636
26605
26563
26513
26456
26389
26318
26249
26187
26133
26080
26026
25977
25937
25911
25903
25925
25990
26106
26271
26490
26761
27078
27436
27828
28247
28678
29109
29530
29932
30314
30668
30990
31271
31505
31695
31844
31952
32020
32053
32050
32014
31951
31864
31756
31631
31489
31339
31190
31040
30879
30711
30545
30379
30208
30034
29860
29681
29497
29313
29130
28951
28781
28628
28492
28379
28296
28243
28215
28210
28228
28263
28319
28393
28476
28569
28676
28790
28910
29040
29171
29292
29399
29492
29572
29638
29688
29717
29730
29735
29733
29719
29684
29635
29578
29518
29449
29369
29276
29178
29078
28973
28863
28751
28635
28515
28395
28283
28177
28070
27961
27854
27750
27644
27543
27446
27348
27251
27161
27075
26991
26911
26831
26754
26681
26611
26541
26473
26407
26343
26288
26241
26198
26160
26135
26121
26110
26096
26082
26069
26060
26055
26048
26034
26019
26004
25986
25964
25937
25904
25865
25822
25774
25719
25663
25606
25544
25482
25422
25363
25304
25253
25217
25195
25193
25222
25291
25404
25572
25804
26098
26447
26844
27276
27725
28175
28619
29053
29470
29852
30194
30500
30768
30990
31164
31291
31377
31425
31443
31433
31392
31322
31230
31121
30994
30851
30693
30528
30363
30193
30022
29849
29675
29499
29320
29138
28953
28766
28578
28391
28208
28035
27878
27743
27627
27533
27474
27455
27467
27500
27553
27628
27724
27841
27971
28102
28235
28372
28511
28646
28771
28883
28984
29072
29145
29204
29250
29281
29293
29289
29273
29247
29208
29156
29092
29017
28934
28851
28769
28682
28587
28489
28385
28278
28174
28069
27963
27858
27755
27656
27560
27462
27359
27259
27164
27070
26981
26902
26829
26759
26693
26632
26577
26527
26479
26432
26383
26334
26291
26251
26210
26169
26132
26095
26062
26031
26001
25975
25953
25932
25915
25899
25881
25863
25848
25830
25801
25762
25714
25656
25598
25542
25486
25429
25373
25319
25269
25226
25191
25169
25172
25211
25288
25411
25593
25836
26130
26469
26851
27266
27698
28137
28571
28989
29384
29752
30090
30394
30662
30893
31086
31238
31347
31416
31452
31458
31435
31385
31312
31211
31085
30950
30812
30669
30516
30356
30191
30023
29855
29689
29516
29336
29153
28968
28780
28593
28412
28245
28101
27980
27881
27813
27777
27771
27793
27837
27898
27978
28077
28187
28306
28436
28575
28717
28860
28996
29117
29226
29316
29384
29438
29479
29504
29512
29510
29500
29478
29446
29399
29338
29269
29200
29131
29056
28974
28883
28791
28701
28611
28521
28431
28336
28234
28130
28030
27936
27841
27745
27654
27567
27488
27422
27363
27303
27240
27176
27112
27049
26987
26925
26866
26805
26744
26690
26646
26604
26565
26533
26506
26485
26469
26455
26438
26423
26414
26412
26412
26410
26407
26410
26416
26416
26412
26405
26390
26365
26331
26288
26237
26178
26116
26054
25990
25923
25862
25808
25757
25709
25658
25608
25568
25545
25550
25598
25698
25857
26086
26384
26739
27137
27575
28044
28526
29007
29473
29913
30329
30723
31087
31410
31689
31925
32118
32264
32365
32426
32448
32433
32385
32311
32215
32102
31968
31816
31660
31503
31339
31171
31009
30849
30686
30525
30368
30207
30040
29872
29706
29543
29388
29244
29113
29000
28914
28856
28823
28811
28822
28859
28914
28981
29058
29150
29259
29377
29500
29625
29747
29865
29977
30077
30160
30229
30289
30340
30379
30406
30419
30418
30402
30364
30308
30243
30167
30080
29988
29892
29789
29681
29573
29463
29354
29249
29147
29048
28951
28852
28754
28655
28554
28454
28362
28277
28198
28123
28054
27991
27930
27868
27807
27748
27690
27636
27587
27539
27489
27447
27411
27378
27350
27328
27315
27304
27294
27287
27281
27273
27266
27262
27261
27264
27270
27271
27259
27234
27203
27164
27115
27061
27010
26964
26922
26876
26821
26762
26700
26632
26562
26491
26418
26345
26280
26222
26170
26128
26110
26123
26174
26268
26417
26634
26915
27249
27633
28059
28507
28967
29431
29886
30321
30731
31107
31445
31740
31991
32198
32361
32478
32550
32589
32596
32566
32506
32428
32337
32229
32105
31969
31823
31671
31515
31359
31199
31037
30874
30709
30538
30368
30197
30022
29846
29676
29521
29386
29274
29181
29106
29052
29020
29007
29017
29055
29118
29196
29292
29402
29519
29638
29761
29886
30007
30120
30223
30308
30381
30448
30506
30549
30573
30580
30572
30552
30517
30469
30411
30339
30257
30170
30080
29988
29888
29782
29677
29571
29460
29350
29244
29131
29018
28913
28812
28711
28615
28524
28436
28348
28260
28170
28081
28000
27924
27852
27785
27719
27657
27606
27561
27513
27459
27410
27369
27334
27303
27277
27252
27227
27208
27192
27174
27154
27137
27122
27110
27101
27095
27092
27089
27080
27062
27037
27005
26966
26922
26876
26826
26766
26700
26632
26557
26474
26392
26312
26231
26150
26067
25986
25914
25860
25827
25819
25852
25944
26103
26327
26616
26964
27362
27794
28249
28718
29189
29646
30076
30470
30827
31146
31417
31644
31830
31975
32080
32153
32195
32203
32176
32121
32040
31932
31805
31662
31505
31339
31174
31006
30830
30655
30483
30311
30136
29961
29787
29611
29424
29231
29047
28880
28728
28589
28463
28364
28294
28249
28227
28229
28252
28294
28360
28449
28553
28663
28780
28908
29036
29153
29259
29357
29445
29519
29578
29625
29657
29671
29671
29659
29636
29604
29558
29495
29422
29345
29262
29167
29066
28964
28858
28745
28628
28508
28388
28264
28138
28012
27888
27770
27658
27551
27451
27358
27266
27176
27087
26999
26911
26824
26741
26659
26577
26499
26431
26368
26310
26255
26201
26146
26095
26050
26008
25977
25957
25943
25932
25926
25926
25926
25919
25907
25893
25882
25870
25855
25837
25821
25806
25781
25748
25718
25690
25655
25615
25572
25520
25456
25389
25321
25249
25172
25090
25010
24930
24853
24782
24720
24671
24649
24672
24751
24890
25094
25366
25703
26098
26543
27024
27520
28007
28481
28939
29370
29762
30107
30414
30685
30911
31088
31217
31304
31351
31363
31343
31293
31216
31118
31007
30881
30739
30588
30427
30255
30078
29901
29721
29539
29360
29179
28990
28795
28597
28397
28198
28003
27814
27640
27490
27368
27278
27225
27207
27216
27246
27298
27371
27463
27574
27696
27819
27944
28076
28212
28348
28476
28588
28687
28771
28838
28890
28928
28946
28949
28939
28913
28877
28826
28759
28684
28604
28517
28429
28339
28241
28139
28040
27938
27828
27717
27606
27493
27382
27274
27169
27066
26962
26859
26760
26658
26551
26442
26338
26242
26150
26065
25990
25926
25867
25813
25764
25719
25680
25650
25628
25608
25585
25560
25540
25521
25502
25488
25477
25465
25454
25448
25439
25427
25415
25400
25380
25361
25343
25325
25303
25271
25227
25183
25141
25095
25045
24991
24932
24870
24805
24739
24675
24615
24565
24532
24529
24572
24670
24828
25050
25339
25689
26086
26521
26979
27445
27914
28374
28808
29213
29591
29932
30230
30487
30702
30870
30991
31075
31126
31144
31130
31089
31020
30928
30822
30702
30562
30406
30242
30075
29907
29735
29557
29378
29200
29020
28840
28658
28470
28279
28092
27914
27746
27588
27451
27343
27265
27217
27205
27224
27264
27325
27406
27499
27602
27717
27841
27969
28101
28232
28359
28477
28580
28667
28743
28809
28862
28899
28914
28901
28872
28836
28795
28748
28688
28617
28537
28449
28352
28249
28144
28035
27925
27819
27721
27620
27515
27410
27305
27199
27095
26999
26909
26820
26727
26632
26539
26452
26372
26294
26215
26135
26060
25993
25936
25881
25825
25777
25741
25711
25683
25660
25636
25612
25590
25572
25554
25541
25531
25524
25519
25516
25515
25513
25508
25500
25491
25478
25458
25431
25400
25368
25332
25287
25237
25186
25132
25079
25030
24984
24936
24888
24849
24826
24818
24832
24883
24988
25154
25385
25675
26014
26405
26845
27318
27803
28286
28758
29208
29629
30017
30369
30679
30945
31169
31355
31499
31599
31653
31668
31657
31621
31556
31467
31360
31238
31103
30963
30816
30661
30500
30335
30168
29998
29827
29652
29472
29290
29111
28932
28752
28575
28410
28260
28127
28014
27926
27872
27853
27859
27889
27942
28013
28099
28201
28321
28453
28590
28728
28868
28998
29115
29223
29321
29404
29473
29531
29574
29599
29608
29603
29585
29555
29509
29447
29375
29300
29223
29142
29053
28956
28855
28755
28657
28555
28442
28328
28221
28118
28013
27911
27809
27701
27592
27485
27377
27273
27184
27109
27044
26983
26922
26863
26807
26753
26700
26649
26601
26558
26519
26483
26446
26406
26368
26337
26313
26297
26287
26279
26276
26278
26280
26276
26270
26269
26273
26281
26279
26262
26245
26233
26223
26209
26187
26154
26114
26070
26023
25968
25906
25842
25777
25709
25637
25564
25496
25432
25379
25353
25366
25428
25546
25725
25968
26276
26641
27061
27528
28022
28524
29026
29515
29980
30415
30808
31148
31440
31692
31905
32075
32197
32275
32315
32323
32300
32245
32161
32055
31932
31797
31652
31498
31339
31179
31010
30834
30661
30494
30333
30176
30015
29847
29675
29500
29327
29164
29016
28881
28764
28667
28589
28536
28517
28527
28560
28609
28678
28764
28866
28976
29089
29211
29343
29479
29610
29732
29841
29940
30032
30109
30166
30205
30230
30239
30238
30222
30189
30145
30091
30020
29938
29855
29767
29674
29581
29484
29377
29264
29149
29030
28910
28793
28674
28553
28434
28321
28219
28124
28030
27934
27841
27754
27670
27588
27511
27440
27372
27307
27246
27189
27135
27085
27035
26984
26938
26902
26870
26841
26815
26792
26778
26774
26769
26759
26753
26747
26738
26733
26727
26716
26702
26691
26681
26670
26656
26633
26599
26565
26535
26501
26455
26401
26343
26280
26208
26128
26044
25962
25884
25807
25734
25674
25633
25615
25635
25709
25846
26055
26332
26670
27061
27497
27966
28457
28958
29452
29926
30375
30789
31158
31486
31772
32007
32192
32332
32432
32490
32511
32502
32463
32393
32298
32183
32044
31887
31721
31550
31372
31185
30992
30800
30610
30420
30230
30043
29860
29675
29487
29300
29118
28944
28784
28641
28515
28414
28344
28301
28287
28298
28329
28381
28454
28541
28645
28763
28886
29013
29147
29280
29404
29518
29621
29711
29786
29843
29884
29908
29914
29904
29879
29839
29787
29724
29651
29567
29471
29368
29263
29157
29048
28933
28818
28697
28571
28445
28319
28188
28056
27933
27818
27704
27589
27474
27362
27255
27157
27063
26970
26884
26810
26740
26667
26591
26518
26456
26403
26351
26298
26247
26197
26147
26101
26064
26039
26019
25998
25976
25953
25927
25901
25881
25865
25848
25832
25819
25807
25791
25774
25759
25745
25727
25709
25687
25658
25620
25574
25520
25461
25395
25317
25233
25146
25056
24971
24889
24804
24718
24646
24596
24572
24583
24642
24762
24952
25220
25561
25967
26423
26914
27434
27971
28506
29025
29513
29957
30348
30689
30982
31230
31430
31583
31694
31763
31793
31793
31767
31715
31638
31535
31405
31252
31088
30919
30745
30562
30368
30176
29987
29796
29602
29407
29209
29008
28806
28605
28408
28220
28041
27871
27715
27585
27485
27421
27395
27403
27440
27509
27603
27709
27831
27968
28113
28265
28423
28581
28732
28874
29003
29117
29219
29310
29388
29452
29494
29511
29513
29504
29477
29432
29378
29316
29244
29163
29074
28972
28858
28742
28624
28504
28378
28251
28124
27995
27863
27733
27608
27484
27358
27239
27130
27031
26938
26847
26758
26671
26586
26503
26421
26344
26273
26207
26147
26089
26035
25993
25958
25925
25893
25868
25849
25832
25812
25792
25774
25760
25754
25748
25739
25732
25727
25721
25711
25695
25671
25647
25625
25596
25563
25526
25481
25426
25367
25307
25243
25178
25116
25057
24998
24940
24891
24853
24833
24845
24905
25021
25202
25455
25779
26160
26584
27043
27537
28047
28550
29030
29482
29901
30279
30614
30908
31152
31346
31495
31602
31665
31687
31674
31632
31561
31461
31337
31198
31047
30884
30710
30527
30335
30138
29942
29746
29547
29349
29147
28937
28720
28500
28275
28050
27834
27631
27452
27303
27185
27101
27061
27061
27090
27145
27229
27339
27467
27609
27766
27930
28097
28261
28418
28564
28701
28828
28943
29041
29121
29181
29224
29250
29254
29236
29205
29160
29102
29036
28959
28868
28772
28672
28566
28455
28339
28216
28088
27963
27844
27729
27613
27503
27403
27313
27223
27127
27024
26924
26829
26728
26619
26512
26411
26313
26224
26145
26071
26004
25945
25897
25855
25812
25772
25740
25715
25696
25682
25669
25657
25650
25640
25625
25611
25598
25583
25565
25538
25504
25473
25445
25417
25387
25351
25305
25260
25224
25195
25165
25132
25095
25062
25032
25003
24981
24987
25034
25131
25287
25510
25802
26157
26568
27021
27504
28006
28515
29012
29483
29922
30319
30677
30994
31266
31495
31681
31818
31907
31959
31977
31961
31914
31838
31734
31608
31470
31321
31160
30985
30796
30607
30421
30232
30039
29846
29651
29452
29250
29049
28850
28652
28460
28276
28105
27956
27835
27743
27683
27653
27655
27692
27758
27842
27944
28065
28200
28347
28502
28661
28824
28984
29133
29270
29397
29508
29602
29681
29740
29774
29789
29789
29779
29761
29728
29677
29612
29535
29449
29357
29258
29153
29047
28943
28839
28732
28623
28512
28394
28275
28157
28039
27925
27818
27714
27612
27513
27417
27324
27235
27149
27068
26993
26918
26845
26782
26727
26676
26627
26583
26541
26503
26470
26442
26416
26390
26365
26344
26328
26308
26287
26269
26250
26231
26216
26202
26182
26153
26119
26085
26046
26000
25951
25903
25854
25810
25781
25761
25746
25740
25746
25776
25847
25967
26141
26376
26668
27014
27411
27850
28311
28782
29257
29719
30154
30558
30928
31261
31553
31800
31999
32152
32263
32336
32374
32378
32354
32306
32234
32136
32014
31874
31722
31561
31390
31211
31028
30837
30643
30453
30266
30077
29891
29705
29516
29325
29135
28944
28759
28590
28445
28333
28256
28210
28195
28213
28261
28332
28428
28545
28675
28814
28961
29112
29263
29408
29546
29675
29794
29902
29997
30075
30131
30169
30190
30196
30191
30170
30133
30087
30031
29961
29884
29805
29716
29617
29517
29411
29298
29183
29063
28935
28806
28684
28564
28442
28323
28212
28107
28000
27894
27792
27700
27614
27530
27450
27375
27306
27238
27174
27117
27064
27016
26974
26936
26900
26874
26855
26835
26812
26783
26753
26724
26697
26672
26645
26618
26590
26560
26532
26508
26482
26448
26411
26377
26337
26285
26225
26161
26092
26022
25955
25893
25837
25793
25768
25773
25814
25902
26042
26239
26502
26829
27207
27618
28055
28509
28965
29412
29840
30243
30617
30954
31246
31490
31692
31855
31979
32065
32118
32133
32109
32060
31990
31896
31777
31642
31495
31340
31186
31032
30868
30694
30519
30345
30167
29982
29790
29593
29393
29193
29002
28824
28656
28501
28368
28264
28193
28149
28133
28149
28189
28249
28334
28437
28551
28676
28810
28948
29088
29222
29346
29458
29560
29655
29736
29801
29848
29877
29892
29890
29869
29834
29791
29742
29681
29608
29529
29444
29352
29256
29157
29055
28951
28844
28733
28617
28500
28383
28267
28153
28043
27937
27836
27736
27634
27534
27438
27341
27246
27158
27075
26995
26919
26845
26774
26711
26656
26604
26553
26505
26464
26433
26406
26376
26348
26329
26313
26294
26273
26258
26248
26239
26230
26221
26209
26194
26175
26150
26118
26083
26049
26011
25970
25929
25887
25850
25816
25777
25736
25703
25685
25689
25726
25806
25933
26113
26355
26661
27026
27438
27881
28341
28809
29275
29728
30151
30539
30889
31197
31462
31686
31872
32018
32121
32182
32206
32197
32160
32095
32004
31887
31749
31600
31447
31285
31115
30936
30748
30556
30361
30162
29960
29759
29549
29330
29112
28902
28702
28519
28358
28219
28107
28023
27967
27939
27941
27975
28037
28120
28221
28339
28472
28613
28756
28898
29042
29186
29321
29444
29559
29663
29749
29812
29853
29872
29877
29871
29850
29815
29768
29709
29637
29558
29469
29374
29280
29190
29098
29000
28897
28786
28671
28558
28445
28331
28220
28120
28032
27948
27861
27769
27675
27586
27508
27434
27358
27280
27206
27135
27067
27003
26945
26891
26835
26781
26732
26689
26645
26604
26569
26543
26523
26501
26478
26456
26436
26417
26399
26380
26360
26343
26322
26292
26258
26225
26192
26160
26126
26088
26051
26018
25983
25943
25903
25872
25855
25854
25885
25960
26080
26248
26473
26761
27106
27502
27940
28399
28864
29330
29786
30220
30628
31008
31351
31646
31898
32108
32273
32391
32470
32512
32518
32496
32445
32367
32263
32132
31981
31822
31661
31492
31313
31127
30938
30748
30562
30373
30177
29980
29784
29589
29396
29205
29022
28857
28713
28596
28510
28454
28427
28430
28460
28519
28602
28701
28818
28952
29094
29241
29394
29550
29699
29839
29965
30076
30170
30254
30326
30380
30408
30410
30398
30375
30337
30284
30220
30147
30069
29987
29897
29798
29693
29588
29488
29387
29281
29171
29063
28955
28845
28734
28624
28517
28414
28320
28230
28137
28044
27954
27868
27786
27707
27631
27558
27486
27417
27357
27308
27260
27208
27155
27109
27070
27040
27013
26985
26962
26949
26941
26929
26914
26902
26897
26897
26895
26891
26887
26879
26862
26837
26809
26772
26725
26676
26627
26572
26519
26471
26430
26389
26345
26300
26267
26249
26251
26288
26370
26502
26692
26949
27273
27652
28073
28521
28988
29462
29933
30392
30826
31223
31578
31890
32156
32376
32552
32684
32770
32815
32827
32811
32771
32705
32612
32498
32367
32225
32073
31910
31741
31564
31380
31195
31007
30816
30626
30433
30234
30033
29832
29634
29444
29271
29120
28995
28893
28812
28761
28742
28754
28794
28860
28946
29046
29156
29280
29418
29563
29713
29866
30009
30137
30253
30358
30446
30517
30570
30606
30626
30630
30616
30589
30549
30495
30429
30354
30268
30172
30072
29966
29854
29743
29631
29511
29392
29279
29172
29063
28947
28826
28710
28601
28493
28385
28277
28170
28064
27963
27867
27774
27684
27603
27528
27458
27388
27321
27262
27211
27162
27115
27075
27040
27010
26987
26971
26961
26950
26940
26932
26918
26897
26878
26861
26846
26832
26814
26786
26755
26731
26713
26696
26669
26630
26583
26529
26469
26405
26340
26274
26207
26142
26078
26015
25963
25932
25926
25954
26033
26169
26369
26637
26968
27356
27792
28257
28738
29222
29699
30161
30596
30997
31359
31673
31935
32153
32331
32469
32564
32616
32626
32598
32538
32452
32346
32218
32066
31903
31737
31563
31382
31197
31012
30827
30642
30455
30262
30065
29871
29679
29488
29297
29112
28941
28786
28649
28538
28459
28412
28398
28410
28445
28505
28585
28688
28815
28957
29109
29267
29423
29569
29701
29823
29936
30037
30124
30197
30253
30287
30300
30297
30284
30258
30223
30176
30112
30039
29964
29885
29798
29706
29606
29495
29376
29254
29130
29005
28878
28740
28592
28443
28293
28143
27998
27861
27729
27605
27486
27373
27269
27177
27089
26999
26907
26819
26742
26676
26616
26560
26511
26469
26429
26393
26364
26337
26316
26303
26295
26288
26283
26285
26294
26300
26298
26290
26274
26255
26236
26217
26195
26167
26130
26084
26033
25971
25902
25833
25762
25691
25621
25549
25472
25400
25343
25305
25285
25288
25328
25423
25579
25801
26089
26442
26851
27303
27782
28276
28776
29265
29731
30170
30573
30929
31235
31491
31693
31848
31964
32037
32073
32073
32038
31974
31884
31771
31645
31507
31359
31201
31033
30857
30675
30490
30311
30137
29953
29759
29559
29354
29150
28955
28764
28572
28388
28223
28085
27979
27903
27858
27841
27853
27890
27952
28041
28148
28271
28408
28553
28703
28858
29019
29175
29320
29447
29557
29652
29729
29789
29831
29854
29858
29846
29817
29770
29708
29630
29543
29455
29360
29254
29143
29028
28910
28796
28685
28576
28465
28352
28241
28128
28013
27904
27800
27694
27584
27472
27359
27245
27132
27028
26937
26856
26775
26696
26623
26555
26493
26435
26382
26335
26293
26259
26232
26206
26181
26162
26144
26125
26109
26095
26076
26053
26030
26010
25992
25967
25935
25905
25878
25847
25815
25783
25745
25700
25651
25600
25545
25484
25416
25344
25270
25198
25139
25099
25082
25091
25139
25240
25401
25625
25922
26287
26704
27158
27643
28142
28642
29128
29587
30010
30397
30750
31063
31329
31540
31700
31817
31894
31933
31933
31897
31824
31723
31605
31473
31330
31178
31018
30852
30683
30506
30323
30139
29950
29755
29556
29357
29155
28951
28748
28548
28354
28174
28015
27884
27779
27700
27654
27644
27662
27701
27765
27851
27958
28084
28227
28377
28528
28681
28835
28985
29126
29255
29369
29466
29542
29592
29622
29634
29630
29610
29577
29533
29475
29410
29343
29271
29189
29101
29003
28892
28776
28659
28539
28418
28295
28171
28049
27933
27817
27705
27600
27494
27382
27274
27173
27078
26991
26907
26822
26742
26672
26608
26546
26484
26427
26376
26327
26274
26224
26184
26150
26118
26087
26061
26039
26024
26014
26011
26009
26003
25995
25992
25988
25982
25977
25971
25959
25939
25907
25865
25821
25777
25728
25674
25615
25551
25486
25422
25361
25305
25261
25228
25214
25236
25303
25422
25598
25840
26148
26517
26933
27387
27874
28376
28870
29345
29796
30210
30585
30923
31219
31472
31682
31846
31966
32043
32078
32080
32051
31986
31888
31765
31621
31469
31314
31154
30986
30808
30623
30439
30259
30082
29899
29706
29502
29295
29089
28886
28689
28505
28339
28191
28065
27963
27891
27852
27845
27863
27908
27979
28074
28184
28306
28441
28583
28725
28868
29010
29141
29262
29374
29472
29558
29632
29687
29720
29731
29723
29701
29664
29609
29538
29460
29377
29291
29200
29105
29004
28897
28787
28676
28563
28443
28323
28207
28093
27981
27875
27771
27665
27561
27462
27364
27268
27172
27075
26984
26897
26808
26725
26649
26578
26512
26458
26410
26366
26331
26302
26269
26235
26207
26187
26172
26151
26123
26097
26076
26049
26020
25992
25965
25938
25914
25891
25863
25834
25805
25772
25732
25685
25633
25583
25536
25490
25449
25410
25367
25326
25299
25294
25322
25394
25520
25707
25950
26250
26612
27024
27474
27953
28442
28921
29381
29819
30226
30594
30914
31186
31416
31608
31760
31871
31947
31988
31990
31957
31894
31802
31689
31565
31431
31280
31114
30942
30766
30583
30399
30218
30034
29847
29655
29457
29258
29058
28856
28662
28480
28306
28146
28013
27912
27840
27804
27800
27819
27862
27936
28039
28158
28288
28426
28572
28720
28864
29003
29137
29262
29374
29474
29555
29610
29642
29656
29651
29622
29577
29522
29464
29401
29329
29247
29157
29047
28912
28760
28597
28418
28230
28044
27864
27692
27532
27386
27253
27125
27005
26901
26810
26718
26620
26523
26433
26349
26271
26201
26134
26072
26015
25960
25904
25852
25807
25769
25735
25700
25664
25635
25611
25587
25569
25555
25534
25514
25497
25481
25468
25459
25444
25423
25399
25372
25340
25304
25260
25207
25154
25104
25053
25005
24964
24927
24894
24872
24867
24878
24914
24986
25111
25298
25547
25858
26227
26646
27097
27565
28039
28503
28946
29362
29743
30080
30375
30635
30858
31040
31179
31275
31328
31342
31323
31282
31220
31131
31015
30883
30737
30576
30408
30236
30063
29890
29716
29542
29366
29184
28996
28807
28614
28416
28222
28037
27863
27704
27568
27464
27394
27353
27335
27343
27375
27432
27512
27612
27727
27851
27979
28112
28248
28383
28515
28638
28746
28840
28925
29002
29063
29102
29126
29134
29128
29112
29083
29038
28982
28920
28852
28778
28698
28610
28515
28414
28314
28218
28123
28020
27912
27808
27711
27613
27513
27413
27312
27209
27112
27026
26948
26873
26797
26717
26633
26548
26467
26395
26332
26268
26203
26149
26108
26067
26025
25987
25953
25921
25892
25865
25842
25822
25805
25788
25768
25745
25723
25703
25684
25659
25627
25592
25554
25509
25462
25418
25375
25333
25300
25279
25270
25274
25301
25361
25459
25608
25824
26104
26437
26815
27225
27654
28095
28543
28986
29414
29811
30169
30488
30772
31015
31216
31373
31482
31550
31588
31597
31576
31530
31461
31369
31253
31117
30968
30815
30653
30476
30294
30109
29917
29722
29527
29328
29125
28921
28720
28522
28331
28153
27996
27864
27753
27664
27608
27590
27604
27644
27705
27784
27882
28001
28136
28280
28426
28570
28716
28859
28993
29115
29226
29325
29407
29472
29518
29547
29562
29561
29548
29524
29484
29428
29361
29282
29197
29109
29015
28915
28812
28707
28602
28501
28402
28303
28205
28106
28005
27913
27829
27743
27650
27555
27460
27366
27281
27202
27126
27054
26990
26932
26877
26825
26775
26728
26683
26638
26600
26572
26549
26530
26511
26493
26473
26455
26441
26430
26419
26409
26396
26381
26366
26348
26324
26295
26263
26229
26195
26160
26120
26078
26040
26008
25980
25958
25951
25963
25999
26074
26197
26372
26604
26896
27243
27638
28065
28510
28964
29421
29870
30303
30709
31078
31411
31704
31955
32166
32335
32460
32549
32602
32618
32603
32559
32481
32374
32249
32112
31968
31818
31655
31483
31307
31131
30956
30783
30609
30436
30264
30090
29914
29742
29577
29422
29282
29157
29053
28975
28924
28899
28901
28927
28975
29047
29136
29235
29343
29463
29593
29725
29857
29987
30111
30226
30332
30425
30501
30563
30614
30650
30665
30663
30645
30616
30579
30526
30455
30375
30295
30214
30129
30036
29936
29834
29729
29620
29507
29394
29284
29176
29073
28969
28865
28767
28671
28575
28488
28407
28324
28241
28161
28078
27998
27925
27855
27791
27736
27688
27649
27618
27585
27550
27522
27498
27472
27445
27418
27386
27357
27340
27329
27317
27300
27283
27267
27251
27226
27192
27156
27117
27076
27034
26992
26947
26902
26861
26820
26777
26741
26719
26713
26733
26786
26881
27031
27239
27502
27817
28179
28572
28986
29419
29861
30294
30705
31091
31449
31772
32058
32304
32510
32674
32799
32883
32932
32950
32937
32899
32839
32757
32655
32539
32408
32261
32105
31947
31781
31610
31442
31273
31096
30920
30745
30566
30383
30198
30014
29841
29685
29548
29435
29348
29285
29248
29242
29263
29300
29347
29412
29503
29612
29733
29863
29995
30127
30258
30382
30490
30584
30662
30722
30768
30803
30822
30826
30819
30799
30767
30726
30674
30608
30530
30442
30342
30234
30127
30021
29911
29798
29680
29555
29430
29309
29190
29073
28950
28823
28703
28590
28480
28375
28271
28166
28064
27973
27889
27806
27725
27653
27591
27537
27483
27426
27373
27325
27282
27247
27225
27208
27191
27172
27149
27120
27093
27072
27058
27047
27032
27012
26994
26974
26944
26915
26888
26857
26817
26766
26707
26648
26598
26556
26512
26461
26412
26374
26345
26332
26347
26402
26501
26652
26859
27126
27450
27821
28225
28650
29089
29528
29957
30372
30762
31122
31452
31747
32001
32212
32382
32509
32595
32642
32653
32633
32587
32516
32424
32310
32170
32011
31848
31682
31511
31339
31168
31001
30837
30676
30521
30367
30205
30035
29863
29689
29520
29366
29231
29112
29010
28931
28884
28870
28882
28914
28967
29036
29119
29221
29335
29454
29577
29703
29826
29942
30048
30142
30225
30290
30340
30385
30424
30448
30451
30435
30404
30365
30325
30283
30231
30168
30095
30013
29924
29831
29738
29642
29541
29436
29330
29226
29125
29029
28937
28850
28763
28672
28579
28490
28404
28326
28256
28190
28125
28066
28011
27954
27900
27851
27809
27771
27729
27684
27641
27608
27582
27558
27537
27516
27495
27480
27469
27459
27445
27430
27417
27405
27390
27374
27358
27340
27315
27283
27246
27206
27167
27130
27091
27048
26996
26935
26872
26809
26745
26684
26627
26567
26504
26450
26413
26398
26414
26472
26585
26760
26999
27298
27647
28039
28464
28913
29374
29832
30278
30703
31097
31447
31753
32020
32249
32438
32586
32692
32760
32794
32796
32770
32717
32640
32547
32442
32323
32193
32056
31910
31753
31588
31420
31254
31093
30932
30764
30583
30396
30209
30027
29849
29677
29523
29400
29306
29233
29184
29163
29170
29202
29259
29338
29434
29544
29669
29803
29936
30064
30188
30308
30422
30526
30615
30690
30744
30777
30792
30790
30774
30746
30705
30652
30593
30534
30471
30399
30313
30219
30127
30038
29946
29853
29758
29663
29570
29481
29396
29307
29211
29114
29020
28928
28838
28755
28675
28592
28503
28416
28335
28262
28196
28137
28085
28038
27997
27962
27929
27895
27865
27842
27823
27809
27802
27796
27790
27783
27771
27766
27772
27776
27775
27771
27764
27753
27740
27722
27697
27670
27643
27618
27591
27555
27507
27451
27391
27326
27259
27191
27122
27053
26987
26919
26851
26791
26743
26711
26702
26726
26794
26919
27108
27358
27663
28022
28423
28856
29314
29784
30249
30700
31121
31504
31853
32170
32454
32697
32893
33044
33160
33244
33290
33302
33283
33237
33166
33071
32961
32839
32707
32570
32431
32287
32131
31972
31812
31645
31476
31308
31136
30965
30798
30628
30455
30290
30140
30019
29928
29859
29807
29781
29782
29803
29843
29901
29974
30063
30167
30283
30402
30520
30636
30751
30863
30962
31047
31119
31178
31218
31242
31249
31235
31207
31172
31127
31072
31014
30955
30896
30834
30760
30670
30579
30486
30394
30308
30226
30141
30050
29950
29844
29738
29638
29542
29449
29354
29257
29172
29099
29030
28964
28902
28838
28770
28699
28636
28583
28533
28485
28441
28401
28362
28329
28302
28278
28259
28246
28232
28216
28200
28185
28175
28169
28164
28162
28160
28157
28157
28156
28152
28142
28124
28104
28083
28056
28018
27972
27919
27860
27800
27738
27672
27600
27522
27445
27372
27300
27226
27153
27082
27016
26963
26929
26918
26938
27003
27125
27314
27566
27877
28249
28669
29117
29583
30056
30527
30987
31425
31833
32204
32537
32830
33077
33273
33423
33536
33615
33660
33676
33665
33628
33564
33478
33380
33273
33153
33017
32875
32729
32578
32421
32262
32100
31937
31776
31616
31451
31280
31109
30942
30782
30637
30512
30409
30333
30287
30269
30277
30307
30357
30422
30503
30596
30697
30809
30930
31050
31169
31281
31385
31487
31587
31678
31753
31806
31837
31860
31874
31871
31847
31809
31760
31702
31635
31558
31472
31383
31295
31204
31112
31024
30938
30847
30748
30641
30533
30427
30320
30216
30115
30014
29914
29819
29732
29651
29570
29488
29413
29346
29281
29219
29156
29091
29031
28982
28944
28910
28879
28849
28823
28800
28778
28756
28737
28722
28707
28691
28679
28673
28666
28658
28653
28648
28641
28634
28625
28608
28586
28564
28543
28517
28488
28455
28421
28380
28328
28273
28218
28155
28083
28006
27929
27852
27780
27714
27653
27598
27554
27537
27557
27619
27735
27909
28139
28428
28775
29172
29606
30065
30536
31005
31461
31891
32293
32665
33002
33300
33557
33773
33944
34065
34141
34179
34180
34152
34100
34027
33936
33831
33713
33581
33442
33299
33154
33002
32841
32675
32515
32358
32193
32020
31842
31659
31477
31305
31143
30992
30860
30753
30670
30610
30579
30578
30606
30659
30730
30815
30915
31023
31142
31269
31398
31522
31638
31747
31849
31940
32014
32077
32130
32166
32185
32188
32175
32152
32122
32085
32033
31963
31879
31791
31705
31618
31527
31436
31341
31241
31141
31040
30935
30828
30725
30624
30523
30426
30334
30247
30163
30074
29982
29896
29813
29730
29657
29589
29514
29437
29368
29306
29252
29206
29161
29113
29061
29011
28972
28944
28921
28903
28891
28884
28880
28878
28882
28886
28886
28884
28881
28873
28857
28838
28816
28788
28755
28723
28694
28666
28636
28599
28550
28494
28433
28364
28295
28226
28156
28087
28027
27976
27937
27914
27911
27945
28034
28183
28392
28656
28971
29337
29749
30186
30631
31085
31538
31975
32383
32760
33104
33410
33679
33905
34085
34222
34321
34386
34414
34408
34373
34311
34223
34115
33991
33854
33708
33552
33390
33230
33071
32909
32745
32576
32396
32205
32011
31817
31625
31438
31257
31083
30925
30793
30689
30613
30561
30530
30524
30547
30596
30665
30752
30849
30959
31082
31209
31334
31458
31584
31702
31808
31897
31968
32028
32078
32108
32122
32125
32113
32086
32048
31998
31938
31872
31795
31703
31603
31501
31404
31305
31198
31084
30976
30876
30775
30670
30566
30462
30360
30264
30164
30057
29947
29841
29736
29634
29539
29450
29367
29288
29208
29126
29048
28974
28906
28849
28796
28742
28695
28657
28625
28600
28580
28560
28540
28521
28500
28479
28460
28437
28411
28386
28364
28339
28311
28281
28250
28220
28196
28172
28144
28109
28064
28013
27959
27901
27842
27785
27732
27682
27633
27592
27564
27549
27558
27611
27712
27865
28083
28368
28706
29091
29517
29970
30439
30912
31370
31803
32206
32577
32911
33203
33451
33653
33814
33939
34031
34090
34116
34110
34075
34014
33927
33816
33684
33533
33371
33203
33031
32858
32685
32508
32328
32143
31954
31760
31562
31363
31165
30969
30781
30609
30460
30343
30259
30202
30169
30161
30180
30226
30297
30384
30489
30616
30761
30911
31059
31202
31336
31459
31576
31687
31785
31864
31929
31977
32003
32009
32000
31975
31933
31877
31811
31745
31678
31601
31517
31434
31347
31254
31160
31062
30956
30845
30730
30613
30499
30392
30293
30201
30107
30008
29916
29831
29741
29645
29550
29459
29378
29307
29240
29174
29111
29057
29011
28966
28923
28886
28858
28838
28818
28800
28783
28766
28744
28725
28708
28688
28667
28654
28645
28635
28625
28616
28605
28590
28568
28536
28496
28453
28410
28367
28320
28263
28201
28143
28092
28045
28001
27972
27964
27982
28032
28122
28259
28454
28711
29024
29384
29782
30207
30648
31095
31536
31967
32377
32757
33102
33414
33690
33929
34129
34286
34403
34481
34519
34520
34490
34430
34341
34235
34117
33988
33851
33706
33550
33386
33222
33056
32888
32714
32532
32347
32164
31978
31787
31592
31397
31210
31045
30906
30794
30712
30661
30638
30637
30658
30703
30774
30865
30976
31106
31246
31386
31522
31653
31781
31906
32029
32147
32253
32339
32404
32454
32484
32494
32487
32464
32422
32362
32295
32226
32154
32074
31985
31892
31800
31708
31613
31516
31417
31313
31208
31102
30992
30885
30784
30685
30586
30491
30398
30310
30225
30142
30063
29989
29919
29851
29787
29727
29671
29622
29576
29531
29484
29437
29400
29374
29349
29324
29303
29284
29271
29268
29269
29267
29257
29243
29229
29214
29193
29165
29137
29107
29073
29037
28995
28944
28893
28841
28785
28731
28681
28631
28587
28549
28518
28502
28502
28521
28569
28662
28811
29019
29284
29598
29954
30345
30766
31211
31664
32110
32543
32955
33340
33688
33994
34259
34481
34662
34803
34909
34981
35016
35018
34989
34932
34850
34748
34629
34496
34350
34197
34038
33874
33711
33547
33382
33215
33044
32869
32690
32503
32313
32135
31970
31819
31686
31572
31473
31398
31357
31348
31362
31396
31451
31527
31621
31727
31840
31960
32089
32220
32350
32477
32595
32705
32810
32902
32975
33029
33062
33080
33081
33064
33038
33004
32955
32892
32820
32743
32664
32580
32488
32394
32296
32194
32094
31994
31888
31783
31680
31574
31467
31365
31267
31169
31071
30978
30892
30814
30740
30666
30596
30526
30455
30390
30331
30272
30214
30158
30105
30054
30009
29973
29941
29912
29885
29856
29828
29802
29776
29752
29732
29715
29701
29691
29681
29666
29650
29629
29598
29559
29518
29480
29445
29403
29354
29305
29257
29207
29158
29114
29077
29053
29053
29081
29142
29243
29395
29601
29862
30176
30538
30936
31358
31798
32242
32675
33087
33470
33820
34136
34416
34653
34850
35008
35125
35202
35248
35265
35253
35213
35147
35056
34945
34822
34688
34545
34393
34236
34076
33913
33747
33582
33417
33246
33072
32896
32723
32554
32384
32220
32068
31930
31812
31729
31678
31648
31643
31667
31716
31786
31872
31966
32070
32186
32311
32445
32582
32710
32821
32922
33012
33087
33150
33200
33235
33253
33259
33255
33238
33204
33160
33108
33047
32977
32900
32819
32733
32639
32539
32433
32322
32209
32100
31989
31877
31770
31667
31568
31469
31369
31265
31159
31056
30960
30876
30797
30712
30628
30552
30485
30423
30363
30303
30247
30196
30152
30111
30073
30038
30008
29981
29956
29934
29918
29908
29899
29886
29873
29854
29831
29807
29784
29762
29740
29710
29678
29649
29615
29573
29530
29486
29436
29384
29333
29281
29232
29186
29137
29081
29029
28996
28996
29036
29117
29248
29438
29690
29998
30359
30763
31194
31642
32093
32532
32949
33344
33714
34051
34351
34606
34816
34985
35117
35207
35261
35280
35264
35217
35143
35049
34935
34805
34664
34514
34354
34185
34015
33842
33667
33490
33308
33117
32920
32720
32524
32333
32142
31956
31788
31643
31519
31418
31343
31291
31266
31274
31308
31358
31423
31505
31597
31700
31812
31926
32047
32171
32289
32403
32507
32590
32654
32706
32743
32763
32769
32758
32730
32692
32646
32590
32523
32447
32360
32275
32194
32111
32020
31924
31827
31728
31628
31525
31416
31305
31195
31091
30996
30903
30811
30725
30645
30564
30481
30401
30322
30243
30172
30106
30043
29984
29927
29871
29822
29778
29737
29702
29673
29648
29633
29629
29624
29615
29607
29602
29600
29602
29602
29592
29576
29564
29555
29546
29528
29500
29467
29432
29395
29358
29320
29278
29229
29178
29127
29071
29010
28953
28899
28853
28813
28782
28774
28801
28871
28993
29172
29405
29687
30017
30389
30793
31221
31656
32082
32489
32876
33240
33575
33873
34129
34343
34512
34639
34729
34786
34809
34803
34772
34721
34649
34555
34443
34316
34175
34019
33855
33688
33516
33346
33183
33017
32841
32655
32463
32265
32069
31878
31693
31519
31366
31239
31147
31085
31047
31035
31057
31108
31180
31270
31371
31481
31597
31719
31845
31971
32094
32210
32317
32411
32489
32556
32612
32650
32669
32676
32666
32636
32594
32542
32480
32415
32345
32267
32185
32095
31998
31899
31796
31687
31577
31465
31350
31232
31113
30997
30885
30772
30661
30555
30450
30347
30254
30172
30092
30012
29931
29855
29790
29732
29677
29625
29576
29522
29470
29423
29379
29340
29307
29275
29243
29215
29198
29190
29181
29171
29162
29146
29126
29108
29091
29070
29047
29021
28993
28965
28927
28878
28825
28772
28717
28664
28615
28568
28520
28471
28427
28394
28376
28383
28423
28500
28625
28806
29046
29338
29680
30067
30491
30935
31383
31829
32273
32701
33102
33471
33798
34075
34306
34498
34649
34758
34825
34849
34834
34789
34721
34638
34541
34421
34279
34128
33976
33823
33671
33517
33358
33197
33037
32875
32706
32533
32356
32175
31992
31810
31639
31491
31368
31265
31189
31144
31126
31133
31166
31215
31275
31351
31441
31543
31657
31780
31908
32039
32162
32273
32381
32483
32569
32635
32681
32707
32722
32730
32728
32711
32678
32631
32572
32500
32416
32324
32229
32128
32018
31904
31790
31673
31559
31449
31339
31227
31119
31020
30924
30826
30726
30622
30521
30424
30333
30249
30167
30083
30002
29930
29866
29807
29758
29713
29664
29617
29581
29556
29536
29512
29479
29448
29422
29400
29382
29369
29360
29351
29344
29338
29329
29323
29323
29320
29312
29298
29278
29256
29229
29195
29157
29117
29069
29013
28953
28894
28838
28786
28733
28678
28626
28590
28576
28583
28616
28691
28827
29030
29292
29610
29980
30391
30830
31285
31742
32189
32624
33043
33434
33786
34095
34363
34590
34776
34915
35009
35065
35086
35071
35026
34954
34854
34739
34614
34479
34339
34198
34054
33905
33747
33583
33421
33260
33098
32929
32752
32571
32388
32208
32042
31891
31755
31641
31548
31478
31435
31418
31427
31460
31517
31594
31681
31768
31860
31964
32082
32206
32325
32436
32540
32633
32714
32778
32829
32868
32893
32897
32881
32853
32815
32771
32719
32655
32581
32501
32416
32323
32227
32130
32028
31915
31800
31692
31591
31483
31367
31250
31138
31029
30920
30816
30716
30617
30521
30433
30346
30256
30166
30077
29987
29895
29809
29730
29656
29592
29539
29488
29434
29382
29335
29290
29248
29210
29178
29154
29135
29117
29105
29101
29100
29097
29095
29088
29076
29063
29051
29038
29025
29011
28990
28954
28904
28850
28796
28740
28683
28624
28558
28487
28414
28339
28268
28203
28148
28111
28099
28118
28182
28302
28485
28733
29042
29406
29816
30258
30718
31189
31661
32117
32545
32942
33301
33614
33882
34104
34282
34414
34502
34550
34567
34554
34512
34443
34350
34237
34109
33965
33804
33634
33462
33293
33122
32948
32778
32609
32430
32245
32059
31870
31681
31497
31317
31146
30990
30853
30745
30666
30606
30562
30543
30549
30578
30634
30714
30804
30902
31010
31126
31246
31364
31479
31588
31687
31770
31841
31900
31943
31974
31992
31995
31982
31954
31917
31874
31819
31751
31681
31607
31521
31425
31324
31218
31116
31021
30922
30816
30702
30589
30483
30383
30283
30185
30090
29997
29907
29823
29740
29655
29575
29500
29428
29353
29283
29221
29168
29122
29077
29031
28991
28957
28923
28891
28866
28842
28820
28801
28780
28762
28745
28728
28712
28695
28676
28664
28658
28650
28635
28616
28597
28579
28559
28533
28496
28445
28387
28327
28264
28196
28126
28060
27996
27931
27867
27804
27746
27700
27669
27660
27684
27743
27847
28010
28236
28519
28857
29245
29667
30111
30563
31008
31441
31856
32244
32594
32899
33158
33379
33560
33700
33802
33867
33896
33887
33843
33778
33699
33600
33482
33349
33204
33047
32878
32700
32512
32320
32132
31946
31756
31562
31365
31165
30963
30760
30565
30388
30233
30102
29998
29926
29884
29867
29875
29909
29963
30038
30137
30255
30386
30526
30666
30798
30927
31056
31182
31298
31398
31480
31546
31601
31635
31646
31640
31619
31583
31538
31484
31422
31355
31285
31208
31122
31026
30923
30816
30704
30594
30489
30388
30286
30185
30085
29988
29894
29799
29701
29606
29509
29410
29313
29222
29140
29068
29004
28941
28884
28834
28784
28729
28671
28619
28576
28540
28505
28471
28440
28412
28384
28358
28340
28329
28320
28309
28302
28294
28281
28269
28256
28236
28215
28195
28173
28149
28119
28079
28030
27972
27911
27854
27800
27743
27682
27623
27567
27516
27471
27440
27426
27435
27474
27557
27699
27909
28187
28520
28899
29318
29763
30219
30674
31122
31556
31970
32354
32696
32993
33250
33467
33642
33780
33881
33939
33957
33937
33882
33798
33691
33570
33441
33301
33153
33002
32851
32697
32543
32386
32221
32043
31858
31677
31501
31319
31129
30940
30758
30589
30441
30318
30219
30150
30116
30113
30133
30174
30237
30319
30415
30520
30634
30758
30884
31009
31136
31264
31385
31496
31594
31672
31733
31780
31815
31835
31837
31819
31789
31748
31692
31623
31544
31455
31357
31253
31150
31048
30940
30828
30717
30606
30494
30384
30278
30177
30077
29979
29880
29777
29674
29575
29481
29392
29305
29223
29149
29082
29018
28960
28910
28859
28809
28767
28732
28697
28665
28634
28601
28570
28544
28524
28507
28486
28461
28439
28422
28410
28401
28390
28372
28351
28335
28320
28301
28282
28261
28233
28199
28156
28105
28053
27994
27925
27858
27795
27731
27668
27610
27561
27524
27508
27521
27567
27649
27774
27956
28198
28497
28847
29235
29651
30083
30521
30961
31390
31789
32153
32482
32776
33029
33241
33414
33541
33625
33673
33684
33656
33604
33538
33457
33358
33240
33105
32967
32827
32680
32526
32369
32207
32038
31864
31683
31500
31316
31133
30951
30770
30598
30444
30309
30193
30102
30039
30000
29983
29995
30033
30093
30170
30263
30368
30482
30604
30731
30856
30973
31083
31185
31284
31377
31459
31525
31574
31606
31625
31633
31631
31616
31585
31543
31490
31424
31346
31265
31178
31082
30983
30884
30782
30680
30584
30492
30398
30295
30184
30076
29979
29882
29783
29683
29583
29486
29396
29311
29227
29148
29073
29001
28932
28866
28802
28746
28693
28641
28592
28552
28517
28489
28467
28451
28440
28432
28425
28422
28418
28411
28403
28393
28378
28363
28347
28328
28305
28281
28252
28215
28170
28119
28068
28018
27965
27911
27856
27801
27748
27705
27676
27663
27669
27705
27784
27911
28093
28332
28624
28957
29325
29715
30119
30529
30938
31336
31718
32070
32387
32678
32940
33167
33353
33497
33601
33667
33698
33698
33670
33610
33525
33424
33312
33187
33053
32912
32765
32616
32463
32307
32152
31997
31835
31669
31502
31327
31149
30979
30820
30670
30538
30428
30339
30273
30235
30223
30234
30270
30330
30405
30486
30573
30670
30775
30884
31000
31123
31242
31348
31440
31521
31593
31647
31681
31703
31714
31712
31697
31673
31640
31593
31537
31474
31402
31320
31227
31123
31011
30892
30773
30660
30548
30429
30308
30192
30079
29971
29868
29770
29673
29577
29482
29388
29299
29216
29138
29061
28984
28908
28836
28771
28714
28663
28612
28558
28506
28458
28418
28386
28360
28337
28314
28292
28276
28267
28259
28248
28233
28223
28221
28217
28205
28189
28172
28149
28118
28083
28047
28008
27970
27926
27875
27820
27764
27708
27647
27582
27519
27460
27404
27350
27306
27271
27252
27257
27293
27372
27500
27680
27917
28209
28551
28927
29326
29743
30168
30590
31001
31389
31746
32071
32360
32612
32827
33003
33139
33239
33301
33324
33317
33285
33229
33152
33055
32938
32809
32678
32545
32406
32259
32111
31958
31795
31625
31451
31276
31100
30924
30753
30591
30446
30318
30209
30122
30056
30006
29979
29981
30008
30057
30131
30218
30311
30414
30524
30636
30752
30873
30995
31112
31215
31306
31390
31464
31529
31582
31620
31643
31649
31639
31621
31597
31558
31506
31444
31371
31292
31207
31115
31015
30910
30805
30702
30598
30491
30379
30271
30169
30066
29965
29872
29784
29699
29617
29536
29456
29376
29300
29230
29163
29099
29041
28991
28944
28899
28858
28820
28787
28763
28748
28736
28719
28695
28676
28666
28659
28652
28644
28633
28617
28596
28574
28552
28533
28515
28492
28464
28432
28397
28357
28309
28258
28208
28161
28112
28061
28007
27956
27911
27875
27854
27854
27873
27917
27999
28126
28305
28536
28810
29119
29461
29833
30227
30624
31008
31373
31720
32047
32343
32608
32839
33034
33190
33311
33399
33452
33473
33471
33443
33389
33311
33211
33101
32978
32840
32695
32550
32400
32246
32090
31933
31771
31604
31428
31243
31053
30868
30696
30537
30389
30261
30160
30089
30046
30029
30036
30066
30117
30188
30276
30375
30485
30602
30723
30841
30955
31067
31176
31278
31368
31447
31514
31565
31599
31621
31630
31621
31596
31559
31512
31457
31393
31321
31247
31169
31087
31007
30930
30844
30746
30649
30556
30464
30373
30280
30180
30079
29981
29889
29800
29712
29629
29550
29473
29399
29331
29273
29223
29171
29119
29070
29023
28977
28937
28903
28872
28839
28805
28773
28750
28733
28724
28722
28719
28712
28705
28700
28694
28687
28673
28651
28628
28614
28602
28583
28554
28519
28482
28446
28406
28362
28317
28268
28215
28155
28092
28032
27975
27922
27878
27846
27825
27824
27857
27929
28049
28229
28464
28752
29088
29463
29865
30281
30701
31124
31541
31936
32302
32633
32928
33192
33429
33634
33796
33907
33964
33981
33969
33927
33857
33766
33658
33542
33423
33301
33170
33032
32891
32749
32605
32464
32323
32178
32025
31866
31701
31532
31368
31214
31071
30944
30838
30755
30698
30666
30653
30659
30690
30741
30809
30893
30988
31088
31194
31307
31425
31541
31648
31743
31833
31917
31993
32054
32099
32126
32136
32134
32122
32098
32059
32010
31955
31892
31819
31741
31662
31580
31490
31395
31303
31211
31116
31022
30931
30834
30734
30635
30543
30456
30370
30283
30197
30113
30036
29968
29906
29840
29773
29714
29663
29615
29569
29528
29493
29461
29432
29407
29382
29358
29344
29337
29329
29321
29317
29312
29304
29292
29279
29268
29260
29250
29239
29232
29224
29211
29197
29176
29136
29086
29039
28995
28944
28885
28825
28763
28705
28653
28599
28539
28481
28435
28401
28382
28384
28416
28494
28625
28808
29043
29330
29657
30014
30395
30796
31203
31611
32018
32408
32768
33097
33389
33644
33861
34041
34183
34289
34353
34375
34365
34325
34262
34180
34078
33959
33828
33691
33553
33414
33272
33130
32987
32841
32694
32545
32392
32236
32075
31908
31743
31588
31445
31316
31208
31122
31055
31013
30999
31007
31034
31085
31154
31232
31322
31421
31528
31641
31756
31871
31984
32089
32181
32265
32341
32402
32442
32464
32464
32451
32432
32405
32363
32305
32237
32161
32076
31985
31893
31802
31709
31613
31513
31408
31301
31191
31082
30982
30886
30783
30679
30582
30491
30405
30326
30249
30170
30093
30019
29949
29879
29811
29751
29702
29657
29610
29560
29508
29459
29416
29381
29351
29324
29297
29275
29261
29250
29240
29229
29217
29205
29196
29189
29177
29159
29142
29127
29108
29082
29052
29016
28971
28921
28867
28809
28744
28673
28602
28535
28472
28411
28351
28292
28235
28182
28133
28095
28071
28069
28112
28212
28368
28582
28849
29160
29515
29910
30333
30770
31206
31633
32039
32418
32764
33074
33350
33590
33787
33941
34056
34136
34179
34187
34173
34138
34077
33995
33898
33783
33657
33528
33397
33262
33125
32980
32825
32663
32502
32344
32184
32014
31836
31661
31496
31343
31202
31075
30968
30887
30837
30819
30828
30861
30915
30991
31083
31187
31299
31415
31533
31653
31776
31902
32025
32133
32224
32300
32359
32402
32435
32455
32457
32442
32415
32376
32327
32273
32213
32143
32062
31977
31895
31813
31721
31618
31516
31414
31312
31214
31118
31020
30923
30829
30738
30646
30558
30478
30403
30327
30250
30175
30106
30041
29977
29916
29861
29808
29753
29697
29648
29609
29579
29561
29549
29534
29512
29489
29466
29446
29431
29419
29406
29390
29369
29350
29334
29312
29282
29251
29222
29191
29157
29119
29077
29030
28981
28933
28885
28843
28806
28771
28737
28699
28661
28642
28649
28684
28760
28887
29065
29293
29572
29894
30257
30649
31055
31463
31863
32253
32634
32998
33326
33608
33849
34051
34213
34336
34421
34474
34495
34489
34461
34408
34332
34240
34139
34026
33900
33766
33623
33469
33311
33150
32983
32812
32635
32449
32265
32085
31903
31730
31573
31434
31315
31221
31151
31105
31085
31089
31111
31146
31201
31279
31374
31480
31596
31720
31851
31980
32103
32222
32332
32428
32510
32579
32631
32666
32684
32686
32672
32641
32598
32548
32488
32422
32355
32285
32208
32124
32027
31926
31826
31723
31620
31520
31418
31314
31215
31126
31041
30962
30888
30810
30730
30654
30583
30516
30448
30382
30320
30260
30201
30146
30095
30051
30010
29969
29933
29899
29863
29827
29796
29770
29749
29735
29723
29710
29699
29688
29675
29658
29643
29635
29627
29616
29606
29590
29567
29538
29507
29476
29443
29402
29353
29300
29243
29188
29133
29079
29026
28974
28923
28877
28840
28819
28826
28871
28957
29089
29271
29503
29788
30129
30519
30942
31383
31832
32276
32708
33116
33492
33835
34140
34410
34642
34827
34971
35076
35143
35179
35183
35150
35087
35004
34899
34775
34647
34519
34383
34238
34092
33949
33810
33666
33514
33357
33197
33030
32860
32695
32533
32380
32245
32131
32032
31952
31899
31877
31882
31909
31960
32026
32101
32186
32279
32376
32476
32579
32682
32786
32883
32970
33052
33126
33186
33232
33267
33285
33288
33286
33276
33253
33214
33161
33097
33021
32935
32842
32750
32658
32559
32456
32353
32246
32138
32036
31933
31827
31723
31623
31525
31433
31345
31256
31174
31093
31011
30935
30868
30803
30734
30665
30600
30536
30475
30423
30382
30341
30298
30256
30216
30180
30151
30129
30112
30098
30092
30090
30082
30066
30048
30033
30018
30002
29988
29976
29961
29943
29921
29895
29862
29821
29775
29725
29672
29613
29552
29488
29422
29351
29277
29202
29128
29055
28982
28914
28849
28791
28751
28737
28758
28827
28953
29140
29382
29676
30015
30390
30792
31218
31656
32089
32509
32913
33288
33623
33916
34173
34393
34569
34709
34816
34887
34920
34918
34885
34823
34736
34628
34504
34364
34218
34076
33936
33793
33642
33486
33325
33159
32990
32822
32657
32491
32319
32148
31987
31839
31702
31578
31478
31404
31357
31336
31334
31349
31380
31432
31506
31592
31688
31794
31901
32004
32108
32210
32304
32384
32451
32509
32559
32595
32619
32631
32627
32611
32584
32545
32491
32423
32345
32264
32179
32085
31986
31886
31787
31687
31586
31487
31388
31286
31179
31068
30956
30844
30733
30631
30538
30449
30363
30282
30207
30132
30055
29981
29907
29832
29761
29697
29641
29594
29553
29519
29484
29445
29404
29367
29336
29314
29303
29294
29281
29267
29257
29248
29238
29229
29219
29203
29183
29168
29156
29138
29112
29081
29043
28997
28949
28905
28856
28796
28726
28652
28575
28496
28417
28343
28272
28207
28149
28099
28066
28054
28072
28134
28248
28413
28628
28895
29210
29562
29943
30347
30772
31203
31625
32031
32412
32761
33076
33357
33599
33799
33960
34081
34158
34195
34202
34178
34126
34056
33971
33869
33754
33625
33484
33339
33191
33036
32878
32717
32553
32383
32206
32022
31830
31632
31441
31263
31094
30939
30811
30710
30638
30598
30582
30583
30601
30639
30699
30778
30872
30978
31095
31219
31341
31458
31571
31677
31772
31852
31921
31979
32022
32048
32060
32055
32040
32014
31968
31910
31852
31787
31710
31624
31538
31459
31385
31302
31206
31103
30999
30895
30794
30697
30605
30513
30423
30340
30259
30172
30078
29982
29885
29791
29704
29622
29543
29474
29420
29376
29334
29287
29239
29196
29156
29119
29089
29065
29043
29023
29006
28996
28986
28974
28965
28960
28957
28954
28946
28934
28919
28901
28886
28873
28859
28840
28816
28781
28738
28689
28630
28563
28494
28427
28361
28296
28232
28168
28112
28064
28021
27991
27982
28001
28057
28158
28311
28521
28792
29119
29491
29893
30321
30762
31204
31637
32052
32438
32787
33097
33373
33617
33827
33998
34128
34219
34273
34291
34277
34235
34170
34085
33986
33873
33742
33594
33440
33287
33133
32981
32829
32675
32512
32343
32171
31997
31825
31657
31494
31341
31201
31078
30982
30917
30876
30856
30858
30877
30913
30967
31034
31110
31197
31299
31415
31535
31654
31768
31880
31986
32083
32170
32244
32300
32339
32363
32370
32358
32338
32312
32275
32224
32157
32076
31989
31892
31783
31674
31568
31463
31359
31258
31161
31065
30972
30887
30807
30719
30621
30521
30428
30343
30268
30199
30125
30047
29971
29906
29853
29803
29756
29713
29671
29624
29576
29531
29489
29449
29416
29392
29371
29357
29351
29348
29341
29328
29316
29311
29306
29293
29280
29269
29257
29245
29234
29223
29212
29201
29185
29160
29130
29099
29065
29025
28972
28902
28829
28760
28691
28620
28551
28482
28415
28350
28287
28229
28184
28163
28175
28221
28307
28445
28641
28895
29206
29567
29959
30374
30803
31238
31671
32093
32494
32871
33220
33532
33804
34033
34219
34368
34482
34556
34585
34576
34538
34479
34397
34293
34173
34042
33904
33758
33606
33452
33299
33145
32991
32834
32673
32506
32336
32165
31998
31835
31682
31545
31426
31322
31240
31181
31143
31128
31131
31153
31200
31269
31358
31459
31565
31673
31787
31903
32012
32111
32202
32282
32352
32421
32484
32536
32572
32588
32590
32579
32553
32514
32465
32406
32333
32252
32164
32069
31969
31872
31772
31664
31552
31440
31329
31222
31116
31011
30908
30805
30701
30607
30520
30434
30348
30267
30189
30114
30049
29988
29924
29855
29786
29726
29677
29635
29595
29560
29528
29498
29471
29448
29423
29399
29379
29359
29342
29335
29334
29338
29341
29338
29329
29318
29304
29289
29276
29262
29245
29225
29197
29157
29110
29058
29004
28947
28883
28818
28753
28687
28621
28558
28496
28431
28365
28304
28256
28230
28232
28265
28341
28469
28654
28900
29200
29543
29923
30336
30765
31192
31613
32019
32401
32756
33077
33361
33612
33823
33987
34107
34190
34240
34260
34248
34203
34133
34046
33945
33830
33699
33552
33397
33239
33081
32922
32762
32600
32436
32268
32096
31920
31741
31564
31395
31237
31089
30956
30843
30747
30672
30626
30606
30605
30625
30669
30737
30823
30919
31022
31132
31245
31353
31463
31573
31677
31773
31857
31923
31974
32014
32049
32076
32086
32078
32055
32015
31957
31886
31808
31721
31625
31522
31417
31315
31213
31110
31004
30893
30775
30656
30543
30431
30323
30227
30136
30046
29955
29862
29769
29680
29597
29524
29459
29391
29315
29240
29170
29102
29036
28972
28910
28855
28809
28771
28736
28696
28654
28617
28585
28561
28543
28529
28515
28499
28481
28463
28446
28423
28392
28362
28335
28303
28267
28233
28195
28158
28121
28074
28020
27965
27905
27841
27778
27716
27654
27590
27516
27431
27348
27275
27209
27150
27104
27086
27113
27201
27357
27579
27862
28202
28592
29016
29464
29925
30385
30829
31254
31653
32017
32344
32634
32883
33092
33261
33386
33474
33525
33538
33516
33463
33387
33291
33178
33055
32923
32782
32635
32482
32319
32148
31975
31810
31650
31482
31304
31119
30929
30738
30548
30361
30183
30025
29892
29789
29713
29666
29647
29655
29687
29745
29826
29930
30050
30176
30311
30451
30587
30716
30838
30949
31049
31137
31217
31290
31350
31392
31413
31417
31403
31374
31338
31298
31251
31197
31137
31065
30973
30864
30750
30636
30519
30400
30281
30165
30050
29936
29826
29723
29622
29523
29427
29335
29246
29163
29083
29004
28919
28833
28753
28676
28606
28545
28488
28432
28380
28334
28290
28245
28202
28167
28137
28116
28106
28099
28087
28074
28065
28063
28066
28065
28058
28050
28039
28025
28006
27985
27964
27939
27906
27871
27836
27794
27746
27697
27648
27595
27538
27482
27425
27365
27311
27272
27254
27264
27305
27383
27508
27692
27940
28248
28602
28992
29409
29838
30271
30700
31117
31509
31867
32192
32483
32739
32953
33125
33255
33345
33401
33429
33428
33398
33338
33251
33142
33012
32871
32724
32576
32424
32267
32107
31944
31774
31598
31416
31223
31024
30821
30623
30431
30243
30063
29903
29766
29656
29585
29551
29541
29554
29590
29652
29738
29839
29956
30084
30221
30363
30507
30650
30789
30918
31033
31133
31217
31278
31321
31349
31364
31364
31350
31328
31294
31244
31184
31114
31033
30945
30856
30763
30666
30566
30465
30363
30257
30149
30040
29929
29821
29722
29631
29541
29450
29359
29270
29178
29086
29003
28924
28844
28763
28691
28629
28574
28523
28477
28433
28389
28346
28307
28274
28242
28213
28192
28173
28155
28136
28118
28110
28106
28103
28102
28102
28105
28109
28109
28104
28092
28071
28045
28016
27982
27944
27902
27854
27799
27737
27674
27614
27556
27496
27436
27381
27337
27308
27299
27317
27370
27466
27618
27829
28104
28444
28837
29267
29723
30192
30662
31125
31576
32010
32414
32781
33106
33384
33612
33795
33941
34051
34122
34152
34142
34102
34039
33959
33863
33750
33621
33479
33329
33176
33021
32864
32712
32562
32405
32238
32067
31893
31713
31536
31370
31217
31079
30955
30846
30756
30687
30642
30628
30643
30680
30736
30806
30890
30988
31096
31216
31345
31475
31599
31719
31832
31937
32036
32124
32199
32261
32309
32342
32353
32343
32321
32285
32236
32177
32112
32039
31961
31879
31792
31699
31602
31505
31411
31314
31212
31101
30985
30873
30764
30653
30542
30436
30337
30247
30165
30087
30007
29922
29843
29773
29707
29647
29591
29537
29483
29431
29383
29338
29299
29269
29244
29222
29200
29180
29163
29147
29134
29125
29119
29118
29114
29108
29104
29100
29091
29079
29062
29037
29008
28976
28940
28902
28865
28828
28784
28731
28673
28615
28558
28501
28446
28392
28341
28295
28261
28252
28275
28336
28441
28598
28810
29076
29394
29757
30158
30587
31034
31481
31916
32332
32725
33090
33425
33725
33994
34225
34409
34544
34633
34684
34701
34686
34647
34585
34492
34370
34231
34082
33926
33769
33611
33449
33282
33111
32942
32777
32613
32448
32280
32105
31925
31747
31579
31422
31282
31160
31060
30989
30945
30927
30941
30978
31034
31109
31200
31304
31418
31541
31677
31814
31941
32058
32167
32267
32361
32439
32496
32535
32562
32578
32582
32571
32552
32522
32475
32416
32351
32280
32202
32117
32024
31923
31815
31699
31579
31465
31354
31246
31143
31047
30950
30849
30747
30645
30541
30439
30343
30253
30165
30079
29999
29925
29856
29793
29738
29688
29639
29596
29562
29531
29495
29457
29422
29391
29365
29347
29338
29332
29326
29320
29315
29306
29295
29283
29271
29253
29235
29221
29208
29189
29164
29134
29103
29067
29028
28990
28951
28904
28848
28785
28719
28651
28577
28504
28435
28366
28298
28232
28167
28109
28067
28051
28070
28133
28249
28427
28668
28969
29328
29730
30161
30611
31070
31526
31968
32386
32774
33132
33452
33725
33952
34137
34279
34376
34433
34460
34457
34423
34367
34291
34194
34082
33957
33819
33667
33505
33343
33183
33017
32844
32663
32477
32289
32104
31923
31743
31561
31388
31234
31099
30981
30883
30808
30758
30739
30747
30782
30839
30910
30993
31093
31208
31328
31452
31582
31711
31832
31941
32038
32125
32199
32263
32317
32357
32381
32387
32372
32347
32321
32294
32257
32205
32140
32069
31993
31908
31818
31726
31631
31526
31414
31303
31198
31094
30991
30894
30799
30700
30604
30515
30429
30348
30277
30215
30154
30089
30024
29961
29896
29830
29769
29712
29662
29619
29582
29548
29517
29487
29464
29451
29439
29426
29414
29403
29393
29385
29379
29370
29358
29346
29338
29333
29328
29323
29315
29302
29283
29263
29239
29207
29162
29111
29057
28995
28925
28853
28776
28700
28629
28560
28497
28439
28386
28341
28311
28302
28324
28384
28494
28668
28908
29208
29557
29939
30345
30768
31194
31613
32019
32401
32749
33064
33349
33596
33802
33962
34079
34162
34212
34227
34206
34159
34090
34006
33912
33808
33691
33558
33412
33257
33092
32917
32743
32570
32394
32213
32026
31835
31645
31463
31291
31125
30964
30815
30691
30599
30534
30494
30479
30488
30527
30595
30683
30785
30906
31043
31183
31320
31453
31580
31700
31811
31906
31985
32053
32108
32149
32177
32189
32186
32170
32143
32104
32050
31985
31917
31845
31761
31666
31565
31460
31357
31259
31165
31066
30961
30853
30750
30658
30566
30470
30373
30276
30180
30089
30002
29915
29835
29764
29697
29630
29564
29505
29449
29391
29341
29297
29251
29201
29156
29117
29088
29065
29041
29021
29007
28996
28991
28991
28987
28981
28978
28982
28987
28982
28965
28942
28919
28897
28877
28857
28833
28799
28756
28708
28656
28597
28533
28471
28415
28359
28303
28244
28183
28125
28077
28049
28048
28077
28148
28276
28461
28704
29005
29361
29766
30209
30677
31151
31622
32081
32524
32938
33313
33648
33941
34186
34386
34547
34670
34756
34799
34801
34773
34721
34642
34543
34430
34308
34177
34043
33904
33759
33615
33473
33332
33186
33030
32866
32702
32531
32349
32167
31993
31829
31676
31537
31421
31332
31271
31245
31254
31292
31351
31427
31514
31614
31729
31851
31973
32093
32212
32330
32444
32552
32648
32736
32817
32882
32931
32970
32994
33003
32997
32981
32951
32904
32846
32782
32708
32624
32536
32445
32350
32254
32154
32049
31945
31846
31749
31650
31547
31443
31342
31244
31145
31050
30962
30876
30789
30707
30633
30568
30513
30466
30419
30367
30315
30271
30233
30196
30163
30136
30112
30089
30066
30041
30020
30004
29991
29983
29982
29985
29991
29994
29993
29990
29985
29982
29977
29963
29941
29918
29894
29864
29829
29788
29736
29673
29609
29549
29493
29435
29379
29328
29277
29225
29180
29149
29137
29151
29204
29308
29468
29688
29966
30298
30671
31075
31500
31935
32372
32801
33214
33605
33967
34298
34599
34862
35075
35239
35363
35451
35502
35520
35508
35467
35398
35304
35191
35063
34926
34787
34647
34502
34352
34202
34058
33915
33769
33624
33484
33344
33197
33044
32890
32741
32597
32462
32343
32247
32178
32138
32123
32132
32166
32221
32291
32378
32480
32591
32705
32820
32930
33041
33154
33260
33350
33429
33498
33556
33602
33637
33656
33659
33647
33623
33590
33545
33487
33423
33354
33280
33202
33124
33040
32943
32837
32726
32608
32492
32379
32266
32158
32057
31955
31853
31757
31667
31583
31503
31420
31335
31258
31193
31129
31068
31011
30954
30899
30851
30810
30775
30745
30719
30699
30687
30677
30669
30670
30675
30675
30668
30658
30645
30632
30626
30624
30620
30611
30596
30579
30556
30529
30502
30475
30443
30408
30367
30322
30273
30221
30170
30120
30064
29998
29929
29859
29793
29732
29677
29629
29589
29565
29572
29621
29721
29880
30099
30377
30708
31087
31497
31921
32352
32786
33216
33633
34027
34393
34721
35009
35254
35458
35621
35743
35824
35871
35887
35873
35833
35767
35675
35563
35436
35305
35173
35035
34888
34736
34580
34422
34261
34102
33944
33782
33620
33460
33296
33130
32972
32831
32708
32611
32542
32497
32473
32470
32490
32531
32588
32657
32738
32833
32937
33044
33151
33258
33360
33451
33537
33620
33694
33754
33798
33824
33832
33821
33800
33772
33733
33683
33625
33559
33481
33392
33298
33201
33099
32997
32897
32797
32695
32596
32498
32398
32294
32189
32087
31987
31889
31793
31698
31608
31524
31446
31373
31300
31231
31166
31103
31043
30992
30953
30923
30892
30859
30828
30796
30767
30746
30728
30706
30684
30665
30647
30628
30608
30592
30577
30561
30543
30524
30509
30497
30482
30462
30442
30419
30395
30370
30343
30312
30271
30225
30177
30124
30061
29988
29912
29838
29767
29698
29628
29551
29467
29386
29315
29253
29208
29189
29202
29255
29356
29511
29722
29989
30313
30683
31083
31507
31949
32395
32836
33260
33661
34035
34377
34686
34961
35199
35392
35539
35641
35708
35737
35730
35697
35641
35559
35458
35342
35212
35072
34929
34791
34658
34520
34376
34231
34082
33929
33777
33623
33462
33292
33124
32968
32828
32708
32608
32531
32479
32448
32439
32456
32492
32546
32620
32706
32800
32906
33022
33139
33255
33370
33479
33582
33673
33751
33817
33870
33905
33919
33918
33905
33880
33842
33797
33742
33674
33593
33503
33406
33308
33214
33121
33022
32918
32816
32714
32608
32497
32387
32279
32172
32069
31976
31891
31811
31729
31644
31561
31479
31396
31319
31248
31181
31119
31062
31012
30965
30919
30876
30839
30803
30766
30730
30696
30670
30657
30650
30642
30631
30621
30614
30606
30597
30592
30592
30594
30595
30587
30569
30547
30516
30475
30434
30394
30355
30318
30280
30238
30189
30131
30070
30003
29924
29841
29762
29686
29609
29528
29446
29378
29323
29268
29212
29167
29150
29175
29251
29388
29590
29851
30166
30532
30940
31381
31842
32300
32743
33173
33584
33957
34284
34569
34816
35021
35186
35316
35409
35456
35472
35465
35426
35357
35264
35151
35021
34878
34728
34575
34417
34258
34098
33936
33775
33621
33467
33305
33133
32952
32775
32606
32445
32294
32160
32049
31962
31900
31864
31853
31869
31915
31989
32080
32175
32277
32389
32508
32631
32756
32875
32983
33079
33165
33240
33300
33344
33378
33397
33402
33395
33369
33325
33267
33198
33128
33056
32975
32888
32796
32697
32593
32490
32390
32290
32187
32084
31979
31871
31766
31670
31581
31492
31403
31321
31241
31162
31082
31004
30933
30864
30797
30736
30685
30637
30586
30539
30499
30464
30434
30411
30393
30373
30351
30330
30304
30280
30267
30265
30267
30267
30266
30262
30253
30237
30216
30194
30170
30144
30115
30088
30060
30032
30001
29964
29918
29866
29811
29755
29694
29628
29561
29492
29417
29339
29261
29186
29119
29065
29021
28993
28994
29034
29127
29281
29492
29760
30091
30478
30899
31340
31793
32248
32692
33118
33520
33890
34221
34513
34768
34984
35158
35287
35374
35424
35438
35419
35375
35309
35227
35131
35020
34895
34759
34620
34479
34333
34186
34043
33902
33757
33607
33448
33284
33118
32951
32790
32640
32499
32369
32253
32158
32090
32051
32039
32052
32089
32148
32224
32316
32423
32541
32664
32779
32884
32985
33080
33165
33246
33321
33384
33435
33473
33495
33503
33491
33462
33422
33375
33316
33249
33171
33079
32973
32862
32757
32657
32555
32451
32346
32240
32133
32030
31932
31836
31739
31638
31541
31453
31368
31288
31222
31158
31088
31016
30946
30875
30808
30747
30694
30645
30600
30560
30524
30492
30464
30437
30408
30378
30349
30324
30302
30283
30272
30267
30264
30261
30253
30241
30227
30214
30211
30216
30221
30218
30206
30186
30158
30120
30074
30025
29972
29913
29851
29784
29713
29640
29565
29493
29422
29346
29269
29194
29116
29038
28969
28916
28886
28888
28936
29043
29206
29428
29709
30042
30420
30839
31288
31751
32213
32663
33091
33491
33860
34196
34493
34745
34950
35116
35245
35332
35375
35384
35368
35323
35248
35152
35045
34924
34784
34633
34484
34338
34194
34051
33907
33755
33600
33441
33276
33107
32938
32773
32609
32445
32290
32152
32033
31936
31870
31836
31825
31832
31862
31917
31998
32093
32195
32309
32431
32553
32674
32795
32911
33014
33107
33189
33255
33303
33341
33366
33372
33361
33337
33297
33243
33182
33118
33047
32963
32870
32775
32681
32584
32484
32378
32266
32154
32043
31937
31835
31729
31620
31513
31410
31308
31210
31118
31026
30936
30848
30761
30676
30596
30521
30451
30389
30328
30269
30220
30178
30144
30122
30108
30097
30085
30069
30046
30015
29983
29957
29937
29918
29906
29898
29890
29886
29887
29887
29881
29867
29848
29826
29806
29782
29756
29727
29692
29646
29593
29540
29487
29426
29357
29284
29208
29129
29049
28968
28883
28802
28726
28654
28587
28531
28487
28465
28469
28514
28614
28773
28991
29267
29598
29979
30397
30836
31295
31765
32229
32671
33085
33468
33816
34129
34403
34632
34813
34955
35058
35118
35133
35111
35061
34983
34884
34765
34630
34484
34334
34180
34026
33875
33724
33574
33428
33280
33125
32967
32807
32647
32488
32330
32171
32012
31863
31737
31636
31560
31513
31495
31500
31527
31575
31644
31731
31829
31939
32053
32165
32278
32394
32509
32615
32708
32788
32855
32910
32949
32974
32982
32974
32948
32903
32848
32785
32711
32632
32548
32454
32353
32249
32143
32039
31936
31832
31725
31613
31500
31392
31287
31180
31073
30970
30868
30767
30668
30574
30484
30401
30323
30254
30192
30132
30075
30025
29976
29927
29882
29837
29791
29750
29719
29694
29672
29653
29635
29621
29607
29594
29589
29589
29582
29568
29552
29537
29526
29525
29528
29522
29504
29478
29452
29426
29395
29360
29323
29283
29238
29191
29142
29091
29031
28962
28885
28803
28718
28633
28549
28457
28359
28264
28174
28090
28024
27978
27952
27951
27990
28081
28236
28456
28737
29083
29485
29918
30369
30835
31306
31771
32223
32650
33041
33390
33697
33963
34186
34362
34492
34583
34633
34639
34607
34546
34461
34359
34247
34128
33999
33854
33697
33538
33376
33209
33042
32872
32699
32526
32348
32164
31974
31783
31600
31426
31256
31098
30964
30854
30774
30727
30714
30728
30762
30813
30885
30975
31072
31177
31290
31408
31524
31639
31749
31849
31942
32029
32106
32166
32208
32233
32243
32237
32214
32179
32134
32080
32017
31946
31868
31783
31691
31591
31481
31360
31235
31116
31000
30880
30760
30646
30536
30424
30310
30199
30089
29979
29872
29771
29677
29594
29520
29447
29373
29298
29231
29172
29117
29064
29015
28963
28907
28851
28800
28762
28733
28703
28676
28658
28641
28623
28611
28604
28597
28591
28582
28567
28549
28536
28534
28538
28538
28528
28515
28503
28485
28461
28432
28396
28352
28301
28241
28175
28103
28033
27966
27896
27822
27752
27684
27614
27547
27489
27439
27400
27380
27386
27437
27543
27713
27954
28263
28626
29032
29466
29915
30371
30824
31264
31681
32066
32412
32719
32988
33212
33388
33519
33611
33665
33687
33680
33644
33583
33500
33399
33280
33140
32985
32826
32664
32494
32322
32152
31980
31806
31627
31438
31243
31045
30850
30654
30457
30272
30110
29972
29861
29784
29734
29707
29707
29733
29788
29870
29967
30074
30193
30321
30453
30588
30723
30849
30965
31071
31165
31246
31310
31356
31382
31394
31389
31370
31340
31300
31245
31181
31114
31035
30946
30856
30763
30658
30543
30426
30308
30191
30076
29961
29843
29732
29629
29533
29436
29336
29241
29154
29071
28986
28898
28810
28725
28641
28560
28488
28423
28363
28312
28269
28232
28199
28169
28142
28118
28096
28080
28067
28054
28042
28031
28017
28002
27991
27985
27982
27979
27970
27960
27948
27928
27898
27868
27837
27802
27768
27731
27688
27640
27592
27545
27495
27437
27370
27300
27234
27170
27112
27067
27040
27038
27072
27156
27295
27501
27776
28113
28503
28934
29391
29867
30349
30823
31280
31709
32096
32438
32745
33016
33240
33417
33555
33658
33727
33763
33765
33733
33669
33578
33472
33355
33227
33086
32934
32770
32599
32431
32266
32099
31931
31759
31583
31403
31221
31039
30864
30698
30539
30392
30268
30165
30086
30040
30026
30037
30075
30134
30206
30297
30408
30533
30667
30806
30944
31085
31224
31349
31451
31540
31619
31684
31734
31770
31791
31793
31784
31762
31730
31686
31626
31553
31471
31384
31290
31194
31095
30992
30889
30787
30679
30570
30464
30359
30254
30150
30047
29946
29842
29738
29645
29564
29486
29409
29333
29258
29180
29104
29039
28984
28930
28877
28831
28793
28759
28727
28698
28671
28649
28633
28623
28614
28602
28590
28576
28558
28543
28537
28540
28545
28546
28546
28545
28536
28522
28502
28474
28440
28404
28368
28327
28277
28221
28160
28096
28033
27976
27927
27877
27823
27769
27723
27688
27671
27687
27752
27874
28053
28293
28592
28942
29333
29753
30194
30640
31082
31518
31937
32331
32690
33010
33294
33539
33740
33899
34015
34089
34127
34129
34100
34047
33975
33888
33785
33663
33527
33385
33238
33087
32934
32782
32628
32470
32307
32146
31989
31833
31673
31515
31366
31226
31097
30985
30890
30811
30757
30735
30739
30767
30815
30878
30957
31055
31166
31289
31418
31549
31678
31803
31921
32030
32127
32207
32268
32312
32344
32365
32370
32359
32336
32303
32260
32208
32151
32085
32009
31925
31839
31747
31647
31545
31443
31338
31230
31122
31011
30897
30789
30692
30604
30520
30436
30353
30274
30193
30110
30035
29970
29909
29853
29798
29741
29687
29642
29609
29582
29549
29515
29486
29462
29445
29444
29455
29467
29472
29471
29473
29478
29477
29467
29461
29459
29454
29442
29428
29411
29386
29358
29326
29289
29246
29198
29148
29095
29042
28995
28951
28908
28862
28811
28761
28717
28683
28668
28679
28723
28805
28937
29124
29365
29659
30001
30378
30782
31204
31632
32047
32440
32810
33156
33468
33738
33967
34164
34327
34454
34543
34595
34613
34597
34551
34482
34396
34297
34187
34068
33939
33802
33663
33521
33378
33233
33083
32926
32763
32599
32438
32281
32119
31954
31799
31663
31543
31442
31362
31303
31267
31261
31283
31327
31385
31461
31556
31662
31771
31882
31996
32111
32225
32338
32448
32549
32632
32700
32762
32812
32842
32857
32856
32836
32802
32760
32707
32645
32577
32503
32420
32331
32236
32144
32059
31972
31880
31785
31686
31582
31475
31369
31263
31154
31050
30955
30860
30763
30673
30592
30513
30436
30367
30304
30242
30183
30132
30087
30046
30002
29960
29928
29905
29883
29867
29859
29851
29841
29832
29821
29813
29811
29813
29811
29801
29784
