17876
17930
17931
17897
17933
17902
17891
17875
17936
17949
17934
17891
17938
17945
17891
17920
17975
17970
17927
17960
17978
17976
17955
17996
18021
18032
17991
18051
18092
18094
18108
18199
18177
18171
18244
18319
18326
18279
18328
18368
18348
18352
18373
18396
18297
18335
18355
18351
18320
18354
18338
18336
18317
18329
18410
18312
18325
18350
18357
18303
18285
18313
18307
18301
18304
18302
18286
18271
18275
18284
18235
18216
18280
18308
18231
18187
18223
18263
18201
18203
18230
18203
18161
18188
18195
18179
18146
18179
18200
18152
18146
18183
18173
18123
18150
18185
18124
18082
18109
18156
18146
18097
18087
18133
18096
18075
18085
18134
18053
18058
18092
18083
18042
18046
18098
18081
18037
18033
18100
18043
18036
18037
18084
18002
17992
18056
18035
17948
17960
18016
17993
17915
17934
17945
17915
17897
17914
17905
17878
17889
17902
17917
17873
17889
17949
17925
17894
17940
17920
17941
17901
17935
17980
17936
17901
17949
17971
17949
17968
17954
17993
17969
17994
18026
18033
17980
18033
18077
18071
18072
18144
18159
18160
18200
18267
18255
18271
18314
18375
18419
18388
18438
18471
18439
18421
18426
18458
18377
18403
18416
18429
18373
18424
18423
18400
18377
18372
18429
18361
18342
18381
18407
18323
18335
18376
18382
18302
18350
18342
18361
18340
18329
18350
18325
18315
18329
18329
18258
18268
18327
18303
18248
18260
18290
18289
18249
18298
18275
18276
18180
18263
18251
18245
18221
18210
18234
18185
18211
18218
18208
18163
18223
18218
18196
18141
18215
18200
18178
18163
18180
18167
18159
18146
18184
18168
18127
18172
18174
18141
18110
18119
18140
18126
18110
18128
18140
18051
18075
18080
18076
18034
18045
18022
18047
17984
18004
18003
17975
17951
17981
17994
17928
17922
17974
17980
17956
17965
17967
17942
17916
17965
17942
17967
17959
17986
17990
17976
17956
17981
18017
17988
18008
18025
18015
18007
18039
18064
18062
18033
18114
18088
18086
18133
18164
18198
18193
18232
18267
18330
18295
18367
18402
18402
18366
18412
18414
18394
18381
18439
18442
18416
18388
18421
18412
18358
18411
18400
18407
18357
18396
18384
18350
18339
18351
18339
18320
18341
18349
18335
18316
18347
18352
18343
18294
18303
18373
18304
18261
18316
18323
18272
18296
18359
18308
18263
18279
18318
18336
18235
18274
18280
18237
18232
18266
18252
18210
18205
18262
18226
18178
18199
18188
18176
18143
18173
18163
18174
18154
18199
18163
18151
18134
18155
18139
18092
18106
18146
18148
18107
18105
18153
18107
18105
18107
18138
18094
18096
18118
18105
18039
18037
18084
18098
18007
18055
18074
18074
18017
18060
18095
18050
18015
18070
18106
18095
18067
18120
18135
18099
18134
18130
18189
18088
18160
18184
18159
18146
18178
18214
18172
18227
18222
18255
18172
18189
18244
18268
18208
18265
18264
18307
18304
18365
18430
18406
18459
18547
18567
18567
18658
18690
18703
18670
18730
18767
18701
18720
18748
18760
18746
18708
18747
18755
18667
18690
18683
18738
18666
18705
18718
18691
18672
18678
18731
18648
18659
18684
18709
18643
18665
18685
18681
18623
18653
18659
18667
18618
18640
18664
18640
18610
18629
18648
18600
18632
18628
18596
18589
18602
18641
18604
18552
18582
18576
18561
18510
18586
18552
18490
18484
18528
18532
18478
18479
18497
18487
18433
18481
18514
18469
18413
18475
18455
18432
18415
18474
18454
18415
18423
18434
18424
18375
18389
18406
18384
18339
18391
18390
18338
18329
18331
18335
18279
18275
18286
18277
18198
18233
18235
18209
18192
18196
18217
18172
18185
18215
18239
18177
18197
18216
18215
18183
18213
18217
18226
18178
18226
18238
18218
18250
18265
18267
18225
18260
18274
18267
18250
18276
18307
18294
18283
18321
18406
18383
18381
18437
18492
18484
18538
18612
18664
18621
18687
18700
18685
18672
18710
18708
18704
18690
18738
18732
18643
18657
18716
18686
18638
18663
18683
18650
18616
18640
18634
18607
18611
18626
18639
18553
18546
18588
18602
18537
18585
18557
18571
18520
18519
18582
18548
18516
18508
18533
18498
18466
18508
18522
18465
18457
18469
18486
18430
18434
18481
18451
18430
18474
18478
18429
18415
18433
18434
18390
18423
18408
18382
18360
18388
18396
18399
18351
18388
18409
18343
18349
18373
18391
18334
18340
18350
18362
18327
18324
18350
18335
18282
18347
18352
18267
18273
18305
18271
18207
18234
18218
18263
18215
18213
18203
18210
18136
18157
18165
18127
18110
18133
18145
18113
18086
18109
18138
18096
18089
18136
18144
18096
18133
18142
18135
18092
18141
18160
18120
18106
18190
18178
18130
18155
18206
18220
18172
18221
18242
18264
18232
18305
18344
18308
18328
18385
18440
18410
18454
18520
18523
18509
18598
18609
18613
18570
18608
18644
18599
18579
18658
18668
18617
18579
18658
18606
18556
18620
18623
18613
18552
18577
18587
18553
18569
18607
18597
18554
18542
18559
18556
18525
18539
18561
18543
18496
18517
18556
18527
18488
18508
18533
18484
18489
18509
18498
18447
18448
18470
18466
18409
18424
18447
18410
18382
18396
18447
18386
18388
18429
18385
18357
18361
18382
18396
18335
18351
18383
18349
18316
18332
18373
18330
18339
18377
18352
18304
18306
18334
18323
18277
18295
18362
18305
18284
18308
18352
18280
18271
18275
18282
18233
18192
18224
18233
18158
18172
18184
18130
18118
18119
18149
18108
18079
18139
18156
18089
18094
18117
18146
18097
18114
18151
18130
18132
18140
18177
18134
18152
18195
18211
18162
18150
18240
18212
18170
18218
18262
18249
18246
18267
18287
18284
18292
18384
18397
18362
18430
18482
18516
18484
18539
18621
18652
18597
18671
18651
18669
18635
18666
18668
18618
18628
18644
18669
18627
18640
18663
18645
18616
18624
18639
18616
18574
18581
18636
18558
18553
18590
18592
18528
18559
18581
18605
18537
18572
18594
18562
18529
18549
18564
18518
18512
18557
18531
18501
18511
18541
18524
18468
18508
18522
18510
18454
18478
18486
18485
18422
18498
18485
18455
18447
18475
18461
18423
18439
18459
18444
18399
18431
18437
18406
18382
18437
18427
18373
18399
18413
18403
18372
18403
18420
18436
18377
18377
18399
18390
18359
18374
18389
18324
18322
18346
18351
18285
18302
18292
18309
18253
18222
18274
18244
18224
18243
18238
18175
18221
18277
18269
18210
18238
18268
18282
18261
18240
18282
18242
18213
18277
18323
18255
18255
18287
18310
18262
18280
18346
18341
18297
18314
18369
18344
18343
18383
18422
18440
18445
18512
18567
18542
18621
18673
18729
18690
18759
18787
18815
18749
18816
18840
18795
18794
18820
18835
18784
18804
18843
18848
18786
18809
18844
18838
18777
18828
18831
18818
18788
18833
18832
18778
18798
18836
18843
18803
18818
18842
18841
18802
18819
18808
18817
18777
18841
18841
18779
18780
18819
18830
18797
18821
18834
18808
18766
18809
18820
18808
18757
18801
18811
18770
18749
18819
18806
18773
18780
18804
18794
18731
18758
18803
18771
18739
18774
18777
18725
18706
18735
18751
18717
18717
18731
18739
18680
18699
18726
18715
18660
18694
18670
18643
18609
18651
18625
18600
18591
18591
18581
18521
18524
18533
18509
18491
18478
18492
18467
18427
18477
18504
18431
18422
18476
18484
18399
18425
18448
18456
18441
18453
18481
18454
18428
18460
18465
18443
18431
18470
18489
18431
18472
18505
18488
18464
18546
18562
18553
18532
18607
18649
18626
18643
18747
18808
18819
18819
18856
18927
18853
18931
18959
18910
18874
18921
18948
18870
18865
18922
18906
18885
18857
18907
18895
18834
18850
18888
18884
18839
18874
18871
18838
18824
18826
18874
18812
18855
18817
18834
18787
18801
18847
18837
18785
18784
18809
18784
18766
18785
18796
18747
18743
18773
18788
18718
18749
18759
18772
18702
18702
18711
18707
18655
18685
18709
18658
18614
18650
18633
18595
18605
18650
18643
18600
18613
18635
18611
18577
18612
18642
18579
18586
18603
18608
18567
18601
18590
18621
18578
18609
18609
18583
18542
18607
18605
18536
18557
18564
18563
18510
18499
18526
18531
18484
18487
18506
18481
18440
18460
18487
18442
18423
18479
18449
18423
18446
18487
18477
18417
18504
18488
18507
18441
18498
18514
18481
18482
18495
18549
18464
18492
18529
18523
18464
18512
18520
18543
18524
18549
18597
18584
18562
18627
18666
18648
18682
18749
18788
18776
18859
18863
18893
18886
18895
18927
18949
18886
18956
18983
18912
18903
18958
18967
18910
18898
18895
18926
18872
18893
18913
18869
18859
18899
18902
18867
18851
18898
18900
18833
18855
18865
18881
18840
18882
18891
18875
18808
18840
18854
18805
18777
18830
18820
18749
18803
18793
18771
18740
18758
18812
18786
18697
18759
18758
18712
18688
18695
18726
18669
18663
18670
18677
18648
18648
18663
18698
18614
18661
18683
18651
18605
18642
18657
18591
18600
18623
18616
18580
18633
18625
18632
18586
18579
18639
18596
18557
18571
18573
18523
18538
18550
18558
18506
18499
18529
18515
18446
18452
18493
18460
18414
18450
18480
18415
18447
18467
18501
18412
18449
18437
18445
18435
18434
18464
18447
18450
18463
18478
18490
18462
18496
18523
18461
18494
18528
18516
18468
18527
18561
18566
18531
18589
18623
18613
18599
18659
18668
18668
18752
18774
18837
18804
18874
18879
18954
18896
18923
18936
18926
18892
18950
18962
18895
18906
18962
18949
18879
18913
18947
18908
18884
18899
18911
18909
18837
18871
18903
18830
18845
18868
18886
18828
18863
18870
18859
18812
18834
18858
18819
18790
18815
18847
18803
18783
18829
18802
18762
18772
18798
18807
18742
18776
18800
18770
18757
18792
18827
18787
18730
18767
18763
18720
18736
18737
18734
18684
18740
18719
18722
18700
18718
18736
18664
18682
18710
18696
18660
18674
18694
18687
18623
18659
18687
18664
18628
18674
18681
18659
18627
18682
18684
18632
18627
18664
18627
18574
18603
18584
18590
18518
18578
18568
18536
18513
18515
18550
18497
18498
18536
18530
18499
18515
18528
18549
18509
18531
18563
18544
18506
18552
18565
18529
18536
18563
18583
18567
18572
18601
18620
18603
18611
18615
18643
18622
18678
18717
18699
18720
18757
18842
18780
18853
18930
18960
18958
18994
19055
19044
19007
19062
19107
19051
19056
19094
19075
19069
19056
19079
19094
19040
19055
19056
19018
18990
19024
19037
19026
19002
19028
19079
19000
19018
18993
19038
18956
19000
19013
18976
18944
18964
18971
18973
18933
18950
18973
18906
18918
18918
18931
18863
18877
18900
18888
18851
18856
18896
18838
18830
18842
18871
18791
18787
18793
18827
18774
18777
18781
18763
18728
18753
18755
18717
18714
18745
18750
18702
18685
18714
18694
18620
18652
18678
18670
18639
18649
18670
18659
18598
18614
18648
18583
18560
18600
18586
18534
18555
18537
18528
18499
18481
18496
18509
18424
18470
18493
18422
18417
18452
18451
18415
18394
18439
18461
18402
18446
18469
18468
18422
18453
18481
18459
18453
18468
18520
18442
18475
18487
18500
18464
18448
18519
18503
18479
18503
18518
18522
18497
18533
18585
18528
18578
18618
18680
18649
18694
18747
18800
18811
18850
18896
18916
18900
18935
18991
18917
18921
18952
18970
18903
18935
18949
18981
18911
18975
18984
18962
18895
18960
18961
18916
18900
18910
18945
18879
18894
18916
18942
18863
18888
18907
18884
18837
18865
18897
18876
18823
18859
18870
18816
18818
18837
18860
18801
18791
18798
18815
18765
18761
18773
18749
18730
18739
18753
18678
18688
18729
18736
18680
18671
18708
18708
18630
18638
18658
18653
18652
18673
18656
18616
18621
18638
18653
18608
18596
18591
18588
18543
18579
18598
18584
18540
18572
18622
18601
18544
18567
18563
18477
18512
18548
18534
18478
18500
18516
18486
18475
18463
18468
18403
18396
18442
18447
18357
18362
18372
18378
18333
18368
18393
18382
18326
18356
18368
18361
18328
18367
18411
18350
18359
18373
18408
18349
18363
18369
18412
18353
18380
18447
18390
18389
18439
18490
18444
18454
18512
18509
18478
18545
18594
18608
18565
18635
18672
18704
18716
18795
18832
18781
18819
18868
18906
18845
18869
18881
18886
18823
18881
18909
18854
18802
18840
18863
18805
18807
18831
18838
18783
18780
18800
18814
18770
18795
18826
18819
18751
18811
18824
18787
18803
18832
18840
18775
18799
18811
18799
18786
18771
18799
18805
18760
18806
18813
18790
18765
18787
18822
18737
18749
18772
18790
18735
18734
18777
18750
18695
18722
18737
18750
18706
18719
18722
18663
18663
18676
18697
18642
18657
18682
18658
18613
18661
18669
18628
18610
18657
18667
18643
18639
18638
18687
18612
18654
18664
18648
18638
18624
18622
18608
18565
18602
18602
18560
18522
18568
18542
18513
18533
18517
18543
18467
18482
18536
18480
18428
18474
18483
18482
18448
18496
18518
18474
18460
18474
18536
18467
18471
18496
18516
18449
18528
18540
18504
18491
18542
18544
18514
18538
18563
18612
18588
18593
18630
18645
18607
18670
18731
18721
18720
18780
18853
18864
18882
18958
18969
18938
18980
19005
19003
18963
18980
19031
18982
18939
18982
19009
18955
18960
18956
18959
18921
18945
18940
18943
18912
18916
18950
18916
18901
18911
18973
18870
18881
18902
18909
18872
18869
18908
18881
18816
18833
18881
18886
18794
18872
18870
18864
18809
18841
18849
18808
18799
18820
18813
18768
18784
18784
18755
18697
18732
18780
18715
18694
18715
18749
18674
18677
18726
18717
18653
18637
18719
18700
18656
18661
18704
18674
18632
18683
18689
18658
18689
18686
18676
18626
18631
18677
18654
18653
18643
18662
18629
18576
18619
18614
18535
18550
18556
18550
18465
18495
18498
18518
18452
18481
18495
18487
18417
18467
18490
18479
18459
18502
18535
18463
18497
18546
18527
18515
18547
18557
18581
18520
18581
18591
18578
18573
18629
18634
18600
18582
18647
18675
18621
18666
18690
18694
18671
18727
18782
18794
18796
18850
18904
18901
18950
19029
19041
19035
19079
19112
19155
19089
19137
19161
19155
19101
19157
19146
19126
19111
19133
19100
19068
19125
19088
19085
19051
19063
19081
19065
19033
19069
19090
19055
19046
19065
19093
19006
19023
19046
19053
19012
19010
19030
19042
18999
19048
19042
18998
19000
18991
19046
18969
19003
18993
18983
18924
18971
18970
18928
18901
18928
18944
18921
18903
18944
18944
18884
18908
18911
18892
18836
18867
18866
18858
18807
18823
18860
18816
18775
18797
18821
18787
18769
18771
18799
18749
18764
18781
18751
18710
18755
18752
18711
18687
18718
18688
18636
18661
18673
18653
18584
18598
18640
18603
18527
18565
18604
18545
18492
18515
18526
18499
18488
18506
18529
18474
18500
18489
18514
18461
18501
18550
18499
18478
18551
18556
18505
18510
18562
18559
18531
18565
18567
18579
18541
18567
18620
18581
18545
18587
18660
18617
18649
18704
18723
18701
18735
18794
18830
18822
18878
18952
18974
18948
19010
19042
19027
19027
19072
19092
19051
19043
19054
19109
19040
19062
19067
19044
19006
19059
19046
19036
18987
19017
19061
18984
18992
18997
19009
18976
18994
19023
18993
18934
19001
19002
18955
18939
18961
18956
18914
18887
18898
18942
18862
18863
18871
18870
18827
18834
18851
18819
18787
18836
18832
18818
18769
18801
18812
18749
18757
18785
18774
18737
18736
18757
18733
18691
18731
18763
18674
18699
18723
18731
18661
18663
18697
18684
18661
18655
18669
18646
18620
18623
18660
18645
18627
18657
18658
18637
18623
18644
18649
18614
18597
18644
18636
18568
18595
18610
18571
18551
18570
18576
18525
18517
18545
18525
18434
18453
18476
18490
18442
18470
18505
18483
18428
18460
18517
18438
18464
18483
18513
18479
18463
18512
18484
18472
18506
18532
18495
18472
18539
18551
18507
18518
18557
18605
18562
18568
18624
18608
18584
18614
18661
18699
18674
18762
18770
18809
18804
18901
18919
18898
18925
18995
18997
18941
18982
18978
18980
18932
18952
18982
18917
18900
18913
18957
18906
18899
18916
18918
18897
18904
18928
18906
18848
18883
18892
18881
18886
18900
18904
18850
18861
18883
18865
18822
18830
18897
18857
18820
18848
18877
18831
18802
18858
18874
18796
18826
18855
18824
18750
18790
18777
18781
18767
18743
18774
18793
18743
18762
18782
18718
18699
18735
18778
18698
18706
18726
18734
18675
18719
18734
18670
18653
18681
18709
18674
18639
18687
18694
18630
18644
18649
18633
18634
18625
18665
18647
18597
18579
18625
18611
18563
18609
18610
18579
18553
18570
18563
18515
18532
18550
18499
18494
18489
18494
18476
18438
18464
18491
18444
18435
18478
18470
18427
18447
18475
18476
18422
18426
18450
18481
18441
18448
18519
18439
18456
18505
18522
18446
18485
18503
18518
18494
18525
18563
18541
18528
18582
18614
18586
18613
18687
18702
18672
18742
18802
18834
18810
18880
18916
18890
18883
18877
18923
18881
18857
18904
18940
18880
18898
18918
18898
18858
18878
18888
18912
18865
18905
18914
18909
18869
18908
18940
18871
18892
18927
18920
18846
18890
18919
18904
18872
18880
18912
18892
18855
18908
18908
18886
18843
18903
18897
18861
18856
18886
18876
18840
18858
18883
18840
18810
18852
18846
18793
18786
18826
18796
18768
18793
18806
18764
18739
18758
18806
18771
18722
18738
18782
18692
18691
18744
18742
18687
18707
18710
18751
18684
18714
18710
18721
18701
18701
18693
18661
18662
18688
18681
18621
18622
18643
18653
18616
18617
18642
18635
18555
18578
18563
18547
18540
18568
18596
18514
18556
18562
18596
18502
18555
18599
18578
18561
18555
18608
18544
18552
18601
18622
18589
18583
18647
18624
18592
18614
18677
18630
18594
18616
18669
18653
18639
18685
18708
18713
18737
18790
18806
18827
18879
18951
18990
18981
19026
19111
19132
19078
19157
19179
19129
19168
19176
19193
19141
19144
19188
19198
19121
19142
19163
19138
19095
19118
19125
19120
19084
19113
19121
19084
19057
19098
19089
19065
19085
19084
19091
19019
19076
19078
19040
19012
19028
19072
19006
18991
19016
19022
18963
19005
19025
18990
18946
18986
18980
18963
18927
18986
18964
18931
18910
18951
18898
18866
18875
18913
18895
18857
18872
18877
18820
18780
18826
18854
18798
18769
18826
18831
18758
18790
18824
18793
18728
18773
18762
18744
18703
18766
18733
18699
18725
18723
18748
18677
18706
18695
18689
18631
18631
18652
18627
18545
18588
18612
18550
18561
18544
18539
18507
18490
18540
18519
18483
18494
18515
18491
18452
18501
18531
18497
18464
18515
18515
18481
18492
18525
18531
18491
18517
18531
18539
18493
18550
18555
18566
18545
18562
18631
18549
18598
18651
18640
18627
18684
18704
18756
18718
18831
18877
18884
18899
18938
18986
18988
19015
19026
19045
18972
18994
18993
19009
18951
18949
18978
18940
18908
18952
18946
18919
18904
18948
18978
18926
18941
18938
18938
18890
18925
18954
18926
18878
18899
18940
18898
18879
18903
18905
18864
18895
18931
18881
18835
18858
18872
18859
18801
18833
18842
18834
18793
18825
18818
18766
18782
18794
18806
18739
18757
18746
18768
18703
18710
18725
18709
18688
18682
18741
18661
18647
18663
18678
18613
18663
18662
18649
18599
18638
18672
18618
18573
18617
18618
18582
18591
18588
18605
18575
18568
18558
18588
18555
18555
18561
18556
18511
18522
18534
18472
18471
18480
18476
18411
18438
18446
18435
18386
18396
18405
18376
18399
18399
18413
18366
18360
18377
18424
18378
18380
18412
18429
18388
18397
18428
18427
18381
18420
18453
18402
18413
18445
18449
18426
18433
18480
18481
18452
18492
18534
18533
18490
18537
18615
18649
18650
18703
18731
18710
18764
18803
18873
18830
18874
18902
18899
18858
18845
18888
18840
18844
18879
18893
18829
18826
18856
18846
18840
18851
18840
18827
18803
18839
18830
18813
18788
18812
18863
18804
18819
18819
18814
18752
18761
18791
18809
18735
18764
18806
18752
18754
18744
18785
18715
18696
18740
18762
18682
18718
18736
18711
18695
18730
18739
18720
18632
18694
18680
18660
18643
18679
18677
18630
18653
18662
18683
18636
18645
18692
18664
18610
18624
18654
18622
18614
18628
18622
18592
18576
18620
18598
18568
18606
18603
18595
18577
18588
18592
18568
18527
18551
18568
18504
18502
18532
18510
18450
18489
18503
18460
18410
18413
18454
18437
18408
18435
18453
18380
18439
18422
18424
18389
18391
18447
18431
18395
18428
18455
18432
18403
18445
18475
18387
18390
18470
18461
18401
18455
18490
18479
18445
18459
18499
18505
18481
18535
18585
18570
18586
18652
18704
18721
18742
18814
18845
18843
18883
18955
18941
18927
18972
18986
18977
18931
18989
19000
18958
18933
18981
18994
18939
18965
18974
18956
18927
18957
18977
18964
18914
18943
18984
18902
18925
18940
18947
18903
18949
18929
18924
18883
18884
18915
18887
18883
18900
18924
18850
18834
18864
18893
18801
18838
18842
18864
18792
18817
18825
18825
18774
18827
18844
18793
18772
18820
18832
18786
18763
18797
18813
18724
18792
18801
18789
18746
18789
18804
18743
18783
18772
18755
18755
18720
18781
18738
18707
18745
18764
18743
18727
18729
18738
18713
18666
18722
18688
18630
18668
18668
18655
18610
18615
18617
18598
18560
18564
18568
18551
18477
18535
18545
18495
18470
18514
18504
18463
18499
18542
18490
18455
18492
18507
18487
18466
18502
18508
18507
18486
18531
18544
18492
18482
18540
18550
18497
18535
18557
18570
18532
18591
18631
18611
18619
18668
18708
18699
18754
18787
18822
18810
18839
18957
18944
18951
19028
19018
19021
19000
19038
19037
19006
19013
19038
19025
18962
18993
19012
18993
18971
18998
19027
18991
18971
19015
19041
18991
18980
19014
18976
18965
18978
19002
18975
18919
18972
18981
18989
18933
18966
18947
18956
18922
18961
18991
18950
18948
18932
18941
18910
18941
18974
18943
18918
18913
18941
18872
18872
18906
18921
18853
18906
18911
18884
18868
18893
18936
18897
18864
18887
18919
18863
18877
18903
18928
18859
18882
18888
18898
18837
18869
18865
18871
18820
18893
18883
18848
18840
18870
18907
18846
18858
18863
18847
18786
18808
18833
18786
18738
18813
18765
18751
18708
18804
18764
18696
18740
18788
18761
18721
18730
18745
18742
18728
18750
18795
18761
18733
18793
18784
18743
18759
18768
18783
18750
18760
18818
18808
18762
18794
18834
18846
18760
18859
18901
18851
18888
18930
18972
18954
18961
19061
19101
19104
19207
19218
19248
19246
19272
19340
19253
19265
19318
19313
19240
19260
19280
19280
19225
19250
19278
19231
19205
19281
19272
19228
19216
19235
19267
19173
19220
19250
19222
19173
19203
19218
19209
19131
19167
19210
19151
19124
19141
19187
19135
19115
19156
19142
19073
19118
19129
19099
19051
19069
19101
19067
19030
19053
19080
19031
19061
19047
19060
18987
19006
19024
18985
18941
18959
18977
18982
18921
18950
18967
18891
18879
18922
18939
18885
18874
18888
18898
18838
18872
18887
18868
18827
18841
18882
18816
18826
18824
18847
18785
18793
18788
18824
18710
18751
18731
18736
18634
18683
18673
18651
18617
18632
18636
18590
18573
18588
18592
18562
18584
18602
18571
18522
18573
18602
18573
18559
18573
18625
18544
18581
18612
18620
18562
18581
18578
18591
18556
18563
18601
18594
18572
18603
18629
18616
18619
18665
18675
18648
18718
18736
18772
18766
18809
18892
18887
18903
18986
19018
18973
19028
19043
19045
19043
19013
19067
19042
19002
19022
19029
18991
18962
19004
19011
18962
18969
18973
18992
18943
18961
18947
18935
18910
18949
18951
18933
18907
18976
18981
18946
18922
18950
18963
18888
18944
18926
18945
18861
18877
18910
18890
18847
18878
18905
18871
18871
18895
18882
18845
18851
18879
18865
18843
18808
18854
18829
18843
18839
18856
18778
18772
18832
18843
18782
18766
18803
18785
18745
18741
18783
18758
18733
18754
18754
18749
18723
18724
18768
18696
18704
18708
18719
18703
18694
18716
18733
18688
18694
18727
18714
18662
18676
18688
18612
18624
18634
18624
18582
18561
18606
18553
18514
18534
18569
18520
18488
18543
18566
18515
18505
18553
18587
18526
18551
18547
18556
18525
18559
18594
18605
18524
18574
18598
18555
18538
18574
18584
18545
18591
18604
18600
18590
18596
18657
18667
18651
18662
18752
18738
18739
18795
18848
18855
18889
18928
18958
18974
19004
19026
19046
18980
19030
19048
19034
18997
19048
19074
19000
19005
19020
19031
18981
19008
19043
19013
19003
18991
19021
18991
18949
18946
19000
18937
18951
18984
18992
18957
18946
18978
18983
18933
18937
18979
18940
18905
18959
18931
18901
18889
18935
18941
18891
18891
18918
18933
18857
18856
18906
18885
18854
18872
18902
18854
18802
18870
18879
18810
18829
18865
18849
18814
18833
18828
18827
18791
18810
18791
18799
18762
18792
18809
18776
18765
18792
18804
18735
18767
18787
18763
18726
18765
18809
18751
18715
18738
18756
18723
18686
18732
18733
18641
18639
18662
18640
18601
18585
18591
18542
18524
18551
18585
18552
18534
18573
18561
18524
18540
18572
18573
18542
18576
18593
18587
18563
18609
18608
18584
18594
18624
18646
18612
18611
18659
18680
18623
18650
18679
18688
18675
18704
18769
18752
18731
18808
18828
18817
18873
18932
18979
18943
18993
19048
19103
19063
19136
19155
19139
19083
19139
19164
19118
19105
19104
19133
19098
19108
19137
19130
19089
19104
19155
19121
19060
19079
19133
19086
19057
19100
19060
19053
19080
19095
19078
19038
19073
19085
19057
19035
19069
19076
19056
19050
19076
19089
19050
19063
19090
19089
19050
19059
19057
19048
19003
19028
19019
18997
18964
19026
19019
18951
18955
18970
18979
18899
18939
18947
18919
18904
18902
18944
18867
18863
18898
18910
18865
18859
18881
18837
18818
18866
18818
18838
18809
18825
18841
18810
18765
18798
18827
18762
18752
18770
18772
18705
18730
18769
18717
18618
18672
18682
18677
18607
18646
18648
18576
18571
18602
18603
18533
18540
18557
18554
18494
18541
18547
18562
18537
18543
18613
18536
18548
18574
18586
18557
18594
18610
18640
18559
18637
18629
18636
18591
18650
18664
18677
18644
18726
18753
18735
18730
18809
18839
18806
18876
18962
18964
18972
19045
19101
19102
19105
19169
19182
19133
19115
19166
19134
19092
19108
19141
19133
19090
19122
19135
19085
19102
19095
19110
19022
19061
19071
19089
19041
19026
19045
19078
18996
19040
19020
19013
18965
19026
19050
18968
18973
19031
18999
18977
18999
19011
19021
18964
18955
18976
18973
18926
18977
19006
18902
18910
18950
18940
18881
18888
18900
18914
18857
18874
18883
18878
18823
18845
18855
18817
18808
18814
18815
18769
18765
18776
18790
18708
18744
18774
18749
18715
18746
18779
18715
18707
18704
18723
18711
18702
18696
18719
18672
18670
18717
18678
18653
18682
18658
18643
18590
18612
18606
18566
18562
18563
18594
18515
18495
18534
18520
18461
18468
18510
18479
18444
18473
18494
18449
18437
18468
18476
18450
18469
18472
18517
18451
18492
18536
18500
18478
18479
18511
18488
18493
18511
18525
18499
18503
18587
18555
18540
18570
18613
18613
18587
18658
18695
18694
18738
18811
18817
18814
18864
18891
18951
18878
18938
18940
18937
18914
18936
18959
18948
18923
18971
18952
18892
18903
18975
18957
18928
18951
18940
18905
18913
18919
18955
18906
18907
18926
18967
18918
18916
18936
18947
18902
18934
18940
18941
18926
18922
18943
18941
18869
18871
18883
18850
18843
18862
18877
18795
18802
18854
18846
18787
18813
18833
18795
18744
18801
18809
18738
18766
18745
18769
18734
18737
18757
18747
18713
18716
18762
18723
18661
18729
18720
18678
18656
18681
18686
18622
18655
18677
18666
18620
18637
18653
18664
18640
18644
18625
18630
18625
18618
18621
18584
18547
18565
18571
18510
18534
18541
18525
18477
18497
18514
18482
18444
18496
18465
18433
18443
18486
18497
18453
18484
18488
18517
18465
18509
18531
18530
18482
18531
18553
18527
18510
18538
18562
18490
18557
18568
18581
18528
18570
18641
18616
18575
18646
18696
18673
18715
18754
18819
18776
18818
18893
18916
18885
18904
18950
18961
18902
18955
18950
18948
18915
18964
18982
18929
18974
18987
18963
18912
18939
18964
18922
18916
18915
18968
18913
18898
18920
18958
18907
18912
18923
18913
18879
18879
18909
18911
18866
18899
18913
18911
18875
18907
18941
18897
18867
18911
18907
18866
18880
18897
18871
18851
18871
18883
18853
18798
18847
18827
18803
18791
18816
18823
18765
18798
18808
18814
18718
18766
18790
18759
18708
18736
18790
18718
18677
18736
18741
18691
18680
18702
18713
18673
18688
18709
18692
18693
18710
18744
18705
18695
18708
18710
18668
18666
18651
18659
18630
18643
18624
18627
18589
18617
18620
18574
18578
18590
18613
18558
18555
18602
18601
18579
18599
18617
18604
18573
18587
18635
18586
18595
18610
18650
18570
18592
18595
18644
18576
18600
18657
18650
18595
18653
18694
18651
18661
18708
18747
18741
18768
18822
18864
18841
18873
18960
18964
18936
19016
19047
19031
18984
19049
19057
19020
19034
19060
19050
19023
19033
19052
19073
18985
19018
19019
18998
18957
18998
19019
18978
18948
18995
18987
18962
18972
18974
18998
18968
18968
18989
18970
18907
18960
18965
18958
18916
18969
18971
18911
18952
18927
18957
18912
18925
18942
18914
18864
18909
18914
18898
18849
18912
18912
18859
18846
18895
18889
18863
18869
18886
18839
18801
18835
18857
18820
18760
18798
18843
18791
18761
18816
18822
18738
18764
18784
18779
18725
18764
18790
18784
18723
18737
18822
18744
18744
18766
18794
18714
18749
18729
18769
18697
18713
18705
18708
18647
18635
18688
18630
18625
18643
18671
18578
18607
18608
18637
18581
18591
18591
18625
18552
18590
18634
18591
18560
18617
18626
18564
18611
18601
18654
18555
18618
18607
18605
18589
18637
18672
18648
18616
18678
18685
18631
18668
18720
18758
18728
18734
18822
18848
18831
18867
18934
18915
18931
19004
19026
18997
19023
19040
19064
19039
19038
19059
19064
19022
19027
19047
19022
18993
19020
19038
18986
18977
19016
19002
18968
18978
19028
19007
18972
18963
19017
18969
18937
18965
18965
18964
18922
18950
18992
18961
18944
18960
18953
18911
18925
18937
18929
18923
18919
18940
18925
18901
18925
18961
18919
18924
18938
18920
18857
18882
18885
18880
18844
18832
18890
18887
18820
18874
18886
18833
18847
18892
18874
18843
18873
18904
18877
18814
18850
18864
18819
18793
18818
18856
18825
18796
18860
18827
18775
18811
18828
18812
18739
18811
18802
18775
18752
18784
18791
18725
18701
18721
18722
18682
18681
18701
18706
18692
18670
18696
18677
18652
18731
18717
18678
18669
18722
18731
18705
18707
18764
18754
18707
18750
18781
18756
18740
18762
18810
18793
18778
18806
18809
18801
18791
18860
18845
18803
18871
18891
18926
18905
18947
19046
19043
19021
19071
19134
19114
19140
19193
19213
19202
19206
19251
19236
19214
19207
19247
19214
19207
19203
19238
19193
19196
19233
19241
19151
19156
19199
19202
19140
19194
19215
19161
19143
19145
19199
19131
19114
19183
19180
19147
19132
19174
19163
19117
19146
19188
19164
19101
19126
19156
19114
19096
19130
19115
19112
19104
19103
19120
19048
19062
19098
19088
19071
19089
19070
19060
19053
19063
19094
19037
19039
19046
19072
19006
19035
19044
19044
18986
18998
19014
18995
18951
18981
18997
18956
18974
18995
18972
18934
18962
18969
18962
18945
18950
18961
18908
18899
18898
18938
18870
18859
18873
18857
18817
18813
18830
18789
18782
18799
18784
18785
18769
18778
18816
18761
18736
18765
18804
18743
18746
18804
18834
18794
18827
18824
18817
18784
18828
18852
18815
18823
18860
18895
18838
18884
18907
18913
18896
18922
18971
19020
18961
19019
19058
19079
19073
19172
19210
19216
19262
19305
19311
19280
19333
19366
19351
19307
19306
19358
19335
19260
19289
19327
19285
19296
19314
19325
19275
19316
19327
19321
19290
19328
19317
19297
19293
19305
19295
19229
19260
19288
19271
19248
19233
19257
19286
19191
19232
19257
19227
19177
19191
19211
19188
19176
19189
19218
19140
19155
19163
19143
19107
19131
19143
19118
19107
19138
19150
19118
19115
19121
19138
19094
19088
19099
19116
19075
19063
19099
19099
19021
19049
19050
19029
18987
19049
19027
18981
19006
19000
19002
18971
19000
18973
18985
18896
18936
18957
18924
18877
18893
18928
18879
18851
18858
18896
18811
18808
18816
18824
18772
18787
18797
18771
18719
18747
18787
18710
18726
18733
18749
18695
18734
18769
18744
18709
18738
18788
18755
18700
18759
18766
18758
18739
18776
18787
18712
18732
18753
18782
18742
18764
18809
18792
18790
18856
18875
18871
18893
18946
18985
18974
19020
19093
19124
19097
19167
19197
19178
19168
19170
19225
19183
19131
19173
19211
19135
19124
19138
19131
19090
19088
19106
19115
19056
19084
19090
19072
19034
19082
19087
19036
19013
19089
19069
19008
19024
19030
19048
18992
19008
19007
18980
18952
18990
19017
18971
18977
19004
19002
18945
18939
18979
18942
18893
18946
18948
18914
18874
18911
18928
18927
18859
18892
18897
18833
18852
18874
18852
18799
18823
18829
18770
18767
18814
18801
18767
18737
18780
18819
18752
18747
18784
18762
18733
18746
18791
18759
18701
18756
18781
18712
18689
18732
18732
18694
18705
18710
18684
18666
18687
18668
18652
18601
18621
18599
18572
18539
18579
18544
18516
18527
18542
18533
18521
18528
18523
18551
18520
18557
18566
18540
18512
18547
18582
18557
18544
18583
18574
18536
18547
18577
18569
18532
18568
18617
18596
18565
18627
18610
18585
18604
18656
18692
18631
18683
18725
18773
18730
18767
18891
18864
18861
18933
18987
18970
18974
18995
19005
18987
18986
19018
19012
18959
18978
19006
18958
18915
18968
18954
18952
18935
18970
18976
18925
18924
18928
18938
18902
18942
18969
18945
18923
18937
18966
18908
18903
18928
18932
18867
18887
18909
18912
18854
18833
18882
18856
18804
18844
18850
18819
18813
18837
18848
18810
18806
18841
18814
18773
18780
18828
18793
18752
18798
18775
18765
18746
18762
18785
18758
18727
18718
18719
18689
18690
18701
18706
18640
18689
18694
18694
18653
18698
18710
18689
18690
18730
18697
18649
18676
18719
18701
18599
18654
18658
18622
18564
18598
18622
18552
18524
18541
18577
18523
18496
18502
18531
18449
18443
18502
18453
18463
18465
18500
18474
18451
18503
18521
18505
18488
18515
18534
18489
18525
18555
18517
18472
18511
18534
18498
18478
18528
18553
18500
18519
18550
18558
18544
18596
18597
18640
18623
18683
18730
18725
18755
18780
18857
18810
18878
18931
18956
18913
18932
18967
18970
18900
18945
18978
18958
18949
18982
19018
18956
18968
18980
19014
18969
18972
18999
18987
18945
18963
18958
18983
18924
18967
18990
18950
18952
18999
18984
18911
18947
18969
18971
18895
18916
18937
18920
18856
18889
18922
18883
18835
18874
18916
18829
18854
18849
18851
18817
18822
18859
18842
18781
18821
18821
18789
18781
18796
18839
18784
18767
18792
18833
18749
18791
18800
18794
18756
18781
18784
18766
18717
18772
18804
18780
18761
18816
18806
18761
18767
18788
18753
18718
18745
18739
18701
18672
18724
18715
18663
18623
18675
18689
18614
18607
18655
18642
18598
18602
18677
18619
18611
18669
18672
18635
18643
18711
18684
18660
18686
18717
18744
18700
18714
18769
18736
18685
18756
18805
18768
18725
18759
18811
18762
18800
18834
18864
18809
18872
18909
18923
18898
18968
19042
19053
19040
19117
19178
19160
19196
19241
19245
19205
19189
19266
19233
19212
19191
19256
19217
19178
19203
19242
19189
19168
19224
19199
19114
19144
19163
19207
19111
19128
19172
19165
19093
19151
19173
19132
19083
19115
19150
19106
19125
19136
19113
19066
19099
19143
19095
19089
19126
19093
19035
19038
19082
19084
19039
19019
19076
19062
19013
19048
19051
19027
18992
19015
19050
18998
18948
19000
18993
18954
18958
19017
18982
18927
18990
19016
19022
18953
18992
19013
18955
18958
19006
19000
18946
18953
18987
18985
18946
18946
18966
18980
18891
18920
18924
18921
18842
18887
18905
18831
18816
18854
18866
18757
18792
18826
18819
18747
18802
18815
18818
18742
18807
18852
18765
18748
18785
18825
18781
18776
18838
18841
18785
18840
18881
18833
18819
18860
18893
18868
18870
18935
18978
18917
18928
18982
19017
18922
19002
19034
19047
19029
19086
19172
19152
19202
19242
19302
19281
19314
19347
19356
19330
19349
19346
19330
19305
19338
19354
19293
19263
19302
19301
19257
19243
19308
19286
19253
19244
19288
19272
19222
19241
19273
19234
19215
19249
19288
19220
19221
19220
19235
19175
19175
19217
19206
19172
19167
19193
19165
19139
19168
19179
19111
19109
19151
19118
19089
19085
19091
19092
19067
19036
19086
19036
19009
19033
19015
18999
18973
18994
19037
18959
18950
19002
18981
18904
18960
18980
18916
18904
18944
18965
18944
18913
18934
18951
18895
18888
18939
18927
18877
18886
18898
18907
18819
18855
18890
18858
18813
18826
18883
18809
18792
18820
18804
18719
18742
18750
18760
18711
18749
18731
18735
18671
18730
18762
18683
18673
18721
18746
18676
18712
18752
18757
18706
18757
18785
18746
18720
18735
18792
18734
18739
18776
18777
18755
18763
18800
18813
18781
18834
18885
18866
18825
18894
18922
18940
18936
19007
19066
19036
19095
19166
19189
19150
19195
19228
19218
19176
19245
19225
19197
19146
19187
19226
19175
19166
19186
19213
19154
19160
19205
19176
19123
19151
19189
19142
19131
19154
19169
19135
19122
19125
19159
19099
19119
19151
19139
19094
19107
19147
19114
19046
19101
19130
19090
19063
19082
19087
19047
19062
19067
19095
19013
19080
19076
19041
19001
19034
19052
19023
18977
19008
19043
18953
19006
19011
18992
18918
18951
18996
18949
18918
18935
18957
18916
18910
18954
18923
18910
18924
18966
18948
18899
18937
18949
18921
18846
18912
18889
18859
18834
18864
18845
18754
18796
18790
18804
18724
18725
18761
18713
18684
18715
18717
18714
18669
18709
18735
18679
18696
18722
18727
18679
18694
18738
18725
18691
18678
18721
18715
18679
18715
18744
18712
18689
18758
18772
18735
18769
18846
18819
18767
18842
18867
18883
18852
18924
18945
18958
18991
19036
19106
19061
19103
19155
19198
19101
19160
19197
19185
19149
19217
19206
19175
19125
19187
19167
19130
19141
19178
19168
19098
19099
19116
19138
19080
19124
19129
19100
19100
19134
19157
19117
19089
19137
19166
19072
19096
19101
19096
19041
19075
19069
19051
19021
19078
19066
19031
19038
19075
19059
19001
19029
19035
19034
18976
19004
19039
19029
18957
18980
18997
18950
18969
19008
19043
18965
18986
19027
18985
18977
18971
19002
18957
18931
18963
18979
18927
18936
18969
18969
18906
18948
18950
18937
18879
18910
18945
18913
18817
18865
18854
18831
18793
18854
18812
18785
18793
18806
18780
18746
18748
18796
18783
18759
18777
18818
18758
18709
18795
18799
18753
18773
18827
18811
18756
18771
18839
18847
18800
18827
18881
18849
18798
18885
18885
18853
18846
18922
18943
18908
18917
18988
19012
18973
19059
19123
19081
19094
19146
19227
19233
19242
19333
19349
19275
19314
19363
19335
19314
19320
19361
19325
19257
19311
19313
19273
19251
19297
19296
19253
19287
19304
19296
19230
19261
19290
19289
19212
19288
19298
19263
19283
19282
19313
19244
19262
19295
19304
19244
19236
19301
19273
19223
19267
19268
19238
19195
19209
19258
19173
19201
19242
19248
19173
19200
19244
19220
19180
19190
19207
19175
19140
19202
19205
19132
19146
19180
19160
19127
19147
19178
19180
19122
19190
19208
19161
19157
19184
19195
19140
19145
19188
19187
19153
19150
19193
19203
19121
19160
19165
19137
19077
19105
19132
19060
19053
19076
19086
19021
19029
19040
19035
18985
19016
19060
19008
18980
19003
19070
19026
19000
19055
19060
19022
19040
19064
19074
19046
19085
19091
19089
19041
19068
19106
19104
19083
19120
19132
19099
19104
19157
19185
19146
19215
19251
19264
19249
19304
19399
19384
19412
19486
19540
19483
19524
19554
19530
19504
19522
19555
19542
19488
19529
19570
19540
19466
19556
19564
19480
19491
19496
19491
19409
19498
19489
19489
19426
19465
19486
19453
19423
19468
19492
19425
19394
19476
19454
19388
19402
19412
19437
19374
19406
19415
19414
19382
19403
19414
19346
19360
19420
19403
19338
19349
19396
19380
19277
19351
19370
19313
19261
19324
19309
19262
19249
19289
19297
19242
19232
19288
19279
19209
19245
19264
19290
19194
19258
19283
19244
19214
19259
19302
19233
19221
19241
19288
19214
19220
19268
19255
19173
19215
19228
19186
19171
19176
19207
19114
19093
19129
19117
19036
19093
19103
19089
19044
19065
19108
19074
19012
19104
19112
19053
19031
19095
19126
19067
19101
19125
19141
19082
19143
19177
19117
19109
19147
19177
19149
19115
19188
19209
19183
19184
19210
19216
19185
19244
19302
19277
19259
19325
19376
19377
19376
19454
19530
19522
19521
19596
19581
19539
19584
19606
19566
19550
19604
19616
19552
19547
19603
19576
19519
19517
19571
19538
19483
19484
19541
19500
19457
19450
19527
19468
19441
19460
19484
19444
19424
19470
19480
19389
19426
19416
19439
19376
19398
19421
19441
19369
19398
19420
19384
19383
19401
19385
19352
19349
19398
19409
19361
19341
19375
19345
19298
19366
19355
19319
19290
19300
19349
19254
19285
19308
19289
19269
19305
19312
19310
19264
19285
19300
19264
19245
19284
19308
19249
19248
19255
19281
19239
19228
19273
19260
19197
19197
19226
19165
19124
19169
19161
19095
19084
19135
19122
19083
19076
19098
19097
19017
19068
19099
19062
19052
19124
19149
19113
19115
19152
19118
19130
19148
19142
19188
19105
19168
19195
19206
19152
19199
19236
19191
19205
19223
19281
19211
19254
19307
19302
19293
19349
19424
19424
19386
19458
19526
19558
19538
19603
19636
19580
19626
19659
19665
19593
19638
19667
19649
19566
19647
19651
19614
19600
19634
19603
19607
19605
19630
19636
19602
19597
19613
19632
19564
19591
19623
19575
19558
19574
19597
19538
19520
19567
19556
19524
19545
19565
19582
19542
19544
19556
19521
19520
19542
19559
19498
19507
19514
19519
19443
19461
19474
19463
19383
19434
19443
19398
19391
19388
19441
19406
19374
19414
19436
19357
19395
19419
19385
19334
19346
19383
19322
19311
19370
19372
19323
19299
19344
19368
19310
19311
19336
19311
19288
19283
19344
19284
19237
19282
19250
19233
19197
19224
19225
19157
19175
19201
19191
19175
19171
19199
19178
19113
19143
19173
19134
19150
19198
19184
19153
19193
19224
19224
19205
19202
19255
19232
19205
19275
19284
19298
19282
19302
19347
19284
19306
19342
19406
19321
19405
19434
19443
19417
19475
19546
19578
19594
19669
19687
19692
19702
19741
19746
19693
19721
19752
19729
19676
19691
19726
19707
19677
19718
19746
19667
19677
19677
19708
19627
19681
19695
19710
19650
19700
19700
19703
19611
19665
19670
19648
19605
19630
19683
19596
19609
19644
19644
19606
19627
19669
19653
19580
19619
19635
19575
19545
19608
19606
19543
19542
19591
19580
19490
19532
19534
19533
19481
19504
19554
19494
19448
19510
19533
19465
19484
19471
19487
19420
19445
19438
19433
19403
19418
19406
19380
19370
19389
19400
19359
19324
19375
19340
19307
19324
19326
19311
19256
19275
19294
19252
19218
19225
19220
19187
19143
19164
19151
19135
19124
19167
19160
19101
19136
19172
19149
19114
19143
19172
19125
19134
19150
19161
19139
19173
19196
19204
19145
19190
19185
19167
19169
19184
19188
19193
19147
19231
19266
19176
19257
19293
19317
19281
19333
19397
19406
19417
19476
19531
19524
19534
19574
19625
19589
19603
19642
19635
19582
19589
19606
19583
19543
19563
19560
19575
19512
19539
19593
19521
19497
19527
19516
19508
19479
19510
19526
19451
19507
19509
19490
19469
19488
19553
19481
19455
19509
19492
19439
19480
19513
19515
19464
19495
19500
19512
19462
19491
19498
19476
19444
19509
19528
19497
19493
19517
19526
19476
19491
19518
19487
19442
19489
19500
19459
19433
19492
19500
19448
19405
19487
19471
19393
19404
19489
19455
19388
19436
19437
19403
19375
19413
19424
19348
19380
19386
19377
19353
19350
19378
19341
19298
19327
19330
19320
19284
19293
19299
19218
19223
19239
19210
19144
19176
19189
19170
19140
19187
19191
19176
19162
19180
19198
19149
19128
19233
19215
19160
19199
19220
19259
19189
19215
19251
19217
19203
19239
19288
19238
19228
19266
19297
19267
19274
19324
19351
19339
19366
19419
19439
19462
19487
19572
19540
19576
19653
19664
19657
19710
19718
19760
19686
19688
19748
19707
19675
19726
19730
19695
19651
19707
19715
19650
19628
19667
19664
19630
19659
19675
19675
19624
19668
19679
19658
19613
19703
19664
19607
19624
19657
19654
19609
19613
19637
19654
19595
19623
19618
19606
19564
19609
19617
19587
19558
19589
19586
19576
19556
19568
19566
19551
19565
19596
19524
19483
19537
19506
19505
19484
19511
19518
19440
19454
19491
19514
19451
19475
19506
19455
19415
19462
19482
19451
19410
19454
19483
19426
19435
19433
19469
19363
19397
19436
19440
19347
19430
19398
19357
19328
19363
19374
19300
19292
19289
19282
19237
19257
19289
19266
19230
19248
19301
19245
19229
19245
19283
19230
19252
19273
19265
19233
19250
19265
19237
19232
19255
19296
19272
19228
19286
19284
19257
19256
19282
19313
19269
19323
19374
19356
19336
19388
19425
19429
19456
19500
19530
19506
19569
19634
19689
19657
19716
19757
19755
19720
19745
19760
19748
19685
19734
19741
19733
19677
19699
19744
19683
19740
19715
19710
19689
19683
19717
19690
19670
19691
19701
19670
19654
19664
19713
19626
19647
19684
19697
19614
19635
19648
19639
19600
19630
19635
19635
19613
19624
19637
19578
19604
19619
19637
19560
19587
19601
19615
19535
19577
19623
19559
19529
19561
19587
19532
19537
19580
19571
19499
19538
19535
19551
19488
19479
19542
19492
19448
19503
19508
19499
19470
19511
19526
19461
19465
19493
19520
19432
19475
19507
19453
19428
19466
19444
19422
19388
19415
19391
19337
19320
19355
19324
19291
19276
19307
19292
19227
19259
19274
19260
19219
19297
19310
19270
19249
19309
19298
19239
19275
19312
19288
19243
19297
19340
19322
19307
19318
19350
19324
19313
19331
19369
19326
19335
19399
19384
19347
19412
19437
19438
19435
19507
19575
19514
19573
19631
19707
19649
19723
19758
19788
19733
19766
19788
19755
19725
19752
19788
19731
19708
19733
19758
19691
19722
19757
19726
19686
19726
19724
19718
19667
19714
19723
19671
19670
19673
19699
19631
19647
19694
19687
19625
19680
19659
19670
19603
19664
19682
19647
19647
19642
19686
19608
19636
19657
19649
19584
19596
19610
19636
19547
19605
19606
19554
19546
19575
19593
19520
19524
19597
19561
19539
19524
19575
19560
19497
19543
19528
19521
19472
19548
19548
19515
19501
19539
19549
19489
19525
19552
19542
19468
19510
19537
19502
19454
19480
19487
19452
19417
19460
19470
19370
19360
19392
19381
19308
19348
19373
19355
19260
19313
19348
19297
19277
19300
19345
19265
19319
19349
19361
19273
19318
19354
19350
19330
19343
19378
19336
19334
19371
19386
19341
19327
19400
19415
19346
19409
19431
19431
19404
19474
19484
19515
19469
19552
19627
19625
19641
19745
19753
19739
19790
19835
19832
19810
19810
19867
19818
19769
19811
19833
19801
19774
19799
19785
19780
19764
19804
19776
19708
19737
19761
19728
19710
19720
19765
19708
19703
19750
19742
19662
19702
19750
19719
19673
19700
19730
19709
19657
19714
19680
19674
19652
19721
19707
19646
19636
19680
19708
19611
19631
19671
19631
19606
19619
19610
19625
19563
19614
19607
19540
19534
19600
19568
19527
19541
19586
19555
19494
19532
19524
19508
19513
19497
19518
19470
19499
19492
19467
19428
19451
19453
19445
19424
19439
19448
19409
19417
19413
19435
19402
19368
19390
19357
19330
19303
19345
19311
19227
19228
19291
19236
19218
19258
19250
19217
19217
19280
19251
19208
19235
19278
19283
19231
19251
19284
19291
19191
19290
19309
19259
19251
19281
19299
19259
19268
19325
19318
19291
19320
19337
19336
19276
19350
19382
19379
19354
19431
19471
19458
19493
19566
19582
19604
19624
19714
19723
19669
19723
19754
19747
19690
19750
19774
19705
19711
19727
19742
19705
19693
19733
19717
19648
19692
19732
19646
19639
19680
19704
19647
19644
19669
19713
19653
19653
19659
19672
19630
19650
19657
19627
19596
19629
19639
19594
19601
19621
19658
19586
19583
19603
19590
19541
19577
19590
19553
19515
19531
19571
19526
19512
19538
19545
19494
19471
19506
19500
19469
19449
19458
19462
19401
19452
19446
19415
19382
19419
19419
19364
19422
19435
19389
19359
19382
19421
19391
19377
19368
19409
19374
19351
19364
19357
19303
19356
19333
19314
19261
19274
19277
19285
19214
19222
19232
19212
19186
19197
19216
19150
19170
19181
19230
19160
19179
19210
19222
19161
19199
19215
19210
19196
19233
19215
19206
19206
19253
19290
19228
19241
19270
19274
19234
19270
19288
19276
19238
19306
19358
19322
19361
19396
19416
19373
19445
19450
19537
19524
19565
19629
19632
19624
19703
19726
19708
19708
19762
19742
19722
19716
19722
19716
19700
19683
19728
19713
19635
19689
19686
19671
19645
19673
19673
19619
19618
19654
19656
19621
19616
19657
19626
19614
19640
19654
19621
19610
19642
19614
19557
19540
19604
19592
19574
19563
19557
19567
19518
19542
19565
19531
19516
19534
19561
19510
19485
19513
19523
19441
19484
19502
19459
19460
19477
19470
19413
19393
19448
19459
19436
19433
19452
19464
19401
19412
19438
19419
19377
19416
19408
19387
19370
19394
19425
19389
19359
19392
19405
19326
19313
19334
19324
19256
19263
19255
19245
19143
19184
19225
19155
19172
19164
19177
19129
19159
19163
19177
19122
19205
19182
19187
19138
19192
19195
19168
19145
19183
19192
19164
19166
19183
19238
19200
19196
19246
19256
19224
19252
19288
19297
19282
19332
19380
19353
19369
19417
19443
19452
19490
19559
19584
19604
19653
19729
19693
19663
19714
19707
19697
19680
19700
19711
19672
19685
19697
19712
19650
19680
19696
19706
19647
19684
19719
19700
19682
19701
19717
19688
19677
19740
19730
19677
19743
19725
19720
19719
19739
19756
19701
19705
19700
19732
19697
19692
19711
19739
19683
19679
19695
19696
19655
19682
19668
19650
19628
19660
19681
19587
19627
19643
19618
19594
19579
19623
19605
19548
19567
19561
19582
19542
19592
19583
19567
19551
19606
19595
19548
19569
19588
19605
19517
19568
19586
19567
19559
19556
19581
19553
19477
19507
19510
19457
19484
19444
19459
19392
19392
19431
19403
19350
19358
19384
19386
19350
19378
19384
19362
19395
19419
19419
19355
19385
19424
19405
19384
19397
19420
19441
19409
19423
19442
19410
19437
19465
19478
19431
19464
19489
19496
19467
19518
19567
19540
19550
19598
19638
19616
19658
19748
19787
19775
19850
19897
19918
19896
19915
19927
19922
19883
19927
19932
19902
19895
19912
19930
19867
19866
19905
19909
19845
19865
19906
19839
19831
19847
19891
19828
19831
19857
19877
19798
19803
19825
19859
19806
19811
19829
19845
19770
19797
19835
19766
19767
19799
19800
19762
19742
19785
19750
19698
19735
19771
19708
19676
19679
19690
19668
19652
19677
19687
19658
19639
19680
19655
19593
19617
19607
19614
19539
19606
19626
19584
19572
19593
19604
19524
19547
19569
19588
19503
19548
19560
19558
19509
19534
19548
19535
19478
19491
19498
19446
19431
19459
19440
19406
19394
19387
19387
19338
19320
19344
19327
19304
19331
19337
19318
19283
19356
19342
19332
19349
19359
19348
19334
19356
19376
19365
19359
19378
19412
19360
19369
19429
19398
19407
19409
19447
19452
19416
19463
19525
19475
19479
19531
19569
19566
19595
19670
19705
19694
19766
19825
19836
19836
19877
19892
19905
19882
19868
19915
19882
19849
19891
19852
19828
19851
19852
19854
19813
19817
19826
19811
19795
19793
19823
19795
19757
19791
19836
19777
19788
19809
19821
19762
19757
19792
19807
19703
19793
19766
19766
19714
19752
19762
19728
19676
19733
19725
19653
19651
19692
19685
19657
19686
19669
19698
19655
19665
19673
19612
19597
19644
19640
19584
19609
19611
19606
19567
19573
19603
19562
19531
19592
19578
19541
19501
19540
19571
19505
19545
19553
19536
19522
19534
19555
19536
19475
19482
19507
19466
19447
19492
19480
19445
19409
19428
19409
19357
19360
19370
19345
19306
19316
19351
19333
19281
19326
19324
19292
19301
19345
19358
19322
19269
19341
19348
19304
19360
19382
19349
19321
19346
19361
19344
19339
19364
19371
19342
19354
19388
19397
19381
19407
19447
19434
19417
19487
19510
19508
19510
19562
19618
19605
19640
19698
19748
19742
19800
19824
19818
19767
19820
19873
19825
19788
19839
19835
19814
19803
19843
19819
19799
19804
19857
19831
19771
19816
19801
19815
19793
19825
19827
19798
19782
19812
19834
19769
19771
19813
19811
19737
19753
19772
19762
19719
19751
19749
19710
19710
19768
19780
19707
19734
19745
19743
19712
19740
19727
19711
19687
19740
19741
19701
19687
19685
19707
19682
19682
19694
19703
19666
19665
19665
19660
19622
19641
19698
19652
19634
19664
19667
19600
19676
19637
19656
19589
19613
19657
19657
19585
19616
19623
19621
19541
19595
19567
19519
19514
19499
19493
19474
19469
19469
19449
19423
19417
19453
19449
19392
19454
19461
19417
19420
19479
19490
19436
19462
19472
19472
19451
19494
19511
19498
19440
19504
19525
19504
19521
19547
19567
19517
19566
19585
19611
19536
19569
19645
19631
19619
19682
19708
19691
19716
19791
19854
19856
19888
19960
19946
19934
19991
20011
20005
19955
20016
20022
19982
19972
19979
19987
19914
19938
19954
19955
19923
19927
19948
19936
19885
19931
19965
19941
19874
19936
19966
19906
19889
19917
19925
19874
19929
19919
19894
19853
19911
19887
19863
19830
19881
19904
19870
19823
19876
19874
19814
19832
19825
19843
19832
19798
19842
19790
19788
19789
19811
19790
19769
19791
19807
19719
19747
19769
19783
19730
19748
19729
19744
19718
19737
19747
19713
19718
19752
19755
19721
19699
19762
19735
19676
19688
19723
19705
19675
19685
19699
19653
19603
19654
19628
19534
19569
19549
19548
19514
19531
19525
19525
19466
19504
19548
19496
19478
19562
19555
19528
19514
19534
19552
19531
19574
19595
19558
19544
19584
19601
19592
19562
19580
19600
19604
19562
19624
19652
19612
19614
19637
19680
19648
19703
19757
19745
19790
19824
19878
19899
19941
19997
20020
19955
20032
20080
20110
20044
20081
20074
20078
20045
20090
20085
20055
20032
20061
20079
20001
20027
20046
20065
20006
20021
20025
20011
19996
19986
20029
19972
19989
19980
19983
19974
19992
19980
19987
19934
19958
19979
19957
19927
19934
19967
19924
19942
19931
19951
19874
19891
19883
19872
19825
19853
19862
19850
19799
19839
19854
19800
19796
19836
19832
19815
19798
19821
19833
19734
19802
19823
19790
19769
19785
19781
19775
19752
19769
19769
19730
19721
19753
19722
19706
19734
19754
19732
19689
19733
19716
19714
19636
19674
19675
19599
19612
19603
19604
19540
19567
19549
19583
19532
19544
19542
19535
19508
19532
19560
19539
19511
19566
19591
19537
19594
19601
19623
19553
19583
19635
19621
19572
19625
19668
19630
19613
19662
19643
19637
19648
19681
19691
19648
19690
19742
19757
19737
19812
19859
19857
19904
19994
20040
20039
20069
20104
20116
20072
20107
20148
20102
20078
20105
20122
20083
20089
20121
20106
20087
20069
20090
20090
20063
20062
20081
20094
20046
20042
20056
20042
20000
20057
20052
20011
20027
20029
20034
20006
20008
20020
20018
19980
19974
20001
19983
19927
19984
19975
19948
19914
19971
19969
19933
19895
19959
19944
19888
19924
19925
19889
19828
19874
19910
19864
19833
19865
19870
19802
19826
19831
19831
19804
19799
19840
19803
19759
19767
19811
19774
19747
19758
19764
19706
19760
19783
19776
19712
19743
19788
19737
19722
19730
19752
19714
19681
19695
19673
19631
19633
19645
19605
19562
19604
19599
19576
19539
19550
19598
19571
19548
19555
19605
19554
19569
19593
19574
19560
19563
19595
19602
19570
19595
19622
19604
19567
19632
19637
19602
19604
19634
19661
19630
19641
19669
19700
19659
19718
19748
19756
19739
19807
19845
19850
19907
19979
20029
19970
20007
20078
20109
20037
20080
20085
20082
20046
20048
20083
20050
20049
20063
20075
20041
20038
20064
20074
20021
19999
20059
20038
20006
20033
20065
20031
19986
20045
20029
20030
19993
20017
20027
19972
20021
20008
20004
19962
20000
20020
20009
19949
19941
19978
19940
19912
19955
19929
19890
19901
19928
19914
19879
19917
19924
19866
19852
19877
19901
19845
19870
19872
19884
19856
19849
19876
19852
19849
19842
19890
19836
19778
19823
19835
19785
19785
19807
19838
19782
19794
19810
19803
19781
19798
19811
19814
19723
19751
19766
19710
19678
19713
19684
19650
19632
19674
19669
19601
19590
19625
19612
19545
19602
19641
19594
19605
19604
19613
19568
19587
19626
19661
19616
19616
19664
19636
19561
19632
19635
19630
19614
19673
19664
19664
19662
19685
19684
19665
19705
19726
19763
19721
19769
19832
19856
19827
19886
19967
19980
19972
20046
20107
20057
20085
20111
20139
20075
20078
20124
20112
20054
20073
20074
20088
20019
20072
20083
20020
20032
20052
20076
20011
20024
20063
20022
19996
20025
20041
20034
19999
20024
20054
19977
20010
20041
20031
19969
19974
20027
19989
19971
19989
19997
19962
19941
19965
19956
19941
19911
19929
19944
19886
19899
19898
19918
19844
19882
19887
19879
19807
19858
19869
19830
19811
19845
19844
19791
19809
19839
19814
19768
19807
19792
19817
19761
19766
19754
19777
19752
19770
19778
19736
19761
19740
19760
19708
19704
19714
19700
19674
19680
19692
19633
19601
19660
19645
19573
19570
19593
19617
19575
19560
19592
19610
19551
19603
19608
19592
19577
19622
19621
19586
19590
19644
19633
19633
19639
19647
19671
19616
19635
19700
19669
19657
19680
19743
19702
19689
19757
19767
19759
19794
19822
19848
19819
19882
19956
19980
19992
20053
20108
20101
20106
20182
20187
20120
20138
20206
20176
20144
20130
20186
20155
20121
20149
20175
20144
20113
20162
20150
20136
20170
20156
20143
20107
20164
20197
20171
20154
20190
20188
20185
20163
20211
20196
20165
20192
20189
20198
20168
20175
20144
20169
20140
20170
20170
20137
20138
20145
20157
20084
20100
20112
20142
20099
20102
20136
20120
20053
20080
20117
20093
20029
20101
20051
20015
20024
20041
20040
19993
19980
20043
20028
19968
20017
20011
19995
19946
19979
20000
19949
19972
19972
19971
19953
19973
19942
19924
19910
19896
19942
19901
19834
19827
19855
19810
19779
19814
19795
19785
19781
19797
19756
19710
19754
19729
19764
19712
19740
19755
19761
19727
19757
19788
19722
19761
19776
19770
19743
19795
19793
19810
19747
19774
19852
19787
19790
19792
19822
19794
19819
19848
19878
19831
19882
19916
19969
19952
20040
20078
20133
20140
20204
20260
20227
20250
20289
20303
20230
20259
20305
20309
20251
20267
20305
20224
20229
20257
20255
20198
20214
20234
20226
20169
20172
20213
20205
20149
20189
20202
20171
20148
20185
20206
20133
20092
20143
20169
20101
20117
20151
20156
20079
20131
20125
20120
20073
20079
20089
20070
20050
20060
20086
20009
20023
20063
20079
19984
19983
19988
20010
19952
19985
19989
19954
19924
19970
19958
19917
19927
19959
19931
19871
19900
19916
19912
19853
19855
19862
19867
19813
19857
19853
19799
19822
19841
19850
19781
19844
19807
19820
19775
19817
19841
19818
19781
19812
19814
19759
19736
19750
19782
19705
19692
19698
19688
19639
19643
19695
19654
19622
19666
19662
19650
19647
19670
19666
19627
19642
19684
19665
19627
19687
19690
19676
19687
19678
19706
19705
19674
19687
19728
19696
19708
19758
19743
19698
19744
19758
19798
19739
19806
19815
19820
19801
19888
19963
19929
19985
20040
20069
20096
20135
20188
20164
20138
20164
20200
20191
20155
20178
20209
20143
20159
20155
20176
20104
20152
20150
20151
20129
20129
20146
20113
20115
20130
20142
20113
20089
20103
20114
20081
20088
20107
20115
20047
20100
20066
20073
19999
20067
20083
20028
20005
20070
20059
20018
20016
20052
20050
19998
20017
20033
20022
19968
20008
20004
19981
19958
19972
19982
19922
19936
19966
19945
19892
19905
19932
19905
19887
19923
19944
19892
19846
19908
19924
19898
19865
19916
19891
19821
19848
19873
19867
19835
19855
19845
19834
19810
19844
19879
19835
19823
19802
19799
19768
19780
19785
19740
19741
19727
19730
19702
19672
19705
19722
19680
19641
19693
19665
19655
19651
19696
19669
19639
19698
19708
19682
19636
19691
19705
19676
19697
19740
19707
19673
19699
19755
19744
19744
19734
19778
19773
19721
19781
19826
19776
19784
19860
19869
19862
19888
19941
19946
19923
19979
20059
20112
20086
20131
20186
20171
20184
20211
20254
20190
20199
20232
20207
20175
20180
20193
20173
20136
20172
20193
20176
20138
20164
20143
20137
20109
20115
20132
20085
20099
20133
20142
20094
20099
20124
20105
20071
20120
20109
20106
20100
20093
20122
20051
20072
20105
20062
20049
20077
20100
20068
20038
20054
20072
20033
20015
20036
20035
20014
20021
19982
20023
19952
20006
19999
19989
19969
20008
20008
19964
19955
19953
19973
19934
19965
19977
19978
19922
19952
19948
19951
19929
19916
19951
19907
19865
19924
19926
19879
19885
19931
19900
19881
19899
19900
19870
19822
19832
19842
19783
19757
19784
19783
19728
19758
19777
19820
19739
19759
19760
19779
19719
19711
19780
19764
19753
19774
19797
19784
19784
19807
19796
19809
19786
19816
19852
19774
19830
19828
19844
19812
19857
19869
19836
19837
19892
19911
19874
19910
19973
19958
19990
20018
20115
20091
20092
20219
20220
20226
20246
20295
20319
20270
20246
20281
20280
20241
20280
20325
20274
20223
20276
20268
20242
20214
20253
20257
20214
20210
20248
20218
20184
20174
20208
20218
20159
20198
20180
20178
20142
20204
20216
20147
20145
20165
20168
20132
20174
20160
20165
20130
20130
20181
20124
20073
20151
20143
20084
20093
20116
20102
20036
20055
20085
20057
20015
20045
20034
20057
19983
20024
20022
19975
19958
19987
19980
19929
19975
19991
19954
19928
19933
19933
19906
19898
19906
19949
19896
19877
19916
19923
19885
19916
19925
19895
19864
19871
19895
19911
19845
19910
19871
19848
19817
19842
19846
19793
19756
19811
19771
19733
19734
19765
19737
19685
19749
19732
19728
19703
19748
19748
19720
19721
19768
19765
19730
19742
19788
19758
19713
19789
19776
19783
19766
19798
19831
19792
19792
19831
19854
19817
19860
19865
19851
19833
19898
19926
19920
19887
19985
19980
19992
20015
20091
20147
20117
20186
20224
20256
20209
20234
20296
20270
20231
20239
20263
20237
20228
20280
20266
20222
20241
20250
20253
20220
20226
20208
20229
20182
20222
20223
20207
20168
20225
20238
20175
20148
20201
20174
20147
20152
20197
20187
20112
20147
20134
20128
20092
20095
20147
20089
20076
20113
20110
20051
20063
20112
20084
20032
20085
20092
20077
20044
20076
20057
20047
20030
20038
20066
20025
20051
20050
20034
19986
20005
20044
19995
20003
19992
20022
19981
19951
19987
20018
19962
19949
19978
19998
19963
19989
19977
19987
19924
19926
19955
19920
19933
19963
19951
19916
19895
19905
19880
19823
19816
19852
19808
19770
19782
19833
19770
19750
19791
19800
19771
19791
19805
19779
19739
19757
19802
19787
19772
19808
19824
19804
19783
19843
19860
19835
19869
19866
19896
19847
19844
19905
19921
19894
19906
19937
19931
19920
19962
20007
19987
20005
20049
20079
20063
20105
20181
20202
20196
20268
20308
20308
20272
20330
20377
20310
20327
20365
20336
20308
20321
20338
20337
20261
20301
20330
20304
20277
20325
20305
20272
20266
20302
20292
20258
20267
20289
20306
20244
20264
20274
20251
20243
20263
20304
20270
20222
20251
20294
20217
20219
20226
20240
20193
20223
20232
20234
20169
20211
20213
20161
20168
20181
20214
20150
20153
20167
20135
20138
20124
20179
20145
20104
20133
20133
20116
20035
20114
20134
20080
20070
20055
20123
20038
20061
20053
20065
20053
20065
20061
20066
20019
20059
20042
20011
20006
20042
20034
19999
19998
20005
20031
19955
19987
19979
19972
19904
19936
19941
19913
19860
19924
19884
19848
19846
19904
19889
19849
19884
19883
19875
19845
19878
19925
19860
19885
19910
19947
19876
19899
19947
19944
19907
19919
19933
19958
19933
19948
19945
19960
19925
20006
19990
20004
20000
20050
20044
20028
20082
20131
20141
20166
20257
20329
20316
20319
20348
20426
20374
20403
20427
20446
20384
20430
20431
20425
20393
20389
20448
20415
20365
20384
20430
20385
20373
20407
20388
20347
20343
20389
20398
20319
20335
20384
20331
20318
20345
20357
20318
20337
20334
20346
20289
20302
20363
20341
20309
20325
20327
20321
20297
20301
20311
20263
20232
20281
20278
20214
20244
20238
20246
20174
20213
20232
20218
20178
20221
20187
20180
20145
20206
20182
20157
20143
20188
20178
20127
20116
20164
20154
20072
20124
20107
20099
20090
20089
20144
20071
20069
20077
20116
20057
20062
20102
20082
20028
20078
20061
20034
20006
20009
20022
19940
19963
19978
19970
19907
19931
19941
19926
19874
19891
19907
19890
19875
19907
19913
19881
19875
19927
19917
19895
19905
19931
19957
19905
19942
19943
19907
19942
19950
19967
19941
19936
19968
19997
19951
19968
20013
19993
19959
19990
20069
20069
20025
20144
20186
20198
20223
20290
20315
20298
20356
20420
20411
20393
20392
20450
20421
20368
20427
20431
20390
20400
20428
20444
20404
20409
20405
20422
20350
20389
20390
20365
20336
20385
20388
20400
20351
20403
20376
20353
20363
20394
20381
20331
20352
20382
20352
20361
20358
20379
20365
20325
20336
20387
20318
20328
20367
20366
20318
20307
20315
20295
20228
20283
20282
20279
20208
20271
20283
20234
20213
20235
20242
20190
20204
20216
20253
20184
20195
20216
20175
20114
20163
20161
20133
20100
20131
20136
20072
20104
20114
20113
20056
20078
20083
20083
20036
20080
20095
20081
20032
20061
20079
19995
19980
20032
20039
19978
19983
19999
19942
19873
19936
19930
19898
19874
19905
19877
19871
19858
19883
19903
19869
19863
19877
19867
19849
19868
19907
19865
19854
19906
19926
19891
19906
19918
19923
19904
19923
19985
19932
19908
19936
19978
19955
19942
19968
20023
19988
19983
20008
20063
20033
20122
20110
20164
20150
20231
20259
20319
20308
20342
20328
20369
20350
20396
20394
20357
20365
20370
20377
20314
20340
20366
20335
20289
20330
20349
20323
20280
20314
20339
20265
20270
20319
20304
20258
20253
20269
20251
20215
20230
20258
20221
20205
20221
20236
20176
20202
20265
20259
20178
20199
20205
20195
20152
20189
20177
20166
20153
20167
20161
20152
20132
20160
20170
20108
20114
20165
20128
20096
20108
20144
20107
20074
20078
20131
20106
20092
20094
20117
20071
20074
20096
20075
20032
20065
20092
20048
20005
20051
20067
20054
20024
20065
20053
20039
20031
20030
20029
19995
20015
20042
20008
19963
19987
19991
19977
19934
19966
19986
19905
19870
19917
19905
19863
19851
19888
19861
19824
19847
19872
19851
19829
19852
19849
19813
19832
19862
19869
19843
19843
19875
19890
19852
19862
19901
19881
19836
19894
19890
19845
19873
19896
19890
19889
19914
19923
19974
19926
19966
19994
20030
20002
20060
20116
20109
20149
20216
20255
20235
20291
20361
20358
20326
20355
20376
20375
20359
20357
20367
20356
20316
20343
20352
20328
20323
20335
20338
20291
20322
20309
20322
20265
20323
20337
20304
20258
20288
20304
20247
20228
20280
20275
20257
20232
20270
20274
20221
20261
20277
20265
20248
20252
20269
20207
20195
20225
20233
20177
20182
20203
20199
20128
20179
20199
20155
20108
20124
20161
20124
20092
20158
20103
20094
20104
20129
20121
20086
20099
20122
20089
20076
20084
20118
20060
20042
20102
20098
20033
20037
20052
20050
20005
20011
20056
20021
20024
19996
20014
19994
20004
20014
20024
19990
19973
20004
19990
19946
19960
19966
19929
19869
19918
19920
19891
19835
19870
19897
19840
19825
19857
19852
19818
19850
19848
19865
19805
19853
19858
19837
19845
19868
19904
19833
19841
19903
19914
19867
19860
19903
19903
19874
19901
19945
19897
19915
19935
19954
19928
19941
19986
20000
20018
20019
20094
20124
20109
20207
20212
20264
20282
20349
20372
20342
20366
20369
20415
20356
20381
20378
20344
20336
20387
20385
20380
20305
20381
20374
20339
20336
20346
20357
20298
20318
20344
20363
20316
20324
20356
20355
20310
20361
20338
20342
20304
20355
20363
20299
20310
20312
20331
20251
20302
20324
20309
20272
20286
20310
20300
20253
20274
20316
20254
20252
20273
20264
20207
20233
20246
20230
20175
20182
20211
20175
20134
20167
20173
20153
20155
20180
20196
20125
20127
20124
20126
20088
20116
20127
20097
20065
20108
20101
20087
20054
20091
20075
20065
20066
20066
20077
20036
20031
20062
20043
20010
20017
20052
20000
19950
19980
19993
19923
19891
19915
19919
19832
19884
19891
19870
19823
19869
19859
19872
19828
19852
19860
19846
19823
19897
19885
19845
19869
19888
19881
19857
19881
19943
19899
19886
19937
19954
19923
19927
19988
19962
19972
19989
20034
20025
20010
20044
20112
20119
20121
20206
20228
20228
20275
20320
20375
20326
20377
20437
20435
20387
20419
20435
20418
20360
20406
20440
20356
20346
20388
20360
20332
20352
20382
20353
20301
20319
20366
20347
20290
20330
20348
20296
20299
20349
20338
20281
20295
20339
20328
20269
20288
20294
20307
20263
20289
20299
20281
20230
20272
20289
20216
20246
20237
20238
20189
20190
20249
20218
20155
20187
20209
20193
20193
20220
20209
20140
20146
20150
20143
20126
20166
20165
20148
20103
20121
20150
20116
20054
20102
20123
20085
20095
20098
20114
20036
20063
20079
20086
20046
20072
20089
20044
20021
20042
20077
20022
20035
20053
20070
20008
20000
20018
20019
19951
19978
19977
19935
19913
19935
19942
19885
19886
19894
19896
19851
19875
19871
19884
19859
19865
19888
19862
19844
19867
19893
19848
19829
19884
19872
19835
19897
19890
19914
19872
19922
19913
19922
19875
19905
19961
19920
19935
19968
19991
19956
19991
20006
20051
20054
20074
20125
20145
20185
20235
20322
20303
20314
20363
20401
20376
20394
20401
20416
20392
20414
20414
20368
20370
20373
20404
20362
20335
20344
20392
20307
20344
20334
20332
20312
20338
20355
20345
20330
20331
20333
20313
20289
20319
20299
20314
20286
20321
20320
20280
20306
20311
20320
20292
20279
20301
20304
20251
20249
20284
20241
20216
20287
20261
20198
20229
20211
20215
20157
20182
20196
20183
20115
20158
20172
20142
20146
20162
20133
20110
20091
20149
20141
20073
20140
20124
20100
20057
20085
20075
20062
20051
20065
20080
20058
20046
20068
20066
20015
20055
20054
20030
20011
19995
20028
20016
20006
20028
20059
20011
19961
20011
19990
19911
19943
19971
19925
19886
19891
19885
19857
19851
19859
19849
19820
19829
19835
19854
19815
19843
19864
19858
19828
19859
19889
19862
19867
19868
19881
19878
19895
19898
19904
19920
19894
19927
19954
19883
19932
19958
19949
19938
19960
19999
19984
19972
20024
20078
20020
20082
20136
20186
20163
20239
20308
20347
20341
20394
20432
20396
20382
20424
20470
20394
20382
20446
20425
20375
20402
20392
20401
20362
20374
20401
20356
20342
20386
20410
20356
20326
20396
20397
20364
20363
20357
20367
20329
20342
20366
20329
20308
20352
20330
20320
20309
20323
20307
20317
20280
20318
20309
20275
20297
20294
20282
20228
20242
20272
20258
20221
20244
20259
20227
20223
20225
20240
20194
20211
20215
20200
20185
20193
20236
20151
20159
20143
20179
20127
20115
20122
20134
20081
20085
20117
20121
20094
20109
20107
20059
20063
20066
20087
20046
20055
20071
20090
20020
20080
20060
20043
20009
20029
20050
19956
19972
20000
20025
19924
19918
19977
19948
19894
19905
19900
19936
19861
19856
19900
19893
19858
19891
19890
19861
19863
19875
19891
19887
19885
19887
19914
19870
19913
19924
19917
19891
19934
19947
19945
19926
19973
19986
19902
19931
19973
20000
19974
20050
20061
20048
20060
20107
20179
20179
20211
20247
20343
20294
20364
20382
20443
20394
20433
20456
20433
20416
20436
20440
20423
20413
20421
20434
20377
20364
20418
20402
20365
20352
20395
20369
20367
20385
20413
20357
20358
20386
20378
20329
20344
20381
20378
20331
20349
20352
20348
20314
20339
20333
20309
20298
20344
20353
20312
20308
20312
20325
20254
20292
20288
20280
20241
20251
20256
20226
20205
20243
20252
20190
20207
20186
20212
20168
20172
20191
20175
20128
20196
20201
20138
20133
20166
20193
20131
20090
20136
20153
20072
20101
20127
20122
20067
20104
20115
20059
20024
20082
20106
20034
20052
20047
20057
19993
20042
20015
19999
19936
19993
19966
19970
19910
19927
19948
19901
19886
19916
19920
19868
19883
19914
19896
19869
19904
19916
19938
19891
19916
19981
19940
19937
19952
19997
19976
19995
19985
20056
19955
20001
20029
20027
20000
20038
20050
20055
20038
20102
20107
20093
20085
20152
20209
20220
20222
20267
20324
20313
20396
20417
20432
20402
20480
20503
20474
20461
20531
20491
20458
20488
20512
20479
20460
20466
20481
20454
20431
20442
20452
20438
20447
20442
20453
20426
20417
20456
20447
20384
20429
20426
20402
20370
20394
20397
20323
20343
20376
20410
20344
20348
20387
20361
20326
20348
20348
20343
20297
20349
20333
20297
20268
20312
20344
20298
20270
20298
20307
20260
20276
20315
20303
20220
20248
20298
20240
20214
20263
20261
20192
20188
20205
20226
20160
20177
20202
20206
20166
20191
20168
20152
20135
20164
20194
20150
20151
20142
20164
20120
20138
20137
20151
20090
20111
20145
20104
20036
20061
20060
20007
20004
20008
20027
19987
19990
20003
20014
19951
20003
20029
19987
19958
20030
20055
20009
19995
20001
20043
19985
20034
20045
20039
20000
20032
20076
20087
20030
20081
20084
20089
20066
20115
20123
20119
20140
20183
20183
20189
20226
20289
20310
20327
20405
20460
20474
20472
20561
20586
20556
20561
20566
20588
20584
20581
20583
20586
20553
20566
20610
20553
20529
20538
20590
20506
20528
20544
20557
20489
20544
20552
20558
20484
20500
20522
20493
20471
20504
20502
20467
20455
20505
20472
20443
20431
20462
20463
20392
20459
20447
20424
20372
20389
20403
20373
20358
20394
20361
20326
20325
20321
20345
20298
20290
20321
20314
20265
20318
20336
20277
20271
20290
20295
20268
20252
20302
20284
20227
20249
20274
20277
20226
20249
20215
20211
20209
20208
20231
20203
20209
20193
20216
20154
20187
20212
20199
20178
20170
20199
20142
20127
20144
20147
20092
20070
20144
20082
20066
20064
20061
20028
19990
20019
20038
20021
19987
20027
20030
20013
19992
20038
20048
20035
20042
20082
20085
20022
20060
20087
20071
20060
20058
20099
20037
20082
20116
20122
20043
20086
20115
20141
20087
20160
20188
20184
20177
20230
20267
20279
20344
20390
20394
20394
20484
20537
20545
20567
20616
20596
20618
20572
20600
20609
20578
20587
20579
20611
20575
20558
20582
20599
20561
20593
20566
20568
20531
20586
20550
20586
20540
20548
20558
20529
20544
20572
20532
20485
20533
20534
20513
20481
20546
20557
20522
20476
20522
20527
20488
20528
20511
20506
20481
20472
20516
20511
20453
20526
20540
20468
20431
20460
20470
20440
20442
20483
20453
20390
20416
20426
20439
20375
20409
20429
20396
20363
20414
20405
20350
20322
20378
20409
20319
20306
20359
20369
20305
20355
20362
20311
20273
20313
20330
20320
20293
20325
20326
20294
20272
20281
20301
20290
20278
20267
20244
20231
20256
20251
20190
20174
20215
20168
20105
20112
20125
20121
20048
20085
20093
20102
20064
20060
20106
20068
20063
20101
20112
20049
20069
20106
20144
20103
20138
20135
20147
20099
20162
20170
20138
20138
20198
20192
20158
20174
20211
20229
20187
20230
20213
20278
20233
20293
20329
20356
20356
20401
20474
20470
20495
20566
20628
20579
20587
20668
20626
20581
20597
20622
20639
20589
20636
20649
20571
20601
20623
20612
20577
20619
20639
20614
20608
20592
20638
20614
20569
20580
20600
20581
20537
20576
20559
20547
20555
20579
20548
20525
20533
20599
20588
20542
20564
20566
20539
20519
20579
20567
20504
20529
20526
20531
20491
20502
20534
20501
20477
20494
20531
20478
20456
20524
20516
20486
20483
20498
20510
20468
20465
20514
20491
20436
20500
20455
20474
20462
20432
20446
20419
20407
20433
20410
20358
20398
20395
20410
20373
20383
20371
20359
20331
