41586
41537
41489
41445
41399
41363
41360
41401
41489
41636
41856
42138
42447
42770
43117
43480
43845
44223
44620
45005
45356
45681
45990
46278
46528
46742
46933
47095
47218
47310
47373
47408
47418
47421
47428
47419
47385
47340
47297
47242
47158
47079
47026
46979
46930
46892
46861
46817
46770
46742
46715
46676
46632
46598
46569
46520
46460
46418
46386
46346
46316
46314
46319
46305
46284
46271
46271
46279
46307
46362
46412
46437
46465
46508
46560
46610
46664
46726
46775
46801
46813
46815
46806
46792
46793
46808
46807
46784
46753
46712
46659
46609
46576
46546
46493
46421
46344
46256
46148
46043
45956
45870
45783
45707
45648
45584
45498
45415
45345
45272
45200
45147
45111
45062
44992
44910
44820
44723
44630
44558
44512
44472
44429
44384
44332
44269
44206
44155
44103
44046
44004
43986
43975
43944
43894
43841
43789
43743
43712
43697
43670
43618
43565
43525
43489
43449
43413
43385
43342
43284
43224
43168
43119
43076
43046
43030
43006
42963
42914
42860
42796
42727
42673
42622
42550
42469
42396
42320
42233
42152
42109
42099
42112
42170
42295
42477
42686
42930
43234
43587
43971
44373
44781
45173
45534
45881
46222
46545
46848
47135
47399
47609
47761
47883
47983
48055
48099
48127
48139
48123
48086
48041
47992
47932
47868
47821
47782
47730
47678
47635
47588
47531
47480
47462
47461
47449
47427
47409
47397
47385
47374
47367
47340
47283
47224
47178
47136
47097
47073
47067
47061
47055
47053
47054
47053
47052
47075
47122
47163
47192
47224
47259
47296
47343
47403
47461
47494
47496
47487
47473
47443
47409
47391
47379
47357
47328
47297
47250
47175
47095
47029
46972
46917
46864
46805
46718
46599
46488
46399
46314
46235
46173
46122
46064
45996
45930
45871
45803
45729
45673
45626
45565
45498
45435
45365
45284
45209
45160
45124
45070
45009
44963
44925
44892
44869
44855
44830
44783
44731
44676
44619
44563
44525
44514
44501
44469
44434
44398
44350
44293
44256
44242
44218
44183
44150
44111
44055
43995
43954
43928
43892
43844
43795
43740
43656
43553
43462
43388
43320
43268
43234
43194
43122
43042
42981
42923
42860
42796
42734
42653
42551
42462
42408
42392
42425
42514
42658
42835
43040
43294
43601
43936
44294
44678
45071
45439
45782
46118
46447
46761
47064
47349
47596
47785
47929
48064
48185
48273
48339
48393
48428
48433
48419
48402
48372
48327
48272
48208
48128
48030
47944
47880
47822
47765
47721
47688
47645
47592
47556
47537
47519
47506
47506
47506
47479
47435
47401
47373
47341
47316
47309
47309
47301
47289
47293
47312
47334
47360
47403
47453
47495
47538
47582
47620
47650
47692
47754
47799
47809
47804
47792
47777
47763
47760
47769
47763
47725
47671
47609
47540
47476
47428
47379
47306
47214
47124
47037
46948
46876
46835
46800
46748
46686
46624
46554
46477
46410
46362
46311
46240
46160
46077
46001
45935
45885
45849
45796
45721
45641
45567
45501
45441
45400
45379
45361
45345
45331
45309
45267
45214
45177
45157
45136
45116
45101
45078
45028
44964
44916
44888
44860
44825
44799
44773
44723
44664
44617
44574
44526
44490
44474
44453
44411
44364
44313
44246
44168
44112
44085
44057
44015
43975
43941
43881
43786
43689
43604
43515
43423
43353
43300
43251
43220
43220
43249
43299
43380
43527
43738
43992
44291
44630
44978
45312
45642
45973
46301
46618
46930
47243
47536
47794
48025
48237
48411
48528
48611
48677
48717
48734
48742
48746
48730
48687
48623
48540
48445
48355
48276
48204
48128
48053
47997
47952
47888
47816
47757
47701
47641
47591
47570
47570
47565
47551
47523
47484
47441
47404
47386
47373
47347
47319
47297
47283
47284
47321
47390
47467
47540
47619
47696
47748
47780
47812
47845
47879
47917
47966
48017
48041
48032
48006
47959
47898
47853
47832
47809
47765
47705
47642
47568
47473
47377
47305
47248
47189
47127
47066
46997
46912
46824
46736
46641
46552
46487
46438
46375
46296
46218
46140
46057
45979
45918
45865
45809
45757
45723
45697
45650
45586
45527
45472
45417
45377
45363
45355
45331
45297
45263
45225
45176
45134
45117
45108
45086
45050
45010
44955
44884
44824
44776
44718
44647
44595
44571
44549
44527
44519
44518
44494
44436
44372
44313
44246
44178
44124
44072
44001
43910
43814
43723
43634
43559
43525
43529
43567
43655
43799
43977
44171
44395
44658
44949
45259
45594
45959
46327
46679
47012
47330
47624
47884
48124
48356
48568
48753
48916
49046
49124
49161
49174
49168
49143
49111
49089
49066
49022
48965
48906
48836
48738
48627
48534
48466
48411
48365
48337
48318
48289
48262
48244
48222
48188
48160
48153
48147
48130
48107
48069
48007
47926
47865
47838
47823
47817
47827
47846
47859
47874
47908
47960
48014
48067
48132
48198
48241
48272
48305
48330
48343
48354
48374
48397
48405
48396
48373
48329
48268
48206
48155
48108
48056
47993
47921
47833
47732
47641
47564
47495
47431
47376
47323
47251
47160
47065
46961
46848
46744
46671
46621
46562
46484
46405
46319
46218
46119
46042
45984
45925
45869
45826
45788
45732
45671
45615
45560
45497
45437
45395
45361
45322
45281
45237
45177
45102
45041
45010
44996
44989
44988
44986
44964
44918
44864
44805
44738
44669
44626
44600
44559
44505
44448
44385
44309
44235
44187
44152
44108
44060
44011
43941
43847
43749
43658
43563
43460
43362
43286
43218
43151
43102
43080
43088
43145
43274
43476
43721
43999
44311
44637
44967
45306
45670
46058
46443
46814
47171
47505
47798
48055
48291
48502
48678
48825
48954
49051
49097
49105
49091
49050
48983
48914
48860
48803
48723
48635
48552
48477
48416
48371
48344
48308
48255
48203
48159
48113
48068
48039
48026
48011
47985
47957
47924
47874
47819
47783
47764
47748
47737
47734
47725
47694
47656
47641
47648
47666
47703
47764
47829
47887
47944
48000
48045
48072
48098
48136
48161
48161
48149
48121
48069
47998
47933
47881
47836
47799
47774
47746
47694
47624
47564
47511
47445
47370
47306
47243
47157
47050
46944
46845
46733
46608
46497
46399
46309
46233
46173
46106
46013
45911
45821
45744
45676
45622
45581
45525
45445
45371
45314
45258
45198
45153
45127
45096
45053
45010
44967
44912
44848
44795
44746
44692
44645
44618
44592
44543
44477
44416
44365
44318
44274
44242
44211
44159
44105
44067
44023
43962
43907
43872
43834
43778
43721
43663
43589
43499
43420
43363
43313
43264
43216
43163
43091
42997
42907
42831
42763
42701
42649
42603
42554
42527
42550
42621
42741
42920
43165
43451
43741
44038
44361
44695
45028
45372
45715
46027
46293
46539
46777
46992
47168
47322
47465
47576
47650
47702
47734
47738
47713
47681
47653
47616
47569
47514
47448
47367
47281
47208
47145
47072
46990
46916
46853
46797
46761
46753
46752
46730
46691
46651
46613
46569
46528
46509
46500
46480
46455
46428
46396
46363
46345
46354
46379
46408
46440
46469
46471
46446
46435
46448
46476
46519
46568
46613
46642
46653
46658
46657
46640
46612
46595
46586
46564
46532
46503
46463
46388
46293
46219
46157
46090
46027
45975
45915
45830
45740
45663
45587
45508
45439
45385
45325
45249
45173
45096
45004
44901
44814
44755
44709
44677
44652
44617
44558
44480
44405
44343
44279
44216
44173
44139
44088
44025
43966
43905
43843
43789
43758
43738
43711
43690
43674
43647
43599
43544
43502
43467
43436
43411
43393
43362
43310
43260
43214
43165
43113
43072
43044
43005
42949
42884
42807
42715
42618
42537
42474
42409
42349
42304
42253
42183
42119
42093
42103
42135
42190
42285
42419
42582
42785
43025
43281
43545
43828
44137
44444
44726
44998
45260
45498
45720
45937
46150
46322
46440
46531
46603
46649
46684
46706
46696
46643
46562
46487
46423
46353
46277
46207
46136
46041
45938
45860
45798
45734
45682
45652
45622
45569
45510
45469
45430
45375
45309
45235
45160
45088
45038
45015
44989
44957
44925
44891
44863
44851
44868
44912
44952
44975
45000
45031
45062
45097
45148
45211
45256
45274
45281
45278
45264
45263
45284
45303
45296
45272
45244
45207
45154
45096
45046
44984
44901
44818
44740
44654
44559
44476
44409
44337
44260
44194
44142
44075
43978
43876
43775
43674
43589
43532
43494
43445
43375
43303
43239
43172
43104
43060
43030
42990
42944
42897
42837
42754
42661
42589
42536
42495
42464
42440
42413
42389
42374
42362
42348
42336
42322
42304
42261
42185
42109
42050
42001
41963
41939
41922
41888
41834
41780
41725
41663
41600
41562
41545
41520
41473
41419
41360
41288
41217
41169
41127
41073
41021
40980
40943
40903
40882
40900
40953
41041
41175
41358
41567
41783
42031
42318
42630
42962
43316
43680
44016
44312
44589
44850
45075
45265
45439
45595
45706
45779
45838
45877
45889
45881
45871
45853
45808
45747
45682
45609
45519
45426
45361
45317
45270
45222
45182
45135
45073
45021
44992
44968
44943
44925
44914
44885
44832
44786
44759
44734
44710
44692
44681
44657
44618
44593
44585
44582
44592
44622
44659
44679
44688
44720
44769
44812
44851
44898
44939
44953
44957
44971
44992
45016
45039
45059
45053
45010
44959
44911
44858
44808
44758
44703
44628
44529
44439
44371
44304
44234
44164
44086
43988
43885
43800
43731
43661
43589
43521
43454
43380
43310
43259
43209
43140
43060
42977
42892
42811
42752
42720
42685
42625
42561
42509
42461
42412
42363
42315
42256
42181
42114
42065
42026
41992
41968
41955
41937
41902
41855
41799
41742
41696
41673
41662
41632
41581
41521
41457
41386
41322
41289
41271
41243
41210
41181
41147
41090
41025
40969
40911
40843
40772
40710
40640
40559
40487
40425
40367
40321
40308
40337
40388
40455
40557
40696
40871
41084
41351
41667
42006
42349
42699
43049
43385
43714
44046
44364
44651
44913
45148
45346
45489
45577
45640
45684
45711
45730
45738
45724
45683
45634
45592
45554
45515
45471
45418
45344
45243
45139
45049
44974
44911
44874
44861
44837
44794
44748
44706
44671
44648
44640
44635
44609
44561
44513
44467
44412
44364
44349
44354
44363
44384
44423
44466
44490
44505
44529
44553
44570
44588
44612
44630
44637
44659
44702
44739
44764
44780
44780
44755
44709
44673
44656
44633
44602
44575
44536
44467
44382
44303
44231
44161
44090
44022
43957
43873
43771
43682
43604
43527
43460
43404
43342
43258
43170
43090
43016
42950
42892
42839
42768
42675
42587
42508
42426
42348
42292
42264
42239
42204
42166
42124
42065
41992
41928
41875
41823
41780
41760
41753
41731
41683
41630
41583
41536
41493
41471
41460
41434
41397
41360
41307
41224
41142
41087
41049
41020
41001
40988
40959
40904
40838
40770
40697
40625
40566
40516
40459
40393
40323
40245
40157
40074
40013
39973
39953
39964
40015
40110
40233
40382
40578
40820
41098
41424
41800
42189
42560
42912
43251
43572
43863
44137
44410
44659
44868
45043
45191
45302
45374
45418
45436
45439
45433
45422
45404
45357
45279
45193
45102
45010
44931
44870
44809
44729
44640
44570
44520
44477
44445
44432
44420
44391
44356
44318
44269
44208
44156
44127
44099
44060
44025
43998
43970
43941
43934
43955
43986
44020
44063
44113
44150
44169
44196
44232
44268
44310
44375
44452
44506
44532
44547
44551
44543
44530
44530
44534
44508
44448
44378
44297
44202
44115
44056
44009
43956
43896
43837
43776
43699
43611
43522
43428
43327
43235
43162
43094
43028
42970
42911
42825
42716
42625
42558
42490
42426
42377
42333
42274
42201
42135
42078
42020
41959
41911
41881
41845
41799
41754
41702
41637
41584
41564
41558
41545
41522
41497
41472
41435
41399
41382
41367
41338
41300
41256
41196
41126
41076
41046
41005
40950
40901
40858
40796
40709
40620
40545
40481
40445
40462
40527
40610
40709
40843
41015
41222
41477
41782
42111
42443
42779
43122
43453
43752
44030
44299
44547
44767
44969
45165
45341
45479
45577
45631
45641
45623
45600
45587
45562
45518
45468
45403
45307
45187
45074
44980
44896
44818
44751
44691
44616
44525
44439
44353
44267
44200
44162
44134
44098
44056
44010
43942
43849
43759
43696
43659
43640
43645
43675
43709
43731
43760
43805
43857
43923
44017
44134
44227
44285
44335
44385
44426
44451
44472
44496
44501
44487
44470
44443
44388
44324
44282
44249
44189
44103
44015
43925
43823
43718
43639
43581
43516
43436
43346
43256
43172
43097
43040
42975
42887
42793
42699
42597
42492
42403
42332
42263
42199
42150
42111
42053
41968
41877
41787
41695
41608
41549
41516
41480
41437
41393
41334
41258
41197
41176
41171
41151
41119
41085
41043
40986
40931
40900
40875
40844
40813
40789
40744
40664
40584
40527
40478
40430
40395
40375
40346
40303
40256
40201
40135
40064
40004
39959
39921
39895
39904
39957
40035
40153
40334
40559
40808
41095
41432
41803
42176
42547
42920
43285
43641
43991
44331
44640
44904
45134
45328
45482
45602
45701
45783
45827
45831
45814
45784
45738
45684
45643
45611
45560
45484
45395
45298
45190
45084
45008
44963
44928
44895
44860
44815
44759
44710
44686
44671
44647
44621
44600
44561
44488
44414
44363
44321
44285
44271
44290
44304
44293
44284
44291
44307
44336
44394
44478
44552
44602
44650
44700
44733
44759
44795
44828
44841
44841
44842
44838
44809
44758
44715
44672
44613
44553
44502
44447
44370
44279
44197
44116
44028
43937
43846
43742
43626
43513
43401
43290
43189
43110
43051
42982
42893
42796
42697
42586
42462
42347
42250
42166
42101
42053
42003
41936
41857
41793
41747
41698
41644
41603
41564
41503
41432
41374
41329
41295
41275
41270
41261
41234
41195
41151
41101
41047
41003
40987
40977
40958
40930
40887
40818
40727
40649
40592
40545
40507
40474
40432
40370
40294
40216
40136
40054
39974
39915
39890
39888
39917
39981
40066
40170
40316
40528
40797
41105
41445
41811
42178
42530
42895
43286
43681
44063
44428
44773
45072
45308
45507
45676
45802
45893
45974
46046
46079
46069
46035
45977
45905
45840
45792
45756
45705
45629
45549
45479
45412
45351
45313
45281
45234
45188
45155
45126
45081
45026
44984
44950
44916
44886
44856
44818
44775
44747
44740
44728
44697
44659
44621
44586
44566
44576
44617
44668
44722
44775
44811
44827
44837
44862
44893
44916
44937
44963
44982
44981
44970
44976
44995
44998
44980
44950
44904
44838
44766
44707
44643
44561
44469
44378
44275
44151
44032
43936
43848
43763
43677
43579
43465
43349
43254
43186
43109
43015
42923
42833
42738
42649
42582
42515
42422
42326
42254
42201
42146
42092
42052
42007
41938
41864
41800
41733
41667
41619
41589
41547
41476
41405
41350
41305
41270
41245
41223
41176
41097
41026
40983
40950
40921
40902
40888
40854
40800
40755
40728
40690
40638
40593
40548
40476
40384
40305
40233
40139
40038
39947
39861
39772
39710
39698
39713
39740
39811
39949
40147
40398
40700
41048
41419
41794
42186
42590
42993
43393
43790
44175
44515
44797
45052
45296
45511
45686
45824
45925
45978
45985
45976
45966
45933
45878
45812
45729
45633
45544
45474
45401
45303
45197
45094
44988
44875
44773
44708
44657
44589
44522
44471
44430
44395
44371
44349
44299
44214
44134
44086
44056
44038
44030
44023
44009
43994
44002
44042
44087
44123
44168
44226
44276
44326
44402
44484
44546
44600
44651
44682
44690
44694
44717
44737
44730
44706
44677
44645
44610
44581
44566
44537
44471
44390
44303
44207
44107
44020
43955
43888
43799
43700
43604
43505
43399
43308
43236
43156
43061
42976
42897
42813
42735
42662
42579
42469
42349
42253
42179
42114
42064
42028
41992
41945
41890
41838
41781
41720
41671
41630
41586
41539
41511
41511
41510
41490
41460
41421
41370
41315
41284
41271
41236
41175
41113
41055
40984
40906
40845
40793
40721
40638
40572
40534
40523
40544
40614
40733
40882
41065
41287
41545
41840
42180
42568
42968
43351
43726
44094
44446
44791
45131
45456
45725
45922
46076
46202
46300
46381
46452
46505
46518
46496
46455
46394
46311
46222
46144
46071
45977
45863
45760
45669
45580
45506
45455
45403
45325
45236
45160
45093
45030
44970
44914
44851
44776
44710
44659
44605
44555
44515
44477
44438
44404
44397
44423
44465
44517
44577
44634
44674
44704
44755
44828
44896
44956
45015
45062
45096
45137
45189
45223
45218
45190
45154
45113
45072
45027
44987
44942
44876
44797
44710
44624
44547
44480
44419
44339
44234
44127
44022
43924
43838
43764
43691
43597
43479
43356
43233
43108
42997
42913
42832
42730
42619
42529
42450
42362
42280
42215
42145
42055
41962
41895
41831
41746
41660
41589
41526
41467
41429
41421
41407
41368
41324
41283
41243
41204
41177
41166
41148
41117
41079
41034
40970
40890
40825
40784
40742
40694
40643
40582
40496
40400
40331
40301
40299
40333
40421
40550
40711
40925
41201
41521
41873
42251
42658
43075
43485
43890
44288
44657
44980
45283
45585
45872
46134
46377
46602
46778
46893
46963
47000
47000
46969
46931
46891
46836
46762
46685
46606
46513
46413
46331
46267
46202
46142
46095
46045
45973
45895
45845
45819
45792
45763
45738
45707
45658
45608
45574
45539
45494
45448
45415
45376
45328
45304
45310
45329
45361
45411
45477
45533
45570
45612
45665
45716
45771
45840
45905
45937
45938
45926
45914
45904
45898
45905
45908
45886
45852
45812
45751
45667
45579
45508
45442
45367
45285
45190
45082
44969
44871
44794
44724
44650
44578
44500
44405
44298
44200
44114
44025
43939
43863
43785
43685
43571
43476
43391
43299
43212
43139
43070
42988
42898
42828
42775
42725
42683
42644
42589
42511
42440
42397
42354
42298
42246
42203
42157
42105
42069
42056
42029
41976
41927
41884
41839
41797
41769
41746
41696
41613
41534
41466
41393
41323
41263
41204
41126
41048
41010
41003
40999
41010
41066
41174
41323
41516
41772
42068
42374
42708
43077
43465
43863
44269
44681
45061
45379
45673
45966
46239
46483
46696
46869
46994
47080
47155
47231
47275
47281
47272
47245
47187
47109
47034
46963
46880
46792
46712
46637
46556
46480
46425
46380
46320
46255
46201
46152
46109
46083
46067
46034
45972
45909
45866
45827
45789
45753
45718
45672
45616
45585
45589
45605
45630
45674
45729
45772
45806
45860
45932
45995
46052
46105
46145
46170
46196
46237
46278
46286
46260
46226
46190
46151
46117
46090
46054
45996
45932
45870
45798
45714
45631
45558
45473
45366
45265
45178
45089
44999
44922
44860
44775
44657
44541
44434
44330
44247
44187
44127
44044
43950
43870
43807
43745
43682
43640
43605
43545
43472
43414
43361
43307
43275
43265
43235
43164
43101
43076
43062
43045
43022
42982
42925
42867
42842
42846
42831
42785
42731
42677
42616
42556
42508
42462
42403
42334
42272
42210
42131
42045
41987
41953
41910
41866
41858
41876
41909
41988
42133
42317
42517
42752
43038
43361
43704
44068
44462
44861
45242
45611
45966
46291
46582
46828
47026
47181
47295
47387
47461
47510
47545
47567
47567
47529
47458
47390
47337
47283
47225
47173
47114
47029
46933
46858
46796
46728
46660
46602
46546
46477
46403
46344
46294
46248
46209
46179
46139
46081
46038
46028
46027
46018
46003
45987
45962
45933
45928
45954
45991
46039
46104
46169
46220
46264
46318
46381
46441
46501
46570
46631
46653
46644
46639
46635
46619
46598
46574
46533
46465
46389
46328
46267
46191
46112
46031
45947
45865
45792
45732
45656
45554
45457
45377
45307
45247
45195
45137
45055
44951
44859
44786
44715
44646
44580
44506
44421
44347
44303
44272
44216
44136
44062
44000
43944
43896
43868
43849
43814
43769
43726
43683
43638
43599
43571
43539
43491
43450
43425
43396
43362
43335
43313
43268
43194
43130
43092
43053
43005
42962
42917
42855
42792
42761
42760
42769
42802
42890
43040
43235
43465
43727
44011
44301
44603
44932
45275
45610
45942
46263
46570
46862
47129
47364
47550
47684
47804
47920
48006
48054
48076
48068
48028
47971
47915
47868
47805
47715
47617
47524
47430
47339
47265
47201
47123
47039
46974
46920
46864
46813
46773
46731
46671
46605
46557
46518
46466
46420
46395
46378
46365
46358
46363
46366
46360
46373
46412
46460
46509
46560
46605
46640
46675
46727
46799
46857
46894
46925
46949
46962
46973
46994
47008
46983
46926
46869
46811
46746
46688
46645
46600
46535
46460
46394
46329
46256
46182
46113
46034
45933
45834
45753
45668
45578
45499
45427
45343
45243
45156
45089
45023
44965
44915
44858
44782
44688
44606
44547
44490
44434
44391
44349
44284
44208
44146
44094
44041
43999
43974
43950
43906
43847
43800
43767
43744
43733
43725
43696
43642
43592
43561
43537
43512
43492
43474
43435
43367
43295
43228
43163
43107
43073
43047
42996
42921
42839
42750
42649
42552
42486
42453
42429
42415
42435
42490
42576
42713
42924
43193
43497
43842
44224
44621
45004
45371
45738
46100
46448
46786
47109
47387
47607
47798
47977
48128
48251
48363
48465
48529
48554
48553
48521
48458
48378
48304
48238
48165
48076
47977
47887
47805
47739
47706
47690
47668
47639
47611
47575
47516
47442
47380
47334
47294
47263
47246
47215
47157
47106
47079
47064
47059
47077
47117
47147
47155
47165
47178
47190
47210
47255
47322
47379
47422
47460
47491
47514
47532
47554
47580
47588
47576
47564
47548
47521
47490
47464
47431
47367
47292
47234
47177
47105
47024
46944
46854
46741
46636
46554
46476
46403
46346
46293
46217
46114
46021
45949
45879
45812
45750
45684
45595
45481
45372
45280
45196
45120
45066
45022
44961
44889
44827
44768
44709
44668
44653
44637
44593
44545
44515
44492
44468
44446
44430
44403
44362
44323
44287
44245
44191
44154
44144
44127
44093
44056
44021
43969
43904
43849
43803
43759
43717
43677
43632
43565
43478
43389
43300
43209
43130
43074
43020
42942
42854
42783
42746
42744
42791
42909
43085
43304
43570
43876
44212
44576
44970
45387
45798
46193
46575
46933
47250
47523
47785
48048
48290
48508
48702
48861
48966
49021
49045
49048
49024
48983
48950
48922
48881
48834
48788
48726
48628
48505
48387
48288
48204
48138
48090
48040
47979
47933
47903
47874
47840
47810
47786
47748
47691
47634
47579
47521
47464
47427
47419
47421
47425
47424
47409
47398
47412
47461
47532
47596
47645
47691
47738
47778
47814
47860
47901
47923
47945
47975
47987
47962
47917
47869
47819
47771
47726
47681
47620
47539
47455
47374
47292
47213
47144
47081
47008
46921
46831
46740
46638
46533
46444
46373
46290
46192
46099
46009
45917
45833
45766
45707
45626
45528
45442
45372
45311
45263
45226
45180
45107
45026
44962
44911
44865
44832
44816
44794
44761
44730
44707
44672
44620
44573
44536
44501
44473
44454
44435
44396
44339
44293
44262
44225
44178
44133
44088
44032
43975
43927
43878
43817
43755
43707
43661
43593
43512
43430
43337
43223
43119
43049
42992
42932
42876
42845
42839
42861
42951
43126
43356
43621
43916
44237
44577
44928
45296
45681
46073
46464
46851
47224
47552
47833
48093
48339
48554
48740
48901
49022
49081
49094
49097
49085
49046
48997
48954
48892
48796
48687
48579
48461
48334
48211
48105
48006
47908
47823
47747
47678
47622
47589
47578
47552
47497
47437
47376
47308
47239
47186
47145
47100
47049
47010
46989
46979
46987
47030
47081
47117
47154
47209
47268
47319
47377
47461
47550
47617
47667
47708
47741
47760
47776
47798
47804
47783
47746
47697
47626
47537
47460
47399
47334
47260
47189
47114
47015
46892
46771
46663
46566
46481
46414
46354
46272
46164
46052
45947
45849
45767
45705
45638
45555
45467
45384
45305
45213
45124
45063
45004
44932
44860
44791
44715
44623
44548
44506
44479
44454
44428
44396
44347
44283
44231
44200
44168
44129
44094
44052
43990
43921
43863
43812
43758
43706
43668
43631
43563
43471
43386
43311
43241
43184
43143
43098
43035
42987
42979
43022
43115
43261
43466
43705
43959
44246
44573
44920
45281
45665
46064
46448
46807
47150
47472
47748
47984
48204
48409
48580
48713
48814
48879
48902
48894
48882
48862
48818
48754
48683
48595
48476
48348
48233
48124
48016
47914
47830
47747
47648
47555
47473
47396
47326
47271
47232
47181
47111
47042
46975
46901
46825
46769
46740
46715
46692
46678
46668
46654
46653
46682
46725
46763
46806
46869
46936
46984
47020
47068
47129
47185
47233
47279
47309
47309
47302
47302
47295
47279
47256
47227
47169
47074
46973
46876
46782
46685
46599
46528
46451
46358
46255
46148
46038
45923
45825
45743
45656
45562
45469
45365
45242
45119
45017
44930
44846
44770
44707
44642
44555
44456
44360
44266
44173
44088
44024
43962
43880
43795
43714
43635
43569
43533
43523
43508
43478
43438
43386
43325
43266
43222
43186
43146
43104
43074
43054
43017
42962
42917
42881
42837
42787
42735
42668
42576
42470
42379
42301
42222
42152
42100
42037
41940
41840
41761
41704
41671
41670
41712
41793
41911
42089
42331
42615
42929
43294
43705
44133
44563
44991
45407
45793
46149
46489
46807
47083
47318
47528
47708
47846
47944
48017
48068
48089
48095
48103
48094
48048
47983
47911
47828
47727
47626
47541
47463
47380
47301
47227
47146
47061
46998
46967
46945
46923
46899
46859
46793
46711
46635
46570
46509
46459
46430
46418
46393
46355
46327
46311
46305
46326
46376
46431
46464
46490
46530
46580
46629
46669
46705
46733
46746
46761
46774
46780
46783
46783
46780
46752
46694
46628
46565
46506
46456
46422
46392
46330
46235
46135
46031
45926
45844
45784
45709
45596
45466
45347
45239
45137
45038
44943
44851
44750
44642
44547
44468
44399
44338
44286
44223
44132
44035
43951
43872
43794
43721
43654
43573
43478
43400
43352
43313
43271
43231
43192
43140
43080
43033
42995
42947
42892
42834
42767
42692
42633
42605
42588
42551
42494
42437
42374
42294
42220
42173
42132
42074
42011
41951
41890
41819
41747
41683
41614
41535
41460
41383
41290
41186
41100
41038
40977
40918
40881
40867
40886
40959
41100
41306
41554
41830
42138
42485
42862
43260
43676
44088
44467
44832
45202
45555
45873
46161
46431
46668
46848
46981
47087
47165
47216
47243
47241
47210
47159
47115
47084
47039
46972
46894
46801
46690
46577
46486
46419
46353
46281
46216
46160
46100
46033
45980
45934
45874
45813
45762
45709
45651
45606
45588
45582
45561
45533
45514
45498
45474
45458
45469
45491
45514
45536
45556
45569
45578
45614
45676
45729
45769
45806
45833
45843
45835
45833
45834
45818
45785
45753
45719
45659
45575
45498
45438
45378
45319
45267
45208
45114
44996
44884
44784
44687
44591
44508
44425
44320
44201
44082
43964
43851
43756
43686
43614
43524
43422
43311
43187
43058
42955
42886
42819
42742
42668
42594
42502
42402
42320
42255
42196
42145
42103
42058
41986
41895
41827
41783
41747
41720
41704
41678
41620
41551
41504
41472
41433
41388
41354
41317
41268
41213
41151
41083
41018
40968
40934
40890
40825
40755
40678
40586
40483
40395
40327
40251
40168
40093
40021
39949
39902
39908
39966
40060
40191
40368
40587
40829
41106
41444
41821
42215
42627
43054
43469
43838
44186
44535
44864
45159
45419
45647
45822
45937
46029
46112
46167
46194
46202
46191
46143
46061
45982
45918
45846
45765
45688
45607
45509
45403
45313
45233
45153
45087
45036
44980
44890
44782
44684
44599
44518
44450
44406
44358
44292
44227
44174
44134
44105
44094
44112
44144
44186
44251
44333
44400
44439
44471
44509
44536
44552
44585
44642
44692
44724
44750
44770
44774
44771
44778
44782
44765
44725
44682
44641
44576
44484
44397
44318
44236
44161
44096
44016
43906
43800
43717
43652
43591
43521
43440
43332
43196
43066
42950
42840
42743
42666
42596
42511
42414
42316
42212
42105
42012
41952
41917
41876
41820
41761
41701
41645
41603
41579
41551
41494
41430
41379
41327
41259
41187
41132
41089
41044
41003
40965
40921
40865
40817
40790
40761
40718
40665
40604
40517
40404
40305
40243
40207
40202
40241
40324
40430
40560
40738
40978
41265
41586
41950
42342
42735
43130
43530
43912
44255
44564
44857
45125
45360
45570
45760
45907
46000
46058
46096
46118
46119
46112
46102
46062
45993
45908
45805
45681
45539
45410
45303
45202
45110
45040
44979
44901
44805
44727
44671
44612
44542
44468
44383
44275
44161
44066
43992
43929
43882
43868
43869
43858
43849
43851
43860
43881
43924
43999
44081
44146
44207
44269
44316
44348
44398
44471
44540
44595
44643
44681
44685
44647
44598
44563
44531
44499
44476
44447
44380
44278
44169
44063
43957
43863
43792
43722
43623
43506
43386
43269
43153
43049
42961
42869
42761
42646
42530
42415
42305
42215
42153
42094
42019
41936
41845
41737
41621
41530
41472
41403
41320
41256
41213
41172
41132
41104
41085
41047
40984
40914
40842
40773
40723
40702
40681
40636
40582
40523
40455
40378
40302
40243
40189
40125
40061
39998
39929
39862
39830
39843
39867
39890
39950
40064
40229
40451
40738
41081
41456
41845
42250
42669
43080
43476
43873
44255
44599
44919
45219
45477
45689
45872
46044
46196
46311
46389
46432
46437
46410
46370
46330
46277
46205
46125
46043
45957
45869
45794
45738
45672
45588
45518
45459
45389
45315
45263
45237
45199
45141
45081
45018
44946
44880
44833
44795
44745
44687
44637
44601
44563
44531
44524
44536
44556
44593
44651
44716
44771
44822
44873
44916
44953
44997
45050
45094
45115
45118
45105
45072
45021
44976
44950
44926
44899
44870
44832
44763
44665
44564
44467
44372
44287
44218
44158
44073
43965
43866
43784
43707
43638
43581
43514
43416
43309
43211
43118
43023
42928
42841
42749
42645
42553
42468
42379
42291
42222
42176
42129
42067
41997
41925
41849
41771
41718
41694
41666
41628
41585
41533
41472
41417
41385
41360
41318
41264
41219
41175
41120
41067
41037
41016
40976
40923
40865
40799
40725
40667
40636
40605
40551
40502
40479
40487
40536
40641
40798
40974
41161
41404
41718
42078
42471
42894
43331
43753
44145
44512
44865
45192
45482
45749
45989
46169
46297
46403
46482
46531
46572
46622
46662
46660
46629
46595
46555
46509
46464
46430
46389
46326
46257
46189
46114
46035
45974
45942
45909
45862
45819
45782
45741
45698
45672
45664
45644
45603
45557
45508
45446
45383
45343
45325
45311
45297
45290
45289
45285
45286
45316
45362
45407
45456
45511
45560
45589
45611
45652
45698
45725
45740
45747
45737
45711
45698
45704
45702
45681
45651
45607
45538
45444
45346
45254
45160
45067
44981
44900
44812
44714
44631
44567
44496
44415
44325
44221
44103
43998
43927
43872
43798
43712
43628
43544
43450
43360
43293
43226
43140
43058
42992
42932
42869
42816
42786
42755
42713
42666
42605
42524
42438
42382
42363
42351
42336
42326
42313
42280
42236
42207
42194
42177
42149
42119
42085
42032
41966
41912
41866
41813
41756
41713
41669
41596
41511
41435
41368
41306
41261
41235
41197
41134
41090
41083
41103
41158
41265
41425
41618
41840
42117
42447
42799
43160
43533
43911
44266
44596
44926
45246
45535
45796
46034
46237
46387
46496
46589
46660
46699
46718
46731
46727
46693
46650
46610
46557
46485
46402
46318
46229
46127
46044
45998
45966
45937
45915
45890
45855
45815
45790
45778
45752
45711
45674
45632
45577
45516
45460
45420
45381
45337
45308
45303
45306
45323
45374
45445
45508
45568
45629
45678
45711
45750
45815
45887
45942
45981
46006
46007
45984
45974
45990
46003
45998
45981
45949
45905
45857
45813
45771
45715
45643
45565
45482
45381
45276
45196
45136
45079
45023
44966
44894
44799
44703
44636
44583
44525
44463
44400
44326
44236
44159
44109
44063
44016
43973
43930
43870
43786
43714
43674
43644
43616
43596
43576
43532
43471
43432
43417
43398
43373
43349
43316
43262
43202
43155
43121
43090
43067
43065
43061
43036
42998
42958
42902
42831
42769
42732
42701
42659
42622
42588
42544
42504
42489
42506
42543
42599
42687
42812
42967
43153
43389
43677
43987
44308
44653
45007
45337
45642
45943
46234
46501
46741
46964
47159
47298
47386
47449
47495
47523
47547
47573
47577
47540
47482
47422
47358
47285
47206
47134
47064
46990
46919
46856
46800
46744
46703
46688
46680
46667
46649
46617
46558
46481
46415
46365
46309
46246
46192
46150
46113
46089
46092
46116
46144
46171
46204
46249
46284
46304
46337
46387
46439
46488
46535
46575
46598
46621
46656
46689
46711
46729
46745
46726
46667
46602
46544
46484
46424
46374
46330
46272
46201
46127
46054
45973
45886
45817
45769
45710
45642
45584
45525
45438
45330
45236
45151
45060
44974
44906
44842
44766
44684
44607
44530
44448
44375
44327
44286
44237
44188
44134
44074
44016
43974
43943
43912
43887
43876
43866
43837
43786
43730
43672
43610
43560
43538
43532
43511
43475
43434
43385
43328
43279
43255
43241
43218
43189
43156
43117
43067
43019
42988
42955
42908
42856
42798
42727
42637
42554
42486
42409
42329
42261
42203
42132
42042
41958
41889
41830
41791
41790
41838
41918
42028
42192
42408
42669
42979
43337
43714
44082
44448
44821
45188
45531
45857
46184
46498
46783
47040
47269
47456
47590
47692
47787
47865
47921
47958
47980
47967
47905
47828
47756
47680
47604
47530
47450
47354
47251
47174
47131
47102
47078
47067
47068
47061
47043
47025
46995
46948
46907
46890
46878
46838
46781
46733
46689
46642
46607
46600
46605
46610
46621
46640
46663
46689
46733
46799
46864
46926
46995
47065
47116
47140
47152
47158
47155
47148
47156
47179
47188
47175
47149
47109
47051
46994
46953
46911
46849
46779
46711
46637
46544
46435
46332
46245
46176
46123
46076
46007
45906
45806
45724
45653
45593
45548
45514
45459
45370
45282
45212
45144
45079
45028
44991
44951
44902
44847
44790
44725
44655
44611
44584
44544
44499
44461
44416
44349
44283
44258
44265
44268
44252
44230
44192
44128
44065
44023
43988
43947
43913
43895
43869
43827
43778
43727
43665
43595
43542
43512
43484
43446
43408
43373
43323
43250
43182
43126
43066
43004
42956
42908
42832
42745
42673
42594
42504
42428
42372
42319
42246
42157
42074
42004
41955
41943
41981
42065
42190
42381
42645
42965
43322
43698
44088
44480
44861
45243
45632
46012
46371
46705
47003
47251
47453
47633
47792
47922
48030
48118
48174
48181
48151
48122
48104
48078
48042
48000
47949
47877
47797
47732
47668
47597
47532
47475
47415
47346
47291
47255
47219
47176
47136
47096
47044
46979
46935
46921
46908
46888
46871
46853
46827
46802
46799
46818
46835
46851
46879
46922
46968
47014
47077
47144
47190
47230
47282
47335
47377
47413
47452
47485
47485
47467
47454
47441
47416
47372
47308
47229
47148
47083
47036
46980
46904
46820
46732
46640
46557
46489
46418
46322
46216
46135
46078
46023
45962
45898
45831
45770
45722
45689
45656
45598
45520
45449
45378
45294
45210
45133
45055
44968
44892
44844
44806
44765
44724
44685
44644
44590
44538
44502
44461
44408
44356
44305
44253
44209
44182
44159
44117
44063
44024
43991
43955
43920
43897
43874
43822
43752
43695
43651
43607
43565
43527
43473
43383
43291
43236
43197
43149
43096
43045
42986
42911
42844
42806
42772
42728
42676
42608
42518
42408
42308
42236
42162
42077
41994
41908
41825
41767
41753
41773
41815
41901
42051
42263
42528
42844
43216
43620
44013
44396
44790
45181
45553
45912
46270
46604
46889
47131
47338
47510
47649
47766
47864
47918
47923
47904
47879
47841
47789
47737
47688
47627
47552
47478
47406
47316
47206
47106
47023
46944
46872
46814
46765
46707
46643
46599
46574
46544
46503
46457
46401
46329
46262
46226
46197
46160
46135
46129
46134
46144
46168
46217
46269
46315
46365
46417
46458
46492
46547
46631
46715
46782
46844
46899
46925
46919
46907
46892
46858
46813
46773
46726
46655
46582
46530
46485
46429
46371
46320
46262
46172
46063
45964
45875
45786
45699
45617
45528
45425
45331
45250
45174
45102
45042
44995
44936
44851
44761
44671
44577
44489
44425
44382
44332
44272
44218
44163
44099
44044
44017
44005
43978
43928
43872
43818
43760
43701
43668
43650
43623
43594
43572
43549
43506
43455
43413
43380
43354
43335
43320
43282
43216
43151
43098
43048
43001
42963
42928
42879
42814
42750
42685
42607
42524
42460
42406
42332
42239
42144
42052
41959
41873
41824
41813
41822
41864
41967
42132
42350
42625
42957
43320
43686
44051
44417
44784
45145
45501
45853
46168
46431
46657
46853
47027
47183
47325
47454
47549
47600
47622
47618
47586
47535
47486
47440
47371
47275
47181
47097
47011
46927
46856
46787
46690
46579
46484
46405
46336
46281
46238
46188
46116
46044
45984
45920
45851
45796
45753
45702
45643
45610
45621
45648
45677
45704
45724
45735
45745
45768
45808
45851
45893
45938
45990
46038
46085
46147
46212
46244
46255
46262
46258
46243
46233
46229
46209
46151
46073
46004
45937
45866
45793
45715
45630
45538
45459
45402
45339
45257
45166
45073
44962
44832
44712
44613
44512
44410
44324
44252
44161
44052
43960
43887
43800
43692
43577
43460
43346
43255
43196
43147
43083
43009
42943
42888
42827
42766
42721
42674
42608
42540
42482
42426
42365
42318
42301
42288
42267
42243
42205
42141
42055
41976
41919
41870
41825
41790
41760
41719
41672
41642
41627
41606
41578
41553
41521
41463
41390
41330
41279
41220
41163
41109
41041
40945
40843
40769
40724
40697
40709
40782
40924
41133
41422
41796
42212
42638
43074
43517
43960
44396
44827
45244
45615
45933
46213
46456
46657
46821
46976
47123
47227
47293
47337
47357
47353
47341
47329
47297
47222
47118
47006
46910
46835
46777
46742
46709
46664
46618
46570
46510
46433
46365
46320
46277
46229
46187
46147
46091
46012
45944
45904
45870
45833
45805
45787
45772
45765
45776
45800
45827
45854
45881
45907
45926
45953
46015
46093
46153
46201
46250
46288
46311
46341
46390
46431
46432
46413
46396
46375
46346
46304
46247
46175
46094
46025
45985
45950
45902
45836
45750
45648
45535
45430
45336
45238
45133
45025
44915
44799
44685
44595
44523
44442
44350
44258
44154
44019
43882
43784
43705
43624
43545
43475
43404
43320
43237
43169
43104
43039
42981
42933
42887
42830
42766
42701
42634
42571
42535
42526
42514
42493
42471
42445
42402
42337
42272
42218
42161
42102
42068
42049
42015
41970
41924
41866
41787
41704
41645
41601
41547
41483
41421
41353
41269
41184
41108
41030
40943
40854
40765
40669
40558
40461
40403
40373
40378
40441
40570
40750
40979
41290
41681
42111
42565
43047
43538
44005
44436
44850
45248
45616
45960
46276
46537
46734
46894
47041
47169
47270
47357
47437
47485
47482
47447
47395
47331
47261
47196
47150
47106
47044
46965
46871
46760
46641
46549
46493
46448
46407
46380
46358
46319
46259
46198
46141
46080
46023
45989
45970
45936
45888
45837
45780
45721
45679
45678
45710
45753
45820
45917
46014
46088
46152
46219
46278
46324
46363
46402
46434
46451
46480
46518
46532
46517
46500
46482
46440
46369
46306
46265
46227
46191
46153
46100
46018
45923
45835
45757
45676
45584
45486
45380
45250
45118
45009
44902
44785
44690
44630
44578
44499
44404
44308
44208
44102
44000
43911
43818
43710
43603
43510
43419
43325
43249
43197
43151
43105
43067
43032
42972
42888
42813
42754
42699
42657
42632
42606
42555
42490
42433
42376
42318
42273
42251
42229
42191
42145
42104
42060
42001
41936
41886
41842
41789
41727
41657
41575
41484
41411
41368
41333
41292
41244
41188
41106
40996
40893
40814
40757
40735
40770
40864
41010
41215
41487
41823
42203
42614
43066
43537
43996
44445
44887
45297
45652
45965
46264
46549
46803
47027
47230
47387
47484
47550
47591
47602
47595
47584
47569
47523
47437
47338
47237
47129
47018
46926
46863
46805
46749
46699
46643
46566
46477
46402
46344
46284
46223
46177
46129
46055
45964
45882
45811
45749
45701
45682
45685
45690
45699
45718
45739
45750
45777
45838
45919
46008
46099
46183
46248
46295
46351
46428
46505
46571
46632
46679
46696
46690
46680
46664
46636
46600
46568
46536
46475
46387
46298
46208
46111
46024
45959
45896
45807
45697
45589
45482
45370
45252
45136
45017
44888
44777
44693
44614
44536
44464
44405
44336
44244
44141
44039
43938
43845
43767
43706
43646
43574
43500
43430
43354
43278
43219
43169
43111
43049
43001
42964
42926
42893
42881
42879
42866
42855
42846
42818
42763
42714
42694
42682
42661
42630
42590
42526
42434
42352
42288
42216
42133
42055
41990
41925
41861
41825
41839
41911
42057
42294
42604
42940
43289
43669
44072
44474
44880
45300
45710
46082
46416
46741
47058
47346
47604
47840
48038
48184
48300
48397
48461
48486
48480
48456
48411
48349
48277
48189
48087
47994
47919
47857
47792
47725
47660
47591
47516
47441
47385
47349
47317
47280
47244
47201
47136
47060
46996
46941
46886
46833
46800
46779
46744
46702
46675
46660
46655
46674
46721
46773
46812
46848
46894
46951
47005
47061
47131
47197
47249
47298
47346
47374
47377
47381
47396
47403
47401
47398
47383
47329
47236
47148
47075
46997
46916
46838
46749
46634
46512
46407
46313
46214
46111
46012
45914
45803
45684
45571
45464
45357
45257
45180
45105
45012
44914
44820
44725
44633
44557
44499
44430
44341
44257
44182
44107
44025
43960
43921
43884
43834
43794
43764
43715
43644
43585
43542
43499
43461
43433
43397
43333
43262
43228
43228
43232
43212
43168
43100
43003
42906
42830
42766
42711
42662
42615
42547
42448
42357
42283
42209
42141
42092
42058
42006
41929
41876
41878
41925
42030
42218
42483
42791
43136
43535
43982
44447
44916
45395
45856
46272
46662
47042
47388
47691
47962
48218
48452
48641
48788
48908
48993
49037
49054
49059
49035
48971
48890
48803
48709
48627
48565
48519
48470
48403
48329
48255
48179
48107
48059
48029
47990
47947
47916
47882
47838
47798
47770
47737
47678
47599
47537
47500
47474
47458
47458
47465
47453
47442
47459
47487
47517
47563
47632
47692
47726
47757
47807
47862
47913
47959
47997
48014
48012
48023
48052
48057
48030
47994
47950
47897
47849
47816
47773
47689
47578
47472
47384
47302
47222
47154
47086
46995
46891
46797
46705
46611
46529
46458
46372
46253
46126
46016
45900
45769
45634
45504
45390
45295
45217
45158
45096
45024
44950
44876
44801
44737
44697
44668
44623
44563
44510
44462
44412
44372
44342
44308
44251
44177
44118
44079
44040
43997
43950
43895
43830
43773
43735
43689
43617
43543
43482
43428
43378
43333
43301
43257
43179
43091
43005
42919
42836
42772
42720
42646
42552
42467
42389
42303
42219
42160
42124
42101
42117
42213
42389
42627
42924
43278
43678
44102
44543
45013
45490
45946
46390
46820
47217
47573
47901
48213
48489
48706
48890
49055
49183
49274
49337
49363
49342
49280
49213
49153
49080
48993
48909
48822
48728
48638
48567
48506
48431
48357
48309
48273
48229
48185
48152
48115
48054
47979
47922
47881
47829
47771
47717
47671
47632
47610
47615
47622
47610
47600
47607
47625
47651
47694
47755
47803
47832
47866
47905
47937
47965
48000
48037
48054
48047
48051
48073
48076
48049
48004
47945
47882
47833
47801
47757
47678
47582
47498
47421
47333
47238
47146
47055
46951
46838
46736
46634
46515
46393
46272
46153
46047
45961
45887
45796
45681
45568
45465
45366
45274
45186
45090
44983
44884
44812
44759
44699
44626
44549
44475
44399
44330
44286
44253
44201
44144
44095
44039
43973
43924
43905
43884
43830
43765
43712
43667
43620
43579
43552
43509
43437
43381
43354
43328
43293
43255
43206
43137
43054
42976
42909
42848
42794
42750
42711
42654
42573
42502
42444
42368
42268
42154
42020
41871
41738
41646
41575
41496
41418
41363
41334
41339
41405
41561
41793
42087
42441
42842
43280
43745
44240
44756
45251
45704
46132
46538
46915
47270
47615
47938
48200
48395
48556
48695
48796
48868
48928
48960
48942
48888
48828
48769
48699
48626
48565
48489
48377
48262
48169
48078
47974
47880
47819
47767
47704
47634
47561
47479
47392
47327
47287
47243
47190
47143
47102
47065
47037
47031
47050
47078
47114
47162
47213
47247
47268
47305
47361
47414
47472
47551
47636
47698
47744
47795
47846
47882
47913
47942
47953
47931
47895
47869
47834
47780
47726
47676
47610
47519
47434
47368
47290
47199
47117
47036
46931
46795
46674
46584
46495
46399
46304
46205
46090
45965
45859
45774
45683
45589
45510
45434
45330
45209
45105
45011
44920
44843
44791
44744
44682
44614
44549
44478
44401
44329
44271
44199
44104
44017
43954
43903
43856
43819
43795
43765
43720
43675
43635
43591
43549
43523
43503
43459
43393
43329
43271
43207
43149
43113
43087
43037
42961
42887
42818
42741
42656
42579
42496
42383
42259
42147
42041
41942
41858
41801
41760
41726
41746
41846
42020
42274
42615
43027
43462
43894
44337
44788
45233
45675
46126
46575
46979
47316
47617
47899
48141
48337
48507
48642
48727
48783
48826
48843
48828
48806
48798
48782
48733
48647
48538
48432
48333
48242
48165
48080
47977
47876
47781
47691
47611
47554
47518
47469
47399
47326
47254
47180
47108
47055
47018
46978
46935
46899
46869
46842
46832
46863
46928
46993
47048
47100
47153
47198
47247
47322
47405
47478
47551
47628
47686
47712
47723
47732
47725
47700
47672
47640
47581
47498
47429
47378
47316
47243
47175
47104
47003
46875
46745
46627
46514
46406
46310
46218
46105
45980
45865
45754
45641
45538
45456
45378
45273
45145
45012
44873
44731
44610
44526
44451
44355
44252
44156
44064
43972
43887
43816
43742
43663
43591
43519
43445
43378
43337
43316
43282
43223
43155
43077
42990
42907
42850
42815
42783
42754
42729
42692
42625
42546
42488
42444
42401
42367
42347
42323
42272
42198
42126
42054
41980
41914
41859
41791
41693
41597
41521
41448
41369
41289
41209
41103
40967
40842
40745
40667
40620
40632
40716
40863
41078
41373
41744
42172
42649
43181
43742
44281
44784
45263
45703
46104
46496
46887
47244
47542
47795
48024
48225
48386
48519
48643
48732
48768
48769
48745
48698
48642
48583
48528
48462
48376
48288
48202
48110
48023
47962
47929
47887
47824
47768
47724
47673
47621
47586
47557
47499
47417
47347
47292
47243
47208
47193
47182
47158
47131
47116
47108
47107
47127
47179
47236
47270
47313
47388
47479
47570
47661
47745
47793
47800
47797
47797
47796
47793
47803
47824
47825
47803
47778
47749
47691
47601
47509
47417
47304
47183
47065
46937
46792
46657
46570
46505
46421
46318
46212
46098
45965
45826
45699
45575
45450
45327
45206
45077
44941
44824
44734
44640
44532
44418
44306
44189
44068
43978
43926
43882
43827
43761
43680
43582
43476
43389
43325
43265
43199
43141
43087
43010
42917
42841
42778
42714
42662
42629
42590
42522
42441
42362
42288
42218
42166
42140
42108
42048
41976
41899
41817
41738
41676
41631
41573
41492
41401
41300
41187
41065
40955
40862
40765
40663
40563
40455
40335
40223
40153
40126
40125
40160
40265
40453
40720
41076
41529
42044
42582
43137
43695
44220
44694
45140
45573
45978
46347
46687
47000
47270
47488
47665
47807
47913
47994
48052
48084
48081
48053
48014
47958
47872
47770
47686
47619
47542
47456
47371
47280
47181
47089
47025
46979
46927
46872
46826
46779
46728
46682
46650
46607
46530
46449
46391
46348
46317
46295
46285
46269
46243
46232
46232
46230
46238
46274
46334
46396
46452
46511
46578
46638
46685
46747
46827
46890
46925
46945
46948
46921
46879
46852
46839
46819
46791
46763
46715
46626
46516
46409
46304
46197
46092
45995
45888
45749
45606
45476
45354
45245
45156
45076
44979
44861
44741
44621
44488
44345
44216
44104
43989
43865
43741
43627
43514
43407
43332
43283
43235
43175
43097
43008
42914
42832
42781
42743
42683
42603
42524
42444
42350
42256
42183
42118
42051
41991
41936
41881
41829
41793
41777
41750
41704
41645
41569
41488
41416
41372
41353
41319
41254
41189
41131
41063
40991
40922
40847
40762
40682
40624
40562
40475
40384
40305
40221
40105
39965
39835
39725
39620
39513
39412
39307
39191
39105
39088
39136
39252
39451
39749
40126
40563
41072
41643
42229
42811
43385
43926
44416
44859
45273
45657
45993
46279
46520
46721
46882
47012
47130
47223
47258
47244
47215
47177
47124
47067
47014
46949
46858
46761
46672
46585
46493
46409
46345
46276
46184
46102
46040
45983
45927
45875
45826
45762
45675
45584
45497
45417
45353
45319
45309
45299
45279
45271
45280
45297
45324
45376
45442
45495
45539
45603
45685
45768
45852
45941
46022
46075
46111
46142
46168
46187
46199
46206
46189
46137
46075
46017
45959
45905
45861
45828
45774
45686
45587
45485
45370
45246
45136
45040
44934
44814
44691
44561
44420
44277
44157
44050
43924
43786
43652
43515
43374
43253
43164
43081
42980
42872
42765
42653
42529
42407
42310
42222
42131
42049
41972
41886
41792
41723
41687
41645
41587
41528
41474
41415
41355
41312
41286
41250
41198
41143
41090
41029
40972
40942
40925
40891
40855
40832
40797
40745
40695
40652
40600
40517
40421
40341
40260
40171
40086
40008
39914
39792
39680
39602
39534
39451
39346
39226
39102
38983
38900
38864
38855
38873
38945
39083
39287
39578
39977
40469
41004
41562
42145
42729
43292
43829
44345
44827
45249
45610
45915
46164
46355
46508
46652
46774
46859
46927
46988
47018
47001
46969
46943
46898
46825
46736
46651
46559
46449
46348
46270
46202
46141
46092
46047
45987
45913
45851
45806
45766
45730
45709
45687
45632
45554
45479
45414
45353
45305
45295
45307
45317
45331
45352
45372
45387
45419
45484
45566
45647
45732
45830
45915
45974
46025
46071
46103
46119
46142
46178
46208
46224
46236
46242
46210
46130
46032
45927
45821
45728
45653
45590
45514
45415
45302
45180
45041
44905
44803
44716
44616
44509
44401
44290
44163
44027
43903
43792
43680
43570
43467
43348
43200
43053
42923
42804
42698
42615
42548
42473
42384
42296
42214
42122
42016
41924
41855
41796
41746
41708
41673
41610
41519
41438
41381
41337
41306
41287
41251
41181
41095
41020
40955
40889
40834
40801
40768
40707
40642
40588
40535
40478
40429
40401
40362
40291
40206
40111
40001
39888
39799
39739
39674
39591
39504
39413
39302
39172
39053
38954
38862
38778
38724
38704
38700
38728
38845
39064
39376
39792
40309
40880
41455
42022
42584
43139
43673
44178
44656
45077
45425
45729
45998
46227
46423
46596
46743
46839
46883
46907
46916
46902
46872
46845
46822
46771
46686
46608
46547
46481
46421
46379
46341
46290
46231
46187
46152
46113
46075
46048
46018
45960
45886
45826
45778
45727
45679
45640
45601
45554
45519
45512
45511
45501
45500
45516
45533
45544
45580
45661
45756
45848
45938
46018
46072
46106
46147
46197
46232
46246
46260
46272
46258
46220
46185
46146
46099
46060
46039
46017
45962
45876
45778
45671
45559
45454
45362
45261
45139
45022
44920
44821
44717
44625
44551
44459
44332
44187
44036
43875
43711
43579
43488
43407
43321
43234
43142
43031
42908
42798
42709
42626
42553
42508
42475
42420
42351
42288
42221
42133
42038
41966
41918
41883
41850
41816
41764
41680
41593
41529
41479
41434
41395
41359
41303
41223
41150
41101
41062
41024
40995
40974
40936
40875
40807
40732
40646
40554
40473
40404
40325
40239
40174
40122
40064
40006
39959
39896
39787
39645
39501
39359
39218
39100
39033
39000
38990
39034
39164
39382
39690
40097
40601
41151
41707
42273
42841
43390
43917
44420
44894
45309
45655
45952
46208
46419
46596
46761
46907
47008
47073
47127
47170
47183
47170
47157
47139
47096
47031
46960
46881
46778
46674
46598
46535
46469
46408
46355
46303
46242
46199
46183
46164
46132
46097
46056
45988
45894
45810
45751
45698
45654
45635
45629
45611
45592
45598
45629
45670
45731
45816
45901
45955
45988
46039
46111
46184
46257
46339
46408
46445
46470
46497
46510
46495
46467
46448
46424
46386
46345
46296
46234
46158
46090
46032
45959
45867
45767
45655
45525
45381
45251
45145
45038
44919
44802
44683
44538
44372
44219
44076
43933
43804
43700
43602
43479
43330
43191
43074
42967
42872
42796
42717
42615
42512
42429
42352
42271
42191
42123
42047
41946
41855
41786
41720
41659
41615
41582
41525
41439
41362
41306
41262
41228
41205
41185
41145
41085
41023
40965
40900
40843
40814
40794
40758
40715
40677
40628
40544
40447
40363
40283
40198
40119
40058
39999
39916
39816
39710
39589
39453
39342
39273
39231
39220
39258
39354
39499
39695
39970
40331
40753
41223
41754
42330
42914
43491
44041
44539
44964
45325
45653
45954
46223
46462
46679
46856
46973
47045
47091
47114
47110
47084
47057
47026
46981
46924
46858
46774
46664
46563
46489
46415
46339
46270
46208
46134
46035
45936
45848
45758
45666
45600
45566
45532
45487
45446
45409
45359
45312
45302
45319
45341
45373
45418
45456
45473
45491
45541
45616
45699
45782
45865
45940
45997
46055
46129
46203
46265
46319
46369
46392
46378
46347
46308
46257
46202
46169
46158
46133
46088
46034
45969
45877
45760
45641
45523
45405
45299
45212
45125
45017
44893
44773
44657
44526
44383
44256
44141
44024
43917
43833
43751
43645
43537
43444
43358
43267
43182
43113
43032
42926
42825
42738
42656
42567
42486
42423
42359
42291
42235
42185
42125
42053
41999
41965
41934
41907
41884
41851
41793
41723
41674
41643
41605
41563
41533
41497
41431
41355
41291
41223
41145
41070
41011
40943
40841
40731
40633
40550
40487
40472
40521
40618
40760
40967
41244
41579
41968
42421
42919
43421
43910
44384
44834
45250
45637
46001
46327
46602
46847
47071
47250
47362
47426
47483
47537
47572
47592
47599
47581
47526
47457
47401
47345
47277
47196
47102
47001
46898
46813
46751
46689
46618
46546
46473
46396
46317
46256
46210
46152
46085
46023
45959
45883
45806
45752
45719
45690
45671
45679
45708
45746
45797
45876
45963
46040
46115
46191
46263
46327
46389
46461
46520
46546
46570
46609
46649
46682
46710
46725
46701
46631
46560
46513
46466
46411
46351
46276
46178
46073
45975
45879
45772
45659
45551
45440
45318
45192
45079
44980
44865
44725
44593
44474
44355
44244
44144
44033
43899
43766
43662
43565
43458
43349
43248
43158
43074
43000
42946
42889
42818
42749
42685
42610
42520
42443
42389
42338
42287
42238
42183
42113
42044
42004
41989
41968
41937
41909
41876
41831
41798
41790
41769
41709
41635
41566
41494
41409
41324
41258
41186
41090
40994
40906
40821
40750
40707
40701
40713
40753
40856
41035
41295
41640
42071
42569
43086
43595
44100
44592
45047
45463
45859
46228
46552
46840
47110
47351
47549
47715
47868
47997
48078
48120
48143
48149
48147
48150
48158
48143
48088
48021
47965
47913
47856
47792
47726
47644
47548
47474
47431
47399
47366
47349
47350
47336
47294
47240
47179
47113
47058
47029
47014
46990
46956
46925
46901
46880
46879
46916
46970
47011
47046
47085
47120
47145
47178
47236
47307
47369
47424
47471
47508
47533
47559
47603
47639
47638
47610
47558
47487
47413
47356
47319
47269
47194
47110
47016
46901
46781
46681
46597
46506
46400
46293
46191
46081
45967
45870
45786
45690
45584
45481
45378
45265
45151
45057
44963
44850
44737
44640
44543
44432
44337
44270
44209
44146
44088
44038
43978
43897
43817
43745
43678
43624
43599
43589
43551
43481
43417
43364
43311
43264
43235
43204
43150
43093
43050
43014
42978
42942
42919
42894
42833
42745
42659
42574
42486
42400
42323
42232
42114
42005
41928
41877
41853
41866
41923
42014
42147
42367
42684
43063
43480
43934
44414
44883
45323
45755
46179
46573
46940
47291
47613
47878
48091
48287
48468
48622
48755
48871
48948
48971
48967
48970
48970
48952
48917
48878
48824
48746
48676
48632
48593
48549
48506
48465
48418
48360
48319
48298
48271
48238
48215
48201
48174
48132
48093
48062
48021
47965
47904
47836
47769
47732
47734
47748
47752
47758
47781
47815
47852
47901
47972
48049
48106
48151
48189
48219
48241
48267
48307
48337
48342
48333
48305
48261
48217
48188
48170
48134
48072
48002
47928
47841
47747
47660
47576
47478
47369
47265
47162
47050
46938
46847
46762
46648
46510
46372
46231
46087
45956
45852
45753
45640
45533
45442
45355
45259
45161
45075
44990
44901
44815
44735
44653
44569
44502
44459
44420
44378
44332
44275
44194
44102
44034
43999
43967
43921
43870
43816
43752
43687
43645
43617
43586
43551
43522
43492
43435
43359
43301
43262
43225
43180
43120
43039
42941
42846
42763
42674
42571
42468
42371
42260
42128
42015
41950
41921
41928
41980
42083
42233
42436
42720
43087
43515
43981
44469
44962
45435
45876
46309
46734
47129
47492
47831
48128
48367
48569
48755
48912
49031
49115
49174
49204
49196
49171
49145
49110
49067
49021
48982
48933
48860
48794
48742
48692
48647
48618
48607
48581
48529
48476
48435
48398
48369
48354
48341
48306
48254
48202
48149
48091
48035
48012
48023
48033
48041
48060
48086
48113
48152
48216
48282
48326
48365
48410
48456
48500
48539
48570
48583
48578
48583
48608
48626
48626
48616
48590
48535
48458
48393
48351
48309
48260
48210
48149
48069
47977
47902
47839
47755
47658
47560
47450
47321
47192
47080
46971
46848
46727
46620
46509
46387
46267
46166
46074
45976
45876
45781
45691
45606
45534
45478
45407
45307
45206
45119
45043
44982
44939
44906
44866
44813
44761
44713
44660
44608
44572
44539
44482
44412
44358
44318
44282
44260
44255
44247
44208
44145
44085
44034
43987
43950
43917
43860
43768
43673
43593
43511
43418
43322
43228
43126
43018
42932
42884
42862
42870
42927
43031
43175
43367
43639
43993
44394
44825
45280
45741
46187
46615
47043
47461
47831
48146
48425
48674
48884
49059
49213
49338
49428
49501
49562
49599
49600
49576
49544
49495
49428
49358
49288
49213
49127
49049
48995
48953
48909
48870
48829
48772
48714
48671
48631
48567
48479
48396
48328
48258
48180
48108
48044
47975
47917
47885
47865
47848
47857
47902
47957
47995
48038
48112
48198
48274
48343
48410
48468
48517
48579
48659
48715
48727
48713
48689
48652
48609
48583
48578
48565
48529
48479
48418
48344
48261
48192
48132
48051
47946
47839
47729
47610
47497
47408
47317
47195
47058
46928
46803
46674
46555
46458
46366
46258
46147
46049
45957
45863
45767
45678
45582
45467
45360
45275
45198
45133
45081
45024
44948
44854
44772
44711
44654
44604
44573
44543
44485
44413
44350
44291
44230
44182
44161
44149
44113
44055
43998
43938
43873
43823
43800
43775
43711
43633
43563
43499
43436
43378
43333
43269
43169
43072
42988
42902
42811
42725
42643
42540
42427
42346
42305
42295
42334
42447
42640
42888
43192
43583
44050
44557
45081
45596
46077
46517
46934
47348
47744
48102
48417
48692
48935
49139
49315
49479
49607
49685
49735
49766
49773
49763
49751
49736
49696
49624
49542
49461
49385
49319
49262
49208
49145
49073
49014
48980
48952
48922
48899
48881
48848
48809
48787
48766
48725
48680
48641
48596
48541
48494
48474
48467
48453
48446
48453
48472
48500
48538
48592
48638
48667
48705
48761
48825
48895
48969
49038
49079
49084
49079
49072
49055
49034
49017
48995
48937
48855
48786
48723
48646
48559
48473
48377
48247
48099
47972
47874
47781
47685
47587
47476
47344
47221
47122
47031
46935
46838
46749
46647
46518
46400
46300
46199
46101
46022
45958
45877
45770
45665
45573
45484
45400
45332
45276
45210
45135
45070
45016
44952
44885
44838
44803
44756
44712
44685
44651
44597
44540
44502
44472
44422
44355
44283
44208
44129
44064
44023
43983
43929
43873
43823
43758
43667
43574
43490
43405
43322
43255
43197
43119
43015
42913
42820
42725
42636
42569
42507
42415
42296
42181
42076
41967
41864
41788
41711
41610
41506
41425
41369
41336
41366
41502
41733
42047
42448
42926
43460
44029
44625
45234
45812
46327
46791
47216
47606
47967
48305
48613
48866
49062
49226
49367
49474
49546
49593
49620
49616
49592
49575
49553
49513
49465
49417
49360
49282
49191
49115
49051
48986
48930
48888
48850
48810
48787
48790
48791
48775
48743
48696
48635
48566
48514
48484
48454
48422
48396
48370
48337
48310
48316
48352
48385
48415
48457
48505
48552
48609
48691
48784
48856
48901
48939
48974
48993
49005
49035
49064
49071
49068
49063
49050
49018
48977
48945
48904
48836
48757
48673
48580
48487
48416
48362
48281
48165
48034
47891
47741
47595
47472
47371
47267
47154
47051
46962
46867
46759
46663
46576
46474
46365
46264
46166
46067
45973
45896
45823
45729
45623
45526
45450
45384
45326
45284
45237
45176
45134
45116
45102
45077
45044
45010
44954
44866
44787
44733
44681
44620
44555
44482
44390
44291
44221
44185
44154
44123
44090
44036
43956
43880
43829
43796
43752
43693
43631
43560
43473
43377
43295
43214
43119
43023
42931
42835
42731
42636
42554
42456
42329
42201
42085
41980
41900
41861
41867
41907
41993
42177
42480
42878
43346
43871
44428
44973
45500
46025
46532
46998
47419
47809
48171
48484
48751
48996
49214
49394
49543
49657
49729
49769
49805
49852
49884
49883
49858
49813
49759
49704
49649
49598
49526
49426
49330
49256
49197
49153
49130
49115
49080
49022
48968
48926
48887
48852
48817
48771
48698
48614
48554
48518
48480
48442
48421
48414
48411
48426
48478
48536
48576
48619
48674
48732
48789
48853
48926
48982
49017
49060
49108
49143
49166
49188
49212
49211
49171
49120
49071
49013
48949
48896
48842
48759
48645
48534
48435
48335
48237
48160
48086
47983
47865
47752
47637
47514
47401
47309
47216
47098
46971
46854
46740
46629
46529
46431
46310
46166
46043
45952
45867
45782
45700
45620
45532
45441
45380
45347
45306
45249
45188
45129
45051
44958
44889
44846
44804
44764
44737
44706
44653
44593
44560
44544
44512
44464
44419
44374
44321
44267
44227
44194
44156
44118
44075
44008
43917
43836
43775
43711
43636
43556
43466
43358
43232
43118
43023
42922
42816
42717
42615
42501
42398
42336
42317
42336
42414
42572
42808
43106
43466
43903
44397
44922
45472
46035
46575
47063
47507
47914
48280
48606
48899
49167
49389
49559
49695
49800
49867
49900
49928
49959
49973
49958
49922
49869
49790
49691
49592
49494
49386
49277
49183
49099
49005
48908
48834
48779
48728
48685
48658
48620
48545
48453
48363
48273
48181
48100
48045
48005
47969
47952
47951
47953
47957
47984
48046
48122
48203
48293
48387
48461
48508
48557
48618
48681
48748
48822
48885
48918
48924
48926
48923
48902
48868
48844
48830
48802
48756
48701
48621
48505
48379
48281
48198
48102
48001
47906
47798
47666
47542
47446
47351
47245
47133
47024
46903
46756
46609
46476
46348
46222
46117
46037
45959
45877
45797
45711
45602
45477
45370
45286
45209
45146
45107
45066
44994
44908
44836
44774
44708
44635
44569
44508
44445
44396
44379
44367
44335
44294
44252
44204
44148
44106
44087
44069
44039
44004
43961
43886
43780
43675
43576
43474
43380
43307
43243
43166
43094
43055
43051
43075
43145
43300
43551
43876
44271
44736
45232
45715
46182
46643
47093
47508
47886
48248
48590
48901
49183
49437
49643
49790
49904
50006
50086
50145
50204
50259
50265
50211
50133
50045
49930
49802
49691
49591
49490
49395
49312
49234
49141
49044
48969
48907
48844
48780
48733
48696
48644
48582
48521
48445
48339
48221
48115
48028
47953
47898
47881
47889
47909
47951
48014
48073
48114
48165
48233
48304
48382
48484
48598
48688
48747
48795
48833
48848
48847
48848
48848
48830
48798
48776
48753
48701
48630
48559
48476
48369
48252
48137
48013
47873
47736
47631
47545
47451
47349
47251
47139
47001
46860
46727
46592
46453
46330
46231
46131
46021
45912
45802
45670
45518
45374
45241
45117
45004
44914
44843
44764
44672
44587
44511
44428
44340
44271
44215
44158
44110
44080
44053
44006
43941
43873
43806
43737
43681
43647
43616
43578
43542
43511
43461
43387
43319
43264
43205
43133
43067
43015
42960
42896
42832
42762
42664
42540
42426
42338
42274
42249
42285
42383
42538
42765
43083
43485
43944
44448
44993
45551
46095
46625
47138
47616
48036
48407
48743
49036
49288
49512
49719
49892
50020
50107
50156
50166
50150
50132
50115
50082
50032
49976
49913
49823
49701
49577
49470
49377
49304
49263
49240
49205
49162
49124
49085
49030
48968
48926
48896
48863
48837
48822
48790
48723
48644
48574
48515
48470
48448
48455
48471
48484
48508
48546
48583
48615
48667
48749
48837
48922
49003
49073
49116
49136
49164
49204
49232
49248
49276
49296
49277
49231
49184
49132
49066
48991
48922
48848
48746
48622
48499
48375
48253
48144
48049
47946
47822
47695
47579
47469
47351
47230
47121
47008
46886
46771
46661
46539
46405
46290
46201
46116
46033
45952
45867
45766
45654
45564
45503
45448
45396
45355
45306
45225
45122
45028
44949
44866
44788
44740
44704
44665
44637
44625
44603
44545
44474
44411
44344
44268
44208
44177
44148
44115
44095
44079
44041
43979
43913
43843
43763
43679
43609
43550
43491
43430
43372
43315
43230
43121
43014
42901
42770
42644
42552
42492
42448
42430
42469
42578
42752
43013
43374
43807
44286
44802
45351
45900
46424
46926
47400
47830
48217
48586
48943
49264
49543
49785
49988
50142
50246
50323
50385
50420
50432
50437
50430
50392
50332
50271
50209
50129
50034
49954
49895
49828
49761
49709
49658
49586
49503
49427
49365
49316
49286
49283
49278
49253
49218
49178
49127
49062
49014
48997
48987
48977
48981
49003
49015
49011
49013
49027
49045
49076
49131
49194
49245
49296
49351
49405
49442
49470
49504
49532
49545
49559
49580
49590
49562
49502
49430
49348
49259
49185
49139
49089
49017
48929
48836
48736
48621
48510
48415
48320
48223
48130
48037
47923
47776
47627
47499
47379
47259
47158
47073
46974
46866
46766
46668
46553
46431
46328
46246
46167
46098
46053
46009
45940
45869
45815
45759
45690
45622
45575
45534
45489
45445
45395
45326
45237
45160
45111
45077
45049
45023
44996
44948
44873
44792
44719
44644
44577
44538
44514
44477
44426
44370
44303
44221
44131
44061
44011
43956
43899
43834
43744
43620
43483
43358
43246
43139
43043
42968
42895
42810
42740
42704
42711
42778
42930
43176
43491
43854
44271
44730
45209
45705
46226
46761
47266
47725
48144
48518
48834
49105
49359
49596
49792
49952
50102
50233
50314
50359
50398
50422
50411
50379
50342
50290
50209
50115
50024
49937
49854
49784
49735
49685
49612
49532
49457
49385
49319
49277
49260
49236
49196
49152
49105
49041
48972
48923
48887
48852
48821
48806
48803
48789
48762
48754
48770
48797
48844
48918
48997
49059
49111
49163
49211
49244
49270
49307
49345
49365
49381
49402
49420
49421
49410
49395
49365
49311
49241
49163
49071
48958
48854
48774
48699
48624
48564
48513
48445
48359
48272
48184
48088
47987
47901
47822
47726
47623
47526
47418
47281
47132
46999
46884
46779
46696
46652
46618
46566
46501
46430
46351
46266
46199
46156
46118
46078
46053
46045
46027
45986
45938
45883
45818
45753
45715
45707
45697
45675
45657
45637
45599
45559
45539
45532
45517
45494
45476
45455
45403
45330
45266
45208
45146
45094
45053
45002
44924
44844
44782
44732
44678
44622
44569
44493
44380
44271
44191
44129
44093
44109
44184
44307
44485
44738
45059
45421
45810
46229
46663
47076
47459
47828
48185
48519
48839
49149
49430
49658
49849
50022
50167
50272
50352
50421
50462
50463
50441
50412
50364
50289
50217
50165
50117
50066
50019
49977
49913
49817
49724
49649
49579
49510
49465
49446
49421
49381
49334
49284
49224
49161
49120
49087
49044
48998
48965
48942
48916
48903
48918
48953
49001
49065
49148
49227
49288
49344
49407
49473
49529
49590
49666
49736
49786
49822
49850
49860
49842
49818
49801
49776
49737
49697
49654
49583
49488
49403
49334
49261
49191
49142
49102
49036
48948
48866
48792
48711
48627
48559
48497
48424
48353
48299
48240
48149
48044
47949
47861
47775
47713
47684
47658
47618
47571
47520
47459
47393
47341
47302
47261
47218
47194
47190
47186
47183
47199
47226
47220
47165
47102
47045
46987
46948
46939
46941
46926
46898
46872
46836
46773
46702
46650
46614
46575
46533
46499
46472
46441
46409
46375
46322
46245
46164
46084
46000
45915
45852
45819
45800
45798
45840
45933
46048
46177
46346
46562
46812
47093
47412
47754
48092
48421
48748
49059
49330
49567
49792
50002
50185
50350
50499
50616
50698
50756
50792
50803
50784
50752
50726
50690
50638
50575
50506
50420
50320
50238
50181
50126
50072
50037
50022
49996
49951
49910
49875
49830
49784
49753
49723
49675
49623
49588
49566
49527
49475
49443
49428
49414
49412
49443
49496
49543
49586
49637
49685
49720
49765
49836
49911
49972
50030
50096
50151
50188
50219
50239
50224
50177
50121
50060
49991
49919
49868
49842
49809
49765
49721
49669
49597
49515
49437
49360
49275
49193
49135
49094
49050
49006
48974
48940
48881
48812
48742
48660
48558
48462
48391
48333
48277
48236
48212
48177
48130
48092
48065
48025
47967
47910
47857
47785
47695
47630
47601
47578
47559
47555
47559
47545
47506
47468
47436
47397
47363
47359
47365
47355
47336
47326
47308
47267
47224
47188
47148
47098
47048
47014
46986
46948
46912
46885
46838
46759
46683
46624
46568
46510
46461
46425
46389
46352
46328
46327
46349
46405
46520
46700
46921
47173
47454
47757
48068
48382
48708
49044
49373
49689
49987
50256
50480
50673
50852
51001
51112
51202
51278
51319
51313
51297
51290
51289
51288
51292
51295
51271
51214
51141
51062
50974
50879
50798
50735
50676
50615
50559
50519
50496
50493
50520
50549
50550
50529
50503
50467
50415
50364
50335
50326
50325
50330
50342
50349
50342
50344
50377
50422
50466
50510
50558
50598
50625
50671
50740
50798
50840
50874
50897
50895
50872
50853
50840
50826
50816
50813
50805
50767
50708
50663
50628
50574
50504
50439
50372
50290
50210
50149
50093
50031
49975
49933
49890
49830
49764
49698
49632
49566
49511
49474
49433
49383
49333
49283
49212
49114
49021
48951
48893
48844
48814
48799
48777
48749
48728
48716
48695
48665
48650
48648
48627
48599
48586
48577
48549
48507
48474
48447
48417
48397
48402
48410
48400
48379
48353
48305
48230
48155
48094
48039
47994
47972
47973
47972
47958
47942
47921
47869
47785
47702
47635
47568
47507
47460
47416
47355
47285
47229
47182
47114
47038
46977
46925
46881
46873
46929
47044
47193
47375
47598
47855
48122
48410
48736
49083
49426
49757
50074
50367
50626
50870
51094
51286
51446
51595
51738
51857
51946
52020
52072
52081
52049
52011
51973
51924
51879
51862
51847
51798
51721
51636
51556
51475
51401
51357
51332
51309
51303
51316
51320
51297
51269
51246
51216
51171
51134
51126
51129
51124
51114
51105
51082
51046
51021
51016
51014
51013
51032
51075
51127
51187
51260
51337
51392
51430
51466
51490
51497
51509
51544
51589
51626
51648
51661
51655
51616
51557
51498
51437
51362
51295
51255
51219
51175
51131
51085
51018
50926
50826
50726
50629
50546
50480
50435
50397
50354
50309
50258
50189
50105
50030
49969
49906
49847
49810
49785
49744
49697
49660
49623
49565
49501
49462
49438
49409
49380
49360
49328
49270
49218
49186
49158
49125
49103
49098
49088
49062
49034
49007
48966
48905
48842
48784
48728
48682
48660
48661
48658
48648
48644
48634
48595
48536
48482
48436
48391
48352
48333
48324
48295
48254
48222
48183
48110
48016
47935
47860
47778
47706
47655
47601
47527
47449
47379
47314
47265
47275
47345
47450
47597
47809
48073
48354
48639
48943
49261
49571
49862
50158
50468
50771
51057
51332
51588
51799
51964
52105
52219
52293
52340
52388
52431
52446
52440
52428
52394
52324
52242
52163
52090
52025
51969
51925
51875
51802
51728
51668
51612
51559
51532
51523
51507
51492
51494
51509
51509
51491
51468
51442
51397
51334
51290
51281
51282
51283
51296
51316
51314
51297
51292
51306
51329
51364
51416
51474
51521
51569
51631
51694
51743
51782
51808
51805
51771
51731
51695
51655
51617
51594
51584
51570
51546
51524
51496
51439
51349
51260
51182
51095
50996
50911
50851
50785
50713
50648
50576
50484
50392
50329
50287
50243
50198
50167
50130
50073
50020
49983
49945
49892
49834
49789
49751
49710
49674
49648
49609
49550
49505
49483
49470
49463
49465
49473
49461
49423
49380
49338
49276
49208
49165
49134
49090
49039
49008
48994
48973
48948
48928
48899
48843
48772
48723
48688
48643
48600
48569
48530
48475
48418
48362
48299
48223
48157
48110
48070
48037
48019
48009
47979
47929
47874
47812
47725
47619
47517
47431
47362
47318
47323
47377
47466
47586
47746
47949
48180
48434
48719
49017
49307
49605
49927
50248
50543
50813
51055
51257
51414
51546
51667
51775
51863
51940
52008
52050
52055
52038
52009
51956
51874
51783
51691
51582
51458
51359
51302
51259
51223
51203
51188
51160
51115
51071
51026
50966
50910
50876
50842
50790
50736
50700
50670
50637
50612
50600
50586
50557
50534
50531
50533
50528
50538
50578
50633
50697
50774
50863
50941
51006
51076
51150
51196
51208
51203
51184
51149
51105
51073
51057
51036
50999
50957
50903
50828
50752
50686
50622
50546
50464
50403
50353
50294
50241
50202
50152
50076
49988
49898
49801
49691
49594
49527
49471
49408
49353
49318
49280
49225
49165
49108
49039
48962
48893
48828
48756
48683
48629
48597
48567
48537
48514
48487
48443
48384
48329
48283
48235
48197
48181
48170
48145
48114
48097
48081
48047
48000
47948
47888
47828
47778
47742
47717
47697
47680
47666
47631
47560
47480
47406
47333
47261
47209
47182
47152
47110
47075
47038
46976
46896
46816
46729
46635
46558
46525
46545
46602
46690
46821
46982
47151
47339
47558
47788
48012
48249
48514
48791
49068
49351
49643
49916
50145
50347
50524
50656
50746
50824
50901
50964
51008
51042
51070
51076
51057
51028
50991
50926
50842
50765
50697
50619
50535
50476
50434
50391
50356
50341
50328
50295
50248
50200
50145
50072
49996
49931
49869
49800
49739
49697
49661
49623
49605
49617
49632
49646
49676
49719
49751
49764
49774
49786
49788
49783
49796
49832
49871
49908
49955
50001
50020
50026
50029
50011
49962
49903
49867
49850
49833
49817
49806
49780
49730
49663
49589
49506
49410
49317
49239
49158
49067
48987
48934
48881
48812
48746
48679
48592
48488
48398
48335
48273
48206
48149
48111
48064
47991
47906
47829
47753
47682
47632
47597
47565
47538
47524
47507
47466
47416
47372
47319
47246
47173
47120
47082
47046
47020
47005
46984
46946
46908
46878
46832
46767
46714
46682
46650
46609
46576
46555
46530
46500
46479
46464
46436
46398
46364
46329
46283
46223
46166
46112
46045
45974
45915
45861
45795
45728
45671
45603
45511
45422
45367
45342
45341
45381
45477
45613
45775
45978
46230
46508
46802
47121
47466
47810
48136
48454
48761
49033
49264
49474
49667
49833
49978
50115
50243
50339
50399
50440
50455
50429
50378
50328
50282
50221
50148
50081
50014
49933
49846
49778
49725
49668
49618
49584
49551
49505
49458
49424
49382
49322
49271
49240
49210
49177
49155
49144
49128
49114
49118
49135
49134
49107
49081
49064
49047
49036
49049
49084
49125
49179
49252
49326
49381
49428
49481
49525
49542
49549
49563
49567
49544
49509
49479
49453
49426
49407
49395
49365
49310
49247
49179
49090
48980
48873
48779
48682
48579
48486
48409
48340
48281
48236
48195
48136
48060
47986
47916
47837
47755
47683
47616
47545
47481
47439
47402
47346
47277
47206
47130
47045
46964
46908
46875
46849
46824
46799
46756
46687
46618
46564
46510
46457
46420
46404
46385
46359
46339
46323
46294
46253
46214
46183
46151
46114
46089
46071
46045
46016
45994
45961
45894
45808
45725
45648
45571
45506
45463
45430
45393
45366
45358
45331
45267
45191
45118
45036
44943
44872
44837
44824
44842
44910
45025
45161
45308
45481
45689
45928
46194
46492
46823
47173
47533
47907
48284
48630
48938
49220
49466
49658
49800
49921
50021
50089
50136
50180
50208
50207
50187
50162
50121
50055
49980
49895
49796
49690
49603
49538
49473
49408
49363
49343
49322
49285
49251
49217
49162
49095
49041
49005
48973
48946
48932
48919
48890
48853
48822
48797
48762
48723
48705
48706
48719
48750
48806
48871
48929
48983
49039
49086
49107
49128
49168
49217
49258
49288
49315
49329
49320
49300
49275
49229
49155
49080
49010
48938
48869
48822
48798
48764
48709
48651
48593
48518
48433
48359
48287
48213
48149
48107
48066
48005
47939
47882
47810
47705
47595
47507
47437
47371
47317
47289
47267
47232
47202
47181
47143
47084
47025
46967
46898
46820
46760
46731
46711
46695
46688
46683
46655
46601
46545
46492
46434
46384
46359
46344
46319
46293
46274
46254
46215
46161
46122
46090
46050
46017
45999
45970
45912
45848
45793
45740
45687
45655
45649
45640
45617
45590
45549
45484
45404
45336
45290
45264
45275
45339
45452
45600
45779
45991
46230
46469
46711
46988
47292
47596
47908
48236
48553
48835
49090
49329
49542
49710
49841
49951
50042
50111
50163
50205
50220
50198
50158
50114
50047
49949
49858
49788
49722
49660
49617
49586
49547
49498
49456
49419
49362
49286
49214
49156
49106
49069
49055
49051
49030
48995
48961
48917
48856
48799
48769
48761
48761
48781
48832
48891
48944
49001
49066
49117
49143
49166
49188
49194
49198
49224
49278
49337
49392
49447
49491
49501
49482
49458
