27011
26850
26704
26574
26463
26372
26300
26245
26202
26169
26141
26112
26075
26025
25962
25885
25791
25680
25553
25416
25272
25126
24987
24857
24736
24628
24540
24476
24436
24414
24405
24405
24412
24426
24447
24472
24494
24505
24504
24493
24470
24433
24380
24310
24223
24122
24008
23884
23749
23606
23457
23301
23137
22966
22791
22611
22426
22238
22050
21864
21682
21508
21344
21187
21033
20882
20736
20594
20456
20323
20193
20067
19946
19825
19703
19582
19463
19346
19232
19121
19010
18901
18793
18685
18577
18469
18364
18262
18163
18069
17978
17888
17799
17705
17603
17495
17384
17269
17148
17020
16891
16764
16638
16510
16378
16244
16104
15960
15817
15676
15532
15382
15224
15058
14886
14714
14542
14373
14210
14062
13949
13900
13946
14121
14457
14970
15660
16509
17484
18539
19625
20698
21726
22680
23544
24307
24963
25512
25953
26294
26546
26714
26803
26827
26791
26706
26581
26422
26237
26035
25823
25607
25393
25187
24994
24818
24659
24517
24394
24291
24203
24124
24050
23977
23901
23819
23724
23609
23479
23342
23199
23052
22904
22760
22628
22512
22412
22333
22280
22257
22261
22282
22321
22375
22435
22494
22554
22609
22652
22680
22689
22674
22638
22587
22521
22436
22329
22202
22058
21898
21725
21542
21354
21162
20963
20758
20550
20341
20132
19927
19729
19538
19354
19176
19008
18844
18682
18524
18368
18215
18068
17929
17798
17673
17551
17434
17321
17212
17105
17003
16908
16818
16728
16638
16550
16463
16376
16292
16209
16125
16042
15958
15872
15782
15690
15597
15497
15390
15278
15164
15048
14926
14798
14664
14525
14379
14225
14064
13900
13733
13572
13428
13323
13283
13335
13513
13845
14347
15015
15832
16766
17781
18835
19885
20898
21841
22691
23435
24070
24598
25025
25356
25593
25746
25823
25833
25778
25668
25516
25328
25114
24885
24649
24410
24177
23955
23748
23559
23390
23241
23110
22995
22891
22796
22709
22621
22526
22417
22292
22153
22008
21859
21709
21568
21441
21333
21246
21182
21141
21124
21131
21159
21206
21266
21333
21407
21483
21557
21624
21675
21708
21722
21717
21690
21642
21575
21488
21382
21259
21120
20966
20796
20612
20419
20217
20010
19798
19577
19350
19120
18886
18652
18423
18203
17991
17788
17593
17405
17224
17052
16889
16737
16598
16468
16341
16219
16103
15990
15883
15785
15694
15608
15521
15432
15341
15249
15158
15068
14981
14894
14807
14718
14626
14529
14423
14305
14180
14054
13925
13790
13650
13512
13379
13253
13139
13048
12996
13005
13106
13331
13711
14258
14969
15831
16811
17867
18953
20024
21046
21995
22848
23597
24242
24785
25225
25565
25815
25980
26070
26094
26058
25969
25839
25673
25481
25271
25052
24832
24620
24415
24217
24034
23872
23733
23612
23507
23414
23336
23268
23202
23132
23052
22957
22848
22723
22587
22442
22296
22159
22034
21920
21819
21735
21673
21634
21618
21626
21656
21698
21747
21802
21859
21917
21970
22014
22045
22061
22053
22021
21966
21888
21789
21670
21534
21383
21221
21050
20871
20683
20486
20283
20075
19864
19654
19447
19241
19037
18837
18641
18446
18256
18077
17907
17744
17588
17440
17300
17164
17032
16905
16780
16659
16543
16431
16325
16222
16119
16013
15906
15800
15694
15586
15480
15376
15274
15175
15077
14978
14874
14763
14642
14516
14387
14254
14122
14000
13898
13839
13849
13956
14190
14576
15126
15833
16680
17640
18671
19727
20763
21748
22660
23486
24212
24837
25365
25801
26141
26386
26548
26635
26656
26619
26535
26411
26256
26079
25890
25697
25505
25321
25148
24988
24843
24716
24605
24508
24424
24353
24294
24242
24189
24128
24054
23963
23853
23726
23589
23447
23301
23157
23021
22897
22783
22684
22601
22541
22504
22490
22494
22512
22541
22579
22619
22659
22695
22723
22739
22740
22724
22688
22631
22557
22468
22368
22254
22125
21982
21826
21662
21491
21316
21136
20950
20758
20563
20371
20184
19999
19815
19635
19459
19287
19117
18952
18791
18636
18487
18342
18203
18066
17930
17796
17666
17545
17432
17325
17221
17115
17005
16889
16774
16661
16548
16433
16317
16200
16086
15977
15870
15762
15652
15542
15434
15325
15213
15097
14980
14860
14733
14601
14464
14320
14165
14003
13838
13675
13517
13373
13262
13206
13239
13393
13696
14168
14815
15628
16579
17629
18729
19836
20914
21930
22859
23689
24409
25018
25519
25917
26220
26433
26564
26619
26611
26550
26442
26300
26136
25957
25770
25581
25394
25214
25048
24900
24772
24663
24574
24504
24452
24412
24377
24343
24306
24259
24196
24114
24014
23896
23767
23631
23494
23359
23232
23116
23015
22935
22875
22835
22815
22812
22821
22839
22867
22902
22938
22972
23000
23019
23029
23023
22997
22950
22883
22796
22687
22558
22413
22252
22082
21907
21728
21544
21354
21159
20962
20762
20560
20361
20166
19974
19787
19607
19432
19263
19102
18945
18792
18644
18504
18372
18250
18132
18013
17894
17775
17657
17543
17436
17336
17240
17148
17057
16966
16874
16780
16684
16588
16491
16394
16295
16197
16100
16006
15911
15812
15709
15605
15500
15395
15286
15172
15052
14926
14794
14660
14529
14404
14294
14216
14192
14251
14426
14744
15225
15868
16657
17564
18553
19583
20613
21610
22546
23402
24166
24829
25387
25839
26193
26458
26638
26741
26771
26737
26651
26523
26360
26167
25952
25730
25509
25294
25093
24910
24749
24613
24498
24398
24311
24236
24171
24112
24052
23986
23907
23816
23714
23603
23484
23361
23241
23130
23026
22934
22860
22805
22762
22728
22707
22704
22716
22740
22773
22808
22837
22858
22869
22866
22846
22809
22755
22685
22601
22503
22386
22252
22104
21945
21776
21599
21418
21237
21057
20872
20685
20500
20318
20141
19973
19811
19653
19498
19347
19204
19067
18932
18799
18672
18551
18434
18322
18214
18109
18007
17911
17821
17736
17650
17563
17479
17399
17320
17243
17163
17082
17002
16925
16848
16774
16699
16622
16541
16456
16367
16270
16167
16057
15940
15816
15685
15552
15417
15280
15138
14994
14850
14715
14599
14525
14522
14619
14848
15230
15775
16475
17306
18232
19214
20211
21185
22107
22960
23730
24406
24982
25458
25841
26136
26341
26466
26520
26512
26454
26355
26221
26057
25873
25675
25469
25262
25064
24875
24699
24539
24396
24269
24158
24060
23972
23887
23800
23706
23601
23486
23362
23236
23106
22973
22843
22726
22629
22551
22495
22464
22460
22480
22517
22571
22642
22722
22805
22886
22958
23020
23069
23101
23115
23109
23082
23033
22961
22867
22752
22618
22471
22309
22133
21948
21756
21560
21363
21166
20970
20776
20584
20397
20217
20044
19878
19718
19564
19417
19279
19151
19032
18920
18815
18719
18629
18545
18471
18408
18357
18313
18272
18234
18195
18153
18111
18071
18030
17988
17947
17904
17853
17794
17724
17642
17546
17440
17328
17211
17088
16961
16835
16716
16611
16541
16532
16611
16806
17139
17616
18230
18960
19774
20633
21505
22365
23189
23958
24658
25277
25815
26272
26645
26935
27145
27282
27352
27360
27310
27216
27085
26921
26729
26520
26303
26084
25867
25659
25471
25304
25156
25025
24908
24801
24700
24604
24506
24403
24295
24188
24078
23964
23851
23742
23643
23560
23503
23472
23465
23478
23512
23568
23645
23739
23841
23942
24037
24118
24184
24238
24280
24305
24312
24301
24266
24206
24125
24022
23896
23751
23592
23423
23244
23060
22877
22695
22509
22319
22133
21952
21775
21605
21444
21293
21149
21008
20868
20727
20589
20456
20326
20200
20082
19976
19879
19786
19697
19608
19518
19424
19325
19228
19135
19042
18947
18851
18756
18660
18564
18464
18359
18249
18136
18024
17917
17820
17737
17683
17681
17754
17924
18209
18621
19158
19805
20542
21339
22164
22991
23797
24559
25266
25909
26479
26970
27378
27706
27958
28137
28244
28285
28267
28200
28097
27966
27810
27639
27458
27273
27088
26912
26751
26610
26491
26392
26307
26231
26160
26092
26024
25955
25883
25800
25704
25591
25464
25325
25178
25034
24898
24774
24666
24578
24513
24472
24449
24448
24466
24496
24534
24579
24627
24670
24703
24723
24728
24715
24685
24641
24584
24516
24438
24346
24237
24110
23971
23821
23664
23506
23348
23186
23018
22848
22678
22509
22343
22185
22034
21890
21747
21605
21458
21309
21164
21023
20887
20755
20629
20509
20392
20275
20158
20042
19929
19817
19705
19594
19481
19367
19254
19141
19028
18920
18818
18723
18643
18591
18583
18639
18779
19027
19395
19883
20479
21163
21905
22677
23455
24215
24938
25610
26222
26766
27235
27623
27934
28171
28338
28438
28480
28471
28419
28332
28214
28072
27915
27755
27599
27450
27312
27184
27071
26972
26890
26824
26768
26718
26671
26623
26564
26487
26392
26276
26144
26001
25853
25706
25567
25442
25336
25248
25180
25133
25108
25102
25111
25135
25172
25218
25270
25321
25362
25391
25408
25410
25394
25363
25322
25278
25225
25156
25070
24968
24855
24731
24598
24460
24322
24183
24044
23907
23769
23627
23487
23353
23227
23106
22990
22880
22776
22675
22578
22481
22388
22304
22226
22148
22069
21985
21894
21794
21688
21579
21471
21363
21258
21157
21057
20958
20857
20752
20643
20534
20429
20334
20260
20224
20246
20341
20527
20819
21224
21735
22336
23005
23716
24444
25168
25865
26525
27136
27686
28166
28574
28912
29185
29397
29544
29629
29656
29627
29552
29441
29304
29150
28988
28823
28659
28501
28356
28228
28117
28023
27947
27888
27838
27786
27728
27658
27575
27481
27375
27261
27137
27008
26878
26754
26636
26531
26444
26375
26327
26299
26289
26294
26316
26350
26388
26425
26458
26487
26507
26514
26509
26489
26457
26414
26360
26292
26210
26113
25999
25869
25731
25590
25445
25295
25140
24981
24821
24661
24502
24346
24192
24040
23893
23752
23614
23480
23350
23227
23107
22990
22877
22764
22646
22523
22399
22276
22157
22042
21930
21823
21720
21617
21513
21407
21301
21194
21087
20982
20876
20769
20661
20550
20436
20324
20218
20120
20036
19979
19965
20017
20161
20421
20809
21320
21939
22639
23393
24171
24948
25704
26419
27079
27676
28205
28661
29041
29342
29568
29724
29815
29846
29822
29754
29651
29521
29369
29205
29037
28872
28713
28566
28432
28314
28214
28133
28062
27996
27929
27859
27784
27697
27596
27483
27358
27219
27067
26911
26757
26609
26470
26341
26228
26136
26062
26005
25966
25945
25942
25956
25983
26021
26063
26097
26116
26118
26103
26073
26026
25965
25890
25801
25696
25577
25445
25297
25135
24963
24784
24605
24425
24243
24059
23876
23694
23516
23341
23171
23011
22860
22717
22581
22451
22325
22205
22093
21989
21892
21800
21707
21612
21515
21413
21308
21207
21113
21020
20925
20828
20726
20618
20506
20394
20281
20167
20051
19932
19814
19701
19602
19529
19501
19544
19689
19960
20364
20895
21536
22263
23047
23856
24666
25455
26201
26888
27503
28040
28499
28883
29191
29421
29579
29672
29705
29684
29616
29511
29377
29224
29058
28889
28722
28565
28420
28288
28170
28067
27974
27889
27810
27734
27653
27561
27455
27332
27198
27053
26896
26733
26570
26414
26269
26141
26033
25946
25883
25842
25823
25825
25850
25895
25952
26016
26087
26161
26231
26291
26336
26360
26362
26343
26303
26238
26148
26041
25916
25776
25623
25461
25292
25116
24933
24747
24559
24373
24187
23999
23815
23642
23476
23314
23157
23007
22862
22721
22585
22452
22324
22202
22084
21970
21857
21748
21637
21524
21411
21294
21172
21050
20930
20809
20689
20571
20463
20367
20294
20257
20279
20381
20586
20913
21370
21950
22629
23374
24158
24953
25740
26499
27215
27875
28469
28988
29427
29786
30065
30270
30405
30475
30489
30456
30379
30269
30132
29973
29799
29623
29459
29312
29181
29064
28962
28877
28812
28757
28700
28635
28558
28467
28362
28237
28094
27938
27776
27615
27454
27296
27144
27004
26879
26768
26678
26617
26584
26579
26596
26629
26667
26710
26752
26795
26835
26867
26885
26886
26870
26838
26787
26715
26623
26514
26388
26246
26094
25932
25764
25593
25418
25243
25068
24896
24728
24561
24397
24239
24087
23937
23790
23647
23507
23372
23244
23120
22994
22862
22725
22590
22457
22325
22189
22051
21910
21770
21632
21495
21361
21231
21104
20985
20880
20797
20750
20763
20861
21065
21390
21844
22421
23105
23867
24677
25509
26337
27139
27899
28605
29248
29820
30317
30734
31068
31323
31503
31614
31667
31666
31620
31540
31437
31323
31203
31079
30955
30840
30734
30640
30557
30486
30427
30381
30341
30299
30249
30190
30117
30025
29915
29788
29642
29477
29297
29113
28933
28763
28607
28469
28350
28252
28176
28122
28086
28067
28062
28068
28084
28102
28117
28125
28125
28115
28095
28065
28022
27963
27885
27790
27680
27557
27425
27288
27143
26985
26818
26646
26471
26296
26122
25949
25779
25612
25452
25302
25157
25013
24871
24734
24597
24459
24327
24206
24095
23992
23892
23789
23682
23577
23470
23358
23243
23129
23018
22905
22789
22669
22551
22432
22315
22205
22111
22040
22007
22035
22153
22384
22739
23216
23805
24487
25232
26017
26820
27618
28390
29117
29783
30382
30912
31369
31751
32058
32296
32470
32582
32636
32638
32589
32500
32385
32255
32119
31988
31864
31747
31637
31537
31448
31373
31309
31253
31200
31149
31093
31029
30952
30859
30746
30609
30453
30283
30104
29921
29737
29559
29395
29250
29131
29038
28970
28925
28898
28884
28879
28880
28885
28895
28905
28911
28907
28888
28853
28803
28742
28666
28576
28472
28357
28229
28086
27928
27757
27582
27410
27239
27066
26889
26709
26527
26346
26168
25993
25823
25664
25512
25364
25220
25081
24945
24809
24675
24546
24423
24306
24194
24080
23967
23856
23750
23648
23545
23437
23326
23213
23099
22988
22883
22783
22685
22586
22485
22386
22283
22173
22063
21954
21852
21756
21671
21617
21620
21707
21908
22243
22717
23324
24042
24839
25684
26544
27396
28219
28993
29706
30352
30921
31405
31805
32118
32347
32500
32587
32619
32601
32540
32446
32326
32186
32038
31890
31744
31603
31471
31358
31271
31212
31174
31145
31113
31075
31030
30971
30891
30789
30667
30527
30374
30213
30050
29887
29727
29572
29428
29297
29183
29088
29012
28957
28923
28910
28911
28923
28940
28954
28963
28970
28975
28974
28962
28937
28899
28844
28769
28676
28567
28440
28297
28147
27993
27834
27672
27511
27351
27191
27033
26880
26729
26577
26427
26280
26138
26002
25872
25745
25619
25493
25365
25239
25115
24987
24857
24728
24603
24484
24366
24248
24131
24017
23907
23801
23694
23591
23496
23409
23325
23245
23171
23099
23027
22951
22869
22779
22680
22573
22459
22340
22216
22089
21963
21836
21707
21576
21442
21310
21181
21071
21000
20987
21060
21249
21575
22046
22658
23391
24210
25078
25968
26854
27714
28527
29281
29963
30563
31074
31494
31827
32076
32245
32340
32365
32333
32253
32135
31990
31824
31645
31463
31284
31111
30946
30796
30665
30553
30458
30378
30311
30253
30195
30131
30057
29970
29867
29746
29612
29469
29322
29177
29035
28896
28769
28661
28574
28505
28453
28422
28407
28403
28409
28427
28454
28479
28499
28511
28512
28498
28465
28415
28347
28263
28168
28064
27950
27824
27689
27544
27388
27225
27057
26884
26708
26528
26347
26170
25998
25829
25664
25501
25337
25173
25015
24863
24720
24585
24455
24323
24188
24053
23923
23795
23669
23543
23419
23299
23183
23075
22972
22870
22766
22662
22561
22463
22366
22271
22177
22081
21981
21875
21762
21646
21527
21403
21275
21140
20999
20853
20701
20547
20394
20244
20112
20012
19966
19995
20126
20382
20785
21339
22029
22826
23698
24612
25533
26431
27284
28074
28786
29409
29944
30393
30756
31031
31226
31346
31397
31382
31307
31184
31022
30831
30619
30392
30160
29932
29712
29506
29319
29153
29006
28874
28754
28646
28545
28448
28348
28242
28129
28011
27884
27748
27603
27457
27315
27183
27066
26967
26884
26818
26772
26747
26747
26767
26801
26844
26889
26930
26963
26987
26997
26994
26976
26939
26883
26807
26709
26587
26446
26290
26118
25930
25731
25523
25310
25091
24867
24637
24403
24173
23952
23738
23530
23329
23135
22949
22772
22603
22438
22277
22125
21983
21847
21715
21587
21463
21343
21224
21105
20987
20870
20754
20640
20526
20414
20303
20190
20073
19956
19840
19727
19612
19495
19370
19236
19096
18954
18812
18674
18542
18424
18329
18274
18289
18406
18654
19053
19612
20318
21148
22069
23042
24030
24998
25914
26757
27514
28175
28737
29206
29584
29870
30069
30186
30229
30206
30127
30001
29838
29643
29428
29200
28963
28723
28493
28281
28086
27906
27745
27599
27464
27334
27207
27080
26952
26816
26673
26524
26370
26210
26047
25886
25736
25603
25494
25411
25355
25322
25309
25314
25331
25360
25405
25465
25529
25591
25647
25694
25730
25751
25753
25736
25698
25639
25562
25463
25344
25205
25048
24876
24689
24492
24292
24094
23895
23693
23488
23283
23082
22883
22691
22507
22328
22149
21972
21795
21619
21444
21275
21114
20957
20804
20655
20508
20363
20222
20088
19961
19842
19732
19629
19529
19429
19327
19223
19116
19003
18886
18766
18647
18539
18456
18412
18431
18544
18780
19166
19710
20406
21234
22157
23131
24118
25087
26011
26869
27645
28332
28929
29436
29854
30184
30427
30587
30674
30695
30659
30568
30430
30256
30057
29841
29616
29386
29161
28947
28748
28567
28400
28244
28098
27959
27825
27691
27554
27412
27264
27112
26953
26792
26629
26469
26318
26178
26052
25943
25855
25793
25757
25749
25768
25809
25861
25920
25982
26045
26102
26146
26180
26203
26214
26207
26177
26123
26047
25953
25839
25708
25565
25410
25242
25065
24880
24695
24510
24324
24134
23943
23757
23573
23391
23209
23025
22841
22664
22497
22342
22195
22057
21927
21803
21684
21568
21453
21341
21228
21113
20998
20881
20761
20641
20519
20391
20257
20123
19988
19851
19719
19595
19478
19374
19300
19276
19326
19477
19761
20198
20792
21528
22379
23305
24265
25223
26158
27047
27873
28622
29287
29865
30351
30742
31042
31254
31381
31433
31424
31362
31255
31111
30939
30748
30548
30342
30137
29940
29752
29574
29414
29272
29151
29047
28958
28877
28796
28707
28607
28494
28365
28225
28076
27922
27770
27626
27494
27378
27280
27201
27147
27112
27095
27097
27118
27154
27204
27265
27329
27390
27439
27472
27488
27485
27461
27418
27357
27278
27184
27075
26949
26808
26654
26490
26322
26150
25974
25793
25610
25423
25233
25044
24856
24670
24489
24317
24149
23980
23814
23654
23498
23345
23197
23053
22912
22774
22637
22501
22366
22235
22109
21987
21865
21742
21621
21504
21389
21272
21153
21031
20903
20768
20632
20505
20388
20284
20199
20149
20154
20238
20434
20771
21256
21886
22643
23497
24407
25335
26254
27138
27970
28739
29432
30043
30569
31006
31350
31605
31778
31873
31901
31870
31787
31656
31488
31295
31084
30864
30639
30414
30194
29985
29793
29621
29470
29341
29227
29123
29021
28916
28801
28673
28537
28398
28255
28112
27972
27838
27710
27595
27499
27423
27367
27333
27321
27336
27373
27423
27477
27527
27569
27604
27634
27658
27669
27668
27654
27621
27565
27486
27389
27273
27141
26997
26846
26690
26530
26363
26192
26020
25846
25669
25489
25306
25123
24942
24767
24598
24435
24277
24123
23972
23823
23677
23536
23395
23257
23125
23000
22878
22758
22641
22531
22425
22317
22206
22092
21981
21876
21776
21678
21578
21475
21373
21272
21170
21065
20956
20844
20729
20612
20495
20384
20287
20220
20206
20273
20452
20769
21236
21850
22590
23426
24324
25251
26175
27074
27928
28719
29434
30066
30614
31070
31435
31706
31890
31994
32027
31994
31906
31770
31595
31391
31165
30927
30685
30450
30232
30033
29850
29684
29531
29391
29263
29142
29026
28911
28795
28673
28544
28408
28269
28132
27999
27878
27771
27680
27608
27557
27528
27517
27519
27533
27561
27601
27650
27702
27753
27800
27841
27871
27888
27892
27879
27848
27799
27729
27641
27534
27412
27274
27119
26953
26780
26604
26427
26252
26078
25908
25741
25574
25408
25248
25095
24945
24797
24655
24521
24393
24268
24145
24025
23903
23778
23656
23540
23431
23326
23225
23122
23017
22912
22807
22704
22605
22510
22417
22321
22223
22124
22027
21930
21832
21728
21620
21509
21392
21270
21144
21014
20882
20745
20612
20495
20408
20371
20408
20549
20820
21237
21802
22496
23295
24164
25068
25974
26858
27700
28483
29194
29827
30372
30826
31189
31471
31676
31809
31871
31865
31797
31675
31510
31311
31088
30852
30613
30377
30150
29941
29751
29580
29423
29279
29150
29033
28921
28811
28699
28582
28458
28329
28197
28065
27936
27811
27695
27591
27503
27441
27409
27405
27422
27454
27498
27551
27609
27669
27730
27787
27833
27865
27882
27880
27858
27819
27764
27693
27606
27502
27381
27245
27094
26932
26761
26584
26405
26224
26044
25864
25685
25508
25335
25167
25004
24844
24686
24531
24379
24232
24092
23959
23831
23706
23584
23464
23346
23226
23109
22999
22894
22789
22682
22573
22465
22359
22256
22156
22055
21956
21858
21759
21656
21550
21443
21337
21232
21128
21027
20926
20826
20732
20650
20591
20571
20616
20752
21006
21395
21922
22575
23335
24173
25054
25945
26821
27663
28451
29170
29811
30370
30839
31220
31517
31732
31871
31938
31939
31879
31768
31611
31419
31200
30958
30703
30443
30186
29944
29720
29514
29328
29165
29025
28900
28784
28668
28542
28406
28263
28117
27971
27831
27699
27572
27460
27369
27303
27257
27226
27211
27215
27234
27271
27323
27387
27456
27526
27592
27648
27693
27723
27734
27730
27713
27681
27633
27572
27493
27396
27285
27163
27032
26895
26755
26607
26453
26296
26139
25984
25832
25681
25527
25371
25216
25063
24914
24769
24627
24488
24352
24222
24096
23975
23861
23752
23643
23533
23424
23319
23217
23115
23009
22904
22801
22699
22592
22484
22376
22264
22150
22035
21918
21800
21682
21570
21468
21378
21305
21265
21283
21386
21600
21942
22415
23013
23715
24494
25319
26158
26985
27783
28538
29238
29870
30426
30903
31299
31610
31838
31991
32075
32095
32054
31957
31814
31635
31429
31204
30970
30736
30507
30287
30082
29896
29728
29579
29443
29314
29190
29068
28943
28815
28681
28543
28402
28259
28119
27986
27865
27760
27672
27607
27570
27559
27570
27603
27655
27719
27789
27862
27937
28008
28072
28124
28160
28177
28172
28144
28093
28017
27921
27810
27685
27549
27403
27245
27081
26914
26746
26578
26406
26233
26057
25882
25708
25537
25369
25204
25041
24883
24729
24577
24428
24280
24135
23992
23852
23717
23586
23463
23348
23237
23127
23016
22906
22799
22694
22591
22485
22373
22258
22139
22018
21902
21794
21694
21606
21539
21513
21553
21689
21945
22334
22854
23492
24219
25003
25821
26648
27461
28237
28959
29616
30202
30712
31141
31488
31750
31929
32033
32068
32040
31954
31817
31637
31422
31180
30918
30646
30371
30101
29841
29597
29370
29163
28972
28790
28614
28441
28271
28099
27924
27747
27566
27386
27213
27055
26919
26805
26711
26641
26597
26577
26580
26606
26651
26712
26782
26858
26936
27009
27068
27111
27137
27143
27127
27087
27024
26941
26841
26722
26586
26430
26257
26076
25885
25684
25473
25260
25050
24843
24640
24445
24260
24082
23907
23732
23560
23392
23224
23057
22893
22731
22575
22427
22279
22129
21979
21828
21676
21525
21375
21222
21064
20905
20748
20591
20435
20278
20122
19970
19828
19702
19602
19549
19570
19693
19946
20345
20898
21593
22403
23290
24216
25144
26042
26890
27670
28368
28976
29492
29917
30253
30502
30672
30764
30779
30725
30612
30448
30240
30003
29745
29473
29193
28912
28638
28377
28131
27902
27688
27489
27303
27128
26962
26802
26638
26470
26298
26127
25964
25814
25679
25563
25473
25413
25382
25387
25426
25493
25585
25693
25810
25932
26052
26163
26263
26348
26410
26444
26451
26430
26382
26306
26203
26077
25932
25771
25593
25401
25199
24988
24773
24557
24339
24117
23891
23662
23431
23203
22983
22769
22558
22349
22149
21959
21779
21606
21435
21263
21090
20919
20755
20598
20449
20309
20176
20043
19908
19775
19645
19520
19398
19281
19177
19103
19080
19129
19276
19550
19977
20564
21297
22147
23078
24050
25022
25962
26846
27656
28378
29006
29537
29971
30309
30551
30707
30786
30796
30741
30628
30468
30266
30029
29765
29484
29192
28895
28600
28315
28045
27793
27562
27350
27149
26956
26765
26571
26371
26167
25964
25764
25567
25379
25209
25057
24930
24834
24769
24731
24720
24736
24780
24848
24936
25033
25133
25230
25319
25398
25461
25505
25527
25528
25508
25465
25397
25304
25187
25043
24876
24691
24497
24297
24092
23882
23668
23453
23236
23021
22811
22602
22396
22196
22003
21816
21636
21462
21291
21124
20961
20802
20646
20493
20341
20191
20043
19896
19750
19604
19458
19311
19162
19014
18867
18725
18594
18486
18419
18418
18515
18742
19123
19670
20381
21232
22183
23188
24208
25209
26165
27051
27847
28542
29133
29619
30005
30294
30493
30606
30643
30609
30514
30368
30180
29959
29709
29444
29168
28884
28601
28326
28062
27815
27589
27385
27199
27028
26865
26704
26542
26378
26205
26026
25846
25670
25502
25343
25199
25077
24983
24917
24880
24871
24888
24932
24999
25079
25164
25248
25325
25392
25449
25493
25520
25527
25511
25469
25397
25299
25179
25039
24879
24704
24516
24322
24122
23913
23695
23474
23252
23033
22816
22602
22390
22184
21986
21793
21607
21429
21258
21094
20940
20795
20652
20508
20364
20220
20082
19948
19819
19693
19565
19433
19300
19168
19037
18906
18776
18649
18524
18403
18298
18229
18222
18303
18502
18847
19360
20036
20853
21783
22785
23813
24827
25799
26707
27531
28256
28880
29397
29807
30116
30334
30468
30524
30513
30439
30309
30129
29909
29661
29394
29118
28840
28565
28301
28053
27821
27605
27403
27216
27039
26870
26702
26531
26355
26177
25997
25815
25637
25466
25306
25166
25053
24970
24914
24886
24886
24910
24956
25015
25082
25155
25233
25313
25388
25452
25499
25529
25535
25517
25477
25418
25340
25244
25129
24996
24847
24679
24496
24302
24100
23892
23678
23465
23254
23041
22829
22619
22411
22207
22008
21818
21635
21454
21275
21103
20940
20785
20635
20491
20351
20213
20077
19940
19804
19672
19540
19406
19270
19137
19008
18882
18757
18630
18502
18374
18247
18122
17998
17876
17765
17678
17637
17674
17821
18107
18557
19184
19977
20907
21935
23013
24090
25123
26083
26956
27732
28403
28966
29422
29775
30030
30197
30285
30299
30246
30133
29967
29758
29516
29251
28970
28680
28390
28106
27832
27569
27322
27093
26883
26690
26511
26339
26168
25995
25820
25649
25485
25327
25181
25048
24932
24835
24763
24719
24704
24716
24752
24808
24880
24966
25059
25152
25240
25317
25382
25431
25460
25469
25456
25422
25365
25286
25187
25065
24924
24767
24594
24411
24220
24022
23821
23618
23412
23201
22992
22785
22575
22365
22161
21962
21764
21570
21383
21207
21042
20885
20731
20579
20431
20285
20143
20005
19872
19745
19627
19517
19414
19313
19209
19100
18985
18871
18761
18658
18563
18474
18383
18287
18190
18092
17991
17885
17772
17655
17535
17416
17312
17244
17237
17322
17534
17905
18454
19179
20062
21069
22152
23261
24356
25399
26364
27230
27988
28632
29161
29575
29882
30090
30212
30254
30223
30129
29981
29790
29565
29310
29032
28738
28435
28129
27823
27523
27236
26964
26704
26461
26234
26022
25821
25630
25446
25267
25096
24935
24788
24658
24548
24463
24404
24369
24356
24367
24403
24465
24550
24653
24768
24886
24999
25105
25202
25285
25349
25389
25406
25402
25376
25326
25253
25162
25054
24923
24772
24605
24429
24246
24058
23865
23672
23473
23266
23053
22841
22631
22424
22219
22013
21804
21595
21389
21188
20993
20804
20621
20446
20278
20117
19961
19808
19656
19507
19364
19225
19091
18962
18840
18726
18620
18523
18431
18340
18253
18171
18091
18011
17931
17850
17767
17683
17599
17513
17424
17332
17237
17132
17020
16902
16781
16662
16557
16483
16466
16537
16737
17102
17652
18394
19311
20364
21505
22683
23847
24956
25981
26900
27704
28390
28958
29408
29749
29989
30134
30194
30179
30095
29954
29765
29535
29269
28975
28663
28342
28017
27692
27371
27063
26772
26499
26241
25997
25766
25543
25325
25115
24912
24718
24536
24371
24227
24101
23995
23915
23863
23839
23844
23876
23934
24018
24123
24243
24373
24502
24622
24728
24813
24876
24918
24939
24934
24904
24852
24777
24679
24560
24424
24272
24102
23913
23711
23501
23291
23081
22871
22657
22436
22212
21990
21771
21553
21336
21124
20914
20706
20503
20306
20114
19921
19727
19538
19357
19183
19018
18861
18712
18571
18435
18303
18173
18044
17918
17797
17680
17566
17456
17347
17241
17135
17030
16928
16827
16725
16617
16502
16382
16260
16141
16026
15908
15785
15654
15516
15378
15240
15112
15013
14967
15002
15150
15447
15926
16605
17472
18496
19634
20836
22051
23229
24335
25342
26232
26993
27623
28126
28506
28769
28928
28995
28976
28880
28720
28511
28259
27973
27656
27317
26958
26585
26202
25816
25432
25061
24709
24375
24057
23753
23462
23188
22930
22686
22456
22241
22043
21867
21720
21606
21523
21473
21457
21473
21520
21596
21700
21828
21976
22132
22288
22438
22578
22702
22803
22879
22928
22946
22933
22884
22800
22686
22547
22384
22202
22003
21790
21564
21324
21077
20833
20596
20361
20124
19888
19654
19420
19188
18958
18730
18504
18284
18071
17865
17666
17473
17286
17103
16920
16736
16555
16379
16208
16047
15898
15762
15635
15512
15390
15270
15154
15042
14933
14820
14703
14589
14479
14373
14266
14156
14042
13925
13809
13692
13570
13442
13313
13193
13091
13027
13034
13149
13407
13842
14479
15322
16349
17517
18770
20052
21312
22509
23610
24589
25431
26133
26697
27129
27442
27645
27749
27765
27703
27572
27377
27125
26826
26488
26120
25731
25328
24918
24511
24115
23736
23375
23033
22709
22404
22114
21837
21568
21310
21066
20842
20645
20476
20335
20227
20152
20112
20108
20141
20208
20304
20427
20569
20725
20891
21061
21228
21384
21528
21655
21759
21834
21878
21893
21877
21825
21740
21624
21482
21316
21128
20926
20708
20476
20235
19985
19733
19482
19229
18974
18722
18473
18226
17985
17749
17517
17289
17067
16855
16655
16473
16305
16145
15989
15837
15690
15548
15413
15286
15161
15035
14911
14787
14660
14532
14407
14279
14146
14008
13867
13730
13602
13493
13424
13415
13493
13695
14062
14625
15397
16355
17457
18657
19904
21148
22341
23449
24442
25309
26039
26633
27098
27448
27693
27838
27889
27856
27750
27583
27363
27099
26804
26484
26145
25791
25431
25071
24714
24362
24025
23707
23404
23108
22818
22539
22268
22007
21755
21516
21294
21099
20936
20808
20714
20655
20635
20659
20724
20826
20962
21128
21315
21514
21718
21922
22118
22296
22450
22575
22669
22727
22751
22741
22693
22609
22491
22351
22194
22023
21837
21637
21423
21196
20962
20726
20486
20243
20002
19768
19542
19320
19098
18879
18665
18462
18270
18088
17915
17749
17585
17423
17265
17112
16960
16812
16667
16525
16389
16255
16118
15978
15834
15688
15541
15400
15267
15151
15071
15054
15133
15342
15712
16266
17014
17939
18998
20142
21327
22509
23646
24706
25664
26511
27237
27842
28329
28705
28975
29143
29218
29216
29152
29034
28871
28670
28440
28190
27924
27645
27361
27079
26802
26534
26279
26039
25812
25599
25402
25219
25042
24870
24701
24537
24373
24214
24065
23932
23819
23730
23668
23638
23641
23678
23745
23834
23942
24067
24203
24340
24472
24593
24700
24790
24855
24890
24895
24873
24826
24753
24659
24544
24410
24262
24104
23934
23754
23566
23372
23175
22979
22782
22584
22386
22189
21995
21805
21621
21444
21278
21119
20965
20816
20667
20517
20372
20232
20097
19966
19841
19721
19602
19481
19357
19231
19101
18969
18839
18710
18581
18459
18357
18288
18270
18329
18492
18787
19235
19840
20593
21474
22446
23466
24490
25482
26412
27260
28015
28677
29243
29710
30079
30356
30544
30650
30686
30659
30579
30456
30296
30103
29885
29647
29398
29145
28895
28654
28429
28223
28033
27855
27688
27529
27377
27227
27072
26910
26745
26580
26415
26257
26114
25989
25886
25806
25749
25716
25706
25717
25751
25804
25875
25960
26051
26139
26218
26283
26336
26374
26392
26390
26368
26325
26256
26161
26043
25910
25762
25599
25425
25243
25053
24856
24652
24442
24230
24019
23813
23612
23419
23232
23050
22873
22701
22534
22375
22227
22084
21944
21812
21688
21570
21455
21348
21250
21157
21069
20983
20896
20810
20722
20632
20540
20442
20341
20237
20129
20022
19916
19818
19730
19663
19633
19667
19791
20037
20431
20976
21659
22460
23350
24295
25255
26196
27094
27927
28677
29337
29905
30383
30773
31077
31300
31446
31523
31534
31483
31384
31250
31090
30909
30710
30500
30285
30073
29867
29669
29485
29319
29171
29040
28922
28808
28694
28578
28454
28322
28184
28044
27908
27779
27661
27557
27470
27403
27355
27330
27329
27352
27396
27456
27523
27593
27661
27724
27781
27831
27869
27890
27891
27871
27829
27768
27690
27596
27488
27366
27229
27080
26920
26751
26577
26401
26225
26048
25869
25685
25499
25316
25135
24959
24791
24634
24485
24342
24203
24065
23930
23797
23665
23538
23414
23291
23166
23040
22916
22796
22680
22574
22482
22401
22325
22252
22177
22095
22011
21926
21837
21749
21659
21568
21478
21390
21299
21204
21099
20987
20872
20755
20638
20523
20418
20338
20306
20354
20511
20805
21248
21843
22578
23431
24361
25326
26289
27224
28109
28926
29666
30317
30875
31339
31711
31995
32197
32318
32370
32360
32294
32183
32038
31871
31689
31497
31298
31100
30908
30726
30556
30404
30272
30155
30050
29952
29856
29759
29654
29539
29415
29286
29159
29031
28901
28773
28658
28563
28487
28430
28393
28374
28373
28390
28426
28477
28541
28603
28658
28708
28752
28786
28803
28803
28785
28753
28704
28637
28554
28455
28338
28205
28060
27909
27747
27578
27405
27230
27053
26874
26696
26521
26347
26174
26003
25835
25674
25520
25370
25220
25070
24922
24777
24636
24497
24363
24234
24104
23971
23838
23708
23582
23460
23345
23242
23155
23076
22994
22909
22824
22744
22665
22586
22506
22423
22339
22256
22170
22080
21984
21884
21783
21683
21584
21483
21373
21251
21122
20986
20842
20690
20536
20383
20232
20087
19961
19876
19861
19948
20166
20539
21078
21774
22603
23536
24530
25540
26533
27481
28364
29168
29881
30497
31017
31443
31775
32018
32176
32256
32268
32218
32119
31981
31811
31620
31416
31201
30982
30770
30573
30397
30244
30112
29999
29902
29815
29737
29659
29572
29475
29366
29245
29114
28974
28829
28689
28562
28452
28360
28283
28225
28189
28173
28179
28204
28245
28297
28357
28420
28481
28536
28575
28599
28605
28592
28561
28514
28453
28375
28280
28165
28033
27888
27732
27564
27386
27203
27017
26826
26626
26422
26220
26022
25827
25635
25453
25281
25117
24960
24810
24665
24523
24387
24257
24134
24019
23909
23800
23689
23578
23470
23366
23265
23170
23083
23001
22924
22851
22778
22707
22639
22571
22503
22438
22371
22298
22220
22136
22046
21951
21849
21743
21631
21514
21393
21262
21121
20970
20815
20659
20506
20366
20256
20196
20208
20325
20577
20985
21555
22274
23114
24037
25003
25978
26925
27816
28631
29361
30002
30550
31004
31368
31645
31839
31952
31992
31968
31891
31773
31623
31446
31250
31043
30832
30624
30423
30236
30069
29922
29795
29685
29588
29498
29409
29313
29203
29076
28935
28783
28627
28474
28326
28186
28058
27948
27861
27799
27761
27747
27757
27789
27836
27893
27958
28024
28091
28157
28212
28251
28275
28280
28267
28237
28187
28115
28022
27914
27791
27654
27502
27339
27165
26981
26789
26588
26385
26180
25977
25779
25587
25393
25200
25014
24837
24667
24500
24334
24179
24037
23906
23783
23664
23549
23437
23330
23225
23122
23023
22926
22834
22746
22667
22593
22521
22446
22364
22277
22191
22111
22035
21958
21877
21792
21703
21611
21511
21402
21291
21180
21067
20954
20846
20746
20659
20594
20575
20628
20784
21069
21502
22090
22823
23672
24600
25569
26542
27488
28385
29214
29961
30618
31186
31666
32055
32358
32578
32720
32793
32806
32767
32683
32562
32417
32262
32104
31949
31798
31652
31516
31398
31297
31216
31150
31099
31058
31017
30970
30913
30843
30754
30647
30521
30379
30224
30060
29895
29733
29584
29450
29339
29254
29191
29148
29126
29122
29133
29156
29187
29224
29261
29294
29317
29329
29328
29310
29277
29228
29163
29076
28970
28846
28706
28553
28394
28230
28062
27892
27722
27549
27371
27190
27011
26837
26666
26499
26339
26184
26034
25893
25763
25641
25526
25411
25296
25180
25065
24948
24828
24709
24592
24477
24367
24261
24155
24050
23944
23835
23725
23616
23513
23416
23324
23235
23151
23070
22986
22898
22807
22714
22621
22527
22431
22330
22219
22098
21972
21843
21713
21579
21446
21317
21187
21058
20935
20827
20753
20732
20788
20955
21262
21729
22358
23138
24044
25031
26051
27066
28049
28973
29823
30586
31257
31833
32315
32707
33013
33241
33400
33495
33530
33515
33456
33360
33239
33107
32972
32840
32718
32609
32510
32427
32361
32312
32275
32248
32225
32202
32173
32138
32092
32027
31936
31824
31693
31545
31377
31195
31011
30830
30651
30480
30323
30184
30063
29961
29878
29817
29779
29759
29748
29746
29750
29755
29755
29748
29731
29706
29664
29597
29503
29391
29268
29133
28984
28821
28642
28457
28274
28091
27908
27724
27542
27363
27190
27023
26862
26704
26550
26401
26259
26122
25989
25859
25731
25606
25481
25356
25229
25099
24967
24838
24712
24589
24469
24349
24231
24113
23991
23868
23746
23620
23487
23349
23209
23070
22933
22795
22655
22508
22350
22188
22029
21872
21715
21559
21407
21264
21123
20983
20846
20712
20579
20444
20304
20156
19998
19827
19637
19427
19194
18941
18673
18395
18114
17840
17585
17372
17235
17217
17356
17683
18219
18968
19907
20992
22173
23397
24614
25784
26870
27846
28698
29427
30032
30518
30889
31156
31336
31440
31477
31458
31394
31297
31175
31036
30891
30748
30610
30478
30357
30252
30165
30095
30040
29997
29961
29931
29903
29871
29832
29781
29718
29643
29552
29440
29310
29164
29007
28850
28701
28561
28435
28329
28247
28186
28145
28128
28134
28157
28194
28241
28297
28356
28413
28464
28507
28536
28542
28527
28494
28444
28379
28300
28209
28104
27987
27858
27718
27566
27403
27231
27054
26873
26694
26520
26347
26177
26012
25855
25706
25559
25418
25281
25151
25026
24907
24794
24685
24574
24465
24360
24258
24156
24054
23953
23853
23758
23667
23578
23493
23407
23323
23241
23156
23066
22969
22870
22775
22684
22593
22502
22411
22320
22230
22141
22052
21959
21860
21753
21640
21525
21410
21296
21184
21075
20968
20860
20746
20624
20498
20369
20240
20110
19978
19844
19706
19563
19417
19270
19120
18972
18828
18692
18578
18507
18508
18615
18866
19290
19904
20699
21648
22711
23838
24981
26103
27170
28159
29055
29850
30536
31113
31580
31942
32213
32404
32518
32563
32545
32475
32362
32212
32036
31843
31640
31431
31226
31032
30856
30700
30563
30448
30359
30289
30228
30175
30121
30061
29994
29914
29814
29694
29557
29404
29240
29069
28898
28734
28579
28436
28313
28210
28125
28059
28016
27995
27990
27998
28015
28038
28062
28080
28091
28095
28085
28059
28014
27947
27862
27759
27637
27494
27333
27158
26973
26774
26563
26346
26124
25899
25673
25449
25227
25002
24778
24559
24351
24153
23969
23799
23636
23476
23317
23157
22995
22834
22675
22520
22369
22224
22082
21941
21801
21667
21541
21421
21305
21190
21077
20968
20863
20756
20652
20550
20447
20342
20234
20124
20012
19897
19778
19656
19536
19418
19301
19184
19065
18946
18824
18699
18570
18439
18305
18171
18033
17892
17749
17604
17454
17298
17131
16954
16766
16572
16375
16177
15981
15791
15608
15445
15322
15265
15304
15480
15834
16393
17163
18131
19258
20490
21772
23048
24277
25424
26461
27378
28169
28831
29366
29778
30076
30274
30382
30414
30383
30299
30172
30011
29825
29620
29402
29176
28948
28727
28520
28329
28161
28019
27899
27796
27713
27646
27588
27532
27473
27402
27311
27201
27077
26941
26792
26631
26470
26318
26181
26060
25961
25883
25829
25798
25792
25812
25854
25912
25981
26053
26124
26183
26232
26271
26294
26294
26270
26221
26150
26057
25942
25807
25652
25479
25294
25097
24888
24673
24452
24220
23981
23741
23506
23274
23046
22825
22613
22409
22211
22018
21828
21643
21466
21303
21154
21017
20885
20755
20624
20493
20364
20244
20134
20030
19932
19839
19749
19659
19568
19477
19385
19288
19187
19079
18964
18843
18716
18584
18450
18313
18169
18012
17849
17684
17512
17333
17150
16965
16782
16605
16437
16291
16187
16155
16223
16422
16785
17334
18071
18978
20014
21130
22279
23420
24519
25547
26475
27287
27978
28549
29003
29350
29598
29755
29830
29834
29777
29671
29527
29354
29161
28953
28735
28512
28289
28068
27860
27671
27505
27365
27249
27149
27056
26964
26870
26772
26664
26541
26405
26258
26101
25934
25760
25586
25418
25264
25127
25010
24914
24840
24786
24753
24740
24749
24777
24817
24863
24912
24962
25011
25051
25073
25071
25045
24992
24912
24809
24684
24536
24367
24181
23977
23759
23531
23296
23055
22812
22571
22334
22101
21876
21660
21451
21245
21043
20844
20647
20448
20251
20054
19859
19664
19471
19277
19085
18893
18703
18514
18330
18149
17973
17803
17633
17461
17285
17106
16921
16727
16525
16321
16116
15905
15687
15463
15234
15002
14771
14542
14316
14099
13904
13744
13640
13619
13720
13979
14425
15071
15916
16940
18104
19352
20628
21886
23084
24190
25184
26053
26787
27384
27851
28201
28447
28600
28667
28655
28575
28438
28256
28044
27815
27577
27337
27101
26879
26673
26487
26328
26199
26097
26015
25948
25892
25842
25795
25749
25693
25620
25527
25410
25269
25111
24948
24788
24635
24495
24371
24265
24182
24122
24083
24069
24083
24118
24167
24229
24300
24369
24430
24479
24517
24537
24537
24518
24479
24419
24338
24233
24101
23944
23768
23577
23371
23155
22937
22717
22488
22255
22022
21793
21568
21343
21117
20894
20681
20478
20287
20108
19939
19779
19627
19481
19340
19207
19080
18953
18824
18695
18565
18436
18310
18186
18065
17950
17842
17739
17639
17543
17450
17356
17260
17162
17060
16947
16821
16686
16542
16384
16214
16034
15842
15639
15426
15205
14984
14766
14555
14359
14190
14063
14002
14041
14224
14582
15142
15915
16892
18030
19273
20564
21853
23094
24249
25291
26207
26993
27654
28197
28627
28950
29172
29303
29355
29345
29285
29183
29044
28879
28698
28508
28316
28133
27965
27816
27685
27571
27476
27403
27348
27303
27266
27233
27196
27144
27075
26988
26884
26768
26640
26502
26361
26216
26075
25944
25830
25735
25665
25621
25598
25594
25606
25631
25665
25704
25742
25773
25800
25818
25822
25808
25776
25725
25654
25563
25454
25325
25175
25009
24833
24649
24458
24258
24057
23856
23654
23453
23253
23057
22865
22679
22501
22327
22158
21996
21836
21679
21522
21369
21221
21079
20944
20815
20689
20569
20451
20335
20221
20110
20001
19894
19789
19692
19607
19529
19454
19380
19310
19244
19181
19120
19057
18992
18925
18852
18769
18678
18581
18479
18371
18259
18142
18020
17892
17758
17620
17477
17327
17171
17014
16862
16724
16615
16560
16588
16735
17036
17519
18199
19062
20070
21175
22327
23475
24576
25601
26528
27348
28057
28654
29140
29521
29806
30005
30126
30179
30171
30112
30010
29873
29712
29538
29359
29178
29000
28833
28679
28538
28419
28323
28247
28189
28144
28110
28083
28054
28018
27968
27899
27813
27711
27596
27473
27349
27231
27122
27027
26945
26881
26835
26810
26805
26820
26853
26899
26954
27014
27074
27128
27172
27207
27232
27240
27230
27206
27169
27117
27047
26959
26853
26735
26609
26476
26334
26181
26018
25847
25666
25477
25278
25076
24875
24679
24490
24308
24127
23946
23768
23594
23429
23275
23129
22988
22851
22714
22575
22432
22284
22132
21979
21830
21688
21548
21414
21289
21171
21059
20954
20857
20767
20682
20599
20517
20432
20340
20242
20137
20027
19914
19801
19687
19574
19461
19347
19231
19115
18997
18881
18765
18650
18535
18418
18297
18169
18032
17884
17721
17543
17352
17152
16951
16759
16588
16456
16400
16466
16694
17115
17748
18584
19590
20719
21920
23137
24318
25423
26428
27318
28085
28725
29244
29653
29962
30177
30301
30352
30347
30293
30192
30052
29882
29691
29489
29283
29079
28878
28684
28503
28336
28181
28043
27925
27823
27729
27637
27546
27456
27357
27244
27118
26979
26831
26680
26536
26401
26279
26175
26098
26052
26037
26049
26086
26146
26226
26320
26421
26524
26626
26727
26820
26899
26957
26992
27001
26986
26943
26874
26785
26675
26546
26397
26233
26059
25876
25685
25489
25288
25088
24890
24697
24509
24331
24162
23996
23833
23674
23521
23376
23240
23108
22980
22856
22736
22625
22525
22432
22343
22256
22173
22097
22031
21968
21905
21844
21788
21737
21688
21641
21597
21555
21509
21457
21402
21346
21284
21218
21149
21080
21010
20938
20862
20783
20702
20616
20523
20422
20314
20196
20067
19929
19779
19616
19447
19287
19145
19038
18992
19045
19232
19583
20114
20816
21662
22615
23633
24669
25683
26640
27520
28309
29000
29593
30086
30479
30778
30993
31133
31208
31224
31189
31110
30995
30849
30679
30489
30289
30086
29886
29696
29521
29362
29221
29097
28989
28892
28805
28722
28638
28548
28451
28346
28234
28115
27992
27874
27765
27668
27585
27519
27475
27455
27456
27479
27524
27590
27674
27768
27864
27955
28037
28105
28156
28191
28209
28210
28192
28150
28085
27998
27891
27767
27629
27480
27321
27151
26973
26791
26606
26419
26231
26044
25858
25678
25505
25342
25186
25034
24891
24756
24625
24498
24376
24259
24146
24037
23936
23838
23743
23655
23573
23496
23424
23355
23286
23220
23157
23099
23044
22990
22934
22878
22819
22755
22682
22601
22512
22415
22310
22197
22080
21958
21832
21703
21571
21441
21321
21224
21163
21158
21240
21441
21789
22293
22946
23726
24601
25530
26470
27389
28264
29075
29809
30467
31047
31547
31966
32303
32566
32758
32884
32949
32957
32916
32836
32721
32579
32418
32250
32078
31910
31753
31613
31489
31380
31289
31216
31159
31114
31081
31052
31019
30977
30922
30847
30751
30637
30513
30382
30248
30119
30002
29898
29811
29747
29707
29689
29694
29719
29762
29816
29877
29941
30001
30053
30091
30114
30120
30105
30069
30016
29945
29858
29755
29634
29500
29357
29211
29062
28906
28746
28581
28413
28244
28075
27909
27746
27586
27432
27287
27150
27014
26877
26741
26611
26486
26365
26248
26132
26015
25901
25793
25690
25590
25492
25399
25312
25231
25151
25071
24991
24912
24834
24759
24687
24617
24546
24475
24404
24328
24246
24160
24073
23987
23900
23813
23723
23625
23513
23387
23244
23086
22917
22743
22569
22409
22283
22219
22247
22395
22693
23157
23780
24543
25411
26343
27295
28233
29134
29979
30755
31450
32063
32593
33043
33412
33700
33913
34055
34133
34150
34116
34043
33943
33823
33691
33555
33418
33288
33167
33058
32964
32889
32836
32801
32774
32754
32740
32728
32711
32688
32650
32593
32513
32414
32298
32166
32028
31890
31760
31639
31529
31434
31357
31297
31253
31225
31217
31225
31244
31271
31303
31332
31357
31374
31381
31374
31352
31315
31263
31195
31110
31011
30898
30767
30621
30466
30306
30142
29974
29800
29622
29442
29261
29085
28915
28751
28593
28441
28295
28155
28019
27888
27760
27633
27509
27385
27261
27140
27022
26908
26797
26689
26583
26477
26370
26261
26153
26045
25941
25845
25756
25671
25590
25508
25425
25340
25253
25163
25074
24985
24893
24798
24705
24612
24517
24421
24322
24215
24103
23991
23882
23771
23657
23541
23422
23297
23165
23028
22883
22730
22573
22412
22249
22091
21941
21805
21693
21627
21636
21755
22015
22440
23038
23802
24699
25688
26723
27768
28789
29757
30656
31475
32211
32857
33411
33872
34238
34515
34712
34837
34897
34899
34849
34758
34632
34481
34316
34144
33972
33808
33658
33525
33409
33312
33241
33196
33173
33162
33152
33135
33108
33068
33010
32935
32839
32726
32600
32464
32325
32183
32044
31913
31792
31684
31594
31527
31485
31465
31465
31476
31493
31512
31539
31571
31601
31622
31630
31621
31597
31561
31507
31433
31342
31235
31109
30969
30821
30669
30511
30346
30175
30002
29831
29658
29482
29305
29128
28955
28784
28616
28457
28303
28152
28001
27849
27696
27545
27397
27253
27115
26986
26863
26743
26627
26515
26403
26293
26183
26075
25966
25851
25734
25617
25502
25386
25265
25137
25003
24867
24735
24607
24480
24352
24221
24092
23964
23838
23712
23587
23460
23332
23204
23075
22943
22803
22653
22495
22335
22174
22007
21833
21657
21484
21311
21137
20960
20781
20602
20423
20245
20072
19918
19800
19745
19787
19966
20316
20857
21587
22480
23495
24589
25715
26833
27901
28888
29786
30587
31285
31875
32360
32744
33031
33224
33333
33370
33340
33256
33128
32968
32783
32577
32361
32144
31932
31726
31534
31361
31213
31094
31000
30925
30866
30824
30792
30759
30717
30657
30579
30482
30372
30248
30112
29970
29828
29690
29560
29443
29339
29251
29184
29141
29122
29127
29152
29191
29238
29289
29342
29391
29433
29460
29467
29453
29420
29369
29298
29205
29090
28958
28810
28645
28467
28280
28090
27896
27695
27487
27276
27061
26846
26633
26424
26218
26014
25817
25625
25441
25266
25097
24935
24780
24630
24486
24346
24213
24086
23963
23839
23715
23594
23476
23365
23260
23157
23055
22951
22847
22746
22649
22555
22462
22365
22262
22156
22048
21939
21830
21722
21613
21499
21376
21246
21109
20964
20810
20649
20480
20303
20113
19914
19707
19494
19278
19061
18848
18641
18449
18285
18171
18139
18223
18458
18875
19485
20278
21228
22292
23419
24562
25685
26753
27739
28621
29389
30041
30576
30992
31295
31499
31614
31651
31620
31531
31392
31210
30994
30758
30509
30252
29995
29745
29506
29284
29082
28905
28752
28618
28500
28395
28296
28196
28087
27965
27830
27681
27523
27356
27186
27025
26880
26758
26661
26588
26542
26524
26533
26566
26621
26695
26782
26876
26974
27070
27155
27226
27280
27313
27321
27299
27250
27175
27075
26953
26811
26650
26475
26287
26086
25871
25645
25415
25184
24951
24713
24472
24231
23994
23759
23530
23306
23085
22874
22673
22483
22303
22136
21983
21844
21713
21588
21468
21355
21244
21133
21023
20918
20821
20731
20645
20557
20467
20379
20295
20213
20133
20052
19968
19883
19793
19699
19599
19490
19370
19239
19101
18957
18808
18657
18505
18355
18208
18068
17941
17840
17787
17809
17938
18205
18638
19254
20051
21006
22078
23218
24379
25522
26615
27630
28546
29348
30032
30603
31067
31427
31687
31855
31940
31954
31908
31813
31682
31522
31343
31150
30949
30745
30541
30346
30164
30001
29859
29743
29652
29579
29521
29471
29422
29367
29301
29224
29129
29011
28872
28720
28563
28406
28257
28118
27994
27886
27800
27737
27697
27681
27691
27726
27778
27843
27912
27979
28039
28090
28128
28151
28154
28131
28081
28007
27911
27795
27662
27510
27341
27160
26972
26773
26563
26344
26120
25897
25681
25472
25267
25067
24871
24679
24491
24306
24128
23955
23788
23628
23475
23328
23182
23037
22893
22751
22613
22480
22351
22227
22111
22003
21902
21807
21720
21640
21565
21496
21431
21364
21296
21223
21143
21058
20966
20865
20759
20651
20545
20436
20320
20200
20079
19955
19823
19685
19546
19411
19286
19173
19086
19045
19081
19224
19505
19948
20568
21359
22293
23330
24429
25549
26649
27694
28662
29538
30310
30976
31537
31999
32362
32630
32807
32903
32929
32894
32808
32684
32530
32352
32160
31966
31779
31600
31433
31279
31141
31021
30922
30845
30788
30744
30710
30677
30643
30600
30536
30452
30350
30230
30095
29949
29801
29656
29517
29389
29275
29178
29103
29051
29021
29011
29017
29035
29065
29099
29135
29170
29200
29220
29225
29214
29188
29148
29090
29014
28916
28795
28653
28494
28321
28140
27957
27774
27589
27400
27204
27003
26800
26597
26398
26206
26022
25844
25674
25515
25366
25225
25088
24956
24825
24694
24565
24437
24309
24176
24042
23914
23792
23675
23562
23451
23341
23232
23125
23021
22918
22820
22730
22645
22557
22465
22372
22281
22195
22114
22031
21942
21850
21754
21657
21556
21449
21337
21221
21099
20973
20840
20700
20556
20413
20271
20123
19965
19797
19626
19451
19273
19097
18928
18778
18668
18626
18688
18887
19250
19793
20518
21409
22430
23539
24686
25830
26935
27970
28912
29748
30474
31091
31601
32003
32304
32515
32645
32698
32682
32611
32498
32348
32169
31969
31759
31544
31331
31126
30935
30767
30627
30514
30427
30362
30318
30288
30266
30249
30229
30196
30143
30068
29969
29853
29724
29585
29440
29298
29164
29041
28931
28841
28775
28732
28705
28694
28700
28721
28755
28795
28835
28869
28894
28911
28916
28905
28877
28831
28762
28670
28559
28428
28282
28124
27953
27767
27567
27355
27138
26921
26702
26483
26267
26055
25849
25647
25454
25267
25083
24905
24733
24564
24396
24232
24075
23919
23763
23606
23448
23294
23145
22998
22853
22713
22576
22438
22300
22164
22032
21905
21787
21675
21562
21446
21330
21213
21093
20967
20833
20687
20528
20363
20193
20015
19830
19635
19435
19235
19034
18835
18641
18455
18275
18099
17923
17747
17573
17404
17240
17079
16920
16759
16596
16428
16257
16083
15906
15730
15561
15406
15283
15216
15232
15367
15660
16143
16835
17733
18813
20026
21318
22633
23923
25149
26278
27293
28180
28930
29543
30024
30383
30630
30775
30833
30818
30744
30622
30455
30250
30016
29765
29508
29251
28999
28759
28541
28351
28193
28066
27966
27888
27828
27781
27736
27684
27624
27554
27468
27366
27252
27129
27001
26872
26742
26618
26507
26415
26344
26299
26279
26283
26306
26344
26394
26452
26513
26575
26631
26675
26704
26718
26715
26693
26652
26588
26503
26396
26268
26122
25959
25778
25582
25376
25160
24939
24715
24487
24255
24022
23796
23577
23362
23152
22950
22759
22577
22403
22232
22063
21900
21741
21585
21432
21286
21146
21011
20881
20758
20643
20535
20430
20324
20220
20117
20015
19915
19819
19722
19623
19523
19419
19313
19209
19106
19002
18896
18791
18689
18586
18484
18382
18276
18167
18057
17949
17839
17723
17600
17468
17328
17183
17034
16884
16734
16586
16435
16280
16120
15957
15793
15626
15456
15283
15111
14953
14824
14744
14743
14858
15128
15587
16255
17133
18193
19394
20684
22002
23290
24508
25629
26631
27501
28237
28837
29306
29652
29887
30023
30073
30047
29953
29806
29615
29391
29139
28869
28593
28316
28042
27779
27533
27309
27108
26934
26785
26658
26547
26449
26360
26274
26182
26077
25954
25813
25655
25492
25337
25194
25065
24952
24855
24779
24728
24701
24702
24730
24780
24849
24933
25022
25110
25192
25267
25336
25394
25439
25463
25460
25422
25347
25238
25099
24937
24754
24554
24335
24101
23853
23596
23334
23072
22811
22552
22292
22039
21799
21570
21348
21136
20936
20748
20567
20389
20213
20041
19878
19726
19585
19451
19324
19202
19080
18957
18834
18713
18594
18481
18379
18285
18196
18111
18025
17939
17850
17759
17668
17577
17482
17382
17279
17175
17076
16974
16868
16759
16644
16522
16396
16263
16116
15959
15798
15638
15477
15315
15155
15004
14868
14763
14712
14740
14879
15168
15641
16313
17184
18231
19409
20661
21932
23176
24353
25434
26402
27245
27960
28547
29008
29349
29580
29714
29762
29737
29650
29514
29336
29130
28906
28667
28419
28168
27919
27677
27452
27247
27066
26910
26780
26674
26585
26508
26440
26376
26307
26226
26130
26020
25890
25740
25578
25414
25255
25105
24971
24864
24785
24731
24698
24687
24700
24734
24782
24846
24923
25003
25082
25154
25212
25251
25268
25259
25222
25156
25065
24948
24807
24641
24457
24261
24055
23841
23619
23391
23156
22912
22665
22420
22183
21953
21729
21512
21302
21097
20900
20713
20534
20359
20185
20014
19848
19690
19539
19393
19251
19118
18998
18886
18776
18665
18553
18443
18340
18243
18151
18063
17977
17896
17817
17733
17642
17549
17454
17358
17263
17168
17074
16984
16895
16805
16712
16615
16510
16396
16276
16147
16012
15873
15729
15578
15424
15268
15115
14983
14895
14881
14967
15190
15585
16176
16968
17949
19084
20321
21606
22885
24118
25272
26322
27251
28055
28729
29275
29699
30015
30231
30355
30398
30374
30289
30152
29975
29767
29537
29292
29041
28792
28554
28333
28135
27962
27815
27689
27585
27505
27443
27394
27357
27325
27287
27236
27167
27079
26971
26847
26712
26573
26435
26304
26182
26076
25990
25925
25879
25850
25842
25853
25883
25930
25991
26059
26126
26185
26230
26261
26275
26271
26249
26208
26155
26087
25998
25887
25753
25600
25430
25244
25049
24846
24634
24412
24184
23955
23728
23506
23288
23073
22864
22664
22473
22289
22113
21944
21785
21638
21498
21364
21234
21104
20976
20852
20732
20614
20497
20384
20274
20170
20070
19973
19881
19793
19707
19627
19553
19483
19416
19353
19299
19247
19189
19123
19051
18971
18880
18781
18673
18559
18444
18331
18214
18092
17965
17831
17690
17545
17397
17244
17085
16921
16757
16589
16419
16246
16076
15917
15779
15680
15648
15718
15927
16311
16893
17682
18664
19795
21025
22301
23571
24793
25933
26971
27891
28684
29346
29880
30290
30588
30788
30898
30927
30886
30788
30645
30469
30264
30038
29801
29557
29316
29086
28873
28683
28512
28360
28228
28117
28030
27965
27915
27874
27837
27796
27745
27680
27598
27502
27395
27282
27166
27051
26944
26850
26773
26711
26669
26650
26652
26673
26710
26760
26817
26874
26927
26975
27016
27049
27069
27071
27056
27026
26980
26914
26827
26720
26596
26459
26309
26144
25968
25784
25594
25400
25203
25005
24803
24599
24397
24200
24008
23822
23641
23462
23286
23115
22947
22783
22620
22459
22303
22153
22013
21880
21748
21616
21483
21350
21223
21102
20983
20867
20754
20642
20530
20416
20302
20190
20078
19962
19844
19724
19602
19479
19355
19231
19105
18976
18845
18713
18580
18449
18319
18189
18054
17910
17758
17601
17440
17275
17109
16944
16781
16619
16457
16293
16121
15940
15752
15565
15381
15201
15041
14923
14879
14941
15142
15520
16100
16892
17883
19036
20295
21603
22906
24159
25329
26387
27313
28101
28751
29268
29662
29945
30128
30224
30246
30198
30091
29934
29732
29492
29222
28933
28636
28341
28056
27785
27532
27297
27083
26890
26721
26580
26467
26375
26294
26210
26116
26013
25902
25783
25657
25530
25407
25291
25187
25104
25046
25012
25000
25006
25027
25065
25121
25194
25276
25364
25452
25536
25614
25678
25718
25734
25725
25689
25621
25524
25403
25262
25101
24921
24721
24506
24281
24049
23813
23571
23326
23081
22835
22588
22343
22103
21869
21644
21427
21218
21019
20831
20657
20495
20346
20205
20070
19940
19816
19700
19592
19489
19388
19289
19193
19098
19006
18924
18848
18775
18705
18635
18563
18488
18411
18330
18246
18158
18068
17975
17880
17783
17684
17585
17483
17369
17242
17109
16970
16821
16666
16510
16353
16198
16055
15936
15863
15866
15980
16241
16678
17303
18111
19078
20160
21306
22468
23607
24688
25679
26567
27340
27993
28527
28947
29259
29471
29594
29638
29611
29521
29380
29200
28983
28737
28472
28195
27910
27622
27339
27071
26824
26602
26408
26238
26089
25959
25840
25725
25608
25488
25361
25230
25098
24969
24848
24742
24654
24586
24537
24509
24505
24527
24573
24639
24721
24822
24937
25058
25176
25284
25381
25462
25526
25565
25576
25556
25505
25425
25322
25198
25053
24890
24712
24519
24311
24093
23871
23646
23417
23188
22961
22739
22524
22317
22121
21939
21764
21592
21425
21261
21102
20946
20796
20652
20512
20379
20255
20138
20025
19917
19812
19711
19614
19519
19429
19339
19245
19151
19058
18965
18871
18774
18674
18570
18464
18358
18247
18126
17996
17857
17717
17584
17467
17377
17328
17346
17460
17701
18097
18664
19403
20292
21294
22360
23447
24515
25533
26478
27327
28070
28702
29222
29635
29947
30167
30303
30366
30362
30299
30182
30025
29836
29627
29404
29172
28942
28722
28517
28330
28160
28007
27873
27758
27655
27562
27476
27394
27309
27215
27114
27002
26876
26739
26598
26458
26323
26202
26097
26013
25951
25912
25896
25904
25931
25972
26025
26088
26156
26224
26287
26344
26390
26416
26421
26405
26366
26306
26223
26119
25997
25857
25702
25532
25352
25165
24969
24765
24558
24354
24155
23959
23762
23565
23369
23178
22994
22822
22659
22501
22349
22205
22069
21946
21832
21725
21624
21526
21430
21337
21248
21161
21074
20986
20898
20812
20729
20650
20573
20492
20405
20312
20212
20106
19999
19894
19786
19675
19563
19452
19346
19258
19206
19212
19294
19483
19810
20291
20928
21707
22598
23566
24572
25577
26553
27472
28310
29050
29689
30224
30658
30992
31233
31386
31461
31470
31428
31345
31229
31087
30925
30749
30564
30379
30201
30037
29892
29765
29656
29568
29493
29430
29379
29337
29298
29257
29207
29140
29055
28951
28831
28698
28557
28416
28280
28157
28052
27970
27909
27868
27846
27841
27851
27875
27910
27953
28001
28048
28091
28126
28145
28144
28123
28086
28031
27960
27868
27759
27635
27497
27347
27190
27024
26851
26675
26496
26312
26122
25932
25747
25566
25386
25208
25038
24874
24716
24566
24428
24294
24163
24036
23915
23798
23685
23577
23473
23370
23269
23170
23073
22977
22885
22799
22715
22629
22545
22462
22379
22293
22203
22109
22010
21904
21792
21679
21564
21446
21323
21200
21079
20958
20839
20724
20624
20553
20532
20587
20745
21036
21478
22076
22820
23685
24634
25622
26610
27564
28458
29274
29998
30622
31147
31575
31908
32150
32309
32394
32413
32376
32293
32174
32029
31867
31699
31531
31365
31205
31058
30924
30808
30712
30637
30580
30535
30500
30469
30435
30392
30336
30264
30176
30072
29952
29818
29675
29527
29383
29248
29128
29026
28942
28877
28831
28808
28805
28820
28849
28888
28930
28970
29005
29032
29047
29048
29032
28999
28949
28883
28801
28701
28583
28449
28298
28132
27957
27774
27583
27382
27174
26964
26755
26547
26340
26137
25943
25760
25586
25422
25266
25118
24976
24840
24710
24585
24465
24347
24233
24122
24018
23918
23820
23724
23635
23555
23481
23411
23343
23276
23213
23155
23100
23045
22990
22934
22874
22811
22743
22669
22591
22506
22413
22321
22228
22130
22029
21928
21827
21727
21635
21562
21525
21545
21647
21858
22208
22714
23369
24153
25031
25967
26928
27879
28786
29624
30375
31033
31597
32066
32439
32721
32916
33034
33084
33074
33014
32914
32785
32633
32463
32284
32100
31919
31747
31592
31455
31339
31246
31175
31120
31075
31036
30996
30953
30900
30831
30742
30631
30499
30354
30207
30061
29917
29777
29650
29544
29460
29396
29352
29331
29330
29344
29370
29406
29447
29489
29529
29562
29585
29593
29584
29555
29505
29434
29342
29228
29096
28947
28788
28621
28445
28258
28062
27857
27644
27431
27221
27013
26810
26614
26424
26240
26062
25887
25718
25554
25395
25240
25090
24943
24800
24661
24526
24396
24268
24142
24021
23904
23791
23677
23564
23452
23342
23235
23135
23036
22936
22836
22737
22642
22553
22467
22380
22288
22187
22078
21964
21845
21724
21605
21484
21357
21222
21080
20930
20776
20620
20461
20305
20162
20049
19984
19994
20108
20359
20773
21359
22110
22995
23974
25009
26063
27093
28065
28955
29744
30422
30994
31461
31823
32087
32257
32345
32362
32316
32218
32079
31909
31721
31517
31306
31097
30895
30706
30535
30384
30255
30147
30057
29981
29913
29851
29791
29729
29658
29572
29468
29345
29204
29049
28885
28717
28557
28408
28275
28162
28079
28028
28004
28002
28023
28068
28138
28224
28315
28404
28482
28546
28593
28624
28637
28627
28591
28529
28446
28339
28206
28050
27878
27691
27492
27286
27075
26863
26651
26440
26234
26034
25835
25636
25442
25257
25076
24899
24728
24564
24407
24260
24123
23993
23867
23746
23627
23510
23395
23283
23176
23073
22976
22884
22796
22710
22623
22534
22442
22344
22243
22136
22021
21902
21781
21656
21528
21401
21274
21142
21004
20857
20702
20546
20396
20258
20146
20079
20082
20182
20408
20787
21330
22033
22871
23809
24803
25813
26803
27745
28612
29387
30060
30631
31097
31464
31738
31927
32037
32075
32048
31966
31840
31677
31480
31255
31017
30777
30542
30319
30113
29932
29773
29638
29524
29427
29342
29262
29181
29094
28998
28890
28766
28625
28471
28313
28156
28005
27864
27736
27627
27539
27475
27432
27414
27423
27454
27503
27567
27637
27704
27760
27807
27842
27862
27862
27841
27799
27736
27651
27545
27420
27277
27115
26935
26740
26535
26321
26103
25884
25669
25457
25245
25033
24822
24614
24413
24221
24035
23858
23692
23534
23385
23242
23105
22975
22850
22727
22605
22484
22365
22249
22136
22029
21927
21832
21742
21655
21568
21481
21392
21302
21214
21124
21029
20934
20839
20742
20640
20530
20411
20287
20162
20036
19908
19777
19642
19508
19379
19266
19189
19170
19236
19424
19761
20266
20945
21788
22761
23821
24918
26012
27067
28055
28954
29748
30431
31002
31460
31809
32062
32227
32311
32325
32278
32176
32030
31851
31650
31439
31225
31017
30822
30642
30485
30353
30244
30158
30094
30048
30017
29994
29968
29930
29875
29801
29707
29596
29469
29327
29176
29025
28880
28740
28603
28473
28359
28268
28201
28158
28136
28130
28136
28154
28182
28217
28254
28288
28314
28327
28323
28296
28246
28171
28073
27955
27822
27674
27511
27334
27146
26950
26748
26544
26339
26133
25927
25721
25512
25301
25097
24902
24712
24525
24341
24165
23998
23838
23685
23540
23403
23269
23139
23012
22890
22771
22648
22523
22400
22278
22159
22041
21923
21809
21700
21595
21495
21402
21317
21234
21147
21060
20975
20890
20802
20713
20619
20516
20411
20307
20204
20099
19990
19875
19751
19622
19484
19339
19188
19030
18865
18697
18528
18360
18200
18061
17959
17918
17970
18154
18506
19048
19788
20708
21776
22940
24149
25355
26517
27602
28585
29452
30199
30824
31329
31721
32008
32198
32301
32326
32287
32197
32068
31911
31735
31546
31350
31156
30965
30783
30619
30478
30364
30275
30209
30163
30131
30108
30088
30062
30025
29972
29898
29807
29699
29571
29425
29269
29111
28956
28809
28676
28560
28463
28386
28333
28303
28295
28307
28331
28360
28388
28414
28436
28449
28455
28453
28439
28406
28354
28286
28200
28094
27966
27819
27658
27487
27307
27118
26921
26720
26517
26312
26108
25908
25709
25512
25318
25126
24940
24758
24580
24409
24246
24093
23945
23803
23668
23537
23407
23276
23147
23022
22899
22779
22663
22552
22445
22341
22237
22136
22037
21941
21849
21759
21669
21582
21497
21410
21318
21221
21123
21026
20930
20834
20734
20630
20525
20420
20314
20206
20099
19989
19874
19754
19634
19515
19394
19269
19137
18998
18849
18692
18527
18353
18174
17995
17817
17642
17481
17357
17295
17326
17485
17801
18302
19008
19908
20968
22137
23362
24592
25786
26911
27942
28860
29655
30321
30857
31274
31583
31793
31908
31941
31902
31807
31670
31499
31301
31082
30851
30614
30379
30149
29930
29727
29544
29386
29255
29149
29065
29002
28957
28923
28889
28843
28781
28703
28611
28505
28386
28259
28127
27999
27877
27767
27670
27588
27523
27472
27433
27410
27402
27412
27434
27459
27486
27515
27540
27554
27551
27529
27486
27419
27329
27217
27086
26941
26784
26611
26419
26212
25995
25770
25538
25299
25053
24803
24551
24301
24061
23834
23619
23412
23209
23012
22819
22628
22443
22264
22090
21916
21745
21581
21423
21272
21131
20998
20871
20749
20632
20519
20409
20306
20210
20119
20026
19932
19837
19741
19641
19537
19432
19329
19229
19130
19030
18930
18828
18726
18627
18531
18434
18336
18236
18128
18010
17885
17750
17604
17449
17288
17121
16950
16774
16594
16411
16231
16053
15889
15758
15682
15688
15815
16101
16576
17251
18124
19170
20347
21600
22874
24121
25300
26377
27329
28143
28818
29359
29772
30071
30271
30381
30409
30368
30267
30116
29923
29698
29450
29187
28912
28636
28366
28110
27870
27654
27465
27302
27166
27052
26953
26863
26776
26683
26580
26465
26337
26197
26044
25883
25721
25563
25414
25283
25178
25100
25049
25022
25019
25037
25075
25130
25197
25272
25353
25435
25510
25570
25612
25634
25633
25604
25547
25465
25361
25237
25094
24932
24749
24546
24329
24101
23865
23623
23380
23138
22892
22644
22395
22148
21909
21681
21464
21258
21061
20874
20698
20531
20374
20227
20089
19956
19828
19709
19596
19486
19374
19257
19141
19031
18926
18827
18734
18643
18553
18461
18369
18279
18186
18088
17985
17880
17777
17678
17579
17472
17356
17232
17100
16957
16803
16643
16480
16317
16153
15995
15857
15762
15736
15808
16013
16385
16943
17691
18617
19691
20861
22068
23263
24407
25467
26422
27258
27965
28546
29003
29340
29568
29700
29744
29714
29620
29470
29274
29042
28787
28516
28240
27966
27696
27434
27184
26952
26740
26551
26385
26240
26111
25998
25892
25781
25659
25522
25371
25210
25044
24876
24709
24551
24407
24282
24185
24116
24072
24054
24062
24091
24138
24204
24284
24377
24473
24565
24649
24720
24770
24794
24785
24741
24668
24570
24451
24311
24151
23970
23770
23551
23317
23077
22833
22588
22345
22107
21874
21645
21420
21200
20986
20777
20574
20379
20189
20004
19827
19657
19493
19336
19186
19044
18904
18766
18633
18505
18381
18262
18146
18035
17931
17830
17729
17629
17531
17436
17340
17241
17138
17033
16928
16820
16709
16595
16471
16337
16198
16058
15915
15773
15640
15534
15479
15493
15608
15863
16290
16905
17715
18705
19833
21041
22278
23496
24659
25739
26715
27575
28310
28915
29391
29747
29994
30146
30217
30217
30157
30048
29898
29713
29503
29272
29028
28780
28535
28299
28076
27874
27695
27536
27399
27287
27197
27122
27057
26992
26921
26838
26739
26621
26490
26353
26219
26091
25969
25860
25768
25692
25631
25589
25569
25565
25577
25606
25656
25723
25800
25881
25957
26019
26063
26091
26096
26075
26030
25963
25874
25765
25636
25484
25312
25122
24917
24700
24479
24255
24025
23792
23564
23342
23126
22918
22716
22521
22333
22152
21974
21795
21615
21441
21278
21123
20976
20838
20707
20579
20456
20338
20224
20118
20020
19933
19856
19785
19715
19645
19573
19491
19402
19306
19206
19109
19012
18910
18805
18699
18593
18482
18366
18247
18126
18007
17895
17800
17740
17734
17811
18001
18340
18852
19546
20408
21405
22493
23620
24742
25827
26842
27762
28575
29275
29860
30335
30707
30983
31172
31284
31326
31304
31226
31106
30957
30786
30599
30404
30210
30020
29838
29671
29524
29396
29283
29188
29110
29046
28997
28955
28910
28859
28796
28714
28615
28505
28383
28256
28127
28001
27882
27771
27676
27603
27549
27509
27488
27487
27507
27546
27595
27647
27698
27747
27795
27836
27863
27870
27854
27817
27762
27688
27597
27490
27368
27230
27075
26911
26739
26561
26379
26196
26012
25829
25647
25464
25280
25096
24919
24750
24586
24424
24265
24113
23971
23835
23701
23567
23439
23317
23203
23095
22990
22890
22792
22693
22592
22493
22400
22312
22228
22144
22061
21981
21903
21825
21746
21665
21581
21490
21394
21290
21178
21060
20937
20814
20692
20572
20451
20328
20205
20086
19979
19901
19879
19941
20117
20436
20917
21563
22357
23273
24275
25318
26363
27373
28321
29186
29954
30616
31172
31623
31978
32244
32426
32533
32573
32556
32490
32385
32250
32097
31932
31756
31577
31402
31238
31089
30959
30850
30764
30700
30656
30626
30602
30576
30541
30497
30438
30360
30265
30155
30034
29908
29783
29665
29553
29451
29367
29304
29259
29234
29230
29245
29277
29321
29374
29432
29490
29539
29585
29626
29654
29661
29644
29603
29540
29461
29369
29267
29154
29024
28878
28721
28556
28384
28204
28020
27835
27652
27476
27310
27149
26991
26833
26676
26522
26371
26224
26084
25948
25816
25689
25566
25446
25330
25217
25110
25011
24917
24828
24744
24662
24582
24502
24425
24348
24269
24191
24115
24042
23971
23902
23832
23763
23692
23618
23541
23457
23367
23268
23162
23052
22944
22837
22727
22613
22496
22377
22263
22169
22113
22118
22214
22434
22805
23336
24016
24825
25727
26686
27666
28630
29548
30402
31177
31862
32450
32944
33348
33668
33907
34074
34176
34217
34202
34139
34032
33896
33742
33572
33392
33215
33049
32893
32752
32627
32519
32427
32356
32306
32267
32228
32183
32130
32065
31988
31901
31801
31695
31587
31478
31369
31264
31165
31084
31024
30985
30969
30976
31003
31040
31086
31141
31200
31259
31317
31370
31416
31451
31469
31467
31447
31409
31356
31289
31203
31097
30975
30838
30691
30532
30363
30184
29999
29808
29616
29425
29236
29052
28873
28702
28540
28385
28234
28088
27946
27807
27674
27549
27433
27318
27200
27081
26963
26846
26732
26624
26525
26434
26348
26264
26180
26096
26012
25931
25849
25766
25682
25597
25507
25414
25325
25237
25149
25063
24975
24881
24780
24672
24560
24446
24329
24208
24079
23943
23801
23655
23509
23363
23213
23065
22929
22814
22738
22723
22797
22994
23337
23841
24501
25296
26197
27168
28163
29143
30081
30955
31751
32460
33071
33585
34004
34331
34571
34735
34832
34867
34848
34783
34677
34537
34372
34185
33983
33777
33575
33382
33205
33052
32926
32826
32745
32679
32627
32579
32528
32468
32393
32296
32182
32056
31919
31772
31622
31478
31348
31234
31140
31070
31024
31002
31002
31019
31050
31090
31132
31173
31213
31249
31281
31306
31320
31318
31295
31253
31192
31112
31013
30893
30756
30604
30436
30253
30057
29854
29646
29437
29226
29019
28816
28620
28430
28246
28068
27897
27733
27576
27424
27272
27119
26966
26816
26669
26528
26391
26260
26134
26011
25890
25775
25669
25567
25469
25372
25277
25185
25095
25008
24925
24844
24762
24681
24600
24518
24435
24350
24264
24176
24086
23992
23895
23794
23688
23579
23465
23346
23220
23091
22957
22817
22667
22507
22335
22159
21988
21836
21718
21661
21689
21834
22130
22595
23232
24026
24944
25948
26994
28040
29051
30000
30867
31644
32325
32902
33375
33752
34037
34238
34360
34408
34391
34322
34214
34075
33910
33726
33532
33335
33141
32956
32786
32635
32503
32392
32300
32223
32156
32092
32027
31960
31885
31799
31697
31582
31455
31317
31174
31035
30906
30789
30686
30600
30535
30490
30472
30477
30500
30538
30594
30662
30735
30807
30875
30938
30987
31016
31019
31001
30964
30908
30832
30735
30621
30492
30349
30188
30012
29823
29626
29427
29233
29044
28855
28668
28486
28309
28139
27978
27824
27675
27531
27386
27244
27111
26983
26861
26741
26620
26499
26381
26269
26164
26059
25952
25848
25748
25648
25546
25442
25342
25241
25137
25033
24927
24816
24699
24580
24461
24342
24224
24108
23992
23875
23760
23650
23559
23502
23503
23590
23789
24122
24599
25215
25951
26780
27668
28584
29492
30364
31183
31933
32605
33193
33697
34117
34451
34702
34876
34982
35025
35010
34944
34837
34697
34537
34366
34191
34016
33846
33691
33556
33438
33332
33241
33167
33104
33045
32985
32917
32835
32732
32609
32472
32328
32176
32022
31869
31721
31580
31452
31347
31267
31209
31174
31160
31162
31178
31208
31248
31290
31329
31364
31391
31408
31413
31404
31381
31340
31281
31203
31103
30980
30833
30669
30492
30309
30120
29925
29725
29524
29325
29130
28941
28761
28589
28426
28268
28114
27964
27821
27685
27553
27429
27310
27196
27081
26963
26847
26738
26639
26546
26454
26361
26273
26191
26112
26029
25943
25852
25758
25662
25565
25466
25366
25262
25157
25053
24948
24838
24723
24607
24496
24402
24343
24343
24431
24635
24978
25470
26100
26849
27690
28591
29516
30435
31319
32151
32919
33614
34226
34750
35186
35536
35806
35998
36116
36169
36165
36112
36018
35890
35737
35570
35401
35235
35077
34935
34811
34703
34610
34532
34468
34415
34369
34325
34278
34219
34142
34044
33928
33798
33656
33504
33347
33192
33043
32904
32776
32659
32555
32469
32407
32372
32362
32370
32394
32428
32464
32494
32513
32524
32525
32513
32484
32437
32372
32295
32203
32091
31960
31811
31650
31480
31302
31121
30935
30745
30552
30357
30161
29962
29763
29573
29392
29219
29054
28896
28736
28574
28407
28245
28091
27946
27807
27675
27548
