22149
22381
22591
22481
22186
22491
22649
22305
22255
22551
22634
22339
22340
22609
22624
22266
22482
22763
22600
22291
22485
22783
22381
22236
22666
22763
22318
22500
22637
22706
22247
22517
22610
22621
22273
22597
22674
22388
22332
22539
22610
22283
22344
22639
22499
22063
22246
22510
22466
22206
22328
22545
22595
22259
22589
22685
22505
22465
22530
22549
22257
22399
22626
22662
22366
22693
22926
22727
22450
22681
22970
22659
22496
22814
22892
22639
22718
22977
23024
22815
22948
23080
23058
22943
23163
23242
23080
23045
23155
23356
23030
23273
23292
23236
22937
23005
23367
23056
22745
23095
23224
23103
22668
23023
23185
22955
22976
23153
23226
22809
22893
23155
23169
22726
23122
23179
23120
22824
23153
23097
23030
22919
23047
23137
22910
23062
23200
23135
22946
23074
23218
23150
22956
22971
23222
22902
22889
23039
23069
22867
22876
23102
23052
22785
22862
23231
23070
22772
23071
23138
22998
22812
22926
23093
22858
22688
22956
23060
22641
22782
23007
22895
22716
22722
22885
22709
22527
22703
22843
22657
22420
22644
22838
22428
22586
22667
22783
22478
22616
22791
22765
22318
22627
23035
22605
22489
22766
22989
22517
22551
22773
22770
22378
22569
22906
22784
22499
22769
22863
22627
22568
22713
22852
22703
22748
22826
22911
22674
22826
23098
23038
22721
22863
22978
23032
22837
23064
23227
23043
23027
23123
23316
22862
23026
23135
23235
22892
23215
23367
23390
23234
23405
23497
23472
23258
23534
23837
23484
23619
23596
23747
23513
23591
23793
23858
23508
23771
23875
23648
23546
23620
23873
23532
23510
23779
23794
23463
23692
23770
23784
23452
23527
23709
23698
23424
23680
23626
23532
23423
23816
23894
23456
23598
23598
23740
23374
23647
23709
23715
23434
23584
24008
23626
23413
23615
23690
23511
23469
23577
23735
23370
23389
23575
23641
23245
23419
23638
23574
23250
23592
23641
23321
23409
23409
23575
23326
23418
23613
23643
23130
23280
23461
23303
23046
23340
23425
23290
23117
23285
23524
23236
23251
23420
23517
23175
23220
23460
23402
23075
23296
23597
23400
23230
23508
23609
23229
23292
23322
23521
23138
23271
23607
23437
22979
23226
23577
23424
22977
23332
23461
23211
23206
23489
23497
23240
23324
23518
23592
23201
23441
23531
23461
23203
23430
23493
23373
23320
23513
23652
23403
23473
23711
23678
23389
23631
23937
23736
23530
23881
24007
23798
23671
23932
24059
23929
23989
24104
24192
23874
24119
24061
24310
24005
24166
24183
24137
23884
24162
24240
23932
24264
24178
24164
23907
23936
23969
24173
23683
23930
24259
24125
23794
23983
24150
23899
23884
24020
24152
23762
23936
23910
24011
23742
23883
24026
24017
23619
23879
24157
23756
23773
23985
23969
23695
23560
23876
23891
23692
23796
23873
23853
23631
23774
23944
23735
23577
23772
23955
23507
23511
23798
23785
23534
23503
23720
23621
23262
23617
23666
23533
23431
23571
23743
23278
23331
23502
23657
23319
23445
23314
23476
23062
23420
23656
23569
23283
23442
23704
23329
23139
23496
23489
23310
23345
23434
23637
23256
23314
23484
23485
23350
23426
23495
23407
23125
23375
23558
23111
23272
23316
23611
23096
23330
23477
23517
23104
23288
23612
23445
23163
23278
23565
23260
23106
23377
23485
23134
23437
23536
23529
23241
23407
23575
23548
23207
23536
23575
23454
23450
23698
23797
23579
23783
23740
23862
23637
23824
24055
23966
23790
23955
24177
23943
23553
23997
24234
23886
23770
24074
24196
23688
23873
23932
24052
23846
23893
24053
23866
23724
23980
23990
23704
23539
23844
23762
23459
23679
23869
23836
23487
23575
23725
23707
23307
23639
23708
23572
23343
23596
23765
23445
23315
23621
23739
23332
23578
23530
23605
23125
23496
23674
23265
23313
23451
23550
23342
23258
23349
23451
23161
23431
23491
23422
23171
23339
23441
23272
22965
23140
23332
23106
23053
23209
23359
23177
23111
23331
23346
22810
23182
23374
23087
22873
23111
22933
23184
23100
23058
23184
23004
23011
23029
23154
22777
22961
23138
23047
22880
23082
23325
23017
22880
23061
22998
22934
22992
23087
23178
22808
23045
23070
22973
22387
22969
23084
22937
22920
22930
23412
22734
22962
23007
23045
22812
22852
23184
23061
23104
23111
23176
23035
22829
23150
23302
22913
22885
23157
23201
22973
23054
23229
23334
22901
23133
23232
23309
23159
23279
23509
23378
23349
23537
23691
23396
23429
23718
23676
23423
23688
23757
23967
23596
23838
23779
23774
23696
23699
23766
23574
23467
23624
23709
23434
23752
23539
23785
23491
23569
23671
23649
23210
23611
23766
23401
23330
23652
23820
23389
23343
23468
23588
23437
23448
23564
23491
23198
23479
23557
23319
23019
23426
23579
23206
23189
23387
23365
23196
23309
23389
23387
23208
23259
23759
23222
23036
23248
23390
23096
23160
23274
23382
23050
23027
23219
23233
22969
23121
23326
23130
22745
23173
23221
22957
22876
23005
23191
22920
22898
23159
23239
22723
23037
23206
23107
22807
23023
23337
22984
22922
23062
23211
22876
22833
23069
23144
22636
22857
23081
23078
22738
22928
23179
22982
22703
22994
23097
22868
22886
22970
23063
22708
22712
23074
22857
22572
22702
22916
22790
22487
22887
23178
22758
22661
22903
23000
22693
22896
23099
23079
22638
22915
23169
23021
22704
22993
23028
22929
22844
23095
23367
23045
23121
23265
23467
23052
23353
23619
23567
23103
23463
23730
23514
23512
23669
24094
23507
23570
23757
23895
23583
23538
23780
23885
23259
23731
23727
23617
23278
23646
23675
23448
23426
23670
23719
23299
23477
23677
23646
23381
23471
23493
23615
23095
23459
23553
23273
23194
23551
23522
23185
23262
23400
23479
23090
23418
23469
23414
23003
23370
23550
23421
23173
23369
23542
23078
23188
23517
23410
22992
23105
23211
23304
22922
23274
23460
23109
22812
23199
23223
22996
23066
23255
23391
22757
23032
23133
23235
22914
22930
23096
22997
22646
22992
23037
22919
22813
23047
23315
22812
22940
23178
23083
22971
23008
22980
23096
22802
23052
23099
22832
22796
23013
23116
22728
22710
23004
23104
22655
22872
22982
23105
22655
22929
22991
22812
22564
22963
22993
22653
22677
22944
23018
22555
22689
23070
22806
22877
22878
23050
22872
22927
22997
23106
22836
22895
23002
23217
22835
22997
23107
23134
22805
23159
23163
23147
22853
23164
23326
23198
23109
23413
23656
23200
23311
23554
23790
23470
23519
23751
23648
23502
23759
23764
23679
23454
23764
23900
23616
23670
23689
23821
23550
23578
23910
23655
23330
23528
23563
23681
23427
23851
23593
23439
23354
23586
23714
23376
23402
23670
23649
23252
23353
23555
23575
23189
23378
23650
23409
23240
23534
23665
23271
23345
23507
23507
23090
23236
23463
23383
23013
23421
23560
23299
23029
23302
23559
23033
23155
23404
23433
23061
23214
23171
23381
23023
23254
23412
23316
22984
23084
23358
23016
22881
23203
23392
22932
22997
23310
23197
22947
23070
23169
23084
22741
23068
23153
23030
22894
22964
23207
22867
22896
23358
23157
22928
23040
23084
23145
22929
23052
23032
23034
22735
22945
23048
22668
22772
23130
23198
22829
22883
22955
22983
22884
22939
23147
23032
22780
23149
23347
22821
22814
23116
23205
22947
22993
23095
23282
22807
23097
23222
23100
22879
23236
23434
23152
23044
23379
23295
23175
23167
23465
23633
23249
23536
23835
23735
23394
23616
23863
23782
23486
23864
23970
23733
23793
23983
23909
23591
23703
23818
23980
23552
23772
23955
23862
23546
23887
23808
23607
23577
23704
23883
23525
23665
23787
23912
23592
23562
23714
23676
23160
23695
23809
23422
23461
23635
23877
23372
23516
23641
23670
23251
23425
23575
23684
23207
23541
23650
23361
23255
23534
23592
23351
23206
23567
23611
23134
23179
23676
23326
23079
23220
23546
23261
22941
23290
23442
23014
22966
23293
23430
22901
23021
23031
23188
22875
22942
23203
23056
22664
23091
23122
22867
22919
23166
23138
22845
22756
23014
23040
22816
22841
23041
22900
22665
22916
23199
22769
22664
22889
22940
22644
22661
22907
22976
22498
22645
22865
22929
22541
22678
22835
22777
22383
22866
22812
22478
22560
22844
23018
22602
22536
22962
22817
22439
22840
22917
22788
22543
22870
23016
22711
22544
22936
23010
22514
22882
23031
23050
22871
22977
23158
23110
22805
23244
23381
23040
23151
23453
23747
23213
23395
23544
23769
23356
23548
23940
23656
23309
23529
23697
23447
23370
23610
23663
23282
23359
23518
23902
23085
23274
23515
23405
23216
23209
23400
23361
23159
23243
23555
23181
23060
23195
23276
22870
23090
23300
23253
22997
23117
23281
23197
22914
23119
23114
23039
22792
23067
23204
22814
23024
23017
23115
22882
23015
22978
23014
22513
22898
22845
22904
22610
22917
22979
22650
22665
22929
22970
22535
22555
22895
22727
22377
22645
22826
22678
22420
22615
22865
22592
22393
22633
22882
22529
22490
22610
22627
22414
22602
22781
22571
22173
22563
22718
22446
22288
22784
22831
22325
22094
22549
22736
22423
22464
22766
22570
22219
22329
22665
22411
22202
22519
22788
22418
22356
22497
22542
22201
22396
22660
22518
22216
22377
22717
22431
22175
22516
22643
22473
22353
22654
22664
22285
22542
22658
22677
22371
22543
22659
22706
22271
22651
22830
22734
22496
22861
23105
22645
22867
23076
23301
22871
23157
23414
23408
22919
23374
23712
23476
23148
23544
23690
23400
23419
23606
23699
23294
23528
23512
23632
23067
23480
23502
23403
23251
23484
23599
23258
23279
23415
23445
23208
23192
23429
23408
23009
23306
23398
23325
23053
23435
23517
23269
23050
23184
23515
23046
23335
23263
23417
22944
23244
23265
23178
23003
23224
23336
23096
22875
23303
23398
22886
22991
23247
23221
22859
22962
23253
23212
22771
23109
23119
23009
22804
23059
23199
22783
22744
22996
23101
22769
22796
23068
23128
22730
22824
22998
22888
22597
22925
23130
22848
22708
22858
23112
22606
23123
22819
22976
22670
22838
22853
22921
22589
22788
22972
22749
22589
22865
22952
22556
22600
22794
22836
22507
22583
22724
22704
22297
22689
22735
22622
22427
22751
22804
22335
22444
22797
22500
22330
22498
22825
22737
22276
22626
22796
22754
22531
22829
22799
22712
22570
22927
22973
22602
22725
22987
23099
22745
22889
23308
23111
22714
23209
23294
23318
22916
23343
23613
23290
23364
23579
23657
23356
23540
23819
23762
23358
23552
23712
23718
23266
23677
23834
23529
23213
23677
23589
23355
23433
23602
23641
23172
23381
23495
23381
23096
23377
23627
23351
23224
23387
23634
23137
23262
23357
23350
23103
23326
23533
23271
23073
23300
23374
23263
23125
23176
23503
23044
23182
23164
23302
22962
23069
23222
23298
23058
23222
23418
23100
22959
23224
23311
22912
22864
23084
23228
22950
22949
23185
23103
22834
23021
23225
22980
22752
22849
23079
22742
22718
22930
23068
22541
22652
22877
22972
22660
22777
22850
22922
22543
22850
22994
22842
22626
22951
22952
22691
22821
23025
23004
22881
22807
23017
23034
23071
22868
22559
22965
22705
22936
23026
22613
22569
22985
23022
22702
22814
22901
22818
22509
22872
22886
22888
22811
22918
23143
22796
22876
23109
23071
22773
22880
23083
23042
22947
22971
23291
23051
22816
22994
22810
23173
22960
23271
23496
23250
23260
23443
23799
23206
23579
23695
23831
23386
23754
23995
23812
23553
23910
24088
23632
23680
23975
24041
23721
23610
23998
23772
23595
23855
23869
23903
23544
23748
24047
23663
23521
23781
23973
23643
23646
23844
23755
23555
23766
23754
23752
23402
23819
24046
23702
23312
23686
24034
23467
23586
23663
23786
23394
23586
23587
23765
23300
23692
23804
23577
23512
23643
24001
23344
23606
23754
23720
23363
23511
23748
23654
23441
23543
23701
23483
23235
23618
23553
23291
23450
23432
23642
23329
23377
23568
23644
23146
23452
23680
23428
23214
23543
23696
23261
23159
23547
23559
23258
23331
23423
23424
23159
23281
23412
23403
23175
23408
23576
23376
23169
23307
23721
23168
23328
23347
23316
23006
23148
23319
23275
23054
23304
23207
23222
22931
23332
23411
23079
23105
23264
23442
23148
23233
23433
23342
23120
23321
23472
23371
23170
23441
23715
23186
23216
23512
23635
23276
23663
23617
23954
23081
23467
23672
23733
23402
23736
23774
23867
23603
23903
24191
23881
23675
24081
24223
23809
24027
24302
24192
23854
24112
24261
24150
24026
24138
24186
23963
23926
24125
24214
23868
23887
23954
24143
23620
23874
24011
23955
23714
23892
24089
23729
23570
23836
23929
23610
23662
23836
23767
23636
23814
23789
23785
23403
23747
23774
23665
23426
23797
23735
23479
23517
23856
23725
23478
23516
23773
23642
23206
23511
23659
23552
23318
23586
23690
23244
23166
23574
23594
23096
23335
23267
23489
23156
23363
23357
23309
22976
23391
23398
23194
22955
23341
23411
23039
23051
23299
23392
22819
23173
23290
23275
22843
23112
23383
23018
22914
23105
23375
22739
22925
23162
23112
23019
23075
23110
23178
22744
23017
23175
23033
22730
23129
23175
22845
22928
23059
23234
22767
22801
23132
23049
22786
22914
22911
22906
22769
22966
23272
22699
22741
22969
23080
22703
22987
23096
23149
22785
23069
23228
23082
22739
23134
23515
23008
22791
23210
23344
22984
23214
23275
23507
22942
23339
23662
23633
23235
23655
23691
23727
23402
23953
23938
23460
23789
23793
24200
23622
23768
23879
23999
23770
23869
23954
23798
23608
23827
24040
23554
23645
23798
23761
23674
23659
23762
23763
23339
23721
23711
23782
23449
23731
23763
23507
23329
23563
23894
23448
23650
23574
23864
23432
23516
23590
23620
23305
23505
23739
23552
23269
23448
23674
23475
23220
23572
23688
23158
23386
23729
23452
23255
23380
23419
23429
23109
23267
23617
23142
23246
23398
23521
23110
23312
23454
23395
22998
23045
23610
23296
23084
23148
23298
23272
22872
23275
23344
22956
23031
23184
23562
22761
23448
22995
23147
22566
23104
23276
23254
22964
23124
23286
22859
22998
23128
23123
22862
23000
23291
23279
22848
23041
23182
23094
22811
23041
23204
22963
22845
23148
23197
22739
22944
23128
23213
22846
22879
23250
23123
22920
23044
23224
23006
22873
23198
23328
22930
23031
23156
23280
22893
23090
23589
23181
23204
23219
23331
23309
23006
23392
23470
23197
23390
23524
23530
23458
23543
23726
23737
23495
23733
24003
23836
23567
24052
24079
23781
23943
23939
24119
23802
23913
23854
24083
23773
23849
24055
23844
23586
23924
23949
23683
23603
23956
23951
23692
23807
23922
23894
23408
23692
23699
23857
23421
23783
23931
23658
23546
23768
23773
23601
23490
23891
23826
23514
23518
23752
23592
23426
23591
23649
23734
23577
23545
23748
23428
23367
23645
23753
23429
23514
23643
23564
23307
23514
23467
23376
23107
23493
23911
23385
23213
23520
23584
23275
23156
23544
23376
23211
23335
23425
23312
23145
23245
23370
23206
22883
23376
23463
23125
23049
23306
23410
22925
23185
23438
23455
23107
23342
23720
23239
22688
23377
23379
23035
23179
23283
23450
23053
23129
23254
23294
22795
23040
23166
23223
22859
23167
23338
22885
23046
23267
23334
22930
23008
23194
23299
22933
23085
23221
23364
22887
23184
23407
23158
22988
23336
23515
23135
23215
23467
23587
23132
23286
23527
23555
23197
23429
23623
23573
23555
23688
24009
23455
23733
23895
24100
23676
23943
24119
24116
23887
23920
24216
24081
23853
24061
24167
23870
23887
24067
24157
23751
23988
24082
24198
23804
23892
24054
24026
23659
23997
24051
23928
23801
23993
24091
23950
23819
24048
24144
23608
23937
24217
23961
23595
23917
24075
23802
23541
23802
24090
23685
23688
23928
24141
23485
23763
24020
23870
23629
23684
23842
23690
23440
23765
23935
23570
23483
23744
23781
23588
23611
23631
23739
23385
23652
23469
23665
23191
23556
23756
23452
23385
23622
23697
23277
23377
23620
23622
23277
23449
23541
23521
23106
23432
23701
23376
23400
23479
23652
23267
23424
23483
23677
23219
23462
23482
23508
23095
23480
23526
23476
23214
23555
23567
23248
23320
23532
23584
23148
23316
23348
23500
22968
23405
23457
23532
23080
23397
23652
23410
23326
23541
23701
23306
23426
23590
23676
23429
23563
23798
23472
23348
23598
23986
23597
23382
23777
24185
23629
23544
23825
24137
23913
23984
24219
24142
23959
24061
24276
24216
23889
24243
24418
24046
24019
24362
24426
24072
24269
24332
24447
24135
24300
24320
24377
23888
24128
24426
24157
24075
24185
24366
23952
24067
24224
24309
23947
24086
24335
24181
23756
24118
24116
23915
23887
24164
24323
23997
23914
24159
24188
23791
23866
24101
24014
23588
24017
24063
23897
23981
23974
24100
23667
23927
24008
23999
23747
23740
24012
23959
23639
23836
23853
23857
23430
23669
23980
23606
23391
23816
23864
23590
23565
23695
23906
23396
23598
23876
23766
23380
23696
23753
23525
23395
23578
23723
23221
23531
23523
23707
23326
23440
23595
23593
23368
23490
23494
23562
23390
23508
23524
23308
23398
23465
23589
23356
23361
23635
23496
23138
23328
23356
23391
23130
23252
23603
23272
23185
23505
23521
23189
23271
23321
23448
23082
23323
23432
23469
23114
23534
23735
23274
23348
23766
23557
23286
23405
23595
23586
23445
23327
23585
23635
23243
23688
23778
23631
23512
23747
23996
23679
23751
23945
24106
23787
23953
24186
24172
23802
24012
24307
24073
23806
24027
24193
23826
23773
24053
24164
23672
23767
23765
24130
23659
23917
24050
23756
23656
24049
24066
23872
23701
23941
24093
23580
23650
23917
23894
23443
23775
23764
23949
23410
23698
23996
23718
23470
23835
23838
23496
23756
23794
23793
23384
23629
23751
23735
23485
23723
23669
23570
23519
23568
23821
23451
23438
23663
23666
23421
23399
23505
23662
23190
23372
23610
23382
23164
23308
23626
23211
23220
23392
23590
23176
23223
23321
23417
22926
23268
23332
23389
23046
23233
23595
23195
23088
23252
23274
22990
23170
23311
23390
22944
23153
23290
23273
23000
23168
23378
23234
23035
23257
23380
22953
23082
23067
23295
22703
23242
23460
23311
22809
23080
23213
23169
22679
23092
23199
23033
23130
23329
23370
22836
23340
23066
22971
22697
23510
23489
23299
23173
23305
23532
23353
23005
23379
23505
23215
23055
23325
23254
23623
23301
23710
23479
23716
23600
24030
23740
23551
23892
24211
23570
23802
23984
24099
23663
24099
24271
24033
23805
24025
24112
24017
23952
23946
24259
23892
23801
24059
24044
23614
24083
23956
24085
23782
23876
23843
23979
23734
23976
24077
23710
23934
24142
23719
23974
24053
23961
23818
23497
23938
24020
23564
23533
23960
23871
23406
23310
23814
24044
23492
23620
23800
23666
23591
23749
23592
23789
23533
23418
23620
23657
23291
23805
24031
23448
23207
23379
24009
23336
23482
23722
23996
23079
23768
23754
23792
23051
23412
23577
23438
22982
23480
23695
23165
23360
23738
23517
23344
23540
23434
23411
23239
23344
23403
23356
23344
23436
23717
23259
23235
23660
23733
23320
23009
23408
23725
23456
23449
23519
23228
22964
23144
23505
23447
23300
23369
23149
23075
22879
23373
23706
22828
23295
23451
23382
22986
23407
23424
23344
23094
23371
23520
23318
23320
23571
23596
23433
23472
23762
23627
23276
23578
23461
23686
23461
23833
23998
23594
23663
23948
24007
23846
23957
24067
24140
23944
24182
24375
24251
23928
24320
24371
24169
24049
24327
24444
24119
24193
24311
24323
23943
24156
24118
24278
23771
24165
24191
24035
23816
24142
24301
23915
23972
24118
24020
23630
23860
23862
23925
23629
23994
24149
23936
23775
23943
24104
23649
23617
23938
23995
23652
23694
24018
23939
23494
23830
24098
23903
23503
23904
23904
23693
23558
23921
23953
23517
23830
23978
23929
23576
23752
23848
23831
23526
23969
23880
23699
23704
23896
23912
23436
23629
23908
23930
23420
23581
23849
23682
23555
23666
23751
23672
23479
23693
23693
23442
23512
23708
23764
23469
23470
23531
23713
23498
23568
23582
23771
23409
23713
23769
23511
23454
23711
23695
23454
23506
23755
23752
23284
23658
23644
23580
23255
23589
23828
23495
23352
23633
23742
23468
23611
23781
23695
23509
23771
23923
23855
23446
23814
23930
23784
23733
23951
24174
23716
23842
24051
24056
23684
23901
24002
24105
24024
24063
24260
24127
24009
24114
24513
24078
24279
24328
24560
24269
24410
24689
24496
24221
24595
24497
24482
24255
24565
24514
24401
24249
24453
24475
24254
24247
24291
24498
24151
24413
24504
24305
24251
24506
24427
24228
24129
24494
24634
24143
24268
24492
24520
24100
24266
24394
24388
23891
24306
24530
24183
24102
24347
24451
24155
24219
24391
24334
24166
24183
24333
24316
24042
24126
24211
24270
23999
24233
24446
24111
24150
24234
24321
23973
24005
24287
24291
23892
24011
24228
24231
23804
23964
24232
23981
23759
24048
24200
23722
23938
24020
24151
23842
23924
24151
23932
23794
23934
24205
23988
23656
24001
24131
23809
23904
24101
24045
24106
24011
24228
24010
24068
23871
24137
23862
23677
23911
24125
23733
23897
23983
23883
23753
23844
23919
24017
23618
23834
24099
23986
23775
23915
24045
23856
23788
23924
24147
23848
23858
24085
24220
23710
24022
24092
24114
23825
24042
24316
24069
23942
24247
24507
24047
24228
24402
24549
24072
24495
24560
24670
24184
24469
24641
24526
24421
24580
24779
24407
24414
24625
24636
24281
24409
24496
24596
24053
24351
24465
24429
24172
24437
24440
24252
24233
24280
24524
24278
24293
24445
24290
24053
24191
24337
24373
23965
24227
24670
24232
24113
24227
24369
24015
24095
24208
24210
23978
24168
24268
24311
23872
24123
24283
24151
23907
24077
23878
23937
24055
24114
24078
23765
23905
24060
24064
23776
23898
24033
23943
23708
24080
24111
23755
23757
23916
24129
23522
23719
23831
23936
23470
23670
23807
23792
23488
23683
23869
23586
23663
23620
24009
23439
23473
23808
23898
23395
23600
23838
23666
23349
23567
23732
23669
23532
23648
23905
23578
23535
23644
23730
23422
23575
23701
23797
23460
23554
23773
23617
23379
23564
23775
23409
23332
23635
23780
23422
23530
23633
23759
23437
23615
23528
23756
23268
23667
23752
23613
23555
23737
23779
23517
23715
23845
23928
23678
23755
23866
23880
23791
23887
24234
23991
23914
24149
24233
23862
23991
24177
24327
24009
24241
24357
24372
24049
24287
24479
24408
24135
24246
24307
24186
24084
24334
24408
24003
24063
24300
24426
24016
24167
24256
24183
23892
24020
24103
24041
23950
24137
24447
23940
24174
24133
24110
23753
24034
24060
24121
23845
24076
24120
23952
23764
24001
24105
23888
23778
24125
24141
23847
23910
24042
24064
23729
23946
24114
23833
23741
23842
23946
23809
23780
23823
24004
23642
23704
23773
23864
23485
23679
23943
23800
23313
23783
23959
23696
23434
23772
23748
23561
23583
23733
23846
23407
23584
23739
23751
23500
23594
23850
23513
23475
23713
23705
23405
23441
23576
23934
23249
23538
23398
23709
23262
23617
23683
23582
23328
23592
23809
23337
23462
23551
23725
23247
23427
23600
23636
23283
23465
23400
23612
23295
23563
23704
23434
23297
23596
23729
23510
23454
23545
23810
23314
23558
23646
23720
23368
23632
23710
23754
23568
23817
24003
23571
23570
23758
23970
23597
23890
24067
23987
23798
24080
24090
24165
24028
24284
24247
24047
24047
24323
24366
24144
24177
24254
24425
24008
24180
24241
24212
23992
24119
24322
24013
24032
24192
24223
23902
24064
24418
24256
23963
24044
24199
24162
23770
24036
24241
24025
23779
24082
24255
23988
23854
24027
24153
23859
23897
24050
24183
23793
23977
24052
23997
23737
23925
24033
23813
23777
23964
23964
23693
23918
23933
23823
23604
23754
23929
23819
23470
23872
24043
23580
23456
23804
23799
23623
23634
23754
23830
23511
23709
23803
23689
23406
23687
23754
23527
23569
23578
23675
23416
23292
23520
23687
23393
23602
23659
23617
23302
23531
23708
23522
23319
23580
23767
23423
23590
23582
23726
23334
23496
23717
23593
23515
23631
23609
23513
23235
23678
23738
23378
23482
23672
23665
23385
23550
23815
23901
23581
23556
23527
23762
23462
23703
23863
23622
23490
23805
24001
23677
23649
23964
23992
23566
23852
23898
24092
23688
23914
24212
23905
23779
24109
24112
23823
24091
24397
24318
24096
24098
24400
24421
23943
24207
24363
24233
24097
24301
24528
24259
24112
24377
24334
24165
24197
24312
24385
24151
24365
24368
24307
23948
24282
24432
24226
24053
24214
24368
24115
24325
24211
24255
24050
24119
24292
24229
23967
24173
24281
24191
24011
24187
24358
24156
23977
24223
24189
23926
24095
24268
24093
23812
24112
24139
24021
23901
23975
24273
23971
23819
24040
24058
23894
23926
23934
24059
23683
23778
23963
24028
23599
23810
23957
23875
23716
23920
24056
23720
23707
23894
23972
23666
23594
23839
23874
23588
23859
23955
23843
23682
23887
24076
23705
23671
23951
23918
23748
23703
23924
23936
23582
23795
23895
23772
23592
23871
23867
23744
23801
23885
23922
23731
23725
23833
23921
23596
23680
23856
23852
23592
23876
23953
23752
23562
23933
23862
23745
23782
24006
23963
23625
23761
24055
23978
23534
23900
24184
23918
23906
24074
24203
24107
23852
24274
24317
24058
24145
24400
24386
24054
24364
24652
24290
24150
24354
24692
24227
24367
24381
24516
24182
24341
24385
24282
24215
24181
24395
24259
23964
24331
24191
24227
24009
24228
24297
24128
24088
24271
24072
23854
24074
24157
24095
23773
24134
24154
23985
23767
24033
24179
23895
23824
24034
24066
23643
23930
23898
23944
23832
23819
23876
23594
23629
23804
23771
23596
23644
23838
23669
23368
23642
23774
23717
23429
23634
23765
23598
23360
23589
23693
23499
23330
23692
23834
23295
23467
23584
23667
23259
23498
23653
23476
23274
23485
23588
23449
23360
23532
23504
23191
23341
23485
23451
23170
23370
23394
23472
23090
23499
23671
23284
23134
23447
23492
23128
23244
23314
23382
23153
23187
23279
23340
23001
23322
23232
23300
23223
23302
23453
23078
23201
23413
23255
23180
23205
23334
23373
23167
23302
23322
23351
22932
23347
23500
23358
23153
23425
23633
23274
23750
23554
23640
23285
23562
23736
23784
23504
23741
23850
23832
23725
23884
24073
23659
23922
23899
24088
23830
23886
24096
24019
23612
23863
23984
23934
23541
23900
23962
23676
23493
23626
23886
23503
23599
23767
23845
23490
23611
23811
23627
23469
23600
23708
23457
23444
23623
23664
23407
23488
23604
23696
23401
23514
23665
23617
23169
23562
23638
23307
23263
23510
23540
23138
23107
23220
23516
23249
23196
23387
23453
23056
23291
23560
23265
22910
23317
23511
23014
23191
23333
23275
23049
23119
23327
23346
22862
23025
23358
23074
22793
23229
23253
22965
23035
23126
23235
22963
22957
23108
23167
22808
22979
23287
23106
22910
23040
23083
23062
22852
23073
23192
22737
22984
23051
23068
22759
22864
23136
22936
22562
22773
23140
22850
22655
22900
23009
22693
22779
22971
23037
22748
22916
23148
23065
22577
22820
23140
23089
22835
23065
23233
22948
22848
23061
23220
22833
22924
23232
23303
22866
23180
23263
23420
23013
23320
23434
23488
23125
23397
23580
23392
23561
23817
23717
23392
23619
23684
23706
23445
23682
23807
23676
23602
23682
23774
23411
23539
23761
23699
23302
23484
23548
23590
23361
23405
23515
23440
23230
23548
23601
23308
23181
23427
23589
23203
23218
23469
23493
23087
23400
23397
23246
23078
23394
23485
23278
23250
23419
23418
23152
23155
23218
23464
22966
23129
23411
23259
22814
23200
23225
23072
22822
23325
23300
22890
22912
23084
23196
22933
22644
23002
23168
22865
22978
22946
23027
22683
22837
23301
22802
22803
22987
22972
22706
22693
23053
23028
22674
22821
22954
22932
22581
22851
23119
22827
22726
22798
22936
22626
22867
22877
23006
22249
22707
22837
22799
22529
22727
22997
22581
22557
22703
22906
22564
22432
22725
22739
22538
22685
22712
22880
22529
22708
22988
22753
22633
22799
23019
22585
22773
22822
23037
22674
22866
22952
23031
22751
22803
23293
23008
22803
23208
23390
23130
23123
23551
23541
23178
23371
23534
23590
23161
23470
23641
23700
23289
23661
23719
23523
23324
23507
23657
23446
23247
23594
23563
23256
23365
23527
23572
23244
23350
23359
23425
23244
23354
23366
23029
22987
23359
23424
23171
22956
23613
23371
23073
23180
23401
23173
22948
23270
23614
23094
22973
23331
23446
22967
22830
23326
23257
22862
23122
23125
23127
22775
23183
23352
22933
22776
23097
23344
22847
22905
23105
23200
22828
22637
23203
22986
22647
22909
23122
22858
22679
22945
23049
22717
22655
22981
23086
22630
22763
23049
22898
22713
22826
22841
22936
22524
22914
22909
22753
22698
22844
22817
22630
22769
22887
22852
22525
22712
22752
22848
22367
22648
22758
22608
22546
22729
22814
22462
22638
22716
22873
22408
22850
22847
22811
22707
22725
23026
22763
22565
22781
22841
22599
22825
22947
23077
22615
22803
23061
23030
22686
22935
23213
23006
22779
23118
23340
23138
23154
23358
23651
23315
23421
23636
23628
23354
23497
23927
23746
23368
23672
23893
23555
23545
23768
23732
23389
23438
23668
23751
23396
23466
23754
23594
23395
23430
23804
23465
23157
23497
23435
23375
23367
23537
23572
23214
23336
23501
23504
23293
23424
23582
23369
23209
23384
23614
23226
23182
23289
23502
23023
23313
23555
23405
23160
23264
23488
23338
22983
23311
23354
23162
23022
23320
23283
23049
23234
23185
23243
22944
22986
23216
23153
22930
23015
23150
23039
22853
23027
23244
22696
23078
23080
23089
22747
22852
23112
23074
22750
22934
23059
22885
22686
23004
23008
22770
22888
22967
23049
22643
22973
23056
22871
22579
22818
23010
22800
22516
22755
22992
22675
22621
22795
22808
22558
22589
22850
22823
22470
22687
22831
22758
22388
22715
22871
22738
22556
22781
23059
22666
22654
22890
22962
22560
22743
23073
22916
22605
22889
23096
22955
22628
23008
23152
23017
23140
23227
23455
23184
23307
23450
23547
23259
23425
23783
23531
23466
23583
23940
23388
23231
23669
23368
23225
23449
23544
23528
23105
23392
23409
23403
23097
23343
23558
23350
23082
23334
23459
23124
23212
23327
23436
23124
23162
23493
23293
22421
23295
23366
23167
23084
23266
23296
23019
22876
23076
23216
22875
22973
23019
23126
22809
22982
23099
22996
22764
22946
23070
22725
22537
22938
23046
22612
22694
22879
22881
22460
22683
22929
22730
22426
22780
22877
22404
22372
22721
22757
22464
22418
22628
22660
22344
22462
22603
22549
22180
22420
22631
22471
22233
22411
22489
22100
22175
22442
22545
22153
22283
22402
22459
21952
22277
22423
22341
21990
22084
22418
22081
22145
22411
22048
21893
22105
22112
22224
21994
21958
22038
22081
21757
22008
22274
21910
21920
22019
22188
21900
22080
22177
22270
21876
22003
22218
22015
21869
22157
22257
22120
22107
22248
22335
22227
22035
22359
22475
22350
22442
22790
22748
22361
22643
22808
22868
22568
22907
23162
22812
22857
22961
23164
22883
22891
23072
23075
22730
22812
23139
22979
22662
22839
22936
22813
22864
22895
22902
22654
22744
22940
22963
22590
22969
23002
22766
22440
22768
22732
22725
22614
22712
22790
22525
22498
22793
22853
22609
22570
22781
22797
22389
22582
22861
22575
22324
22656
22695
22554
22330
22596
22694
22365
22356
22556
22526
22275
22415
22442
22476
22126
22381
22527
22408
22084
22336
22634
21682
22323
22502
22493
22438
22210
22405
22327
22094
22319
22304
22144
22155
22262
22442
22016
22039
22250
22433
21930
22136
22250
22321
22015
22147
22221
22103
21998
22185
22253
22141
22063
22146
22240
22058
22021
22084
22199
21863
22005
22043
21988
21719
22015
22088
21877
21783
21906
21969
21688
21769
22027
22006
21633
21788
22043
21958
21661
21923
22134
21878
21787
21859
22172
21830
21825
21916
22160
21601
22230
22101
22175
22038
22138
22248
22282
22003
22307
22696
22393
22444
22646
22886
22611
22700
22901
22912
22605
22902
22942
22931
22621
22907
23020
22781
22740
22768
22916
22684
22689
22860
22958
22638
22621
22826
22819
22660
22811
22856
22667
22532
22655
22875
22446
22699
22798
22802
22640
22679
22775
22820
22632
22684
22769
22754
22506
22684
22955
22579
22603
22768
22856
22423
22694
22892
22728
22496
22579
22797
22686
22381
22661
22714
22468
22456
22639
22692
22387
22439
22609
22577
22223
22420
22549
22459
22262
22289
22527
22379
22235
22346
22482
22260
22324
22444
22435
22086
22229
22486
22313
22039
22346
22455
22367
22093
22246
22480
22172
22196
22481
22408
22099
22222
22359
22304
21905
22161
22101
22236
22070
22071
22291
21935
21952
22137
22222
21956
21930
22024
22193
22045
22072
22321
22220
21902
22171
22236
22119
21980
22208
22267
22070
22190
22347
22277
22158
22212
22220
22284
22138
22259
22445
22397
22236
22523
22797
22312
22410
22815
22847
22673
22792
22974
23035
22793
22950
23091
23046
22907
23120
23088
22956
22969
23113
23233
22929
22984
23117
23163
22752
23012
23192
23013
22941
22942
23172
22982
22793
22748
23043
22836
22897
23145
23038
22752
22891
23009
22981
22599
22969
23033
22860
22841
22793
23019
22780
22565
22754
22963
22719
22690
22803
22830
22489
22682
22874
22797
22560
22803
22688
22533
22614
22663
22704
22404
22604
22628
22683
22187
22512
22508
22615
22190
22540
22528
22297
22358
22412
22257
22213
22286
22302
22509
22107
22437
22361
22368
22140
22300
22419
22393
22116
22386
22152
21641
22019
21890
22449
22006
22237
22400
22357
22129
22270
22295
22306
22095
22284
22495
21985
22108
22226
22236
22083
22119
22260
22328
22087
22232
22322
22195
22099
22280
22227
22195
22135
22306
22515
22190
22268
22359
22502
22258
22270
22336
22661
22384
22506
22575
22472
22245
22620
22816
22478
22756
22926
23083
22813
22887
23271
23239
23015
23364
23386
23371
23153
23381
23413
23284
23276
23347
23599
23196
23262
23433
23442
23119
23306
23335
23355
23148
23336
23399
23100
23265
23390
23426
23202
23265
23384
23299
22959
23147
23393
23258
23038
23162
23313
23229
22907
23135
23193
23018
23079
23186
23309
22824
23070
23306
23296
22787
22957
23146
23006
22739
22931
23131
22732
23087
23003
23064
22603
22935
23043
22966
22543
23093
23044
22880
22550
22712
22943
22535
22500
22665
22857
22525
22640
22739
22736
22452
22493
22709
22607
22494
22614
22747
22485
22466
22652
22808
22427
22535
22592
22738
22383
22433
22733
22597
22318
22387
22491
22489
22465
22461
22578
22315
22352
22560
22476
22065
22207
22328
22390
22166
22257
22232
22396
22084
22280
22404
22136
22192
22517
22508
22842
22272
22625
22559
21950
22250
22572
22412
22140
22521
22594
22334
22376
22515
22557
22353
22622
22814
22782
22607
22870
22963
23110
22756
22983
23326
23119
23108
23183
23438
23068
22994
23346
23427
23108
23208
23389
23147
23070
23049
23019
23146
22991
23025
23064
22810
22883
23059
23150
22837
22845
23029
23032
22769
22871
22925
22937
22610
22734
22731
22778
22831
23001
22851
22540
22777
22767
22857
22693
22683
22780
22811
22337
22690
22903
22690
22441
22692
22836
22414
22431
22641
22678
22282
22476
22428
22546
22149
22526
22554
22505
22140
22494
22505
22254
22101
22378
22456
22163
22300
22347
22389
21970
22172
22108
22245
21878
22213
22395
22186
22176
22164
22244
22048
22089
22215
22229
21920
22083
22271
22269
21860
22030
22562
22143
21845
22143
22324
21842
22048
21883
22568
21791
21923
22160
22013
21696
21978
22097
22030
21802
21948
22164
21898
21887
22037
22166
21890
21934
22108
22173
21812
22057
22111
22044
21896
22114
22206
22002
21938
22141
22320
21947
22112
22280
22311
22043
22232
22442
22468
22350
22531
22604
22669
22567
22766
22928
22691
22765
23040
23196
22788
22890
23016
23077
22852
22926
23139
23078
22746
22878
23068
22804
22752
22967
23045
22693
22811
23074
22956
22664
22705
22796
22846
22600
22762
23036
22674
22583
22777
22856
22650
22599
22717
22767
22557
22663
22673
22735
22484
22603
22591
22735
22496
22760
22884
22468
22457
22638
22676
22302
22354
22629
22618
22245
22443
22564
22477
22094
22514
22580
22215
22348
22450
22496
22069
22190
22303
22417
22109
22176
22482
22371
22093
22267
22354
22031
22090
22199
22222
22055
22177
22250
22281
22045
22131
22197
22296
21913
22130
22059
22132
21980
22288
22359
22062
21974
22103
22238
21827
22017
22099
22017
21875
21938
22075
22058
21801
22049
22126
22004
22004
21948
22192
21826
21947
22015
22164
21937
22047
22158
22039
21796
22022
22195
22039
22085
22297
22423
21984
22093
22328
22331
22111
22253
22323
22567
22167
22651
22729
22715
22449
22782
22943
22629
22926
23061
23161
22894
23023
23120
23230
22998
22966
23326
23075
22879
23167
23059
23031
22972
23090
23247
22933
22989
23098
23132
22893
22951
23026
23055
22788
22974
22961
22795
22774
23032
23123
22761
22871
23109
22970
22766
22767
23070
22942
22617
22852
22895
22922
22634
22924
23086
22779
22792
22913
22928
22531
22648
22940
22837
22562
22774
22818
22643
22600
22701
22939
22582
22620
22753
22846
22491
22503
22640
22729
22382
22568
22561
22508
22442
22566
22595
22478
22332
22607
22659
22290
22341
22512
22694
22252
22505
22575
22552
22277
22509
22735
22491
22299
22569
22528
22361
22414
22508
22579
22241
22391
22577
22418
22165
22280
22389
22385
22023
22440
22381
22183
22266
22536
22460
22270
22362
22510
22513
22286
22298
22497
22392
22200
22435
22616
22252
22252
22494
22577
22344
22371
22922
22640
22286
22535
22866
22688
22405
22775
23019
22900
22631
23056
23224
22883
22986
23161
23032
23407
23240
23459
23456
23184
23294
23429
23423
23186
23475
23568
23151
23329
23262
23395
23120
23251
23279
23405
23054
23290
23295
23280
23114
23228
23476
23205
23018
23312
23407
23144
23154
22964
23109
23011
23225
23401
23256
22923
23141
23358
23138
23095
23245
23414
23017
22979
23164
23210
23002
23034
23146
23056
22897
23046
23336
23077
22760
23051
23190
22812
22919
23000
23104
22846
22855
22999
22996
22615
22770
23034
22899
22568
22881
23011
22681
22696
22837
23013
22599
22805
22919
22960
22552
22687
22873
22937
22497
22841
22972
22721
22595
22851
23005
22628
22602
22749
22966
22543
22828
22817
22752
22609
22517
22752
22464
22477
22699
22953
22465
22536
22744
22760
22495
22627
22681
22816
22530
22684
22875
22740
22487
22863
23050
22690
22604
22812
22991
22623
22896
22871
23008
22638
22850
23161
23231
22657
23154
23408
23190
23107
23452
23707
23314
23400
23761
23886
23344
23626
23895
23723
23557
23729
23739
23717
23479
23753
23751
23513
23459
23757
23806
23374
23516
23584
23681
23278
23462
23634
23538
23388
23450
23766
23377
23377
23469
23651
23244
23399
23468
23545
23236
23389
23444
23403
23170
23391
23558
23218
23052
23398
23635
23250
23220
23484
23460
23071
23188
23273
23253
22860
23180
23361
23147
22985
23146
23168
22876
22908
23132
23139
22741
22989
23122
23326
22695
22801
23008
23016
22620
22817
22958
22656
22612
22912
22960
22604
22676
22896
22897
22524
22673
22693
22782
22433
22671
22897
22553
22384
22851
23076
22390
22630
22696
22752
22453
22548
22637
22670
22204
22565
22668
22484
22096
22532
22726
22301
22406
22505
22612
22412
22559
22693
22661
22256
22447
22660
22544
22147
22496
22702
22579
22465
22712
22775
22382
22433
22705
22655
22277
22504
22705
22680
22523
22828
22898
22722
22559
23004
23111
22874
22995
23201
23271
22944
23152
23364
23356
23106
23317
23626
23432
23154
23372
23587
23165
23036
23314
23355
23057
23150
23141
23196
23013
22988
23484
23104
22817
23099
23405
23014
23023
23054
23239
22827
22981
23162
23072
22623
23068
23094
23156
22833
23016
23296
22916
22797
22888
23119
22745
22828
22895
23092
22644
22838
22801
22886
22624
22751
22914
22753
22493
22801
22845
22484
22516
22694
22685
22422
22424
22713
22663
22471
22545
22723
22552
22210
22571
22760
22384
22272
22371
22598
22119
22277
22452
22485
22164
22171
22469
22437
22160
22353
22540
22246
21950
22424
22496
22090
22224
22403
22462
22003
22170
22034
22351
21938
22279
22282
22270
21968
22227
22365
21867
21977
22211
22288
21986
22078
22330
22229
21911
22116
22718
22209
21874
22296
22392
21873
21812
22237
22408
22035
22086
22161
22356
22048
22103
22293
22393
22052
22293
22544
22038
22229
22380
22598
22247
22317
22614
22716
22377
22678
22881
22942
22688
22972
23128
22903
22975
23241
23401
23096
23021
23265
23343
23003
23065
23362
23215
23145
23077
23265
23108
22831
23167
23327
22928
22841
23162
23222
22842
22848
23091
23054
22779
22920
22936
22971
22663
22981
22920
22934
22660
22918
23117
22643
22765
22996
23065
22728
22841
23149
22939
22460
22897
22982
22881
22577
22928
22983
22709
22668
22852
22904
22421
22876
22715
22791
22352
22607
23017
22754
22364
22669
22677
22443
22377
22698
22807
22305
22432
22605
22565
22281
22405
22576
22576
22091
22437
22779
22362
22337
22391
22485
22223
22312
22377
22460
22207
22251
22316
22481
22215
22304
22495
22360
22184
22414
22581
22260
22184
22441
22462
22117
22224
22353
22311
21777
22227
22247
22311
21861
22096
22343
21932
21940
22305
22313
21942
22131
22393
22294
21953
22181
22411
22311
21987
22248
22444
22249
21997
22244
22357
22088
22215
22297
22447
22149
22283
22398
22559
22240
22472
22668
22599
22294
22919
22852
22650
22722
23009
23184
22823
23042
23262
23228
22943
23176
23260
23295
22957
23198
23347
23048
22909
23214
23312
22982
22980
23060
23111
22863
23179
23189
23198
22729
22992
23163
22931
22868
23076
23273
22841
22964
23078
23093
22764
22859
23119
22962
22818
23026
23139
22900
22751
22954
23233
22921
22922
22995
23091
22831
22852
22881
23091
22649
22807
23074
22887
22686
22827
22987
22818
22719
22807
22939
22679
22700
22966
22986
22544
22796
22878
22840
22397
22817
22871
22772
22599
22837
22946
22466
22640
22768
22885
22481
22651
22872
22807
22502
22647
22817
22844
22371
22823
22847
22694
22742
22852
22867
22573
22666
22805
22966
22542
22689
22905
22769
22449
22827
22716
22575
22466
22769
22857
22587
22556
22721
22841
22547
22906
22746
22714
22329
22687
22774
22774
22371
22856
22989
22561
22663
22936
22747
22514
22713
22886
22991
22681
22785
22965
22887
22639
22853
23247
23069
23005
23108
23256
23032
23281
23496
23516
23159
23427
23847
23662
23438
23732
23924
23709
23529
23793
23790
23611
23596
23840
23843
23452
23608
23782
23683
23479
23648
23764
23648
23441
23582
23750
23376
23697
23670
23673
23463
23485
23573
23708
23323
23522
23680
23477
23248
23427
23546
23238
23284
23511
23519
23091
23388
23585
23463
23151
23361
23571
23396
23128
23290
23400
23253
23143
23249
23388
23117
23140
23347
23362
23036
23162
23210
23160
22909
23213
23244
23049
22968
23004
23350
22969
23008
23043
23077
22645
22864
23063
23063
22699
22904
23059
23000
22720
22875
23035
22661
22719
23026
23009
22589
22835
22950
22964
22586
22761
22848
22816
22610
22898
22991
22721
22568
22851
22972
22655
22650
22615
22926
22538
22649
22901
22750
22423
22597
22731
22568
22277
22577
22656
22342
22375
22643
22606
22430
22519
22725
22596
22452
22625
22841
22537
22383
22572
22743
22372
22462
22730
22745
22482
22509
22675
22940
22474
22737
22993
22980
22699
22946
23107
23109
22949
23245
23513
23196
23403
23455
23581
23329
23348
23675
23558
23337
23541
23582
23366
23363
23355
23590
23252
23244
23433
23457
23199
23261
23386
23372
23002
23390
23341
23306
23003
23070
23393
23028
23112
23162
23377
22890
23075
23321
23173
22824
22965
23188
23149
22858
23212
23242
22856
22921
23147
23181
22935
22770
23066
23129
22563
22919
23098
22986
22748
22902
22931
22953
22436
22997
22994
22630
22660
22706
22909
22627
22728
22841
22907
22474
22635
22749
22704
22339
22629
22758
22576
22363
22619
22691
22340
22525
22649
22714
22406
22432
22676
22597
22216
22532
22705
22563
22171
22508
22583
22259
22432
22350
22569
22245
22375
22524
22595
22054
22320
22560
22326
22114
22313
22558
22202
22219
22459
22448
22151
22130
22231
22344
22132
22208
22272
22332
21949
22371
22382
22215
22064
22362
22446
22088
22213
22531
22530
22054
22263
22487
22462
22210
22411
22488
22332
22249
22536
22797
22411
22492
22852
22880
22666
22786
23025
22977
22776
23035
23177
23154
22890
23318
23526
23098
23235
23520
23619
23297
23301
23273
23442
23088
23305
23434
23371
23069
23284
23614
23227
23067
23283
23459
23039
23244
23414
23246
22856
23105
23274
23248
22927
23099
23145
23061
22833
23086
23202
22842
22945
23203
23103
22779
22982
23130
23200
22789
23014
23242
23022
22635
23079
23024
22926
22777
22903
23089
22833
22794
22944
22897
22569
22962
23089
22882
22636
22851
23083
22714
22548
22783
23085
22620
22643
22816
22852
22472
22713
22686
22796
22454
22710
22732
22592
22622
22612
22674
22419
22622
22760
22714
22439
22206
22588
22616
22508
22494
22657
22604
22375
22519
22760
22385
22382
22445
22634
22281
22387
22461
22640
22191
22456
22471
22326
22081
22406
22746
22371
22166
22354
22415
22148
22432
22479
22488
22348
22339
22455
22514
22147
22357
22707
22504
22306
22499
22663
22429
22419
22680
22679
22404
22516
22733
22704
22348
22607
22975
22765
22580
22849
22989
22808
22792
23108
23270
22995
23193
23404
23586
23069
23308
23646
23569
23317
23465
23593
23430
23243
23475
23589
23201
23400
23540
23550
23190
23462
23484
23411
23104
23470
23538
23299
23336
23269
23507
23164
23214
23395
23416
23161
23189
23329
23350
23109
23130
23311
23183
23026
23336
23429
23115
23143
23337
23417
22902
23122
23286
23302
22993
23108
23398
23146
22831
23123
23216
23097
22811
23238
23157
22909
22975
23135
23214
22818
22906
23105
23107
22909
22910
23084
23008
22792
23015
23117
22727
22848
23053
23075
22716
22788
22919
22906
22531
22794
22955
22828
22527
22830
23092
22671
22671
22913
23016
22583
22726
22976
23035
22548
22747
22902
22837
22419
22715
22928
22668
22426
22805
22889
22568
22563
22688
22795
22360
22577
22707
22718
22547
22692
22778
22698
22509
22948
23048
22630
22746
22758
22878
22493
22707
22889
22859
22537
22754
22900
22855
22561
22872
23100
22718
22768
23075
23063
22882
22965
23227
23381
22941
23219
23618
23430
23269
23552
23873
23592
23367
23738
23894
23622
23585
23838
23928
23528
23663
23829
23786
23530
23786
23896
23708
23513
23651
23951
23624
23491
23704
23798
23492
23699
23825
23731
23299
23733
23773
23711
23314
23563
23639
23384
23378
23681
23655
23337
23452
23761
23515
23316
23417
23577
23550
23157
23484
23611
23508
23335
23584
23646
23244
23320
23362
23572
23333
23325
23367
23476
23057
23296
23503
23260
23077
23351
23526
23120
23074
23223
23384
23142
23244
23257
23354
22825
23209
23179
23028
22946
23164
23256
23021
22958
23109
23283
23118
22990
23361
23321
22862
23050
23284
23134
22942
23177
23302
23102
22953
23195
23314
22993
23066
23201
23177
22908
23057
23253
23155
22825
22822
23118
22979
22806
23075
23200
22935
23089
23071
23228
22834
23054
23205
23163
22748
23122
23226
23225
22789
23178
23200
22975
22945
23241
23190
23036
23125
23359
23412
23104
23370
23557
23512
23163
23611
23707
23677
23378
23778
24049
23690
23544
24110
24139
23802
23946
24064
24079
23767
23993
24177
24068
23986
24035
24148
23807
23902
23996
24031
23666
23798
24046
23906
23644
23807
24002
23853
23658
23801
24023
23811
23637
23846
24020
23585
23662
23822
23793
23492
23675
23804
23760
23337
23685
23815
23596
23507
23590
23833
23358
23567
23621
23753
23391
23533
23608
23600
23352
23451
23609
23466
23383
23554
23570
23222
23195
23452
23487
23152
23224
23525
23491
22985
23246
23422
23253
23035
23220
23207
23120
23047
23147
23304
22897
22961
23124
23197
22946
22950
23133
23108
22665
23068
23248
23030
22897
23224
23231
22947
22886
23131
23148
22821
22886
23107
23206
22783
22955
23205
22893
22626
22901
23017
22638
22679
22917
22901
22544
22824
22851
22990
22607
22798
22855
22809
22594
22844
22991
22725
22768
22769
23161
22623
22873
22851
23121
22679
22902
23142
22966
22771
22969
23320
23073
22940
23260
23362
23121
23369
23308
23570
23385
23565
23752
23723
23572
23688
23812
23781
23550
23859
23872
23687
23653
23819
23875
23546
23730
23766
23880
23337
23730
23740
23710
23378
23630
23855
23519
23497
23506
23786
23380
23468
23622
23784
23258
23556
23669
23515
23171
23451
23700
23441
23284
23453
23797
23251
23315
23466
23483
23265
23373
23392
23400
23101
23351
23419
23303
22978
23330
23476
23103
23241
23439
23502
23025
23182
23220
23306
22900
23166
23177
23120
22974
23109
23395
23067
23050
23162
23307
22906
22875
23168
23056
22834
22920
23166
23015
22609
23071
23132
22950
22722
22990
23128
22768
22777
23012
23140
22778
22827
22975
23228
22780
23055
23037
22981
22746
22980
23005
22823
22690
22928
22959
22617
22793
22971
22852
22750
22780
22853
22885
22546
22731
23035
22775
22628
22885
23078
22749
22673
23016
22996
22552
22837
23101
22858
22676
22949
22912
22927
22738
22924
23103
22817
22970
23251
23304
22998
23312
23421
23477
23123
23344
23699
23743
23453
23677
23921
23669
23634
23928
24050
23589
23776
24026
23873
23681
23869
23999
23861
23623
23854
23923
23797
23530
23834
23813
23587
23668
23809
23879
23525
23634
23895
23728
23462
23613
23902
23677
23463
23822
23790
23509
23560
23658
23708
23460
23512
23709
23638
23261
23501
23764
23550
23237
23568
23753
23177
23306
23505
23382
23271
23428
23472
23653
23226
23391
23489
23483
23208
23363
23582
23329
23246
23410
23610
23184
23139
23587
23423
22908
23256
23679
23356
22920
23223
23329
23204
22892
23331
23263
23059
23047
23205
23236
23012
23086
23221
23218
22766
23188
23231
23091
22877
23058
23303
23005
22966
23290
23249
22886
23048
23148
22966
22811
22881
23177
22980
23187
23037
23109
22928
22770
22954
23049
22670
22874
22912
23150
22779
22952
23206
23048
22759
23001
23113
22991
22891
23133
23146
22944
22894
23141
23260
22981
23063
23185
23314
22980
23168
23463
23354
23168
23502
23834
23479
23634
23822
23919
23520
23760
23985
24054
23701
23903
24007
24116
23794
23985
24354
23899
23793
23969
24103
23860
23810
23948
24064
23753
23766
24051
24029
23549
23891
23957
23836
23503
23919
23986
23797
23680
23805
24003
23640
23753
23713
23918
23374
23703
23790
23745
23623
23781
24059
23725
23555
23725
23837
23436
23574
23673
23807
23426
23629
23777
23653
23408
23588
23644
23626
23340
23485
23738
23364
23471
23718
23644
23263
23475
23693
23590
23211
23396
23712
23467
23051
23404
23501
23322
23099
23498
23721
23124
23190
23480
23441
23172
23259
23410
23360
23108
23448
23676
23174
23267
23283
23396
23171
23332
23475
23467
23135
23209
23532
23286
23061
23315
23448
23172
22880
23227
23389
22955
23136
23206
23342
22953
23061
23282
23401
23124
23260
23235
23230
22944
23349
23368
23104
23160
23425
23519
23096
23375
23260
23316
23191
23354
23635
23456
23183
23528
23771
23350
23438
23704
23865
23503
23750
24012
24068
23809
24015
24242
24128
23776
24122
24286
24198
23935
24262
24566
24180
24239
24379
24300
24085
24244
24366
24231
23973
24226
24357
24217
24109
24082
24362
23981
24071
24243
24221
23921
23982
24089
24238
23772
24057
24346
24126
23752
24013
24180
23954
23875
24165
23948
23818
23865
24105
24135
23854
24030
24038
24034
23716
23854
24125
23994
23799
23937
24223
23679
23710
23962
24112
23637
23800
23971
23849
23542
23806
23892
23748
23614
23906
23912
23604
23612
23860
23968
23482
23555
23901
23877
23476
23620
23844
23766
23561
23781
23883
23607
23446
23819
23841
23445
23557
23791
23769
23580
23651
23686
23864
23420
23684
23965
23571
23608
23662
23748
23490
23550
23769
23711
23314
23553
23587
23712
23431
23495
23721
23582
23158
23524
23683
23393
23474
23604
23677
23470
23453
23769
23708
23456
23576
23816
23708
23392
23600
23852
23712
23460
23860
24077
23672
23837
24112
24086
23920
24023
24195
24317
23991
24186
24679
24334
24251
24366
24755
24449
24383
24557
24607
24211
24453
24494
24509
24216
24322
24466
24451
24258
24420
24619
24271
24245
24275
24454
24031
24218
24353
24398
24130
24261
24323
24299
23976
24189
24373
24037
24019
24245
24340
24037
24122
24177
24193
23964
24054
24097
24222
23846
24088
24147
24002
23816
24068
24188
23917
23859
23960
24061
23758
23756
23945
23840
23553
23807
23943
23781
23506
23857
23953
23715
23593
23911
23905
23548
23551
23757
23791
23343
23479
23789
23666
23346
23548
23783
23531
23395
23512
23805
23290
23369
23766
23615
23301
23476
23627
23500
23225
23410
23716
23394
23210
23580
23709
23168
23356
23522
23578
23238
23242
23482
23385
23015
23193
23650
23325
23029
23373
23393
23154
23042
23445
23368
23010
23169
23340
23459
22950
23235
23347
23329
23064
23355
23341
23282
23309
23426
23490
23182
23379
23530
23522
23428
23497
23592
23586
23240
23603
23928
23692
23367
23901
24057
23818
23822
24082
24167
23849
24132
24278
24179
24016
24276
24361
24286
24070
24350
24372
24121
23868
24278
24288
24011
23990
24184
24238
23887
24111
24257
24218
23762
24153
24243
24040
23945
24084
24346
23901
23941
24131
24181
23719
23902
24011
24078
23852
23905
24125
23990
23612
24095
24063
23716
23679
23980
24120
23660
23757
24308
24000
23767
23824
23928
23870
23518
23813
23963
23681
23650
23777
23817
23581
23645
23801
23842
23559
23649
23728
23685
23288
23618
23834
23617
23472
23647
23735
23311
23451
23580
23771
23295
23469
23541
23551
23245
23494
23569
23471
23265
23490
23628
23286
23280
23476
23580
23258
23364
23435
23534
23245
23339
23591
23359
23178
23427
23594
23223
23191
23412
23485
23181
23170
23211
23312
23082
23225
23399
23135
23082
23281
23326
23251
23235
23446
23534
23169
23357
23368
23480
23170
23324
23476
23506
23061
23475
23594
23451
23281
23473
23697
23353
23501
23683
23754
23405
23667
23962
23951
23560
23828
24047
24011
23785
24030
24376
24165
24067
24367
24446
24112
24130
24302
24404
24088
24121
24323
24304
24057
24136
24360
24124
23954
24197
24281
24020
23942
24161
24249
23810
24033
24282
24149
23826
23987
24172
24102
23784
24038
24202
23872
23745
24116
24104
23912
23933
24053
24067
23738
23913
24109
24036
23861
23915
24150
23829
23775
23982
24052
23858
23799
23969
23957
23557
24057
23978
23847
23459
23784
23911
23630
23594
23767
23880
23603
23548
23859
23832
23366
23548
23879
23665
23397
23633
23754
23574
23391
23695
23724
23372
23412
23594
23614
23369
23401
23561
23572
23308
23471
23741
23487
23338
23668
23790
23390
23412
23553
23726
23279
23471
23591
23598
23244
23491
23765
23487
23219
23431
23721
23542
23182
23571
23663
23202
23374
23546
23632
23226
23397
23653
23698
23327
23521
23553
23626
23323
23632
23841
23480
23372
23677
23819
23569
23600
23744
23876
23512
23811
23975
23993
23596
24023
24276
24083
24013
24243
24479
24380
24363
24412
24511
24168
24330
24393
24479
24149
24479
24563
24330
24233
24518
24618
24223
24223
24610
24603
24130
24167
24315
24444
24011
24219
24579
24298
24130
24296
24437
24290
24015
24280
24357
24014
24084
24429
24282
23988
24120
24294
24156
23908
24214
24387
24076
23956
24214
24161
23965
24063
24208
24349
23899
24037
24216
24198
23917
24000
24182
23973
23869
24053
24173
23961
23635
24080
24102
23745
23942
24008
24009
23754
23788
23894
23923
23610
23891
23971
23755
23785
23929
23856
23723
23786
23915
23967
23599
23814
23915
23810
23657
23859
24035
23847
23628
23985
23979
23575
23692
23859
23838
23701
23838
23910
23816
23672
23811
23939
23745
23574
23772
23878
23589
23585
23835
23864
23565
23599
23826
23889
23674
23868
24019
23893
23542
23890
24039
23829
23712
24010
24197
23824
23904
24147
24181
23914
24060
24284
24255
23976
24323
24425
24401
24139
24604
24682
24374
24477
24671
24762
24486
24648
24665
24781
24481
24791
24843
24828
24426
24713
24776
24629
24629
24748
24810
24455
24659
24771
24600
24430
24562
24732
24650
24324
24591
24718
24465
24402
24625
24704
24388
24455
24566
24632
24277
24400
24620
24570
24216
24486
24498
24415
24323
24535
24645
24222
24337
24454
24500
24202
24358
24488
24405
24020
24393
24441
24282
24165
24358
24364
24149
24124
24379
24386
23983
24087
24329
24221
23875
24186
24167
24093
23781
24125
24237
24046
23938
24049
24247
23927
23988
24158
24181
23708
23975
24082
24068
23580
23951
24007
24053
23817
24073
24199
23779
23773
23979
24103
23858
23894
23990
23944
23706
23901
23872
23785
23603
23849
24038
23665
23686
24020
24029
23690
23775
23857
23921
23674
23882
23979
24017
23659
24017
24068
23860
23875
23986
24159
23887
24003
24171
24177
23767
24219
24170
24269
23920
24153
24395
24269
24079
24463
24622
24299
24411
24608
24584
24287
24642
24593
24669
24415
24622
24665
24661
24528
24584
24663
24430
24303
24482
24640
24316
24327
24617
24542
24208
24466
24526
24481
24194
24448
24446
24293
23980
24468
24526
24057
24264
24337
24456
24121
24280
24375
24301
24047
24215
24456
24121
23949
24287
24324
24080
24058
24190
24272
23878
24174
24320
24033
23777
24059
24040
24033
23645
24028
24003
23819
23712
24016
24020
23760
23830
23914
23984
23563
23782
23960
23833
23519
23777
23789
23707
23534
23864
23942
23591
23727
23641
23866
23492
23700
23841
23797
23337
23656
23818
23688
23500
23772
23787
23480
23540
23768
23811
23539
23614
23816
23670
23446
23722
23736
23597
23314
23560
23653
23470
23465
23613
23786
23316
23606
23595
23603
23481
23476
23647
23623
23393
23641
23793
23492
23312
23733
23911
23574
23553
23807
23908
23573
23683
23897
23857
23527
23878
23958
23856
23665
24005
24037
23826
24012
24170
24446
24064
24279
24396
24519
24263
24425
24609
24441
24235
24527
24629
24422
24447
24543
24573
24128
24389
24536
24520
24147
24375
24479
24493
24094
24466
24468
24317
24337
24280
24584
24145
24166
24351
24378
24042
24214
24323
24254
24059
24174
24189
24206
24069
24321
24355
23938
24038
24223
24260
24020
24127
24254
24186
23947
24143
24104
24134
23867
24031
24214
24003
23899
24023
24220
23833
23792
23995
24120
23786
23924
24132
23930
23585
23890
23964
23901
23666
23792
23980
23682
23695
23877
23893
23641
23586
23900
23988
23507
23788
23848
23847
23635
23799
23867
23631
23657
23910
23909
23552
23648
23925
23771
23602
23716
23862
23841
23389
23802
23917
23575
23557
23784
23750
23470
23587
23710
23866
23549
23684
23884
23770
23392
23681
23824
23725
23624
23761
23967
23704
23623
23766
23918
23728
23788
23818
23954
23813
23813
24079
23995
23792
23854
24125
23789
23963
24255
24275
24134
24229
24238
24431
24276
24378
24448
24508
24293
24563
24617
24524
24483
24597
24713
24482
24465
24743
24660
24437
24433
24490
24546
24389
24432
24561
24493
24300
24412
24558
24271
24381
24527
24581
24276
24434
24368
24372
24154
24265
24511
24248
24169
24411
24505
24243
24207
24393
24432
24200
24220
24409
24313
24065
24165
24364
24192
24008
24203
24484
24151
24084
24209
24348
24254
24282
24137
24254
24188
24052
24206
24154
23922
24068
24189
23975
23851
24113
24229
23948
23951
24168
24132
23732
23978
23848
24119
23864
23936
24072
23985
23781
23970
24127
23908
23778
24134
24128
23741
23856
24030
23992
23769
23886
23843
24083
23719
23940
24091
23929
23860
23904
24300
23818
23856
23995
24085
23644
23888
24022
23964
23681
23864
24006
23863
23661
23982
23989
23831
23882
23936
24146
23704
23904
24051
24071
23697
24015
24122
24070
23881
24006
24141
23888
24006
24199
24280
24072
24200
24214
24411
24127
24337
24577
24592
24343
24467
24675
24567
24478
24699
24805
24703
24363
24789
24842
24705
24760
24840
24839
24648
24714
24851
24779
24584
24747
24855
24524
24623
24774
24718
24484
24569
24741
24689
24470
24620
24749
24695
24408
24541
24887
24557
24498
24657
24732
24431
24499
24669
24711
24317
24443
24705
24571
24491
24511
24542
24486
24294
24685
24552
24361
24343
24614
24553
24345
24395
24533
24531
24132
24538
24514
24439
24108
24411
24620
24323
24268
24479
24488
24218
24311
24406
24391
24156
24341
24368
24304
24131
24334
24448
24232
24399
24250
24296
24157
24146
24385
24383
24152
24263
24327
24302
24132
24230
24462
24252
24295
24217
24376
24200
24134
24280
24311
23972
24191
24371
24391
24119
24144
24299
24209
24064
24233
24372
24113
24184
24336
24409
24297
24247
24424
24441
24148
24393
24630
24436
24162
24514
24598
24401
24347
24478
24572
24370
24433
24663
24730
24323
24599
24829
24757
24432
24731
24892
24790
24700
24968
25101
24839
24924
25061
25102
24941
25059
24992
25138
25026
25092
25222
25046
24962
25096
25121
24976
24971
25072
25196
24881
24903
25099
25134
24693
24964
25157
25085
24708
24950
25012
25106
24646
25107
25021
24852
24896
24938
25035
24705
24869
24903
24945
24711
24914
25048
24802
24528
24894
24950
24735
24683
24945
25077
24674
24741
24903
24845
24698
24708
24931
24860
24502
24735
24813
24514
24589
24718
24857
24226
24575
24683
24712
24427
24573
24717
24711
24314
24493
24681
24475
24339
24581
24659
24348
24420
24653
24535
24275
24430
24476
24522
24424
24412
24536
24547
24360
24460
24575
24386
24395
24384
24398
24139
24394
24602
24569
24242
24406
24519
24461
24083
24402
24448
24363
24215
24429
24483
24026
24283
24515
24483
24261
24396
24570
24431
24265
24396
24573
24432
24278
24570
24546
24285
24413
24515
24657
24410
24518
24653
24648
24293
24678
24904
24638
24521
24925
25056
24595
24707
25017
25057
24727
24931
25171
25127
24819
25121
25268
25124
24909
25085
25166
24840
24907
25063
25114
24759
24654
25079
25014
24656
24811
24930
24980
24650
24868
24965
24761
24653
24794
25068
24638
24714
24876
24829
24561
24729
24644
24672
24330
24656
24792
24606
24442
24707
24912
24574
24563
24754
24799
24355
24579
24751
24676
24234
24400
24753
24650
24146
24510
24697
24366
24262
24522
24519
24299
24401
24514
24561
24106
24403
24470
24417
24192
24478
24488
24356
24174
24401
24522
24134
24574
24398
24388
24072
24244
24373
24337
24057
24290
24554
24267
24038
24326
24410
24173
24233
24335
24366
24071
24214
24373
24353
24028
24171
24258
24189
23965
24271
24269
24072
24148
24245
24384
24007
24254
24267
24258
23960
24166
24313
24222
24039
24228
24318
24271
23984
24282
24504
24105
24286
24384
24462
24180
24164
24449
24370
24176
24326
24593
24308
24070
24397
24499
24325
24411
24612
24713
24378
24600
24798
24736
24523
24787
24866
24874
24532
24878
25005
24767
24862
24882
24976
24789
24889
25041
24979
24627
24873
24924
24913
24683
24954
24986
24790
24738
24939
24840
24661
24701
24960
24891
24574
24706
24943
24814
24529
24777
24774
24658
24644
24742
24875
24619
24585
24809
24868
24494
24576
24760
24903
24075
24619
24644
24707
24467
24763
24748
24477
24362
24683
24721
24370
24395
24670
24664
24307
24531
24680
24539
24162
24541
24661
24359
24302
24663
24507
24289
24290
24618
24522
24177
24411
24472
24466
24213
24437
24389
24449
24234
24391
24568
24251
24231
24414
24500
24096
24301
24408
24418
24157
24112
24494
24317
24020
24383
24616
24192
24205
24382
24502
24137
24246
24327
24531
24119
24295
24333
24359
24139
24418
24462
24241
24177
24380
24575
24322
24356
24390
24355
24217
24283
24381
24591
24131
24447
24456
24386
24215
24429
24725
24288
24372
24524
24625
24478
24408
24689
24825
24399
24724
24915
24767
24542
24878
25079
24734
24624
25047
25110
24806
24845
25101
25080
24797
24953
25046
25074
24704
25070
25112
24936
24702
25028
25135
24766
24853
24994
25100
24707
24811
25063
24829
24636
24877
24834
24848
24664
24795
25058
24737
24755
24910
24976
24702
24794
24882
24889
24480
24803
24834
24921
24625
24833
24995
24715
24656
24927
24907
24603
24728
24936
24821
24514
24725
24850
24732
24483
24678
25183
24622
24688
24893
24955
24411
24480
24695
24824
24464
24660
24565
24728
24436
24659
24753
24510
24404
24576
24606
24492
24385
24620
24642
24434
24444
24601
24718
24420
24578
24638
24614
24280
24541
24640
24464
24450
24647
24948
24393
24457
24543
24668
24331
24462
24480
24523
24220
24476
24529
24385
24370
24464
24610
24262
24404
24712
24645
24324
24437
24733
24707
24428
24576
24881
24720
24389
24651
24743
24503
24455
24763
24845
24507
24696
24709
24797
24466
24791
25053
24871
24582
24942
25052
24898
24792
25100
25215
24867
25032
25239
25321
24939
25159
25207
25244
24880
25184
25246
25151
24866
25169
25244
25065
25096
25193
25218
24926
25045
25161
25183
24816
25060
25295
25055
24754
25093
25077
24920
24834
25016
25122
24744
24979
25058
25079
24704
25038
25100
25124
24704
25039
25104
24954
24660
24977
25088
24668
24915
25021
24949
24755
24812
24988
25030
24693
24816
24986
24796
24591
24873
24910
24651
24747
24806
24940
24560
24716
24922
24759
24427
24681
24776
24736
24417
24653
24810
24455
24518
24683
24753
24414
24565
24773
24738
24435
24537
24624
24627
24386
24612
24904
24522
24558
24689
24708
24413
24498
24655
24667
24358
24591
24520
24651
24362
24551
24785
24562
24147
24580
24632
24366
24394
24682
24708
24398
24361
24682
24662
24331
24562
24516
24639
24330
24724
24744
24531
24480
24681
24729
24471
24603
24669
24675
24344
24659
24630
24708
24531
24677
24922
24658
24667
24944
24882
24727
24750
25012
25058
24767
24968
25155
25020
24905
25069
25315
25046
24950
25141
25192
24912
25038
25013
25263
24851
24911
25107
25015
24842
24840
25095
24901
24726
24957
24981
24704
24628
24854
24912
24652
24759
24928
24892
24566
24669
24785
25036
24337
24812
24845
24662
24413
24798
25016
24575
24623
24681
24715
24335
24559
24548
24684
24395
24516
24557
24526
24359
24523
24653
24319
24308
24521
24591
24311
24360
24529
24531
24295
24406
24436
24468
24298
24342
24514
24263
24061
24396
24357
24182
24150
24447
24437
24000
24088
24331
24198
24144
24205
24259
24098
23985
24197
24423
24015
24143
24234
24236
24019
24128
24267
24283
24072
24001
24126
24164
23878
24072
24189
24042
23951
24179
24216
23936
23988
24146
24183
23923
23995
24028
24099
23844
24138
24209
24062
23920
24184
24342
23950
23961
24224
24279
23848
24129
24362
24237
23960
24244
24253
24211
24002
24386
24454
24138
24195
24416
24570
24257
24470
24579
24534
24253
24545
24803
24545
24334
24837
24968
24250
24548
24763
24808
24589
24598
24735
24683
24454
24548
24676
24622
24265
24530
24824
24562
24344
24663
24770
24280
24464
24543
24520
24251
24434
24639
24508
24102
24351
24478
24453
24215
24360
24684
23990
24243
24493
24513
24161
24301
24489
24369
24207
24256
24410
24302
24008
24332
24455
24183
24021
24225
24474
23970
24125
24192
24236
23853
24093
24445
24187
23998
24135
24189
24018
23910
24199
24207
23886
23981
24090
24301
23827
23969
24074
24181
23820
24018
24155
23965
23696
24126
24050
23764
23917
24009
24054
23634
23883
23978
24048
23758
23956
24014
23958
23751
24044
24118
23743
23778
24028
24222
23758
23823
23971
24060
23737
23842
23988
23905
23632
23868
24065
23805
23717
23996
24148
23757
23779
24091
24003
23736
23932
23995
24057
23775
24027
24182
23923
23768
24095
24252
23902
23971
24168
24270
24030
24190
24392
24417
24187
24354
24527
24396
24303
24573
24630
24455
24401
24771
24673
24457
24499
24648
24711
24325
24458
24687
24640
24302
24564
24628
24465
24447
24554
24710
24358
24303
24627
24631
24265
24342
24631
24405
24202
24332
24510
24435
24145
24496
24521
24261
24289
24420
24455
24080
24276
24361
24406
24202
24248
24405
24328
24038
24302
24457
24138
24144
24332
24340
23981
24186
24175
24240
23866
24115
24246
24088
23938
24154
24220
24015
23919
24157
24245
23805
23849
24008
24174
23876
24004
24038
24060
23840
23953
24108
23900
23657
24054
24037
23860
23822
23975
24079
23837
23880
24013
23995
23698
23857
24109
24000
23640
23844
24047
23794
23749
23958
23968
23745
23775
23912
23939
23558
23729
23975
23841
23687
23867
24085
23823
23630
23852
23998
23724
23790
23815
24030
23715
23844
24016
23986
23726
23889
24055
23848
23755
24070
24089
23876
23882
24084
24193
23813
23978
24100
24207
23994
24100
24350
24284
24012
24370
24565
24290
24206
24478
24489
24382
24460
24714
24672
24310
24515
24616
24607
24209
24500
24693
24561
24331
24531
24797
24337
24312
24483
24585
24236
24331
24599
24591
24310
24377
24497
24331
24180
24350
24688
24150
24199
24444
24494
24098
24223
24380
24458
24152
24313
24404
24368
24132
24366
24424
24298
24100
24244
24472
24087
24230
24365
24409
23942
24093
24283
24298
24198
24186
24317
24177
23955
24083
24245
23964
24074
24193
24250
23826
24007
24164
24085
23768
23973
24024
24136
23703
23936
24101
23814
23813
23974
24098
23594
23819
23947
24030
23818
23942
24132
24017
23699
23930
24051
23944
23648
23999
24098
23769
23801
24029
24021
23617
23760
23911
24007
23632
23839
24017
23885
23576
23805
23983
23769
23691
23934
24096
23704
23779
23979
23990
23663
23928
24085
24014
23714
24026
24175
23853
23954
24054
24211
23796
24056
24136
24309
23937
24139
24320
24322
24056
24269
24461
24375
24151
24497
24581
24426
24306
24587
24665
24332
24518
24511
24720
24232
24494
24601
24530
24233
24507
24629
24288
24286
24512
24565
24302
24286
24456
24503
24107
24341
24303
24383
24037
24397
24360
24294
24040
24321
24406
24104
24255
24326
24363
24014
24185
24226
24245
23906
24165
24441
24172
23933
24217
24243
23883
24105
24142
24245
23866
24088
24141
24175
23668
24046
24042
23957
23677
23987
24022
23836
23678
24008
24093
23662
23805
23985
23952
23612
23837
23892
23843
23569
23825
23896
23687
23531
23724
23887
23522
23614
23698
23803
23383
23530
23814
23787
23416
23641
23703
23650
23485
23695
23784
23660
23481
23679
23645
23471
23488
23650
23602
23349
23467
23657
23558
23197
23453
23624
23429
23308
23551
23474
23259
23650
23592
23622
23223
23432
23724
23666
23339
23551
23788
23500
23388
23645
23703
23460
23491
23743
23826
23363
23685
23719
23685
23517
23818
23941
23813
23765
23980
24280
23870
23886
24142
24329
24036
24200
24377
24230
24045
24172
24312
24154
23958
24143
24248
24027
23963
24173
24072
23779
23922
24125
24079
23644
23952
24034
24016
23647
23891
24143
23821
23752
23909
23937
23693
23869
24017
23937
23701
23765
23891
23950
23625
23808
24009
23796
23501
23784
23881
23565
23558
23794
23852
23443
23645
23917
23804
23412
23595
23791
23608
23440
23625
23735
23586
23514
23650
23638
23417
23349
23545
23578
23327
23401
23556
23483
23163
23461
23603
23337
23169
23442
23625
23025
23220
23311
23373
23074
23250
23234
23328
22974
23337
23353
23286
23036
23254
23376
23170
23034
23227
23256
23060
23090
23200
23269
22980
23122
23137
23185
22861
23113
23131
23019
22911
23161
23188
22971
22952
23240
23234
22959
23075
23143
23252
22789
23121
23192
23161
22939
23217
23330
23083
23205
23449
23286
23151
23234
23398
23352
23186
23359
23511
23401
23365
23520
23710
23454
23530
23676
23940
23613
23769
23893
23908
23810
23877
24027
24000
23638
24043
24052
23913
23759
24094
24100
23780
23720
24127
24058
23681
23844
24045
23961
23504
23843
24003
23738
23568
23815
24033
23550
23678
23909
23945
23634
23727
23812
23738
23571
23744
23864
23763
23519
23835
23914
23514
23710
23645
23805
23481
23593
23786
23755
23235
23619
23692
23668
23256
23574
23678
23492
23378
23614
23674
23321
23239
23630
23552
23255
23457
23525
23470
23208
23355
23710
23330
23107
23387
23328
23046
23129
23379
23501
23187
23371
23456
23357
23178
23244
23482
23378
23036
23384
23368
23239
23080
23368
23424
23068
23181
23371
23290
23006
23159
23265
23211
22873
23173
23388
23130
22959
23251
23222
22960
23072
23212
23285
23084
23133
23300
23330
23141
23165
23254
23327
22955
23249
23300
23044
23140
23367
23288
23066
23273
23554
23483
23133
23457
23578
23521
23227
23572
23710
23532
23526
23665
23969
23555
23777
23970
24118
23768
24048
24108
24205
23944
24066
24288
24044
24029
24227
24377
23899
24118
24059
24301
23893
24009
24153
24105
23787
24045
24110
23825
23662
24144
24202
23815
23848
24001
24017
23668
23834
24065
23992
23682
23879
24119
23959
23590
23908
24012
23820
23684
23966
23989
23665
23819
23978
24000
23679
23769
23952
23866
23626
23857
23884
23770
23706
23849
23776
23633
23583
23750
23813
23467
23712
23764
23717
23504
23683
23685
23595
23358
23602
23644
23429
23501
23578
23710
23446
23510
23598
23713
23345
23590
23540
23600
23347
23497
23601
23594
23353
23580
23618
23334
23403
23489
23569
23308
23410
23440
23514
23174
23430
23578
23293
23228
23502
23503
23307
23335
23543
23545
23296
23344
23520
23556
23346
23565
23578
23485
23297
23610
23667
23511
23349
23670
23769
23343
23579
23705
23893
23554
23701
23879
23806
23571
23816
23978
23943
23885
24081
24156
23927
24081
24262
24293
24033
24267
24357
24369
24193
24348
24440
24323
24122
24238
24568
24168
24120
24432
24369
24195
24192
24281
24292
24026
24222
24390
24230
23964
24156
24330
23991
23945
24132
24283
23966
24076
24226
24196
23898
24164
24287
24129
23879
24094
24229
23882
24097
24211
24221
23987
23840
24073
24181
23808
23949
24084
24072
23703
24041
24081
23956
23650
23957
24074
23766
23885
23904
24006
23680
23787
23982
23857
23621
23741
23919
23918
23643
23937
23942
23765
23649
23885
23988
23589
23589
23860
23868
23538
23702
23724
23826
23607
23742
23797
23664
23596
23939
23833
23609
23611
23760
23796
23524
23588
23770
23782
23388
23653
23805
23650
23379
23692
23763
23547
23569
23742
23754
23375
23645
23757
23757
23423
23653
23880
23746
23456
23728
23818
23746
23548
23844
23967
23630
23693
23809
23932
23655
23758
24007
23996
23814
23998
24244
24112
23931
24151
24337
24146
24237
24424
24505
24259
24376
24496
24485
24335
24413
24661
24601
24296
24484
24612
24164
24250
24474
24559
24266
24323
24505
24394
24150
24227
24400
24343
24064
24253
24451
24386
24124
24192
24433
24128
24145
24239
24568
23902
24184
24268
24348
23871
24144
24203
24123
23955
24243
24308
24051
24025
24091
24217
23951
24013
24144
24132
23846
23967
24083
24028
23830
24018
23978
23810
23757
24032
24040
23696
23819
23995
23910
23624
23760
23894
23892
23667
23850
23959
23730
23658
23799
23802
23541
23606
23705
23820
23449
23580
23687
23712
23307
23684
23801
23640
23320
23632
23770
23512
23552
23768
23745
23483
23597
23757
23719
23460
23681
23810
23489
23453
23628
23752
23449
23476
23566
23688
23368
23416
23662
23675
23338
23487
23614
23611
23459
23567
23691
23548
23392
23802
23837
23487
23527
23772
23724
23488
23676
23815
23902
23587
23778
23930
23667
23594
23838
24141
23902
23975
24114
24151
23974
24144
24308
24323
23891
24302
24512
24441
24168
24400
24465
24428
24317
24571
24556
24189
24490
24509
24515
24258
24382
24397
24395
24027
24304
24541
24391
24036
24347
24509
24084
24171
24390
24376
24090
24149
24253
24233
23952
24142
24169
24107
24032
24071
24218
24023
23918
24019
24061
23792
23911
24030
24365
23659
23933
23914
23842
23718
23914
23746
23701
23629
23816
23951
23554
23731
23800
23846
23514
23596
23787
23776
23507
23622
23801
23620
23463
23734
23781
23528
23460
23680
23759
23535
23587
23605
23604
23472
23650
23625
23637
23480
23586
23640
23419
23446
23631
23746
23451
23484
23699
23680
23479
23523
23765
23605
23303
23560
23741
23563
23344
23530
23722
23439
23503
23687
23574
23412
23482
23501
23607
23189
23500
23511
23628
23301
23580
23802
23395
23452
23687
23738
23375
23632
23841
23731
23453
23640
23638
23736
23549
23951
23861
23669
23694
23903
24053
23690
23913
24069
24122
23762
24000
24363
24208
24384
24206
24644
24226
24188
24437
24702
24269
24244
24425
24618
24254
24225
24393
24541
24133
24430
24458
24483
24210
24474
24409
24279
24296
24364
24455
24176
24264
24408
