32689
34371
35723
33892
33146
35466
36249
34315
33894
35403
35106
33400
33896
35410
34479
32842
33953
36021
35647
34360
34836
35042
33503
33246
34939
35082
33630
34138
36086
35804
34230
34684
35749
34830
33921
34973
35478
33864
33368
35317
35948
34234
33920
35280
34915
33690
34565
35064
32762
31774
34191
35299
33304
32369
33850
34184
32774
32910
34106
33202
31808
32898
34400
33549
32443
33308
33757
32565
32745
34185
33366
31433
32220
34142
33263
31393
32306
33672
32422
31627
33614
34738
33072
32414
34249
34604
32826
33021
34889
34523
33125
34095
35403
34147
33192
34738
35071
32666
31948
34185
35014
33573
33685
34995
34231
33262
34857
35825
33495
31626
33354
35206
34249
33607
35036
35163
33451
33696
35610
34834
32402
33122
35246
34428
33254
34774
35771
34258
33696
35271
35356
33621
33951
35494
34475
32856
34130
35756
34680
33683
35059
35309
33034
32575
34719
34957
33184
33725
36039
35926
34301
34627
35512
34556
33841
35057
35542
33889
33394
35237
35673
33971
33972
35454
34689
33153
34390
35562
33803
32972
34707
34848
33071
33172
34528
33715
32316
33634
34894
32929
31615
33677
34927
33083
31875
33021
33407
32311
32719
34158
33518
31936
32538
33898
33015
31781
32980
33823
32183
31692
33528
33505
31346
31775
34593
34523
32119
32440
33970
32673
31825
34197
34730
31770
31540
34633
34751
32170
32337
34330
33837
32341
33462
34872
33284
32088
34423
36029
33826
32282
34133
34913
33116
33307
35193
34413
32922
34227
35255
33202
31775
33652
35070
33712
33197
34733
34896
33708
34508
36131
34840
32660
33903
35915
34552
32912
34426
35836
34613
34024
35464
35129
32763
32865
35034
34828
33300
34305
35914
34626
33179
34614
35672
33976
33026
34567
35140
33627
33570
35240
34973
33422
34168
35546
34232
32900
34643
35716
33514
32507
34386
34740
33153
33391
34562
33124
31175
32601
34474
32994
31811
33974
35403
33515
32107
33189
33399
31867
31988
33252
32389
31130
32574
34289
33297
32241
33531
33897
31950
31826
33873
33506
31372
32116
34412
33808
32069
32921
34248
33264
32382
33568
34193
32937
32918
34767
34792
32914
33034
34681
34179
32701
33562
34602
33247
32638
34350
34975
33804
33476
34192
34116
33235
33105
33762
33636
32951
33521
34706
34127
32924
33624
34291
33252
33633
35729
35436
33241
33598
35582
34511
31915
32786
34889
34086
33452
35066
34739
32314
32824
35456
35118
33079
33710
35410
34728
33500
34474
35531
34237
33434
35280
35992
33738
32925
34704
34679
33007
33908
35534
34145
33116
35357
36380
33735
32062
33773
34772
33366
33385
35141
34575
32593
33398
35367
34119
31730
32450
33619
32067
31649
34133
34824
32681
32053
33368
33004
31305
31552
32690
31967
31148
32605
34083
33228
32395
33529
33801
32164
32062
33626
33321
31994
33039
34688
33545
32247
33892
34812
32373
31278
33700
34475
32198
32321
35236
35503
33444
33690
35114
34092
32679
33891
34745
32992
32477
34409
34567
32863
33373
35418
34990
33172
33783
35075
33583
32030
33590
35368
34605
33830
34815
34772
33010
33066
34785
34424
32834
33708
35719
35122
33473
34212
35160
33855
33447
35334
35455
33043
32788
35334
35754
33711
33653
34893
33794
32628
34505
35915
34047
33065
35075
35621
33400
32867
34744
35039
33618
33982
35218
34193
32945
34204
35115
33523
32832
34527
34577
32630
33320
35445
34154
31868
32781
34077
32632
31406
32726
33484
32047
31793
33447
33269
31186
31446
33803
33485
31228
32050
34125
32883
31257
32721
33522
31436
30817
33116
33658
31532
31199
33068
33296
32036
32445
33624
32805
31895
33274
33998
32144
31491
33581
34289
32505
32541
34706
34498
32415
32804
34259
32880
31242
33082
34767
33113
32462
34829
35504
33522
33183
34491
33579
31792
33195
35256
33970
32603
34121
34984
33423
32998
34502
34301
32562
33173
34919
34054
32641
33785
34820
33411
32708
34344
34569
32541
32607
35056
35151
32679
32456
34824
35149
33483
33906
35224
33988
32668
33978
34608
32860
32703
34797
35210
33976
33934
34257
33321
32914
34540
35542
33834
32465
33880
35125
34041
33231
34056
33746
32044
32392
34154
33558
31821
32258
33422
32687
31773
32686
33102
31675
31469
33005
32915
31448
32103
34052
33339
30891
30846
32254
32031
31675
32776
32903
31443
31521
33204
32832
30852
31147
32903
32607
31590
32855
34375
33234
32074
33514
34367
32461
31372
33024
34057
32951
32799
34098
33606
32042
33047
34795
33326
31299
32674
34179
32959
32848
34786
34591
32910
33489
34652
33085
31283
32705
34504
33468
32620
34105
34853
33805
33861
34964
34024
32051
32631
34071
33048
32053
33935
35373
33475
31986
33861
35051
33191
32534
34405
34625
33072
33680
35539
34863
33252
33909
34736
33481
32836
34388
34953
33206
32905
35055
35354
33149
32878
34573
34164
32732
33993
35449
33887
32797
34454
35183
33828
33529
34342
33410
31831
32775
34270
33036
31583
32539
33366
32428
32235
33339
32785
31100
32016
33982
32888
30881
31855
33542
32713
31714
32816
33034
31274
31434
33655
33264
30609
30906
33851
34027
31648
31462
32771
32127
31412
32901
33456
31599
31457
33800
34115
32152
32054
33706
33774
32761
33425
34467
33304
32229
33791
34830
32900
31802
33793
34589
32831
32960
34624
33693
32285
33802
35275
33890
32476
33310
34085
33582
33967
34833
33746
32379
33631
35203
33741
31769
32896
34431
33355
32673
34357
34867
32971
32723
34906
34828
31929
31195
33413
34343
33273
33398
34691
34320
33526
34998
35957
33742
32337
34229
35091
33196
32844
34403
33817
32188
33267
34883
33600
32149
33714
35071
33541
32785
34567
34949
33284
33587
35329
34085
31778
33216
34876
32466
31028
33498
34520
32654
32176
33046
32327
31279
32309
33522
32408
30839
31973
34145
33281
31249
32414
33689
31636
30977
33437
33354
31014
32011
34298
32812
30781
32481
34255
32643
31229
32774
33827
32138
31368
33229
33969
32641
32722
33987
33149
31602
32827
34573
33530
32546
34129
34868
33022
32149
33549
33815
32539
33110
34605
33599
32180
33449
34745
33439
32637
34409
34907
32879
32925
34972
34193
31977
33087
35285
33900
31590
32946
35119
34319
33451
34726
34829
32966
33136
35276
34575
31810
32342
34917
34598
33162
34047
34530
32948
33209
35361
34638
31978
32352
34523
33984
32185
33216
35058
33921
32251
33119
33988
32931
32468
33775
34285
33349
33585
34848
34273
32871
33791
35166
33315
31160
32805
34217
31934
31044
33353
33599
31772
32420
33958
32480
30622
32096
33733
32218
30885
32432
33420
31769
31174
33032
32955
30428
30494
32820
32344
30360
31639
34025
32894
30939
32162
33347
31568
30725
32639
33017
31351
32241
34690
34038
32242
33186
34276
32728
31690
33424
34228
32168
31569
34010
34853
32787
31883
33065
33094
32101
33079
34570
33284
31684
33312
35235
33699
32041
33811
34938
32904
32616
34718
34059
31825
32828
34963
34255
32905
33694
34193
32840
32547
34216
34461
32487
32170
34465
35035
33058
32824
34535
34433
33152
33629
34313
32997
32455
34448
35215
33222
32496
33997
33991
32713
33805
35425
33805
31976
33633
35346
33789
32149
33291
34387
33643
33786
34920
34061
32557
33495
34765
33257
31571
32832
34036
32622
32005
33398
33101
31240
31809
33785
32730
30193
30960
32987
32085
30921
32472
33316
31433
30825
32798
32719
30074
29951
32137
31877
30348
31442
32921
31781
31125
32709
32576
30097
30072
32681
32929
30939
31482
33673
33225
31848
32904
33838
32127
30938
32439
33171
31602
31466
33304
33449
32433
33250
34254
32745
31184
32455
33710
32239
31498
33853
35282
33259
31854
33414
33785
31663
31692
33762
33268
31644
32960
34809
33600
32249
33777
34620
32590
31908
33950
34355
32617
32771
34476
34176
33014
33835
34814
33703
32579
33246
33691
32614
32499
34233
34721
33299
32986
33754
33126
32502
34135
35058
33188
32532
34595
34942
32811
32509
34224
33900
32285
33340
35006
33503
32066
33807
34856
32722
31526
33374
34103
32325
32198
33697
32747
30732
31693
33633
32703
30921
31522
32319
31301
31162
32671
32460
30500
30800
33015
32483
30112
30967
33368
32346
30268
31246
32399
31122
30948
32797
32624
30611
30766
32556
32571
31429
32033
33285
32500
31543
32902
33828
31986
30751
32453
33438
32046
32081
33860
33565
32191
33168
34571
33127
31308
32481
33961
32828
32032
33377
33784
32481
32483
33671
32977
31391
32430
34526
34121
32852
33526
34130
32616
32079
34355
34912
32014
31097
33632
34388
32752
33246
35255
34563
32738
33424
34247
32495
31587
33657
34653
32834
32435
34346
34427
32822
33276
34628
33464
31706
32804
34348
33226
32377
34195
35296
33814
32879
33863
34087
33190
33653
34415
33170
32375
34013
34943
33354
32416
33503
33374
31704
32175
33694
32440
30735
32184
33845
32538
31378
32835
33321
31382
31234
33400
33211
30728
30731
32878
32656
30956
31647
32982
31851
30914
32653
33609
31540
30594
32801
33726
31788
31258
32854
32725
31378
32304
33505
32089
31357
33349
34185
32531
31809
32906
33175
32405
32977
34172
33245
31695
32730
34425
33151
31452
33065
34504
32793
32340
34400
34329
32576
33246
34707
33564
31995
32887
33947
33082
32658
34011
34557
33339
33161
34570
34197
32172
32428
34291
33910
32554
33542
34958
33923
32934
34183
34666
32960
32416
34021
34550
33400
33684
35197
34625
33107
34028
35034
32782
31052
33535
35455
33258
31968
33927
34327
32529
32999
34969
33859
31388
32481
34761
33501
31766
33547
35452
34153
32896
33846
33405
31003
31320
33627
32951
30990
32137
33997
32881
31464
32367
32230
30040
30408
33054
32610
30340
31441
33754
32597
30848
32236
33249
31382
30875
33102
33137
30521
30712
33359
33297
31568
32175
33399
32432
31471
32851
33875
32171
30945
32732
34277
33203
32290
33212
33400
32408
33057
34363
33215
31653
32656
34119
33615
32944
33686
33835
32551
32395
33712
33840
32775
33046
34365
34248
33364
33830
33879
32342
32572
34901
34683
31930
31923
34746
35085
32876
32782
34403
33997
32777
33740
34870
33558
32574
34097
34843
33006
31955
33325
34311
33611
33408
33986
33435
32834
34152
35177
33696
32343
33398
34100
32946
33027
34510
33907
32294
33335
35188
33869
31586
32576
34388
33301
32166
33413
33875
32327
32206
33861
33347
30884
30958
32929
32800
31728
32464
33184
32206
31723
32520
32086
30594
30826
31950
31330
30391
31579
32817
31442
30257
31956
32870
30707
30048
32408
32561
29998
30474
33532
33507
31603
32486
33855
31938
30133
31940
33252
31246
30774
33639
34391
31901
31297
33072
32646
30662
31649
33811
32800
31345
32977
34407
32852
31786
33248
33476
31413
31336
33141
32654
31163
32353
34149
33383
32260
33164
33658
32368
32067
33346
33243
31745
32158
34189
33950
32039
32365
33578
32472
31713
33528
34020
31911
31819
33961
33771
31937
32282
33523
32871
32103
33397
34196
32460
31607
33614
34369
32032
31106
33235
33775
32052
32699
34634
33429
31723
33156
34451
32860
31632
32890
33671
32520
32276
33500
33385
32038
32267
33443
32626
31076
31867
32821
31346
30521
32024
32232
30519
30714
32449
31578
29220
29783
32051
31925
30432
30914
32173
31386
30523
31930
32399
29911
28727
30665
31434
30081
30650
32496
31656
30163
31679
33047
30891
29155
31293
33065
31602
31206
33268
33424
31712
32194
33900
32923
30692
31122
32702
32256
31696
32849
33166
31761
31687
33239
32954
31248
32038
33911
32844
30996
32137
33823
32827
31799
33211
33721
31768
31453
33482
33500
31616
32063
34042
33502
31881
32660
33722
32426
31567
32984
33398
31703
31779
33888
33601
31562
32531
34779
33257
30652
32165
34370
32839
31605
33618
34661
33144
32631
33638
33230
31950
32653
33816
32594
31397
32832
34200
33285
32663
33794
33797
31973
31903
33731
33509
31456
31830
34259
34090
31841
32068
33406
32222
31115
32473
32635
30287
29955
32492
32829
30400
29997
31401
30811
29943
31539
32142
29543
28611
31383
32599
30457
29606
30985
30850
29834
31389
33051
31260
29683
31628
33018
31133
29929
31629
32511
31200
31377
33153
32737
31232
32345
34204
32986
30837
31591
33080
32355
31973
33340
33330
31697
32032
33855
33064
30650
31164
33164
32675
31771
33183
34032
32551
32137
33764
33481
31164
31316
33562
33573
32221
32987
34165
33006
32139
33571
33957
31927
31193
32745
33060
31691
32038
33671
33330
32269
33156
33861
32149
30621
31863
33501
32835
32092
33527
34269
32474
31847
33614
33244
31085
32397
34800
33146
31433
33523
34774
32853
32353
34268
33975
31597
32058
34176
33145
31091
32358
34298
33185
31704
32611
32967
31309
31191
33089
32858
30410
30165
32258
32432
30807
30903
31721
30583
29601
30779
31323
30015
30192
32101
32083
30510
30639
31575
30854
30022
31144
31871
30403
30000
32195
33041
31116
30388
32033
32310
31046
32015
33962
32962
31245
32242
33314
31816
30836
32368
32765
31005
31491
33849
33068
30479
31249
33677
32815
30524
31429
33414
32635
31444
32553
33346
32135
31780
33169
33080
31417
31657
33324
33209
32265
32930
33646
32753
32413
33343
33068
31726
31838
33095
33353
32696
32950
33750
33098
32167
33464
34718
32699
30458
31967
34052
32985
31764
32842
33352
32500
33275
34875
33441
31057
32351
34211
32644
31848
34001
34374
32541
32907
34464
33184
31000
31929
33634
32555
31400
33136
34537
32752
31177
32355
32629
30467
30083
32066
32063
30355
31098
33065
31972
29804
30670
31866
30019
28773
30739
31627
29648
29546
32012
31992
29713
30033
31709
30285
28168
29748
31698
30176
29105
31097
32031
30584
30452
31828
31282
29746
30823
32615
31554
30340
31972
33311
31911
31089
32658
32968
31125
31196
32778
31976
30572
31930
33217
31565
30496
32548
33637
31766
31223
33053
32969
31042
31638
33895
33303
31171
31609
32999
32259
31624
33167
33804
31931
31396
33403
33681
31470
31015
32700
32868
31765
32520
33802
32744
31692
33121
33935
32127
31173
32688
33034
31572
32225
34182
33197
31319
32785
34845
33185
30884
32144
33667
32484
32476
34453
33979
31933
32628
34263
33083
31244
31982
33099
32223
31686
33088
33806
32544
31990
32999
32561
30614
30685
32352
32125
30770
31286
32388
31332
29996
30826
31514
30287
29796
30898
30690
29268
29908
31583
30891
29604
30666
31470
29614
28516
30510
31598
29624
28885
30964
31712
30523
31083
32684
31425
29233
30489
32454
31250
30489
32669
33345
30917
30127
32036
32051
30245
31141
32778
30980
29626
32287
34031
31986
30841
32370
32520
30927
31350
33285
33047
31314
31722
33624
33421
31987
32394
33068
31789
31149
32851
33625
31957
31594
33646
33976
32038
32016
33459
32493
31141
33086
34553
32220
31045
33503
34399
32335
31987
33801
33583
31967
33065
34924
33233
30957
32385
34519
33537
32056
32938
33470
32059
32125
34062
33911
31967
32247
34094
33609
31773
32273
33610
32861
32163
33384
33746
32148
31643
32744
32256
30482
30861
32617
32425
31139
31363
31983
31207
30879
32030
32026
30470
30490
32021
31782
30174
30677
32373
31521
29595
30393
31851
30450
29002
30806
32311
30869
30359
32000
31907
30363
30938
32453
31611
30065
30938
32265
31554
31320
32952
33265
31553
31406
33018
32454
30313
31111
33366
32519
30784
32307
34361
33159
31635
33007
33813
31771
31046
33029
33442
31801
31934
33477
33287
32531
33234
33203
31367
30923
32565
32711
31053
31549
33937
33996
32321
32617
33710
32626
31323
32560
33717
32386
31720
33420
34047
32597
32263
33418
33173
32090
33027
34263
32928
31720
33134
34123
32802
32468
34342
34467
32126
31947
34079
33923
31960
32423
34331
33778
32157
32960
34029
32618
31685
33104
33435
31597
31299
33131
33289
31714
31795
32716
31775
30858
32076
32609
30704
30058
32028
32154
29542
29151
31444
31755
30591
31838
33075
31050
29693
31393
31768
29650
29466
31888
32608
30992
30990
32717
32317
30452
31104
33103
32274
30325
31256
32460
30968
30505
32465
32794
31574
32312
33494
31998
30423
31962
33453
32250
31820
33444
33163
31099
31812
34397
33885
31413
31644
33439
32972
31496
32098
33237
32239
31379
32967
33742
31619
30514
32408
33496
32235
32239
34073
34000
32311
32635
33868
32801
31475
32722
33520
31866
31591
33480
33590
32454
33365
34606
33104
31240
32326
33849
32772
31913
33492
34227
32336
31386
32987
33580
32212
32502
34206
33662
32082
33102
34830
33500
31615
32954
34112
32075
31318
33682
33985
31518
31609
34143
34004
31855
31875
32637
31230
30347
32205
33054
30859
30091
32511
33354
31350
31056
32782
32278
30399
31142
32405
30897
29816
31377
32015
30639
30439
31697
31563
30305
30699
31906
31190
30099
31254
32660
31761
30935
32384
32915
31018
30867
33090
33219
31340
31547
33158
32536
31072
32024
32998
31645
31436
33368
33038
30626
30983
33292
32896
31173
32038
33449
32234
31018
32541
33797
32170
31112
32988
33955
32189
31676
33261
33039
31475
32427
33977
32636
31510
33291
34198
32289
31352
33016
33817
32663
32733
34010
33398
32122
33111
34440
33171
31427
32258
33720
33227
32740
33774
33943
32479
32523
34468
34216
31730
31732
33559
33049
31922
33165
33939
32193
31680
33834
34013
31445
31383
33836
33553
31430
32294
34311
32995
30966
32041
32915
30826
29950
32080
32441
30212
30518
32960
32352
29985
30461
31947
30788
29248
30438
31641
30218
29456
31381
32199
30413
29823
31338
31231
29658
30385
31886
30675
29618
31486
32761
31330
30710
32265
32380
30509
30507
31953
31240
29980
31675
33810
32593
30780
31982
32994
31241
30774
33008
33244
30996
31121
33359
32906
30893
31842
33682
32238
30296
31626
33174
31894
31283
33336
33868
31691
31310
33190
32950
31002
31614
33373
32430
31176
32673
33796
32217
31275
32798
33369
31917
31976
33436
32724
31190
32263
34005
33056
31401
32061
32959
32114
32159
33567
33154
31444
31798
33417
33280
32335
32896
33255
32013
31821
33330
33276
31629
32017
33920
33159
30699
31009
32909
32496
31454
32745
33717
31771
30407
32015
32781
30905
30260
31794
31745
30180
30815
32398
31323
29785
30900
31785
29908
28495
29860
30840
29834
29832
31003
30487
29687
31140
32083
29738
27704
29350
31019
29781
29503
31733
32211
30416
30664
32745
32308
30033
30304
32057
31358
29844
31197
33336
32478
30939
32085
32652
30248
29490
32015
32782
31054
31519
33752
33158
31025
31557
32836
31691
30966
32647
32981
31044
31198
33220
32786
31247
32347
33650
31915
30358
32087
33343
31528
30971
33347
34010
32014
31510
32944
32818
31329
31747
33271
32754
31586
32576
33895
32977
32041
33143
33349
31671
32000
33775
32460
29914
31074
33699
32916
30887
31891
33385
32078
31166
33001
33938
32306
31795
33407
33374
31553
31705
33122
32524
31532
32646
33332
31714
31083
32644
32775
31147
31403
32717
31490
29815
31260
32455
30365
29356
31450
32003
30083
29826
31378
31121
29579
30168
31644
30728
29459
30802
32068
30418
29133
31042
32370
30755
30247
31882
31624
29921
30826
32895
31903
29605
30223
31934
31346
30623
32110
32889
31099
30394
32493
32984
30362
29361
31252
31914
30904
31668
33455
32732
31169
32130
33004
31044
30053
32272
33293
31533
31458
33461
33301
31829
32706
33771
31881
30454
32460
33526
31418
31180
33645
33606
31529
31922
33457
32346
30511
31483
32976
31784
30756
32682
34321
32867
31294
32040
32414
31273
31701
33269
32636
31341
32487
33947
32961
31604
32036
32369
31618
31790
32824
32339
30952
31696
33797
33313
31268
32012
33670
32199
30746
32423
32987
30607
30209
32324
32356
30898
31387
32106
30598
29443
30928
31880
29911
28737
30769
32013
30226
29107
30190
30019
28693
29935
31649
29689
27583
29396
31350
29938
28666
30253
31254
29855
29771
31753
31670
29324
29153
31323
31538
30044
30685
31928
30740
30037
31792
32183
30312
30354
32335
32009
30147
30775
32458
31648
30350
31522
32577
31048
30265
32213
32929
30862
30228
32135
32631
31247
31451
32550
31695
30908
32400
33155
31364
30310
31688
32317
30991
30977
32668
32702
31493
32062
33187
31910
30191
31283
32825
31762
30844
32346
33200
31791
31496
33330
33361
31332
31654
33395
32405
30947
32441
33638
31808
30620
32230
32844
31090
30792
32640
32893
31314
31482
33198
32847
31358
32190
33324
31661
30294
31778
32401
30448
30104
32042
31964
30212
30741
32026
30382
28440
29984
31578
29758
28512
30440
31422
29779
29019
29953
29694
28509
29247
30546
29308
27798
29289
31081
29723
28139
29572
30692
29264
29147
30748
29996
28236
29497
31501
30526
29212
30659
31600
29885
29421
31155
30886
29074
30138
32619
32029
30198
30908
32040
30917
30171
31602
32021
30163
29971
32379
32899
30698
30033
31439
31483
30442
31158
32221
31248
30635
32098
32528
30905
30711
32443
32343
30767
31573
33020
31523
30260
32121
33293
31525
30455
31857
32588
31610
31797
32996
32354
30982
31893
33493
32537
30626
31057
32449
32173
31542
32441
33250
32300
31867
33335
32958
30046
29930
32504
32105
30126
31489
33356
31712
30400
32266
32876
30391
29496
31483
32046
30506
30572
31579
30165
28640
30362
31766
29474
27770
29794
30719
28479
28429
31026
30852
28846
29522
30974
29545
27633
28521
29782
28782
28310
30142
30765
28650
27914
29993
30373
28283
28513
30492
29696
28181
30012
32175
31007
29799
31332
31648
29190
28913
31462
31608
29638
30411
32546
31545
29771
31093
32268
30256
29190
31344
31942
29457
29176
31875
32343
30492
30729
32291
31573
30072
30947
31995
30572
29706
31489
32435
30986
30449
31736
31785
30769
31570
32387
30527
29435
31588
33010
31509
30725
32107
32168
30622
31306
33127
31924
29776
30882
32941
32206
30856
31824
32700
31463
30936
32636
33369
31518
30461
32018
32736
31231
30768
31581
30987
30436
32049
32827
30882
30110
32075
32744
30927
30117
31057
31144
30324
30603
30901
29480
28675
30177
30834
29004
28082
29628
30156
28534
28284
29692
29364
28082
28917
30186
28857
27299
28712
30293
29267
28771
30322
30276
28182
28381
30737
30133
27245
27723
30207
29863
29143
31080
31739
29402
28990
31501
31598
28991
29073
31466
31159
29195
29899
31570
30724
30021
31954
32546
29940
29115
31495
31957
29930
30305
32269
31484
30098
31468
32252
29929
28696
30945
32105
30045
29531
31974
32581
30838
31141
32900
31791
29594
30915
32977
31305
29556
31582
33324
31635
30695
32575
32481
29771
30302
33257
32464
29889
31031
33143
31702
29789
31087
32533
31577
31109
32260
32015
30479
31231
33523
33143
31185
31780
33223
32016
30688
31860
32194
30036
29742
32222
32410
29686
28993
30730
30792
29456
30121
31361
30238
29174
30453
31058
29528
29084
30471
30162
28210
28651
30664
29958
28045
28981
30785
29630
27902
29172
30574
29419
29152
30834
30620
28851
29430
31292
30725
29078
29637
30707
30044
30020
31758
32095
30463
30364
31947
31494
29536
29853
31265
30653
30119
31665
31901
29644
29657
32617
32842
29941
29769
32281
31979
29680
30685
33147
31937
29857
31590
33416
31129
29150
31313
32768
30707
30212
32438
32475
30873
31792
33283
31674
29963
31737
33327
31662
30989
33149
33478
31230
31134
33154
32672
30545
31309
33049
31641
30122
32195
34014
32010
30258
32026
33130
31269
30789
32702
32555
30558
31311
33780
33168
31004
31652
32956
31477
30206
31548
31880
29976
30317
33019
32796
30105
30183
31782
30204
28034
29689
31415
29752
29293
31699
31816
29411
29356
31161
30589
28822
29699
31181
29790
28387
29747
30844
29755
29147
30022
29978
28794
28932
30031
29639
28591
29726
31815
31166
29384
30544
31993
30304
29396
31336
31492
29522
30296
32770
32005
29828
30681
32249
31074
30158
32015
32812
30555
29785
32037
32652
30796
30831
32645
32147
30258
30891
32333
31197
30079
31604
32581
31064
30169
31243
31423
30452
31357
33017
31878
29967
30989
32695
31597
30174
31551
32768
31494
31121
32341
31665
30137
31252
32945
31745
29928
30823
32274
31715
31241
32368
32714
31458
31409
32970
32731
30613
30340
31913
32172
31474
32036
32634
31474
30882
32517
33148
31152
30089
31431
31945
30774
30932
32147
31237
29546
30416
31624
29926
28326
29862
30757
28667
28116
30451
30814
28785
28855
30515
29572
27647
28905
30513
28635
27299
29698
31341
29580
28472
29684
29438
27558
28305
30544
29939
28562
30152
31884
30610
29449
30880
31558
29927
29570
31281
31440
29846
30197
32175
31724
29815
30496
31694
29994
29060
31351
31789
29000
29009
32163
32483
30322
30556
32115
31336
30021
31315
32690
31233
30038
31603
32711
31598
31162
32141
31582
29916
30608
32290
31305
29825
31269
33104
32132
30807
31678
32115
31013
31680
33294
32011
30214
31863
33834
32340
30522
31679
32748
31437
30895
32340
32293
30245
30285
32757
32992
30899
31112
32847
32063
30844
32288
33109
31186
30585
32280
32091
30195
30554
32244
31606
29832
30322
31539
30543
29494
30677
31245
29427
28321
29506
30016
28861
29046
30612
30305
28888
29504
30542
28747
26729
28283
30237
29034
28207
30011
30584
28811
28647
30321
29673
27290
27733
29787
29466
28685
30022
30690
29327
29193
30590
29856
27704
28351
30837
30975
29641
30277
31618
30788
29799
31055
31901
30445
29674
30941
31242
29870
30133
32049
31901
30204
30581
31695
30333
29030
30904
32304
30428
29652
31991
32729
30743
30631
32551
31863
29631
30618
32402
30814
29640
31722
32606
30784
30658
32447
31626
29079
29839
32282
31463
29599
31018
33030
31903
30396
31445
32137
30713
30465
32157
32161
30333
30455
32291
31976
30338
31094
32662
31710
30451
31538
32265
30729
30070
31347
31412
30209
30575
31516
30491
29363
30699
31725
29638
27975
29708
30954
29031
28030
30061
30581
28371
28213
30033
29466
28026
29081
30040
28279
27046
28583
29308
27732
27784
29627
29173
27419
28249
29978
29205
28026
29203
30006
28394
27784
29840
30826
29247
28977
30952
30519
27685
28154
31134
30861
29061
30347
31786
30220
29527
31306
31335
29233
29034
30626
30720
29791
30676
32101
31029
29640
31232
32506
29993
28129
30478
31950
30081
30234
32600
31738
29449
30660
32655
31179
29185
30386
31826
30666
30168
31968
32434
30788
30721
32354
32023
30259
30715
32076
31116
29999
31498
32697
30928
29648
31395
32095
29955
29704
32110
32197
30233
30938
33048
32139
30383
31695
33071
31299
30110
31860
32339
30235
30101
32044
31679
29906
30291
31200
29908
28451
29523
31016
29910
28444
29788
31194
29464
27799
28951
29327
27751
28250
29820
28459
27011
28706
29887
28255
27519
29095
29191
27285
27487
29349
28833
27338
28588
30557
29757
28208
28750
29278
28353
28788
30810
30733
28815
29135
31278
31129
29372
29747
31179
30656
29737
30596
31146
29873
29562
31187
31496
29949
29695
30592
30070
29559
31346
32328
30142
28967
31074
32354
31121
30643
31810
31855
30587
30662
31576
30700
29492
30812
32540
31308
29550
30686
31881
30630
30476
32355
31998
29675
30199
32613
31656
28953
30084
32514
31252
29810
31755
32655
30401
30115
32909
33122
30236
29835
31853
31617
30318
31520
32701
31128
30280
31921
32122
30118
29946
31729
31675
30147
30743
32372
31500
29981
30971
31658
29424
28195
30223
30552
27685
27358
30045
30109
28153
28707
30000
28317
26418
27828
29258
27716
27118
29492
30308
28103
27553
29524
29201
26622
27015
29458
28905
27082
28373
30352
29169
27726
29303
30347
28547
28096
30042
30065
28598
29517
31111
30331
29609
30582
30448
28921
29189
31145
31370
29506
29113
30933
31443
30058
30011
31174
30691
29613
30589
31520
29993
29138
31139
32176
30306
29540
31358
31597
29901
30621
32501
31288
29623
31033
32355
30966
29969
31090
31269
29902
30396
32110
31308
29515
30702
32917
31962
29893
30706
31975
30903
30649
32231
31666
29597
30664
33214
32213
29677
30394
32404
31801
30553
31425
32062
30557
30039
31871
32447
30784
30334
31701
31990
30999
31060
31520
30358
29416
30632
31158
29167
28225
30172
30959
29052
28685
30449
30001
27901
28614
30713
29383
26732
27792
29855
28803
28031
29588
29606
27980
28565
30140
28943
26835
27666
29568
29135
28100
29076
30216
29541
29226
30495
30260
28240
28586
30805
30343
28398
29320
31351
30659
29548
30852
31439
29346
28522
30530
31271
29721
29948
31980
31735
30111
30881
32180
30638
29078
30749
32050
30218
29344
31245
32050
31129
31362
32137
31144
29932
30946
32147
30853
29489
30841
32384
31285
30170
31397
31678
29716
29822
32033
31796
30123
30924
32428
31601
30705
31907
32261
30511
30254
31982
31781
29836
30291
32523
32181
30287
30896
32297
31196
30296
32002
32661
30632
30242
32365
32598
30722
30524
31580
30983
29937
30949
31895
30329
29111
30513
31379
29893
29090
30114
29947
28588
29291
30633
29187
27608
29142
30630
29056
27545
28946
30434
29698
29112
29488
28624
27391
28565
30408
29338
27321
28256
29813
28728
27913
29631
30519
29214
29244
30957
30322
28136
29023
31173
30087
28700
30627
31816
29820
29514
31893
31622
28818
28872
31349
31495
29996
30949
32752
31395
29361
30598
32111
30394
28796
30408
31601
30054
29705
31710
31900
30212
30624
32205
30999
28881
30072
32032
30893
29841
31609
32434
30523
29956
31824
31781
29484
29641
31718
31121
29236
30328
32425
31567
30239
31897
32968
30623
29363
31231
31834
30491
30947
32324
31429
30415
31767
32310
30268
29574
31437
31639
29770
30411
32933
32300
29700
29936
31382
30133
28768
30609
31915
29816
28688
30454
30730
28828
28738
30167
29450
27788
28712
30013
28415
27115
28821
30003
28567
27755
28892
28937
27475
27757
29360
28937
27474
28314
30134
29517
28030
28937
30098
29025
28528
29936
29933
28356
28932
31116
30919
29232
29643
30798
29999
29383
30742
31066
29197
29113
31611
32177
30053
29298
30365
30342
29896
31184
31805
29707
28698
30901
32048
30244
29550
31429
31930
30316
30514
32165
31540
30097
30977
32166
31127
30032
31095
32177
31376
30710
31412
31535
30660
31211
32874
32090
29731
30361
32521
31967
30916
32313
33120
31535
30925
32187
31922
30278
30652
32064
31465
30630
32100
33131
31300
30388
32742
33625
30762
29414
31675
32543
30673
30663
32503
31950
30297
31178
32137
30156
28711
30630
31682
29402
28567
30960
31646
29602
29234
30541
29440
27271
28251
29850
28291
27196
29178
29970
28005
27583
29362
29056
26902
27383
29367
28535
26770
27884
29580
28735
27928
29399
29892
28113
28025
30176
30287
28334
28534
30482
30181
28772
29741
30777
29039
28174
30335
30911
28547
28396
30894
31061
29258
29546
30769
29951
29109
30645
31521
29644
28866
30871
31610
30025
29783
31275
31050
29415
29837
31330
30707
29656
30631
31585
30780
30349
31268
31158
29937
30528
32065
31268
29668
30815
32812
31775
29943
31175
32304
30224
29271
31417
31816
29910
30304
32162
31293
29571
30616
32110
31146
30172
31451
32342
30826
29900
31280
31715
30128
29916
31387
31189
29765
30249
31174
29872
28986
30632
31236
28931
27480
28899
29841
28616
28196
29332
29126
27999
28905
30370
28850
26466
27340
29142
28203
27103
28074
28181
26633
27029
29239
28725
26111
26460
28447
27670
26539
28042
28695
26862
26700
28857
28809
26658
26988
29275
29201
27542
28245
30177
29548
28175
29405
30151
27647
26561
29380
30721
28616
28353
30635
30494
28567
29326
30929
29473
27881
29536
30510
28546
28469
30937
30756
28641
29238
30939
29877
28420
30024
31504
29591
28261
30571
32194
30235
29000
30802
31091
28767
29009
31460
30854
28812
30129
32254
30802
28693
29737
30746
29401
29610
31912
31537
29167
29671
31637
30935
29695
30824
31412
29662
29211
31243
31648
29509
29295
31611
32059
30452
30491
31518
30597
29416
30681
31704
29849
28545
30144
30902
28948
27854
28980
29052
27711
28353
30170
29353
27480
28345
29965
28714
27040
28186
29047
27523
27646
29772
29088
26573
27387
29831
28723
26351
27793
29972
28564
27434
29512
30215
27994
27853
30308
30156
27827
28472
30859
30445
29268
30619
31226
28905
28229
30635
31027
28619
28390
30641
30896
29330
29999
31803
30802
28998
30148
31668
30183
28522
29749
31003
30066
29960
31585
31587
30222
30855
32230
30757
28662
29965
31809
30671
30032
31924
32386
30662
30708
32270
31401
29272
30101
31960
30956
29677
31197
32508
31422
30994
32289
31892
29814
29995
32035
32116
30907
31736
33298
32292
30696
31621
32461
30747
29907
31852
32574
30575
30214
32331
32385
30158
29995
31609
31217
29602
30130
31384
30458
29505
30766
31222
29240
28600
30469
30508
28592
29367
31309
29851
27837
28957
30043
28778
28375
29788
29400
27563
28615
30793
29352
26961
28084
29919
29132
28537
30095
30531
28949
29072
31194
31375
29561
29697
31607
31290
29458
29950
31308
30258
29167
30738
31792
29939
29077
31235
31969
29786
29367
31280
31026
29519
31038
32817
30881
29231
31030
31989
30114
29495
31340
31778
30238
30422
31961
31294
29894
31136
32851
31711
30192
31311
32117
30420
29945
31828
32070
30464
30878
32678
31981
30126
31029
32559
31445
30601
32105
32463
30925
31391
33352
32146
29174
29769
32331
31868
30256
31466
32917
31470
30533
32412
33045
30927
30417
32258
32198
30431
31193
33126
31917
29924
31241
32513
29978
27952
30104
31597
29636
29085
30797
30331
28901
29963
30940
29125
27622
29001
30315
29121
28247
29794
30873
29507
28627
29804
29835
28200
28632
30164
29062
27774
29749
31594
30014
28509
29990
31041
29651
29178
30584
30645
29443
30224
32055
31349
29670
30436
31183
29287
28665
31267
32044
29594
29387
31970
32150
30319
30831
32282
31142
29771
31308
32472
30557
29554
31449
32133
30560
30404
31846
31479
29851
30351
31751
30906
29830
31157
32360
31234
30611
32106
32212
30077
30033
32096
31865
30147
30837
32475
31721
30523
31657
32484
31061
30689
32286
32008
29843
30159
32663
32728
30730
30741
31964
31407
30735
31815
31973
30206
30226
32502
32871
31083
30757
31667
31134
30279
31314
31972
30224
29239
30704
31142
29471
29004
30409
30512
28977
29056
30732
30603
29067
29410
30659
29409
27406
28376
30029
29152
28591
30129
30334
28608
28815
30769
30082
27475
27878
30226
29997
28637
29546
30672
29576
28954
30507
30767
28947
29176
31193
30796
29483
31006
32594
30912
29638
31454
32218
29946
28927
30765
31523
30116
30356
32402
32065
29897
30225
31892
30959
29418
30759
31998
30422
29913
32117
32781
31259
31351
32640
31573
29682
30831
32692
31428
30037
31718
33093
31595
30766
32467
32718
30509
30431
32541
32316
30627
31406
33067
32271
30979
31846
32444
31120
30902
32538
32576
30894
31139
32999
32643
31017
31779
32935
31337
30306
32324
33125
31064
30766
32703
32573
30962
31276
32156
31211
30343
31304
31520
29773
29561
31732
32232
30408
29946
31093
30665
29348
30347
31957
30753
29119
30284
31568
30140
29114
30810
31289
29087
29007
31222
30717
28557
29507
31804
31096
29345
30111
30910
29589
29606
31670
31598
29874
30737
32745
31975
30400
31035
31740
30744
30453
31837
32030
30207
30117
32639
32942
30054
29509
32234
32844
30987
31428
33122
31883
30185
31688
33053
31157
29697
31549
32986
31724
31300
32639
32344
31036
31944
33351
31990
30337
31828
33449
32129
31266
32678
32790
31179
31649
33613
32804
30333
30877
33007
32497
31192
32458
33891
32642
31511
32734
32817
30695
30782
32855
32232
30567
32158
33984
32255
30857
32647
33282
30883
30055
32191
32891
31174
31391
33676
33226
30538
30601
32342
31226
29287
30510
31711
29878
29340
31851
32375
29998
29395
30924
30642
29013
29663
31146
29940
28390
29758
31291
30092
29112
30478
30570
28392
28675
31342
31139
28837
29442
31592
30628
28496
29498
30958
29670
29300
31527
31682
29272
29453
31996
31764
29574
30048
31842
31239
30208
31385
31918
29978
29541
32031
32908
30923
30244
31579
31476
30106
30659
32051
31291
30321
31647
32402
30608
29934
31925
32294
30579
31407
33321
31577
29406
31264
33387
31803
29909
31098
32483
31529
30868
31715
31518
30307
30908
32667
32422
30994
31453
32552
31962
31427
32161
31873
30431
31066
33407
33131
30736
30854
32508
31603
30207
31660
32828
31103
30414
32484
32884
30598
30096
32012
32362
30890
30973
32006
31131
30149
31431
31858
29310
28017
30239
31313
29671
29984
32025
31128
29060
29919
31195
29576
27979
29270
30287
28661
27828
29410
30129
29227
29495
30446
29210
27428
28700
30856
30033
28398
29476
31094
30156
29078
30450
31176
29586
29519
31488
31197
29239
30061
32308
31568
29716
30585
31685
30050
28956
30748
31696
29989
29608
31512
31586
29850
30327
31962
30990
29501
31030
32381
30553
29752
32181
33093
31049
30620
32414
32004
29963
30935
33132
31911
29979
31285
32753
31393
30627
32443
32637
30336
30666
33153
32540
30411
31143
32604
31990
31665
32829
32654
31001
30986
32347
32063
30657
31266
33117
32523
30670
31468
32910
31496
30388
32251
32950
30879
30792
33152
33234
31377
31443
32489
31714
30550
31174
31600
30220
29920
31803
32053
29682
28707
30172
30414
29017
29397
30733
29693
28306
29708
31288
30027
28539
29580
30580
29416
28830
29948
29891
28517
29144
31203
30537
28134
28674
30532
29553
28260
29767
30986
29926
29777
31296
30976
29143
29522
30964
30131
29202
30881
31907
30064
29434
31588
32017
29665
28990
30922
31622
30313
30287
31699
31488
30391
31339
32558
31218
29892
31144
31802
30356
30613
32487
31690
29688
30739
32463
30710
28681
30544
32245
29982
28756
31694
33444
31392
30384
32047
31791
29392
29859
32198
31474
29604
30888
32768
31697
30587
32033
32468
30315
29829
31890
32104
30340
31006
33498
33096
30903
31382
32715
31309
30154
32041
33015
30895
30157
32147
32306
30365
30682
32159
30695
28972
30937
32367
29867
28604
30794
31336
29548
29729
31190
30166
28433
29681
31211
29400
27842
29856
31365
29275
27802
29656
30483
28471
28219
30073
29484
27604
28881
31276
30421
28542
29463
30578
29217
28702
30572
30956
29191
29306
31153
30606
28676
29437
31180
30331
29313
30892
31786
29789
29056
31378
32214
30260
29885
31570
31299
29621
30291
31591
30286
29293
31155
32182
30447
29767
31712
32511
30949
30545
31646
31093
30024
31567
33261
31305
28845
30268
32228
31064
30561
32612
32786
30462
30320
32356
32042
29951
30480
32382
31839
30685
31615
32160
30723
30529
32498
32608
30267
29851
31863
32391
31161
31136
31935
31418
31054
32323
32622
30736
29839
31099
31539
30412
30788
32655
32349
30466
30978
32472
30956
28883
30143
31366
29696
29351
31585
31732
29815
30039
31449
30227
27930
28335
29739
29121
28813
30639
31241
29181
28297
29866
30017
28272
28747
30737
29975
28108
29463
31811
30681
28755
30229
31370
29102
28607
31406
31341
28406
28802
31546
31311
29760
30629
31452
29963
29528
31525
31951
29936
29767
31645
31678
30567
31262
31901
30233
29122
30967
32347
30642
29455
31125
32119
30739
30186
31430
31449
30255
30899
32152
30996
29808
31308
32561
31107
29998
31378
32082
30611
30380
31882
31644
30110
30736
32435
31603
29715
30410
31813
31163
30950
32509
32448
30384
30367
32384
32157
30270
30870
32569
31706
30627
32158
32943
30931
30284
32345
32847
30934
30220
31379
31967
31514
31547
31680
30590
29896
31209
31827
29822
28561
30120
30753
28989
28986
31143
31032
29193
29769
31444
30198
28045
29037
30541
29074
27948
29519
30251
28947
28964
30392
29843
28145
28931
30595
29793
28803
30206
30996
29147
28298
30272
31047
29266
29001
30802
30855
29588
30395
31910
31041
29891
31000
31696
30096
29285
30811
31582
30292
30064
31616
31654
30203
30531
31645
30405
28892
30453
32153
30681
29570
31651
32953
31176
30303
31879
31830
29976
30633
32381
31303
30289
31949
32515
30634
30396
32300
32096
29853
29955
31744
31104
29449
30704
32897
32072
30425
31479
32325
30478
29927
32121
32282
29778
29854
32726
32916
30552
30682
32425
31596
30195
31480
32509
30967
30461
32185
32314
30682
30801
31848
30779
29499
31085
32622
30857
29203
30505
31280
29501
28523
29866
30428
29353
29569
30812
30067
28571
29281
30545
29614
28442
29383
29973
28796
29102
30945
30442
28402
28813
30509
29825
28433
29607
30754
29403
29103
31094
31089
29042
29550
31840
31375
29436
30013
31523
30776
29603
30578
31591
30362
29571
31148
31681
29611
28854
30657
31264
30097
30682
32397
31622
29972
30979
32238
30508
28847
30372
31684
30455
30249
31835
31617
30435
31630
33085
31265
28965
30115
31793
30610
29765
31275
31753
30477
30726
32164
31511
29856
30668
32290
31295
29685
30804
32552
31679
30454
31702
32339
30372
29890
31953
31987
29901
30234
32350
32005
30230
30497
31664
31316
30698
31447
32098
31235
30788
31922
31988
30197
29722
30651
29830
28528
29918
31208
29436
28336
30109
30818
29275
29072
30434
29857
28054
28663
30047
28848
27702
29234
30281
28895
28307
29802
29989
28324
28450
29919
29150
27579
28647
30451
29751
28414
29039
29522
28405
28434
30162
30265
28652
28961
31068
31127
29550
29826
30816
29787
29025
30711
31610
29828
29294
31491
32077
30065
29744
31257
30663
29114
30465
32190
30635
29297
31210
32443
30768
30025
31622
31690
29851
30206
31969
31179
29786
31032
32143
30461
29183
30769
31996
30776
30338
31928
32143
30430
30617
32710
32101
29328
29620
31726
31102
30066
31651
32421
30649
30298
32132
31990
29842
29748
31389
31411
30660
31589
32350
30724
29547
31045
31984
30524
30016
31678
32209
30947
30861
31615
30743
29932
31243
31709
29351
27899
29543
30408
28830
28720
30516
30357
28945
29514
30357
28748
27445
29202
30433
28565
27783
29873
30530
28781
28525
29856
29197
27364
28052
29793
28935
27333
28598
30704
29905
28348
29465
30378
28812
28697
30692
30205
28256
29469
31598
30492
29131
30574
31219
29066
28307
30427
31159
29477
29560
31537
31323
29680
30287
31488
30165
28788
30080
30809
29043
28979
31658
32182
29996
29712
31391
30934
29250
30421
32489
31322
29546
30732
32121
30989
30145
31405
31611
30006
30400
32352
31635
29453
29966
31822
31491
30439
31339
32113
30868
30218
31421
31640
30207
30225
31938
31831
30137
30460
31991
31522
30496
31377
31906
30176
29569
31777
32568
30421
29796
31576
31468
29694
30250
31366
29499
27943
29881
31314
29498
28355
30111
30929
29333
29057
30310
29556
28024
28949
30192
28677
27023
28331
29791
28726
28040
29210
29346
28258
28842
30274
29389
27578
28400
30229
29746
28646
29526
30483
29514
28876
30034
30053
28316
28518
30505
30510
29494
30503
31383
29634
28671
30654
31314
28894
28188
30547
31111
29195
29609
32035
31894
30183
30560
31538
30560
29483
30478
31455
30357
29476
30589
31226
30244
30352
31914
31590
29737
30168
31798
31196
30333
31493
31984
30464
30058
31509
31325
29420
29789
31770
31284
29649
30739
32815
32098
30334
30836
31614
30515
30220
31728
31707
29927
30104
32100
32108
30698
31254
32339
31113
29981
31384
32359
30897
30308
31923
32313
30851
30625
31233
30098
29017
30465
31357
29487
28747
30487
30506
28481
28517
30270
29806
28147
29066
30466
28712
26914
28450
30102
28984
27887
28774
28969
27877
28532
29887
28677
27270
28851
30382
28982
27701
28915
29776
28729
28485
29980
30381
28918
28934
31184
31314
28804
28628
30556
29960
28514
29976
31191
29289
28457
30632
31338
29428
29073
30862
31092
29480
29495
31037
30890
29796
30490
31399
30251
29302
30585
31345
30089
30000
31585
31161
29265
30112
32485
31499
28852
29706
31815
30926
30045
31435
31409
29502
29922
32139
31568
29263
29924
31818
30928
29782
31053
31586
30231
30437
32038
31352
29388
29831
31563
31421
30467
31245
32391
31486
30550
31790
32192
29952
29172
31308
31732
29490
29365
31500
31283
29409
29927
31263
29985
28448
29657
30517
28744
28243
30380
30673
28425
27944
29467
29139
27469
27960
29058
27816
27081
29108
30121
28193
27385
29309
29756
27675
27461
29290
28983
27376
28460
30595
29670
27713
28649
29834
28367
27855
29891
30195
28419
29005
31293
30864
28978
29448
30477
29302
28600
30373
31099
29084
28392
30371
31036
29724
29882
31028
30110
28821
30314
31888
30302
28849
30350
31353
29882
29374
31016
31221
29646
30086
31787
30853
29133
30455
32450
31373
29695
30599
31202
29596
29687
31952
31767
29551
29959
32010
31241
29226
30224
31842
30712
30022
31400
30994
29157
30218
32525
31684
29807
30545
31686
30665
29816
30887
31323
29818
29516
31304
31351
29171
29005
31073
31253
29580
29738
30885
29700
28335
30100
31567
29208
27240
29286
30674
28455
27519
29483
29687
28041
28524
29769
27980
25701
27079
29048
27944
27106
28491
28561
27113
27691
29258
28263
26389
27231
28790
27932
26984
28403
29440
28112
27624
29534
29947
27849
27666
29822
29866
28060
28669
30879
30611
29036
29470
30141
28732
27868
29286
29927
28604
28808
30987
31181
29500
29812
31164
29975
28256
29626
31253
29882
29046
31199
32372
30846
30317
31459
30619
28595
29617
31677
30273
28309
29946
31953
30738
29631
31198
31387
28960
28948
31021
30033
28074
29994
32599
31317
29264
30269
31546
30709
30596
32069
31688
29484
29639
32008
32047
29944
29817
31131
30791
30150
31309
31794
29789
28881
31007
32184
30735
30444
31808
31177
29594
30630
31550
29143
27733
30257
31890
30068
28972
30234
30039
28154
28718
30573
29212
26853
27994
30273
29529
27685
28079
28914
28098
27943
29301
29229
27549
27550
29124
28898
27432
28015
29237
28441
27990
29571
29830
27799
27747
30431
30884
28545
28425
30377
29929
28471
29807
31324
29695
28373
30105
31120
29372
28457
29532
29518
28588
29859
31767
30761
29266
30669
31528
28867
27396
29876
30752
28522
29298
32370
31389
28738
29893
31790
30212
28399
29798
31357
30182
29239
30721
31445
29691
29275
31394
31294
28807
29457
31658
30066
28240
30839
33162
31395
30146
31819
31808
29299
29295
31621
31345
29535
30662
32758
31741
30127
31103
31717
29870
28975
30499
31038
29730
29941
31540
31103
29736
30656
31801
30200
28676
30178
31290
29270
28064
29936
30787
29028
28394
29629
29156
27267
27779
29451
28450
27020
28795
30721
28936
26804
28183
29540
28024
27452
28677
27926
26438
27718
29316
28159
26945
28058
28732
27585
27569
29144
29138
27704
28167
30065
30084
29005
29500
29987
28607
28055
29765
30294
28371
27999
30131
30318
28118
28166
30007
29202
27652
29413
30779
28430
27431
30025
30907
28962
28681
30273
30058
28549
29035
30331
29435
28402
30024
31559
30161
28957
30453
30855
28683
28678
30925
30402
28313
29309
31359
30438
28878
29981
31137
29965
29444
31220
31959
30345
29870
31410
31047
28676
28696
30601
30283
29066
30292
31561
30045
29035
30736
31228
28953
28259
30377
31071
29408
29315
30917
30476
28814
29387
30415
28861
27489
29058
29948
28069
27594
29408
29270
27634
28282
29624
28024
25833
26866
28390
26908
25629
27284
28516
27344
26930
28283
28075
26307
26717
28297
27441
26126
27544
29121
28121
27267
28479
28564
26737
26991
29271
29054
26862
27308
29642
29455
27865
28611
29793
28561
27791
29374
29653
27817
28157
30491
30539
29072
29334
29785
28307
27423
29144
30430
29369
29090
30688
30989
29780
29811
30475
29366
28131
29536
31178
29809
28144
29425
31066
30066
28809
29693
30163
28974
29270
30877
30324
28793
29532
30820
29949
29138
30504
31031
29389
29344
31307
30925
28512
28767
31119
31000
29324
29957
31195
29933
28828
30540
31783
30118
29146
30828
31485
29905
29587
30762
30284
29111
30108
30882
28905
27764
29487
30027
28033
27480
29329
29804
28275
28049
28803
27740
26579
27869
29097
27753
26522
27651
28295
26969
26944
28564
28205
26414
26985
28744
27710
25492
26270
28170
27519
26560
28148
29343
27602
26612
28805
29603
27175
26851
29380
29369
27471
28383
30052
28737
27632
29432
30295
28458
27971
29815
29966
28147
28268
29699
29059
28224
29831
30689
28414
26895
28968
30841
29468
28221
29581
30293
28952
29164
31101
30314
27979
29003
30614
28778
28080
30853
31475
29078
29183
31358
30259
27280
28014
30754
30419
28930
30019
31038
29387
28596
30610
31081
28749
28564
31187
31459
29089
29019
31234
31230
29578
29957
30886
29630
28728
30244
30933
29301
29227
31432
31282
28743
28947
31080
30046
28001
29705
31435
29439
28492
30590
30840
28895
28684
29388
28148
26814
28030
29263
27728
26346
27721
28911
27646
26622
27456
27449
25950
26227
28151
28072
26462
27041
29120
28876
27170
27482
28153
26704
26111
27972
28451
26688
26860
29194
29259
27296
27491
29016
28408
27442
29000
30394
28949
28014
29851
30578
28516
27846
29477
29386
27943
29044
30768
29513
28308
29903
30614
28542
27597
29468
30427
29077
28784
30115
30104
29246
29936
30832
29928
29198
30415
31041
29749
29693
31412
31219
29125
29358
31537
30807
28062
28658
30915
29984
28526
30155
31311
29565
29101
31350
31398
28652
28503
30908
30858
29350
30521
32075
30466
29205
31288
32334
29870
28735
30989
31879
29933
29578
31242
31011
29777
30817
31799
29765
28114
29861
31124
29433
28911
30661
30300
28079
28413
30099
28666
26201
27352
29274
27821
26566
28336
29208
27642
27307
28542
27890
26076
26803
28625
27824
26282
27556
29405
28227
26470
27500
28425
26918
26641
28655
28748
27004
27816
30222
29722
27861
28669
29795
28122
27235
29426
30286
28499
28772
31034
30742
29009
29528
30520
29399
28469
29758
30423
28753
28307
30572
31374
29385
28812
30409
29953
28059
29276
31375
29739
27878
29845
31687
30046
28660
29994
30447
28798
28940
30696
30054
28410
29760
31926
30807
28789
29691
30808
29428
28923
30628
30616
28807
29317
31397
31142
29837
30573
31467
30295
29512
30770
31206
29536
29222
31267
31811
30014
29465
30675
30805
30021
30605
31281
30023
29283
30979
31735
29690
28682
30529
31186
29399
29124
30263
29184
27650
28992
30546
29030
27115
27943
29057
27853
26807
27732
28298
27547
27693
28657
27777
26074
26860
28288
27238
26340
27859
28475
26762
26502
28489
28520
26381
26483
28586
28619
27363
28179
29600
28828
28028
29280
29711
28027
27682
29265
29223
27886
28746
30159
28730
27443
29585
31105
28742
27066
29198
30314
28301
28188
30389
30013
28302
29481
31214
29649
27434
28429
30421
30191
29629
30493
30760
29851
29952
30693
29602
27920
28723
30282
29544
28592
30054
31311
29836
28784
30519
30975
28342
27643
30127
30587
28514
28791
31166
31076
29547
30385
31337
29567
28855
30997
31008
28288
28621
31429
31060
28962
29706
31160
29926
28585
29996
31231
29796
29048
30903
31422
29235
28705
30654
30317
27829
28156
29924
28824
27480
28652
29063
27470
27103
28070
27483
26343
27543
28912
27330
25672
27189
28834
27407
25741
26550
27029
25631
25615
27480
27473
25629
25922
28022
27850
26170
26784
28138
27099
26286
28019
28724
26858
26674
28866
29042
27161
27127
28517
28263
27297
28230
29442
28524
27861
29584
30438
28394
27207
28844
29514
28172
28617
30268
29301
27761
29238
30940
29525
28071
29451
30191
28531
28634
30681
30206
28390
29391
31087
29796
28146
29399
30635
29484
29129
30645
30335
28137
28341
30607
30399
28361
28686
30268
29624
28495
29755
31038
29767
28989
30862
31547
29225
28180
29892
30433
29324
30058
31523
30452
29261
30768
31721
29790
28553
30054
30639
28895
28634
30318
30155
28816
29790
31245
29484
27139
28337
30109
28649
27193
28378
28769
26948
26665
28439
28068
25850
26326
28127
27177
26031
27649
28452
26651
26491
28755
28437
25285
24731
27094
27568
26153
26728
28370
27546
26103
27213
28233
26669
25992
28086
28906
27046
26974
29509
29878
27815
27849
29180
27802
26201
28225
29907
28062
27457
29721
29857
27831
28231
29936
28785
27009
28799
30928
29148
27328
29206
30820
29108
27750
28974
29333
27942
28496
30353
29725
28361
29630
31030
29650
28318
29391
29824
28613
29393
31582
30701
28313
29203
31442
30648
28929
29550
30211
29090
28954
30609
30660
28566
28432
30706
30727
28428
28805
31102
30326
28441
29972
31329
29019
28011
30482
31279
29487
29271
30653
30421
28889
28716
29498
29047
28364
29435
30402
28856
27234
28114
28563
26925
26961
28799
28095
25902
26593
28556
27717
25879
26555
27517
26333
25974
27637
27603
25512
25330
26985
26857
25539
25899
26787
26256
26127
27633
28087
26306
25799
27735
27962
25520
25074
27553
28463
27094
27291
28741
28139
27039
28386
29774
28510
27223
28305
29100
28045
28135
29856
29647
27841
28342
30174
29147
27095
28324
30003
28743
28372
30224
29727
27519
28618
31189
29892
27023
28115
30755
30014
28424
29696
30850
29293
28704
30793
30876
28059
27885
30676
30902
28918
29587
31549
30404
28651
30172
31261
28769
27681
30364
31161
28870
29058
31114
30143
28456
29940
31320
29692
28553
30220
31104
29414
29059
31159
31433
29495
29741
31742
30797
28181
28927
30980
29633
27839
29493
30990
29059
27608
29159
29398
27081
27183
29297
28345
26261
27636
29473
27885
26548
28563
29333
26545
25580
27951
28298
26299
26732
28610
27796
26110
26714
27470
26406
25958
27333
27856
26698
26914
28908
29198
27705
27806
29116
28705
27595
28461
29480
28205
27299
28966
30054
28755
28322
29920
29937
28020
28278
30298
29941
28411
29369
30891
29672
28338
29773
30438
28474
28542
31014
30568
27995
28584
30998
30457
28531
29192
30335
29204
28720
30404
30560
28616
28873
31280
30960
28437
28737
30919
30614
29451
30478
30952
29037
28693
30951
31389
29421
28983
30315
30525
30015
30938
31607
29884
28729
30612
31910
30067
28823
30449
31076
29302
29309
31327
31004
29161
29841
31484
30309
28527
29691
30874
29225
28484
30291
30423
28213
27859
29515
29441
28000
28304
28972
27586
26632
27943
28349
26664
26650
28915
28791
25917
25481
27889
28280
26398
26475
28431
28518
27407
28052
28620
26980
26329
28165
28635
27193
27831
29620
28666
27267
28991
30544
28763
27573
29720
30621
28235
27663
29869
29918
28148
28799
30390
29101
27289
28798
30741
29524
28378
30011
31042
29622
28979
30068
29705
28029
28630
30463
29967
28862
30227
31652
30263
28886
30085
30576
28742
28555
30633
30615
28762
29486
31751
31056
29136
30200
31598
29773
28429
30299
30928
28649
28637
31509
31732
29349
29426
31182
30514
29362
30895
31448
28652
27656
30228
31203
29759
29955
31366
30687
29509
30968
32419
30615
28987
30671
32001
30209
29171
30949
30977
28283
28311
30645
29724
27264
28219
30163
29183
27923
29045
29401
27506
27097
28826
28813
27180
27594
29229
28732
27445
27900
28250
26961
26518
28011
28487
26801
26395
28345
28630
26441
26232
28362
28486
27105
28122
29627
28274
27258
29305
30636
29083
28098
29191
29288
27920
28283
29752
28910
27418
28829
30779
29449
27671
29243
30783
29387
29027
30776
30348
28475
29465
31416
30064
27828
28933
30867
30153
29420
30934
31503
29593
28996
30835
30790
28575
28985
31319
30848
29290
30566
31786
29971
29157
31412
31921
29185
28175
30282
31160
29758
29932
31755
31250
29339
30130
31655
29934
28144
30216
32012
30315
29716
31822
31957
30169
30757
32429
31053
28837
29989
31717
30430
29496
31035
31381
29889
30183
31664
30602
28539
29431
30919
29346
27821
29329
30392
28902
28358
29723
29156
26859
27221
29374
28733
26497
27148
29284
28587
26770
27558
28675
27323
26502
28092
28520
26738
26985
29503
29388
26966
27350
29492
28627
26967
28620
29915
28100
28091
30721
30488
28048
28409
30222
29426
27862
29117
30942
29832
28280
29475
30780
29468
28641
30420
30820
28758
29230
31872
31234
28703
29277
31179
30612
29672
30854
31314
29572
29162
30951
31174
29455
29561
31276
30640
28683
29523
31318
30359
29375
31150
31901
29633
29017
31454
32054
29803
28906
29811
29645
29348
30949
31576
29407
28689
31001
31687
29694
29340
31115
31089
29587
30267
31574
30121
28866
30921
32495
30380
28366
29610
30741
29682
29825
31474
30818
28774
29401
31337
30677
28971
29648
30650
29392
28574
29861
30000
28049
27724
29541
29456
27446
27561
29207
28713
27404
28415
29644
28230
26975
28392
29260
27551
26599
27986
28636
27481
27438
28789
28718
28089
29666
31003
28883
26919
28737
30227
28619
28306
30250
30088
28544
29345
30694
29507
28298
29802
30837
29024
28145
29971
30756
29577
29883
31410
30371
27997
28761
30937
30300
29012
30347
31581
30250
29454
30872
30879
28790
28834
30890
30601
28831
29720
31716
30848
29271
30388
31357
29613
28804
30743
31333
29599
29939
32157
31599
29382
30014
31816
30815
29097
30222
31601
30131
29147
31288
32425
30235
29184
30905
30670
28612
29906
32247
30575
28792
30629
31607
29657
29105
30752
30635
28942
29572
31484
30822
29120
29954
31520
30596
29177
29850
30033
28282
28182
30216
30129
28010
28025
29565
28901
27440
28379
29523
28259
27368
28829
29403
27649
27308
29195
29198
27144
27190
28835
28208
26660
27939
29751
28486
27112
28752
30235
29162
28371
29297
29230
28092
28996
30581
29145
27155
28755
31238
30263
28338
29395
30777
29628
29124
30647
30699
29112
29390
30883
30192
28747
29743
30633
29117
29039
31225
30660
27861
28458
31292
30953
28790
29127
30479
29731
28608
29675
31023
30045
29127
30748
31513
29358
28780
31013
30965
28714
29353
31183
29856
28560
30513
31661
29822
29221
31291
31752
30003
30187
31463
30090
28769
30877
32461
30032
27810
29542
31445
30246
29354
30684
30861
29210
29215
30725
30106
28109
28570
30243
29510
27957
28775
30039
28825
27603
28914
29151
26622
26267
28794
28929
27220
28064
29337
27737
26636
28201
28513
26344
25711
27426
27788
26285
26533
28428
28043
26121
26816
28783
27967
26238
27167
28132
26556
25989
27914
28363
26937
27439
29259
28536
26718
27833
29625
28239
26772
28564
30133
28684
27748
29303
29475
27443
27757
29967
29370
27464
28511
30290
29179
27866
29162
29600
27406
27004
29391
29735
27753
28205
30563
29960
27590
28111
29719
28804
28215
30011
29964
27346
27442
29936
29563
27536
28212
29426
27738
26255
28205
29816
28089
27162
29290
30244
28619
28251
29776
29732
28353
28880
30004
28812
27856
29660
30947
29317
28087
29354
29886
28453
28593
30405
30079
28299
28923
30927
30568
28982
29391
30109
28956
28583
30248
30536
28770
28693
30424
29856
27427
27461
29255
29003
27870
28861
30068
28939
28234
30105
30983
29021
28129
29604
29767
28487
29232
30582
29342
28140
29610
30621
29181
28190
29168
29652
28886
29286
30591
29974
28556
29522
31112
29801
28166
29813
31061
28965
28409
31086
31441
28774
28631
31012
30637
28379
29249
31032
29546
28441
30538
31187
29044
29020
31144
30563
28176
28512
30360
30024
28981
29996
30979
29638
28887
30527
30763
28333
27744
29931
30416
28907
29556
31296
30045
28206
29866
31694
29637
27492
29277
31089
29661
28820
30219
30104
28558
29178
30723
29536
27344
27693
28491
26915
25943
27634
28282
26235
25517
27267
27115
24889
25395
27344
26007
24096
25773
27483
25837
24622
26193
26390
24063
23976
26431
26519
24640
25340
27496
27032
25711
26703
27431
25744
25169
27156
27645
25839
26101
28254
27813
25929
26952
28801
27348
25433
27051
28714
26994
26047
28478
29880
28310
27426
28190
27630
26297
27459
29426
28473
26877
28191
29809
28507
27244
28679
29202
27196
27170
29422
29016
26834
27844
30501
29921
27962
28904
29940
27995
27217
29303
29373
27226
27605
29536
29154
28340
29572
30077
28377
27889
29684
30133
28353
28079
29755
29811
28417
28625
29642
29144
28540
29739
30433
28684
27743
29866
31311
29633
28440
29718
29873
28207
28687
30508
29636
28081
29293
30740
29651
28496
29298
29616
28423
28588
30165
29815
27976
28216
29808
29030
27154
27940
29165
27870
27412
29193
28779
26179
26382
28598
28027
26031
26700
28150
27157
26094
27409
28149
26380
25974
28492
29040
26043
24755
26830
27703
26454
26834
28212
27358
26401
28052
29104
27123
25662
27394
29030
27881
26874
28144
28822
27803
28332
30299
29438
27012
28082
30315
29098
27719
29199
29894
28538
28611
29896
29030
27406
28563
30140
28775
27632
29586
30862
28953
27953
29888
30270
28002
28007
30295
29961
28206
29452
31314
29876
28466
30288
31318
29082
28012
29949
30424
28310
28176
30406
30666
29306
29738
30399
28693
27556
29498
30704
29057
28798
30844
30638
28473
28830
30714
29869
27911
29041
31044
29850
28299
30043
31703
29864
28435
30349
30879
28252
28088
30366
29404
27122
28650
30946
29705
28074
29057
29307
27364
27149
28937
28379
26132
26812
29259
28835
26772
26810
27448
26447
26303
28309
28760
26261
25238
27392
28507
27229
26996
27895
27028
25886
27457
28874
26992
25724
28194
29868
27831
26760
28858
29138
26810
27217
29394
28357
26862
28843
30419
28416
26842
28391
29565
28588
28663
30111
29478
27492
28142
30293
29596
27633
28671
30051
28523
28205
30750
30801
28100
28390
31035
30632
28361
28647
29810
28796
28210
30009
30730
29178
29096
30485
29799
28202
28788
29940
29394
28864
29988
30586
29162
28588
30422
31258
29508
28611
29905
29994
28454
28942
30734
30013
28447
29553
31045
29638
28000
29341
30771
29583
28800
29933
29958
28743
29541
31418
30440
27953
28381
30240
29734
28734
29777
30172
28202
27382
29125
29236
26731
26063
27506
27221
26270
27491
28250
26419
25897
28122
28326
25654
25237
27249
26737
24740
26117
28433
27147
25600
27250
28103
25757
24519
26502
27709
26618
26837
28530
27944
26112
26920
28685
27529
25767
27229
28944
27602
26731
28405
28904
27463
27697
29228
28423
26479
27236
28957
27965
26441
27879
29756
28600
27259
28794
29379
26937
26567
29255
29283
26822
27492
30095
29317
27070
27923
29413
28154
27328
28982
29125
26967
27339
30004
29890
27898
28397
29794
28658
27376
28887
29891
27756
26652
29033
30639
29337
28541
29584
29676
28674
29212
30095
28796
27742
29232
30397
29170
28159
28928
29188
28456
29155
30323
29095
27409
28576
30466
29626
28030
28705
29320
27829
27301
28804
28775
26926
26963
28568
27962
26035
26280
27139
25945
25300
27035
27464
25236
24798
26941
26839
24356
24427
26654
26456
24893
25954
27396
25772
24389
26046
26986
25300
24825
26672
26841
25036
25430
27331
26615
25035
26420
28246
26825
25188
26803
28182
26813
26638
28267
27461
25450
26631
28977
28337
26641
27207
28105
27355
27363
28950
29012
27324
27437
29192
28745
26673
26839
28432
28062
26869
27827
29296
28229
27041
28857
30188
27887
26257
28187
29347
27824
27692
29266
28661
27114
28321
29718
27846
26497
28843
30012
27837
27633
29605
28943
27599
29119
30207
28384
27193
28617
29555
28481
28247
29739
29924
28272
28283
30140
29584
26963
27298
29674
29311
27751
28772
30127
28910
27861
29030
28982
26688
26418
28368
28049
26046
26424
27766
26623
25400
26829
27410
25014
24011
25907
26103
24222
24958
27200
26290
24390
25536
26856
25162
23833
25454
26139
24007
23643
26232
26712
24364
24008
25851
25559
23912
24923
26569
25355
24558
26846
28042
26053
25466
27704
27686
24997
25372
28080
27511
25554
27019
28992
27428
25730
27134
27938
26249
26393
28979
29026
26653
26931
29207
28677
26772
27742
29115
27382
26188
28268
29116
26851
26450
28831
29317
27951
28381
29315
27916
26619
28177
29334
27389
26225
28317
29596
28113
27673
29170
28692
26910
28178
30204
28624
26853
28245
29162
27781
27648
29313
29159
27406
27909
29940
29592
27818
28324
29931
29088
27348
28087
29182
28105
27687
29176
29123
27457
27907
29631
28720
26538
26762
27880
27016
25976
26852
27288
25537
24903
27063
27729
25188
24197
26085
26278
24522
25044
26565
25333
24002
25701
27014
25390
24244
25543
25925
24289
24287
26078
25798
24233
25257
27304
26259
24182
25287
27149
26367
25831
27274
27431
26097
26657
28143
26961
24957
26102
28018
27187
26451
28054
28511
26799
26870
28749
28063
25608
26153
28702
28670
27027
27542
28810
27712
26617
28316
29542
27681
26325
27773
28703
27535
27386
28680
28275
27072
28325
29708
27853
26448
28913
30369
27975
27258
29702
29807
27620
28068
29929
28699
26517
27844
29905
28707
27495
29009
29763
28348
28232
29550
28644
26524
27481
29830
29096
27263
28430
30189
28729
27084
28858
30140
28019
27123
28964
28552
26038
26425
28487
27812
26332
27232
27752
25825
25042
26794
27088
25177
25319
27453
27324
25564
25690
26376
25145
24328
25902
26534
24594
24159
26335
26792
25071
25111
26414
25287
23684
25667
27928
26006
23999
26174
28481
27216
25955
27270
27641
26182
26974
29002
27632
25208
26501
28912
28315
27150
28303
28937
27452
27257
28863
28429
26303
26654
28868
28983
27788
28226
28813
27835
27852
29629
29351
26526
26177
29160
30350
28727
28389
29521
28990
27970
29434
30863
28952
27106
28806
30186
27999
26481
28400
29248
27552
27883
29592
28320
26652
28227
29561
27865
26785
28332
28820
27262
27636
29636
29165
27519
28377
29587
27949
26433
28236
29988
28931
28398
29843
29748
27932
28069
29528
28750
26965
27304
28250
27468
26709
27431
27400
25695
25401
27157
27073
24723
24398
26231
25999
24082
24573
26392
25758
24392
25366
26314
24867
23775
24952
25423
23974
23943
25677
25483
23856
24667
26596
25372
23143
24353
25938
24331
23703
25991
26490
24740
25086
26767
25910
24080
25020
26895
26423
25463
26465
27394
26607
26535
27878
27146
24568
24977
27920
28262
26496
26819
28121
27286
26537
28025
28191
25485
24697
27300
28308
26726
27023
28818
28260
26954
27824
28669
27577
26754
27579
28003
27130
27491
29688
30039
27722
27181
29127
28644
26190
27148
29544
28336
26795
28573
29605
27606
26972
28991
29001
26561
26705
29074
28826
27062
27882
29436
28317
26974
28224
28988
27315
26846
28415
28033
25939
26113
27608
26901
25579
26331
26947
25532
24743
25837
25843
23993
23786
25575
25446
23432
23485
25050
24511
23121
24094
25172
23568
22557
24569
25865
24330
23350
24216
23817
22487
23736
25596
24182
22485
24059
25738
24713
23896
25088
25379
24097
24542
26221
25487
23768
25137
27759
27154
25150
25971
27279
25888
25118
27028
27606
25791
25800
27820
27526
25521
25948
27410
26547
25919
27793
28307
26138
26096
28640
28833
26835
26862
28338
28066
27030
27843
28907
27772
26793
28338
29236
27260
26299
28373
29144
27544
27893
29261
27605
25906
27760
29345
27613
26232
27695
28684
27341
26952
28719
29323
27975
27924
29346
28741
26730
27333
29264
28662
27296
28213
29167
27999
27567
29246
29133
26465
26000
28025
27786
25697
25816
26870
25707
24702
26143
26518
24061
23086
25116
25742
23917
23803
25534
25503
24599
25465
26035
24300
23193
24825
25986
24681
24169
25726
25838
23927
23597
24939
24453
22998
24122
25886
25100
24531
26136
26552
24886
24736
26312
26042
24511
25329
26892
25836
24723
26504
28048
26898
26423
28231
28227
25661
25392
27512
27215
25451
26723
29068
28182
26496
27567
28683
27201
26011
27126
27755
26519
26616
28813
29093
27051
27017
28532
27378
25540
27189
28980
27535
27079
29308
29422
27119
27037
28747
28177
26572
27616
28952
27078
25521
27685
29577
27942
26765
28659
29260
26979
26760
28897
28478
26536
27535
29544
28662
27152
28129
28955
27638
27333
28892
28514
26111
26214
28734
28590
26025
25934
27306
26174
25035
26566
26803
24473
24475
26715
26384
24629
25279
26336
24908
23579
25050
26363
24781
23549
25204
26354
24834
23821
25018
25473
24286
24506
26218
26296
25251
25774
26711
25764
24985
26403
26940
25278
25527
27850
27532
25376
26212
28582
27567
24976
25679
27634
27111
26751
28366
28172
25780
25971
28625
28660
26489
26773
28665
28393
27480
28580
29164
27400
26948
29066
29393
27008
26368
28364
29196
28212
28500
29678
28720
27225
28531
29970
28022
26247
28152
29552
27903
27672
29536
29115
27616
28825
30183
28196
26138
27779
29906
28990
28020
29306
29793
28306
28129
29615
29124
27010
27409
29460
29264
27999
28519
29174
28209
27929
29157
28551
26164
26423
28686
28195
26128
26676
28019
26854
25646
26581
26721
24948
24633
26362
26666
25140
25118
26443
25932
24696
25889
27288
25580
23751
25140
26292
24693
24266
26198
26443
24880
24832
25608
24746
23925
25388
26620
25395
24727
26449
27568
26850
26993
28151
27302
25431
26366
28330
27344
25775
27309
29263
28330
27201
28384
28695
26916
27127
29314
28866
26877
27859
29918
29040
27608
28563
29077
27452
27121
29044
29313
27253
27177
29472
29744
28022
28269
29689
28891
27617
29076
30579
28909
27367
28925
30073
28555
28032
29722
29500
27653
28787
30788
29038
27111
28857
30270
28632
27809
29369
29503
27945
28752
30620
29230
27009
28176
29956
28792
27588
28976
29649
28091
28034
29742
29019
26606
27131
29458
28928
26920
27399
28450
27156
26288
27915
28312
25699
24717
27107
27773
25317
24865
26917
26567
24606
25560
27035
25181
24004
26666
28171
25758
24364
26324
27092
25361
25434
26996
25844
23993
25708
28241
27297
25563
26824
28317
27316
26974
28504
28330
26529
27115
29226
28452
26325
27442
29302
27946
26944
28922
29541
27681
27834
29802
29229
27192
27644
29205
28742
27904
28976
29816
28617
28227
29983
30313
28155
27317
28713
29101
28242
28893
29994
28846
27713
29274
30425
28506
26927
28510
29991
28922
28441
29919
29904
28124
28507
30483
29476
26906
27912
30353
29549
28272
29636
30447
29166
29090
30304
29130
26736
27681
30205
29686
28254
29801
31364
29343
27534
29389
30246
27508
26774
29335
29247
26759
27462
29657
28347
26380
27832
28825
26238
24966
27415
28214
25855
25745
28051
27742
25804
26309
27390
26010
24760
26288
27484
25889
24879
26416
27198
26094
25967
26834
25911
24491
25707
27200
25967
25327
27517
28542
26678
26026
27890
28337
26854
27394
29312
28552
26611
27628
29731
28855
27218
28377
29118
26939
26478
29284
29946
27727
27720
29562
28740
26879
28108
29998
28845
27444
28903
30058
28236
27191
29320
30548
28817
27942
29078
29085
28403
29602
30194
28156
27594
29956
30667
28947
28746
29943
29104
27641
29149
31031
29539
27909
29164
30018
28604
28182
29644
29625
28237
29231
31386
30454
28138
28804
30795
30063
28218
28758
29846
28999
28453
29509
29393
27643
27569
29225
28901
26994
27247
28604
27762
26572
27533
27916
26005
25571
27796
28251
26009
25377
26885
26820
25425
26026
27326
26295
25292
26951
28010
26134
25106
27104
28143
26779
26949
28570
27887
26532
27794
29351
28427
27201
27975
28889
28122
27515
28413
28701
27380
27457
29688
29655
26803
26559
29064
29412
28301
29115
30043
28977
28538
29787
29238
26904
27293
29852
29794
28019
28631
30044
29044
28398
30502
31141
28226
26953
29328
30144
28028
27797
29531
28994
27526
28701
29980
28294
26944
28765
30001
28442
28056
29843
29980
28889
29849
31106
29489
27638
28918
30251
28663
27836
29944
30857
29009
28604
30318
29497
26642
27325
30123
29492
27660
29337
31471
30052
28484
29938
30601
28636
28527
30737
30346
28131
29204
31881
30889
28333
28973
30387
29023
27970
29457
29742
27925
28400
30687
30035
27973
28998
30738
29206
27517
29465
31266
29326
28046
30502
31766
29280
28117
30312
30896
29043
29592
31470
29980
27939
29684
31692
30082
28383
29749
30619
29145
29286
31080
30297
28373
29327
31177
30740
29824
30221
29922
28537
28742
30413
30457
28924
28985
30556
30281
28750
29319
30467
29307
28671
30699
31333
29103
28687
30720
30768
29006
29119
30579
30579
29529
29626
30270
29437
28341
29248
30482
29663
28584
29185
29452
28668
29227
30154
28814
27527
28667
29563
28319
27199
27474
27303
26300
26458
27385
26844
25643
26087
26980
25815
24300
25284
26534
25396
24448
25639
25980
24127
23832
26286
26806
24470
24284
26086
25373
24195
26056
26992
24505
23851
26567
27049
24592
24496
26815
26956
25664
26770
28100
26328
24984
27003
28297
26460
25477
27322
28276
27017
27006
28475
28262
27374
28465
29421
27662
25916
27118
28685
27986
27438
28622
28887
27589
28041
30035
28966
25758
26294
29238
29224
28248
29545
29763
27501
27365
29890
29905
27441
27642
29927
29494
27475
28277
30286
29469
28151
29753
30877
28623
27297
29232
29903
28065
28228
30183
29715
28243
29150
30081
28548
27563
29112
29634
27660
27498
30125
30624
28323
28090
29951
29041
26565
27557
29536
28209
27320
29394
29836
27610
27255
28768
28028
25814
26195
28026
27430
25661
26272
27954
27515
26437
27255
27685
26019
25431
26913
26922
25237
25722
28019
27713
25458
25548
26654
25456
24743
26743
27237
24994
25122
27838
27868
25744
26099
27686
26775
25510
27065
28376
26889
26381
28373
28687
26897
27289
29533
29278
27541
28374
29588
27708
26328
28328
29595
27968
27515
29336
29105
27154
28407
30729
28835
26297
28342
31012
29710
27837
28675
29213
27983
28176
29786
29325
27816
28832
30671
29818
28300
28949
29543
28367
28120
29943
30618
28748
27964
29849
30451
28420
27863
29447
29372
28259
29420
30467
28675
27987
30440
31274
28948
28159
30108
30517
28939
29220
30372
28903
27341
28908
30481
29122
27689
28401
28564
27304
27867
29679
28899
26850
27289
28617
27620
26035
26610
27625
27122
26717
27339
27124
25900
26244
27991
27593
25400
25457
27157
26839
25774
27015
28347
26827
25601
27398
27959
25025
24186
27291
28227
26001
26295
28473
27859
26755
28514
29539
27392
26223
28142
28975
27250
27250
29465
29508
27847
28574
30169
28565
26365
27941
29984
28635
27703
29394
29663
28018
28406
29947
28724
26531
27642
30003
29360
27541
28246
29711
28940
28331
30076
30124
27108
26722
29585
29655
27555
28745
31163
30021
28451
30194
31125
28570
27694
30556
31464
28896
28460
30649
30435
28575
29226
30600
29417
28192
29688
30659
28674
27758
30089
31217
29315
28701
30283
29672
27619
28850
30830
29240
28073
30056
30389
27869
27216
28720
28381
26779
27500
29143
28275
26794
28010
29636
28245
26404
27406
28145
26254
25678
27635
27648
25518
25745
27697
27194
25746
26895
28103
26382
25161
27115
28230
26001
25171
28270
30124
28179
27092
28315
27909
26605
28193
29812
27987
26806
28760
29474
27722
27573
29318
29189
27707
28354
29502
28148
27249
29133
30101
28312
27568
29294
29777
28180
28218
29855
29541
28060
28686
30132
29462
28429
29493
30035
28364
28077
30180
30523
28635
28855
31060
30498
27893
28150
29887
28927
27861
29813
30930
28999
28620
30902
31013
28791
28747
30183
29295
27986
29621
30927
29051
28143
30033
30553
29076
28996
30113
29843
28936
29593
30522
29459
28273
29474
30828
29475
27930
28937
29417
27534
27254
29120
28849
27081
27794
29351
28029
26072
27055
28329
26912
25938
27734
28648
26654
25696
27550
28022
25947
25647
27581
27501
25460
25499
27230
26928
25955
27572
28579
26029
24979
27948
28930
26463
26669
29242
28403
26148
27671
29770
27774
25593
27591
29568
28182
27821
29931
29799
27718
28500
30717
29434
26796
27727
29555
28333
27677
29977
30673
28417
28097
30227
29779
27230
27856
30011
28804
27089
28993
30771
29053
28040
30172
30547
27812
27480
29675
29035
27167
28974
31285
29644
27915
29428
30103
28041
27578
29596
29598
27374
27810
30573
30519
28445
29060
30494
28527
26410
28250
29892
28128
27766
30333
30527
28184
28359
30299
29382
27306
28488
30258
28626
27295
29492
30944
29036
28025
29755
29907
27780
28073
30154
29445
27791
29103
30826
29956
29004
29734
29639
28258
28428
30059
30046
28466
28761
30958
30899
28570
28244
29280
28377
27905
29903
30240
27982
28094
30301
30014
28482
29027
29798
28785
28139
29321
29869
28316
27542
29158
30153
29128
29015
30496
30278
28608
29108
30372
28901
27259
28523
30027
29408
28716
29072
28597
27628
28703
30299
29095
27063
27992
30152
29831
28414
28951
29776
28848
28407
29641
29696
27900
27914
30327
30531
28076
27966
30016
29692
28368
29586
30571
28689
27871
29974
30575
28426
27784
29426
29775
28784
29474
30541
28821
26835
28141
29594
27764
26247
27895
28542
26595
26593
28163
26692
24543
26248
28307
26155
23685
25330
27038
25474
25045
27031
26687
24416
24621
25895
24731
23412
24862
26112
24873
24402
25900
25915
24460
25149
26939
26015
24140
25087
26796
26075
25330
27093
28415
26977
26040
27394
27561
25633
25533
27822
28584
27282
27333
28590
28046
27088
28646
29932
27753
25892
27840
29367
27553
26923
29177
29705
27983
28185
29577
28110
25909
27332
29212
27743
26956
29055
29611
28004
28339
29881
28832
26803
27557
29111
28250
27360
28946
30089
28687
28135
30087
30355
27884
27492
29511
29196
27259
28041
29921
29169
28154
29632
30440
28437
27124
28436
29245
28123
28317
30503
30710
28668
28575
29955
28980
27535
29071
30082
27811
27223
30282
31189
28469
27606
29273
28432
25990
27117
29300
27608
25903
28158
29727
27471
26064
27767
27974
25719
25906
28065
27535
26139
