41823
41781
41800
41849
41781
41836
41881
41906
41941
41903
41896
41929
41996
41945
41905
41997
42005
41850
42023
42124
41884
42021
41713
41713
41562
41598
41482
41414
41650
41370
41593
41570
41560
41377
41439
41134
41236
41296
41199
41210
41155
41180
41088
41334
41116
41125
41282
41144
41101
41246
41171
41056
41240
41153
41115
41086
41193
41041
41084
41145
41324
41003
41145
41355
41307
41280
41050
41164
41399
41363
41472
41331
41341
41260
41207
41258
41412
41452
41189
41467
41323
41436
41343
41468
41418
41456
41260
41408
41283
41428
41322
41556
41392
41268
41593
41501
41389
41552
41614
41363
41627
41422
41580
41368
41531
41594
41508
41489
41329
41662
41647
41578
41567
41747
41535
41597
41588
41412
41576
41480
41496
41475
41685
41481
41509
41583
41512
41734
41788
41584
41624
41747
41821
41598
41806
41803
41876
41921
41623
41649
41900
41937
41615
41674
41861
41702
41754
41816
41802
41541
41734
41749
41676
41530
41327
41323
41209
41302
41503
41268
41338
41320
41264
41233
41220
41167
41074
41055
41134
41111
41055
41143
41076
40851
41033
40965
40974
41080
41045
41067
40840
40935
40909
40977
40954
40939
40954
40962
40944
40914
40941
40812
41026
41089
41003
41191
40986
41020
41080
41107
41073
41063
41184
41117
41117
41083
41073
41148
41099
41074
41131
41165
41126
41134
41152
41141
41131
41165
41006
41073
41003
41113
41120
41083
41167
41169
41186
41242
41208
41267
41300
41217
41243
41308
41226
41307
41272
41362
41320
41392
41260
41513
41260
41448
41533
41408
41453
41477
41451
41497
41532
41556
41495
41410
41515
41599
41783
41558
41553
41600
41586
41642
41646
41520
41629
41784
41659
41665
41739
41802
41734
41729
41809
41930
41633
41818
41537
41819
41671
41474
41450
41350
41369
41456
41398
41243
41204
41144
41420
41253
41421
41297
41094
41263
41115
41107
41235
41203
41194
41249
40938
40938
40984
41247
41237
41190
40898
41092
41223
41013
40969
41095
40894
41165
40944
41106
41000
40926
41054
41094
41236
41252
41302
40975
41121
41368
41039
41088
41164
41225
41267
41093
41178
41141
41183
41126
41413
41395
41204
41230
41326
41174
41322
41468
41294
41295
41480
41342
41324
41591
41461
41641
41463
41519
41583
41442
41507
41624
41651
41479
41751
41610
41593
41633
41843
41870
41700
41558
41571
41591
41865
41546
41560
41613
41777
41730
41915
41666
41858
41731
41546
41944
41642
41879
41784
41963
41909
41938
41757
41848
41863
41990
42007
41784
41920
42204
41987
42165
42048
41871
42201
42025
41989
42095
42059
42050
42196
42366
42235
42407
42278
42302
42329
41923
41957
42014
42008
41678
41951
41667
41763
41721
41813
41506
41706
41590
41717
41679
41647
41565
41542
41527
41657
41481
41380
41476
41473
41484
41568
41408
41527
41435
41217
41395
41308
41173
41475
41046
41198
41074
41076
41191
41092
41027
41318
41189
41088
41071
41111
41257
41183
41408
41047
41377
41399
41208
41441
41243
41427
41321
41482
41097
41079
41257
41250
41413
41141
41146
41309
41423
41102
41329
41196
41454
41153
41501
41393
41407
41520
41420
41424
41411
41527
41324
41231
41379
41621
41450
41606
41477
41413
41462
41578
41617
41408
41469
41559
41673
41542
41578
41743
41499
41638
41544
41851
41667
41819
41549
41821
41640
41882
41881
41709
41959
42041
41827
42113
41960
42120
41882
42056
42019
42044
42064
42097
42184
42253
42251
42159
41988
41907
42108
42153
42036
42068
41855
42131
41747
42028
41683
41728
41620
41682
41534
41290
41395
41606
41470
41569
41371
41246
41386
41105
41105
41271
41155
41344
41288
41103
41015
41326
40954
40931
40889
40850
40841
40876
41072
41112
40817
40911
40748
40954
40815
40739
40885
41021
40913
40898
40847
40989
41022
41024
41067
41217
41082
40938
40869
41069
41214
41147
40983
40995
41058
41008
40959
40993
40952
41224
41039
41037
41271
41234
41128
41192
41308
41101
41393
41253
41240
41103
41282
41171
41469
41363
41470
41466
41474
41341
41480
41422
41609
41361
41319
41409
41599
41417
41233
41467
41437
41347
41336
41418
41524
41437
41528
41366
41483
41608
41519
41620
41375
41548
41539
41459
41607
41626
41621
41639
41726
41455
41548
41627
41543
41754
41729
41784
41864
41719
41770
41590
41856
41744
41637
41868
41851
41570
41897
42055
41863
41700
41935
41965
42017
41944
41706
41928
41788
41682
41593
41715
41501
41621
41473
41501
41334
41181
41359
41306
41351
41116
41392
41145
41176
41240
41057
40953
41025
41035
40948
41041
40969
41138
40932
40802
40840
40967
40913
40973
40983
40669
40717
40694
40790
40854
40740
40728
40851
40932
40846
40699
40693
40704
40764
40800
40975
40852
40755
40812
40920
41099
40971
40934
40843
40918
41021
40888
41120
40816
40960
41145
40839
40916
40800
40873
41098
40987
41115
40987
41167
41127
40933
40986
41067
41107
40978
41090
40992
41190
41010
41135
41088
41332
41213
41041
41017
41344
41254
41149
41380
41323
41132
41321
41180
41142
41334
41089
41349
41045
41166
41375
41108
41269
41182
41325
41416
41380
41146
41063
41279
41278
41207
41239
41278
41366
41271
41240
41123
41342
41319
41178
41430
41222
41482
41289
41531
41331
41319
41378
41494
41280
41498
41285
41223
41364
41238
41179
41277
41416
41329
41177
41172
40916
41066
40984
41023
40773
40962
40701
40720
40925
40936
40634
40772
40914
40614
40670
40562
40623
40510
40650
40664
40463
40681
40730
40555
40449
40456
40630
40579
40429
40452
40625
40514
40278
40429
40325
40356
40321
40457
40582
40468
40663
40597
40511
40361
40684
40436
40655
40623
40681
40589
40474
40444
40722
40698
40527
40591
40777
40797
40647
40687
40580
40520
40792
40844
40778
40818
40719
40744
40817
40849
40837
40872
40739
40655
40799
40622
40817
40917
40830
40957
40840
40952
40854
40763
40910
40931
40872
40830
40753
40816
41090
40903
40893
41000
40788
40858
40779
40851
40794
40938
41222
41078
41154
41099
41183
41188
40888
40884
41124
41029
41140
40968
40996
41148
41238
41347
41264
41162
41148
41225
41293
41201
41358
41318
41070
41176
41107
41398
41416
41462
41209
41240
41428
41408
41343
41201
41270
41303
41154
41280
41185
40904
40861
40792
40957
40948
40930
40625
40822
40861
40870
40775
40537
40669
40743
40556
40600
40487
40809
40781
40688
40506
40467
40738
40643
40810
40616
40464
40588
40589
40566
40554
40652
40607
40472
40566
40583
40659
40510
40645
40445
40714
40468
40608
40845
40739
40874
40758
40513
40734
40528
40560
40666
40853
40688
40609
40554
40913
40770
40881
40761
40755
40685
40893
40888
40832
40909
40616
40710
40753
40871
40893
41029
40778
41032
40758
40974
40846
40678
40818
41021
40947
41026
40952
41039
40995
41028
41156
40977
41147
40912
40855
40990
40962
41173
41082
41108
41158
40909
41068
41096
40830
40946
41093
40980
41022
41003
41076
41196
41045
41082
41202
41001
41059
41169
41291
41125
41015
41089
41298
41182
41050
41275
41095
41189
41290
41358
41348
41222
41218
41347
41336
41515
41379
41445
41136
41363
41040
41099
41220
41021
40931
40874
40793
40925
40946
40618
40549
40758
40572
40683
40725
40605
40522
40654
40587
40642
40705
40540
40598
40618
40637
40746
40591
40376
40557
40488
40580
40625
40457
40370
40437
40340
40362
40517
40740
40574
40506
40826
40747
40786
40616
40563
40795
40542
40622
40650
40525
40590
40678
40839
40834
40585
40894
40524
40685
40602
40846
40581
40774
40657
40665
40851
40954
40724
40691
40910
40839
40949
40978
40803
40885
40775
41050
40918
40831
40951
40686
40890
40891
40800
41113
40957
40820
40793
40777
40912
41065
40927
40805
41075
41013
40935
41067
40989
41047
40922
41122
40980
41202
41015
40843
40967
41110
41032
40936
40919
40881
41207
41220
41261
41016
41197
41083
41083
41083
41167
41251
41160
41305
41192
41056
41150
41293
41348
41287
40990
41343
41339
41001
41039
40906
41080
40931
41059
40825
40832
40676
40759
40661
40596
40646
40670
40678
40612
40526
40604
40592
40374
40517
40584
40586
40605
40533
40623
40510
40485
40568
40542
40486
40574
40287
40520
40411
40367
40313
40325
40578
40362
40517
40454
40652
40674
40366
40575
40398
40397
40399
40567
40611
40766
40585
40764
40639
40842
40780
40567
40505
40731
40588
40669
40458
40672
40799
40778
40640
40790
40703
40669
40777
40772
40557
40686
40622
40685
40664
40612
40750
40613
40738
40671
40778
41039
40989
40717
40847
40710
40803
40778
40997
40861
41104
40980
40909
40988
41124
40967
41024
40948
40959
40895
40890
40803
40768
41127
41109
40941
40855
40894
41044
41137
40963
40896
40935
40893
41167
40895
41215
40980
41083
41106
41035
41266
41167
41228
41009
41142
40968
41181
41093
41064
41206
41004
41190
40970
41040
41079
41128
41122
40897
41104
40874
40919
40700
40641
40655
40571
40529
40633
40760
40623
40410
40595
40749
40447
40685
40651
40359
40404
40411
40662
40403
40474
40441
40576
40384
40460
40497
40461
40268
40593
40413
40548
40308
40578
40365
40388
40393
40422
40525
40265
40533
40380
40381
40474
40672
40502
40312
40549
40366
40626
40413
40439
40420
40742
40723
40430
40551
40346
40637
40426
40634
40404
40733
40788
40616
40417
40828
40589
40656
40776
40869
40813
40746
40621
40704
40848
40724
40614
40833
40849
40911
40840
40583
40835
40952
40776
40924
40856
40880
41025
40822
41054
40888
40999
40922
40593
40924
40995
40700
41007
41049
40851
40760
40933
40834
40922
40856
41046
41010
41089
41000
41084
40917
41058
40767
41105
40833
40887
41203
41011
41230
40987
40985
41254
41146
41063
41119
41333
41154
41039
41150
41190
41123
41172
41069
41200
41243
41076
41172
40961
40775
40871
40998
40772
40578
40713
40497
40672
40609
40466
40580
40564
40375
40345
40350
40322
40321
40449
40303
40275
40594
40523
40464
40391
40504
40367
40222
40394
40103
40399
40129
40353
40268
40331
40311
40143
40302
40262
40180
40591
40316
40503
40271
40465
40358
40159
40379
40260
40551
40365
40252
40430
40307
40328
40642
40549
40425
40519
40749
40403
40409
40350
40693
40398
40484
40504
40441
40724
40336
40573
40438
40596
40348
40557
40803
40681
40606
40458
40494
40651
40770
40743
40749
40456
40506
40752
40910
40739
40984
40855
40482
40669
40681
40647
40880
40858
40607
40752
40721
40736
40895
40872
40791
40777
40723
40666
40846
40827
40781
40850
40963
40923
41052
40692
41083
41082
40958
40983
40914
41026
41046
40895
40849
40908
41174
40995
41112
40883
40841
40915
41054
41168
41180
40963
41043
40918
41109
41021
41281
41065
40906
40810
41058
40695
40635
40916
40557
40871
40459
40594
40601
40505
40595
40551
40557
40535
40362
40538
40362
40220
40180
40130
40305
40150
40216
40129
40374
40454
40158
40247
40335
40356
40298
40037
40425
40049
40275
40221
40096
40271
40408
40304
40017
40330
40115
40444
40464
40472
40403
40307
40376
40248
40476
40081
40265
40264
40423
40520
40440
40138
40522
40462
40514
40371
40553
40435
40264
40473
40624
40191
40625
40330
40315
40570
40649
40320
40703
40695
40598
40403
40409
40685
40558
40840
40428
40608
40729
40427
40794
40746
40471
40865
40682
40710
40772
40590
40501
40493
40938
40561
40473
40643
40878
40737
40824
40643
40899
40759
40774
40676
40748
40736
40745
40753
40822
40789
40824
40679
40822
40770
40712
40646
40931
40969
40973
40777
40798
41058
40700
40739
40864
40840
40819
41039
41061
40949
40812
41074
41075
40951
40879
41050
40929
41034
41048
40727
40799
40989
40719
40606
40657
40424
40636
40211
40610
40339
40191
40420
40347
40201
40163
40235
40325
40147
40013
40072
40039
40212
40295
40320
39984
39991
39965
40280
40288
40215
39999
40017
39981
40220
40061
39858
39931
40194
40224
40295
40145
40183
40230
40086
39966
39984
40338
40215
40357
39997
40361
40114
40277
40358
39935
40129
40366
40172
40265
40112
40128
40358
40182
40121
40256
40073
40401
40088
40111
40314
40466
40103
40526
40131
40120
40161
40446
40457
40175
40242
40181
40445
40204
40439
40318
40326
40572
40548
40307
40594
40501
40583
40358
40268
40525
40691
40517
40705
40386
40691
40578
40340
40411
40489
40385
40368
40590
40539
40473
40523
40398
40563
40772
40539
40749
40576
40416
40644
40629
40513
40467
40854
40632
40615
40743
40862
40839
41000
40949
41153
40743
40948
41086
41087
40753
41121
40833
41072
41026
40891
41162
41156
40997
41198
41173
40782
40687
40966
40696
40823
40524
40809
40546
40282
40470
40526
40440
40568
40414
40574
40462
40167
40333
40510
40398
40096
40141
40227
40347
39978
40356
40242
40278
40153
39957
40246
40215
40084
39892
39898
39910
40140
40171
40242
40064
40150
40201
40243
39975
40167
40012
40118
40132
40204
39986
40236
40192
40069
40228
39985
40100
40333
40159
40312
40380
40368
40076
40180
40104
40067
40430
40325
40220
40435
40310
40345
40270
40062
40272
40202
40260
40458
40256
40248
40184
40414
40437
40377
40317
40354
40285
40403
40378
40363
40297
40431
40489
40622
40394
40638
40364
40359
40691
40604
40706
40618
40641
40735
40446
40309
40610
40419
40645
40765
40650
40648
40588
40756
40410
40783
40494
40556
40814
40531
40681
40497
40569
40825
40808
40708
40495
40940
40654
40538
40644
41007
40712
40602
40663
40861
40922
40591
40914
40929
40697
40678
40537
40588
40470
40472
40634
40295
40236
40205
40442
40165
40374
40298
39926
39979
39876
40059
40302
39874
39909
40103
40111
40090
40126
39787
40093
39997
39942
39975
39693
39711
39694
39709
39731
39748
39649
39857
39663
39686
40037
39836
39756
40029
39759
40065
39864
39968
39706
39866
40119
40130
39754
40166
39951
40140
40014
39980
40074
39925
39994
40119
40066
40181
39883
39995
40269
40011
40174
39988
39844
40084
39843
39918
39861
39872
39784
39894
40222
40152
40088
39936
40225
40119
39925
40189
40223
40107
39960
40295
39975
40176
40052
40328
40358
40173
40407
40251
40381
40380
40215
40226
40063
40262
40210
40262
40423
40258
40114
40309
40179
40070
40348
40092
40310
40537
40292
40412
40487
40115
40459
40324
40440
40214
40243
40232
40352
40549
40500
40553
40616
40459
40516
40359
40649
40573
40303
40376
40486
40174
40329
40189
40395
39991
40054
40322
40172
39848
39855
39802
39997
40002
40050
39790
39651
39967
39971
39603
39657
39984
39700
39827
39579
39669
39660
39749
39819
39729
39868
39804
39516
39618
39436
39529
39310
39338
39627
39340
39482
39713
39327
39319
39576
39318
39356
39363
39622
39718
39752
39679
39836
39636
39623
39664
39856
39577
39626
39767
39783
39798
39779
39729
39712
39798
39673
39851
39762
39485
39776
39639
39788
39638
39943
39790
39957
39685
39708
40032
39951
39632
39748
40009
39691
39803
39864
39867
39817
39788
39815
40015
40229
40220
39810
39883
40010
40245
39901
40202
40086
40196
40128
39851
40206
39919
39915
39986
39963
40087
40227
39963
39838
39973
40009
40026
40301
39963
40309
40343
40290
40249
39897
40259
40311
40367
40322
40107
40166
40119
40346
40310
40238
40087
40475
40126
40124
40509
40096
40259
40161
40425
40203
40389
40120
40326
40561
40242
40321
40290
40412
40051
39936
40045
40166
40044
40012
40161
39752
39855
39737
40002
39707
39515
39691
39613
39675
39530
39637
39597
39572
39488
39570
39532
39464
39487
39397
39414
39397
39288
39255
39270
39236
39472
39283
39283
39444
39406
39489
39300
39455
39395
39370
39267
39387
39315
39526
39418
39263
39636
39300
39456
39621
39211
39402
39331
39625
39444
39650
39582
39683
39351
39578
39618
39350
39398
39542
39736
39525
39450
39476
39740
39577
39529
39596
39657
39635
39675
39611
39531
39675
39738
39803
39704
39527
39737
39910
39768
39493
39703
39731
39657
39857
39772
39714
39630
40051
39717
39980
39886
40097
39827
39988
39778
39991
39747
39706
39845
40110
39774
39946
39961
39812
39829
39983
40177
39972
40151
40019
40085
39950
40003
39768
39863
39853
40148
39940
40220
40011
40056
39967
40100
40049
40254
40157
39897
39930
40283
39961
40290
40193
40305
40353
40011
40008
40432
39986
40283
40380
40118
40343
40298
40038
40209
40317
40125
39900
40156
39933
40028
39697
39918
39743
39910
39648
39785
39596
39341
39657
39405
39375
39283
39474
39351
39522
39504
39332
39566
39181
39281
39230
39450
39043
39341
39371
39050
39131
39397
39115
39315
38954
39354
39119
39006
39129
38971
39299
38912
39255
39091
39086
38976
39082
39134
39426
39292
39347
39310
39508
39349
39236
39439
39518
39212
39215
39179
39210
39394
39329
39443
39159
39590
39440
39473
39443
39312
39580
39232
39555
39594
39474
39328
39302
39417
39496
39259
39711
39533
39534
39403
39716
39474
39512
39610
39725
39464
39679
39406
39683
39559
39511
39527
39485
39517
39718
39513
39558
39822
39571
39765
39510
39635
39505
39791
39552
39592
39585
39762
39879
39605
39973
39721
39944
39608
39700
39660
39601
40029
39857
39662
39638
39822
39675
39668
39741
39827
39905
40068
39812
39814
39996
39978
39823
40035
40085
40038
40138
40183
39783
40010
39789
39978
39835
39982
39868
39975
40227
40181
40129
39868
39952
39828
39834
39878
39885
39894
39632
39526
39510
39535
39676
39335
39492
39745
39591
39464
39220
39288
39431
39395
39133
39302
39175
39361
39354
39281
39150
39207
39214
38938
39296
39115
39098
39089
38833
39231
39002
38992
38926
39169
38981
38829
39191
39037
39135
39116
39031
38920
39123
39137
39329
39266
39339
39055
39338
39058
39223
39355
39291
39127
39096
39016
39161
39039
39178
39042
39218
39152
39197
39023
39276
39376
39156
39332
39326
39405
39122
39307
39107
39155
39238
39271
39158
39156
39411
39525
39422
39379
39378
39218
39200
39245
39309
39539
39272
39552
39520
39599
39512
39472
39534
39612
39404
39322
39430
39671
39567
39432
39352
39636
39584
39559
39402
39456
39755
39550
39407
39757
39463
39823
39440
39561
39507
39828
39870
39804
39888
39668
39856
39777
39861
39876
39622
40011
39656
40042
39957
39753
39991
39811
39778
39856
39834
39856
40075
39955
39763
40038
39794
40041
40220
40121
40118
40081
39948
39806
40208
40117
40171
40046
40128
40052
40127
40328
40019
39859
39989
40098
40009
39973
39999
40011
40097
40144
40255
39877
39954
39690
39687
39753
39851
39748
39464
39706
39559
39466
39568
39608
39300
39572
39279
39221
39224
39224
39167
39137
39172
39342
39141
39179
39271
39157
39310
39092
39370
39117
38885
39143
39212
38974
39035
38863
38831
39170
39178
39203
39088
38814
39098
38935
39183
39288
39167
38981
39332
38976
39065
39251
39257
39363
39419
39287
39002
39216
39100
39265
39312
39270
39102
39462
39372
39144
39232
39328
39483
39559
39362
39314
39381
39501
39388
39314
39499
39303
39274
39575
39467
39649
39340
39265
39646
39660
39309
39782
39447
39620
39456
39372
39475
39675
39397
39673
39446
39412
39768
39544
39773
39787
39715
39840
39680
39618
39677
39897
39738
39512
39711
39627
39733
39718
39741
39820
39801
39758
39669
39791
39873
39676
39726
40000
39731
39723
39718
39954
40062
39863
39773
39806
40103
40018
39989
40083
39806
40046
40028
40143
39954
39913
39926
39858
39814
40015
39884
40123
40242
40022
40176
39950
40225
40070
39822
39818
39917
39978
39715
39557
39633
39443
39714
39735
39727
39609
39590
39290
39222
39354
39503
39460
39150
39042
39229
39417
39138
39324
39413
39213
39303
39046
38920
39082
39110
39061
39233
39102
38849
39106
39093
39064
38868
38877
38974
39174
39052
38926
39130
39248
39074
39186
38904
39293
38982
38993
39016
39032
39217
39022
38965
39167
39369
39362
39313
39164
39310
39188
39280
39176
39353
39166
39346
39388
39305
39304
39368
39556
39364
39186
39388
39254
39354
39152
39604
39348
39278
39506
39505
39500
39382
39483
39713
39537
39605
39688
39775
39702
39661
39624
39696
39575
39827
39676
39558
39513
39675
39832
39705
39551
39688
39578
39716
39924
39924
39656
39695
39767
39611
39858
39917
39927
40062
39928
39618
39776
39973
39736
39786
39785
39739
40094
40018
39889
40054
39858
39923
39897
40026
39810
39990
40225
39956
39786
39893
40056
40181
39876
39893
40095
40291
40143
40174
40197
40026
40139
40332
40217
40184
40244
40208
40035
40437
40088
40440
40430
40077
40282
40409
40292
40356
40461
40328
40125
40185
40306
40423
40492
40293
40143
40087
39895
39736
39959
39813
39624
39502
39725
39834
39755
39758
39749
39620
39280
39375
39486
39350
39223
39337
39098
39348
39181
39325
39213
39354
39366
39118
39089
39450
39377
39057
39151
39291
39291
39073
39044
39332
39265
38945
39124
39011
39203
39056
39036
39339
39141
39345
39392
39241
39409
39337
39143
39205
39131
39461
39204
39186
39203
39447
39449
39257
39442
39564
39156
39254
39399
39385
39283
39376
39386
39341
39268
39607
39360
39287
39592
39343
39229
39469
39633
39545
39539
39538
39715
39463
39498
39679
39492
39598
39519
39692
39780
39441
39800
39446
39413
39913
39822
39568
39735
39787
39781
39546
39629
39699
39607
39874
39807
39825
39835
39956
39600
39838
39797
39659
39790
39728
39814
39754
39723
39744
39752
39731
39854
39788
39827
39587
39809
39644
39787
39851
39721
39961
39858
39805
40041
39945
39765
39778
39793
40017
40123
40013
40029
39932
39831
40069
39771
39785
40155
40001
40093
39868
40086
39952
39959
39589
39772
39457
39682
39728
39418
39583
39316
39153
39465
39438
39213
39237
39044
39237
39366
39154
39175
39300
39302
39054
39006
39186
38969
39240
39039
39278
38996
38900
38837
39155
38819
38838
38827
39049
38837
38800
39108
39155
38822
39090
38873
39050
39183
39225
39117
39113
39084
39044
38985
39175
39124
39140
39062
39083
39042
39304
39231
39362
39179
39439
39187
39088
39192
39261
39227
39197
39184
39063
39192
39500
39109
39458
39427
39373
39296
39428
39416
39206
39525
39534
39179
39512
39234
39542
39532
39222
39515
39464
39515
39220
39433
39309
39483
39350
39489
39506
39548
39704
39623
39308
39731
39363
39624
39348
39768
39734
39421
39569
39794
39596
39450
39638
39470
39580
39766
39676
39557
39832
39539
39499
39790
39475
39652
39897
39739
39892
39797
39777
39687
39628
39575
39953
39856
39655
39948
39944
39708
39785
39704
39937
39957
39695
39669
39946
39647
39770
39788
39858
39976
39804
39794
40083
40027
40103
39911
39749
39710
39892
39926
39820
39801
39773
39599
39339
39342
39160
39222
39504
39239
39345
39048
39117
39446
39073
39227
39273
39202
38903
39094
38971
39014
39223
38816
38830
38879
39117
38764
39100
38777
38919
38984
38797
39038
38725
38897
38883
39001
38737
38843
38787
38788
38815
38770
38807
38925
38995
39113
39022
38875
39152
38968
38848
38962
39206
39000
39139
39040
39212
38975
39126
39054
38929
38931
39252
39262
38917
38815
39104
39037
38929
39183
39052
39283
39110
39256
38968
39296
39101
39092
39342
39178
39122
39300
39313
39077
39256
39310
39181
39368
39005
39189
39430
39142
39384
39419
39327
39091
39267
39349
39220
39430
39181
39293
39266
39454
39528
39172
39496
39322
39256
39299
39272
39280
39305
39406
39571
39397
39588
39384
39294
39549
39521
39369
39585
39323
39383
39429
39444
39345
39527
39629
39594
39536
39620
39494
39503
39648
39398
39722
39813
39410
39560
39406
39794
39747
39504
39691
39538
39594
39810
39752
39535
39538
39757
39483
39595
39315
39314
39613
39276
39258
39174
39418
39259
39069
39090
39209
39156
39055
39023
38833
38935
39029
38769
38982
38618
38938
39021
38866
38937
38887
38623
38779
38873
38642
38844
38627
38659
38752
38663
38929
38655
38584
38756
38588
38861
38599
38937
38737
38951
38644
38780
38815
38699
38812
38767
38837
38676
38929
38724
38937
39111
39027
39105
39015
39210
38815
39105
38800
39124
39086
38847
39094
38917
38840
39139
38870
39020
39250
38895
39309
38948
39174
38896
39077
39338
39235
39238
39126
38909
39223
39106
39258
39254
39088
39332
39293
39011
39023
39141
39409
39325
39447
39236
39410
39357
39233
39076
39411
39249
39095
39536
39486
39112
39182
39154
39314
39422
39288
39175
39458
39206
39265
39602
39457
39315
39424
39578
39530
39414
39401
39287
39635
39389
39505
39395
39631
39442
39621
39447
39715
39725
39370
39542
39798
39457
39606
39454
39732
39697
39647
39792
39572
39680
39644
39523
39440
39274
39255
39234
39062
39245
39255
39049
38999
38996
38935
38943
38735
38719
39009
38971
38927
38975
38694
38863
38969
39016
38660
38621
38752
38766
38836
38754
38653
38885
38863
38992
38882
38743
38691
38865
38543
38730
38625
38771
38714
38766
38792
38698
38571
38804
38896
38723
38926
38716
38846
38807
38737
38816
38797
38817
38656
38598
38604
38583
38703
38614
38925
38791
38772
38660
38663
39048
39043
38895
38787
38756
39020
38760
38907
39093
38912
38994
38994
38910
39099
39192
38759
39074
39228
39014
39090
39043
39009
39032
39080
39073
38922
39019
38947
39033
39328
39102
38957
39135
39245
39208
39334
39290
39391
39264
39354
39074
39423
39396
39200
39445
39206
39060
39304
39103
39362
39138
39182
39199
39336
39205
39481
39514
39475
39535
39521
39520
39149
39347
39203
39405
39326
39351
39286
39436
39309
39602
39642
39668
39613
39302
39619
39245
39598
39728
39600
39648
39397
39643
39378
39102
39269
39396
39324
39301
38945
39227
38982
39042
38931
38899
38810
39030
38629
38774
38947
38928
38841
38463
38509
38428
38801
38461
38772
38644
38507
38593
38636
38299
38577
38405
38289
38265
38326
38588
38215
38206
38537
38409
38224
38429
38224
38491
38561
38483
38644
38419
38353
38312
38482
38350
38420
38475
38462
38410
38756
38722
38656
38625
38591
38693
38712
38767
38552
38747
38402
38717
38769
38732
38623
38458
38497
38513
38582
38815
38529
38553
38556
38830
38869
38554
38637
38628
38896
38978
39022
38591
38915
38761
38668
38677
38723
39032
38698
39025
39017
38989
38927
38864
38774
38951
39086
38929
38763
38954
38747
39040
38888
38980
39118
38888
39003
38867
39116
39238
39061
38751
38996
38864
39106
39233
38897
39210
39060
39244
39165
39118
39218
39240
38987
39048
38943
39031
39006
39058
39302
39024
39064
39195
39340
39092
39081
39176
39076
39044
39344
39327
39262
39372
39047
39066
39191
39050
38945
39076
39119
38698
38692
38875
38841
38868
38736
38678
38586
38546
38653
38392
38682
38533
38449
38586
38286
38384
38281
38525
38352
38480
38242
38531
38398
38145
38263
38404
38149
38457
38428
38260
38409
38377
38078
38318
38094
38392
38353
38195
38192
38249
38438
38187
38243
38408
38531
38483
38559
38404
38282
38558
38368
38264
38383
38520
38488
38545
38273
38422
38571
38401
38369
38381
38497
38752
38576
38338
38385
38532
38581
38554
38798
38525
38681
38737
38483
38510
38714
38560
38581
38622
38844
38673
38705
38701
38698
38745
38704
38731
38778
38736
38761
38792
38799
38895
38775
38808
38967
38835
38862
38889
38878
38908
38855
38910
38895
38892
38994
38969
38901
38963
38949
38914
38966
38981
38998
39140
38987
39077
38932
38841
38886
38992
39136
39105
39052
39084
39100
39117
39110
39130
39138
39189
39139
39096
39135
39093
39224
39250
39252
39309
39308
38986
39147
39389
39160
39391
39131
39144
39059
39129
38987
39027
38920
38780
38698
38692
38692
38630
38445
38639
38773
38455
38331
38381
38692
38446
38208
38555
38625
38371
38436
38240
38309
38109
38501
38170
38309
38278
38406
38408
38278
38152
38337
38198
38192
37976
38182
38255
38359
38071
38334
38219
38384
38431
38160
38487
38105
38453
38413
38312
38291
38453
38464
38325
38328
38512
38336
38378
38377
38479
38406
38502
38408
38460
38527
38562
38549
38289
38607
38532
38568
38558
38498
38334
38471
38611
38429
38352
38491
38359
38447
38754
38775
38754
38448
38458
38717
38488
38527
38854
38556
38471
38622
38815
38572
38789
38599
38809
38730
38662
38663
38740
38626
38743
38854
38745
38778
38763
38647
38855
38885
38723
38668
38841
38690
38570
38705
39061
38931
38756
38829
38928
38893
38845
38974
39092
39030
38778
39048
38734
38786
38810
38776
39066
39010
39115
38771
38897
39045
39086
38792
39138
39106
39002
38903
39220
38978
38952
38946
38760
38996
38935
38923
38819
38606
38538
38878
38819
38512
38731
38370
38511
38275
38589
38374
38444
38410
38171
38538
38454
38123
38150
38440
38342
38098
38471
38043
37947
38138
38012
38031
38200
38176
38279
38048
38052
38157
37981
37894
38171
38104
37917
37904
37989
38285
38243
38145
37959
38265
38062
37961
38023
38183
38103
38159
38029
38324
38013
38307
38038
38301
38079
38140
38275
38322
38159
38200
38472
38175
38279
38479
38148
38120
38343
38189
38379
38112
38446
38551
38380
38102
38561
38546
38487
38326
38563
38579
38243
38403
38165
38344
38591
38494
38644
38461
38229
38365
38391
38623
38624
38295
38466
38283
38495
38753
38589
38352
38641
38527
38714
38310
38739
38737
38398
38457
38620
38411
38511
38647
38589
38723
38502
38763
38656
38789
38401
38835
38784
38523
38743
38894
38738
38525
38890
38913
38696
38630
38929
38894
38740
38620
38907
38820
38604
38673
38706
38634
38753
38815
38702
38792
38866
38762
38925
38798
38855
38547
38602
38554
38506
38312
38530
38455
38261
38453
38267
38206
38245
38299
37968
37926
38049
38263
38046
38148
37913
38127
37823
37812
38063
37890
38021
37816
37782
37805
37834
38038
37858
37920
37808
37912
37873
37908
37857
37993
37832
37928
37862
37839
37856
37814
37905
38093
37925
37665
37775
37963
37953
38076
38092
37868
38055
37892
38134
37862
37820
38063
37791
37910
37761
37921
37804
37866
37934
38272
37967
37952
38089
37936
38048
38179
38113
38051
37937
38378
38334
38167
38067
38036
38418
38141
38115
38328
38408
38093
38101
38117
38456
38345
38390
38158
38283
38152
38114
38216
38544
38405
38458
38466
38367
38362
38231
38587
38442
38203
38341
38593
38202
38284
38528
38337
38557
38436
38520
38333
38633
38573
38395
38545
38487
38768
38812
38364
38714
38395
38431
38428
38444
38805
38524
38788
38731
38416
38742
38786
38551
38674
38757
38530
38758
38428
38258
38532
38218
38466
38101
38232
38273
38325
38338
38326
37981
38228
37824
37828
37906
37952
37936
38037
37882
37683
38009
38077
37830
37887
37940
37968
37713
37704
37709
37899
37795
37562
37733
37638
37530
37645
37522
37623
37691
37836
37867
37581
37649
37803
37689
37747
38001
37921
37931
37710
37948
37704
37904
37761
37880
38003
37849
37872
37935
37970
37905
37929
38011
37933
37999
37983
37795
37992
37762
37965
37983
37901
37852
38221
38150
38141
37996
37953
38068
38169
38030
38210
38111
38090
37988
37935
38360
37979
38315
38091
38251
38153
38362
38138
38001
38401
38351
38405
38193
38445
38224
38355
38074
38081
38060
38091
38168
38149
38196
38177
38249
38546
38316
38253
38368
38535
38345
38225
38375
38265
38283
38395
38418
38377
38560
38379
38593
38421
38615
38391
38347
38475
38310
38312
38347
38669
38669
38382
38401
38667
38698
38649
38595
38394
38536
38505
38477
38320
38284
38357
38048
37947
38059
38018
37823
38080
38180
37950
37781
37797
37927
37872
37771
37896
37661
37860
37809
37798
37849
37642
37508
37514
37508
37704
37427
37435
37380
37365
37305
37435
37275
37577
37534
37657
37226
37299
37251
37380
37222
37538
37446
37379
37386
37596
37422
37372
37468
37806
37479
37725
37556
37434
37541
37680
37623
37748
37638
37776
37486
37593
37831
37437
37809
37628
37800
37760
37767
37911
37738
37918
37570
37762
37543
37896
37603
37965
37992
37979
37946
37924
37643
37943
37811
37786
38011
38147
38002
37998
37896
38192
38182
38009
37943
38147
38205
38226
38299
38148
38267
38120
38254
38151
38079
38261
38355
38247
37941
38204
37959
38023
38134
38200
38235
38267
38057
38019
38255
38265
38053
37968
37979
37978
38263
38035
38055
38122
38453
38344
38400
38436
38299
38179
38396
38175
38134
38364
38067
38267
38304
38206
38167
38122
38259
38277
38301
38175
37957
38179
37843
37765
37764
37719
37935
38003
37894
37754
37820
37788
37571
37716
37464
37555
37652
37502
37622
37337
37438
37323
37192
37561
37527
37569
37180
37362
37603
37528
37367
37136
37289
37289
37088
37322
37418
37050
37074
37142
37121
37459
37541
37449
37291
37342
37511
37374
37596
37569
37341
37599
37556
37273
37171
37626
37721
37420
37385
37469
37534
37529
37663
37532
37743
37510
37609
37385
37680
37529
37561
37520
37568
37551
37810
37697
37456
37776
37595
37745
37598
37840
37679
37781
37779
37853
37875
37784
37999
38006
37665
37711
37937
38091
38073
38037
37730
37813
37810
37713
38012
38085
37816
38127
38290
37906
37794
38040
38085
38097
38205
37978
37899
38194
37873
38332
38313
38078
37971
38361
38230
38301
38169
38130
38322
38050
38205
38069
38097
38485
38169
38306
38250
38275
38150
38377
38100
38444
38159
38200
38343
38505
38209
38300
38288
38501
38283
38406
38251
38523
38117
37982
38109
38009
38068
38087
38029
38004
37875
37894
37803
37815
37700
37644
37660
37696
37616
37779
37432
37543
37674
37461
37407
37431
37419
37458
37412
37361
37373
37390
37393
37428
37358
37176
37230
37050
37088
37243
37369
37252
37166
37207
37275
37232
37374
37577
37238
37118
37308
37550
37519
37593
37556
37293
37230
37356
37321
37647
37380
37633
37492
37590
37438
37254
37438
37507
37286
37451
37461
37437
37606
37495
37549
37488
37449
37598
37526
37530
37420
37607
37784
37591
37711
37643
37622
37597
37664
37685
37662
37706
37671
37653
37656
37642
37768
37794
37714
37968
37862
37932
37655
37583
37792
37614
38001
38028
37931
38016
37732
38126
37958
37911
37946
37763
37970
38018
37760
38032
37703
37785
37979
37964
38076
38129
38130
38141
38030
38095
38179
37958
37975
37933
37974
38088
38119
38324
38040
38328
38321
38219
38239
38249
38335
38317
38274
38266
38435
38114
37950
38073
38206
38278
38313
37995
37901
37956
37958
37896
37825
37789
37768
37754
37724
37653
37620
37841
37460
37584
37569
37570
37472
37458
37513
37464
37451
37412
37446
37365
37396
37341
37255
37246
37260
37264
37274
37331
37217
37331
37212
37066
37279
37394
37423
37276
37344
37279
37337
37156
37391
37345
37361
37442
37446
37422
37435
37315
37580
37673
37431
37406
37735
37518
37487
37404
37631
37345
37539
37463
37597
37574
37676
37656
37728
37824
37532
37894
37603
37481
37881
37788
37563
37892
37814
37919
37707
37930
37709
38028
37848
37738
37790
37919
37958
38010
37688
37718
38059
38099
37849
37865
38016
38013
38114
38057
38108
37980
38092
38046
38017
38010
37808
38092
37859
38172
38171
37984
37903
37960
38189
37924
38249
37939
38204
38006
38105
38257
38041
38215
38297
38211
38156
38302
38261
38197
38338
38264
38018
38314
38308
38330
38076
38109
38234
38324
38032
38188
38334
38078
38419
38287
38222
38310
37997
38024
38200
37846
37812
37842
37837
37854
37891
37750
37817
37499
37521
37492
37606
37706
37367
37690
37362
37578
37370
37544
37539
37300
37453
37480
37439
37195
37255
37154
37176
37299
37521
37311
37069
37023
37252
37354
37424
37242
37230
37364
37513
37226
37389
37437
37248
37213
37292
37325
37298
37465
37484
37377
37616
37445
37273
37466
37607
37488
37731
37677
37643
37375
37598
37672
37741
37482
37368
37701
37734
37475
37644
37806
37478
37730
37808
37634
37526
37515
37786
37603
37576
37747
37761
37712
37752
37563
37818
37889
37610
37582
37952
37870
37905
37598
37790
37774
37703
37719
37834
37857
37966
37892
38064
37735
37812
37949
37857
37756
37867
37838
38026
37927
38249
37971
38133
37958
38190
38106
37956
38153
37998
38033
38161
38345
38115
38060
38019
38094
38261
38415
38235
38145
38150
38290
38228
38189
38300
38211
38296
38485
38346
38037
38074
38186
38323
38071
38161
38084
37755
38038
38032
37947
37787
37790
37698
37735
37567
37612
37481
37475
37426
37567
37615
37516
37407
37428
37490
37198
37236
37151
37359
37488
37490
37429
37343
37213
37431
37313
37193
37339
37373
37224
37256
37310
37366
37302
37414
37441
37416
37545
37554
37689
37467
37644
37511
37671
37432
37490
37735
37781
37647
37535
37477
37769
37490
37388
37637
37751
37551
37413
37752
37767
37707
37443
37527
37512
37514
37452
37547
37690
37639
37895
37745
37709
37764
37744
37745
37793
37826
37911
37795
38009
37703
37864
37825
37947
37698
37966
37968
37877
37959
38003
37947
38054
37933
37953
38103
37937
38079
38154
38052
38134
38075
38064
38093
38164
38116
38111
38143
38073
38102
38090
38166
38219
38149
38197
38225
38215
38400
38216
38130
38240
38463
38430
38131
38434
38405
38150
38426
38406
38446
38195
38114
38333
38405
38321
38103
38138
38118
37879
37836
37794
38082
37762
37816
37652
37590
37730
37643
37724
37677
37438
37305
37655
37471
37302
37312
37334
37578
37395
37433
37258
37341
37093
37376
37190
37296
36999
37207
37103
37266
37115
37328
37206
37026
37012
37246
37210
37031
37201
37178
37275
37121
37337
37356
37297
37383
37390
37349
37399
37498
37463
37554
37364
37377
37240
37436
37335
37540
37202
37525
37301
37289
37287
37454
37341
37628
37391
37603
37459
37692
37437
37540
37401
37282
37581
37379
37582
37500
37492
37561
37628
37569
37598
37623
37618
37641
37596
37657
37646
37678
37630
37654
37820
37689
37727
37496
37760
37671
37734
37789
37770
37789
37789
37816
37771
37743
37849
37888
37819
37810
37808
38026
37852
37927
37901
37898
37934
37938
37967
37950
38024
38017
38037
38052
38008
38090
38093
37960
38060
38069
38027
38198
38026
37969
38019
38183
38010
37908
37774
38036
37906
38003
37877
37713
37787
37529
37436
37486
37406
37484
37381
37381
37348
37280
37264
37299
37400
37293
37331
37219
37227
37130
36965
37061
37109
37088
36836
36967
37015
37097
36868
36891
36866
37064
36949
37046
36964
37061
36926
36934
36939
37164
37183
37128
37182
37161
36965
37076
37181
37268
36929
37169
37163
37233
37218
37243
37162
37187
37214
37198
37226
37215
37333
37272
37115
37177
37444
37428
37433
37573
37475
37573
37508
37595
37585
37534
37361
37655
37616
37658
37408
37631
37587
37390
37559
37721
37653
37645
37619
37756
37720
37664
37750
37711
37595
37742
37685
37704
37555
37813
37554
37770
37693
37768
37840
37887
37622
37801
37783
37785
37663
37781
37821
38093
37807
38042
37895
38089
37945
38054
37840
37905
38030
37921
37819
37960
37891
37936
37933
37922
38008
37975
37912
38041
37835
38142
37841
38002
37947
37915
37838
37802
37772
37758
37677
37606
37656
37581
37542
37426
37489
37268
37464
37427
37318
37100
37299
37178
37241
37135
36990
37143
37179
37126
37073
36887
37115
37037
36935
36997
36970
36945
36881
36931
36722
36892
36856
37003
36874
36875
36873
36817
36905
36944
36716
36840
36822
37095
36964
37121
36979
36920
37068
37106
37010
36986
36958
36980
37020
37052
36960
36984
36994
37112
37045
37063
37033
37114
37041
37083
37131
37082
37125
37017
37035
37083
37020
37398
37199
37454
37222
37150
37270
37283
37253
37399
37325
37355
37336
37550
37241
37497
37335
37612
37402
37531
37380
37407
37417
37565
37332
37617
37306
37423
37634
37642
37530
37496
37564
37584
37709
37559
37614
37566
37487
37612
37794
37580
37746
37602
37502
37613
37538
37824
37884
37587
37720
37916
37906
37799
37854
37634
37673
37992
37699
37821
37691
37656
38086
37931
37841
37622
37826
37540
37440
37715
37556
37621
37232
37556
37367
37245
37051
37160
37335
37137
37247
37231
37087
37264
37052
37180
37041
36936
37072
36996
36879
36821
36949
36917
36684
36853
36879
36755
36834
36693
36640
36861
36667
36679
37063
36692
37032
36760
37032
36963
37097
36935
37067
36957
36797
37100
37122
37098
36875
36788
36815
37095
37015
36857
37048
36805
36843
36900
37240
37120
36911
37190
37054
37271
37319
37148
37294
37104
37183
37199
37110
37074
37268
37154
37218
37155
37286
37151
37184
37236
37374
37586
37541
37428
37204
37522
37316
37460
37343
37337
37294
37353
37546
37584
37498
37651
37334
37511
37394
37623
37408
37675
37371
37542
37563
37736
37789
37662
37882
37777
37527
37554
37747
37846
37617
37513
37723
37997
37584
37790
37667
37746
37984
37956
37818
37723
37903
37703
37848
37911
37738
37919
37709
37605
37568
37415
37458
37512
37355
37244
37267
37415
37115
37118
37204
36997
36948
36886
37123
36777
36896
36974
37019
37061
36838
36762
36724
36891
36717
36778
36697
36790
36708
36795
36634
36639
36758
36783
36695
36822
36826
36839
36724
36719
36730
36593
36841
36971
36796
36748
36912
36883
36961
36868
37019
36875
36809
36826
36807
36807
36784
37040
36870
36888
36838
36925
36892
36905
36930
36954
36929
36809
36982
36854
36910
37046
36907
36827
37167
37068
36818
37136
37135
37131
37046
36971
37144
36992
37133
37200
37140
37157
37269
37207
37272
37395
37263
37355
37143
37253
37268
37159
37381
37180
37466
37385
37452
37490
37438
37546
37639
37566
37386
37575
37735
37587
37764
37694
37545
37473
37522
37718
37839
37666
37573
37556
37547
37712
37807
37789
37622
37635
37938
37709
37739
37879
37850
37493
37628
37446
37702
37413
37443
37466
37493
37508
37453
37251
37108
37080
37013
37196
36899
36983
37291
36873
36903
37112
37179
37194
36988
36732
36901
36805
36779
36690
36756
36741
36761
36715
37055
36728
36757
36749
37014
36734
36624
36904
36600
36640
36656
36982
36696
36742
36937
36912
37005
37232
36991
37271
37150
37006
37155
37285
37229
37298
37354
37383
37392
37461
37558
37557
37460
37533
37462
37618
37617
37858
37525
37661
37967
38008
38115
37882
37901
37890
38006
38089
38246
38068
38128
38122
37948
38017
38194
38230
38160
37816
38014
37911
38064
38021
38078
37888
37772
37919
38039
37836
37986
37839
37687
37825
38081
37891
37666
37844
37840
37827
37857
38045
37722
37568
37936
37794
37772
37841
37833
37938
37782
37829
37716
37871
37692
37599
37941
37788
37577
37506
37847
37524
37465
37388
37406
37420
37249
37303
37243
37404
37249
37114
37174
37384
37206
37067
37149
36846
37191
36861
36941
36820
36803
36755
36802
37057
37141
36811
36844
36730
36767
36756
37002
36683
36762
36778
36572
36650
36658
36830
36542
36667
36688
36640
36593
36654
36637
36620
36578
36571
36499
36509
36782
36649
36657
36611
36750
36701
36653
36721
36813
36737
36782
36866
36832
36836
36785
36757
36844
36692
36734
36902
37048
36612
36979
36921
37064
36802
37040
37007
37117
36925
36789
37091
36801
37185
37182
37171
37021
37015
37025
37098
37053
37088
36928
37003
37079
37172
37233
36983
36924
36971
37206
37362
36960
37300
37143
37060
37032
37458
37235
37373
37282
37062
37158
37482
37151
37604
37444
37614
37446
37520
37460
37508
37499
37333
37646
37660
37572
37426
37413
37648
37468
37652
37487
37667
37819
37735
37683
37722
37699
37593
37616
37851
37729
37847
37709
37777
37751
37595
37531
37639
37411
37459
37427
37454
37355
37353
37326
37258
37174
37094
37222
37161
37002
37018
37163
37111
36886
36941
37136
36949
36978
36843
36829
36872
36860
36886
36791
36713
36795
36883
36800
36780
36845
36584
36658
36765
36761
36915
36871
36751
36699
36927
36917
36671
37008
36648
36885
37048
37073
37031
36831
37163
36977
36861
37098
37244
37119
37148
37100
36994
37019
36996
37306
37117
36935
37130
37060
37150
37287
37128
37180
36991
37404
37249
37088
37236
37429
37376
37206
37319
37336
37287
37191
37348
37315
37454
37463
37258
37266
37261
37167
37197
37635
37427
37634
37510
37366
37519
37584
37533
37436
37540
37476
37513
37538
37632
37577
37365
37591
37807
37507
37691
37658
37765
37529
37445
37757
37847
37671
37509
37732
37850
37813
37830
37706
37634
37736
37729
37767
37845
37797
37752
37815
37831
38013
37796
37822
37968
37836
37789
37574
37786
37598
37706
37402
37742
37601
37488
37538
37190
37400
37400
37166
37208
37367
37254
37280
37230
37223
37131
37145
37089
37091
37065
37037
36993
36981
36993
36896
36883
36839
36746
36881
36797
36908
36982
36778
37024
36948
37012
36977
36829
36967
36685
36846
36650
36893
36843
36848
37012
36865
36976
36790
36882
36722
36940
36985
36959
37077
36917
36988
36965
36947
36641
36737
36661
36781
36585
36744
36766
36782
36741
36787
36825
36922
36819
36802
36846
36952
36872
36901
36900
36771
36923
36796
37047
36636
36991
36792
36794
37161
37011
36917
36901
37064
36986
37116
36935
37092
36966
36772
36843
37100
37078
37106
36937
36989
36887
36781
37009
37185
37010
36949
37002
36942
37086
37080
36918
37109
36922
36902
36869
37206
36922
36943
36908
37166
37260
37196
37387
37055
37160
37310
37208
37060
36959
37057
37109
36896
37009
36818
36967
36893
36931
36916
36744
36716
36699
36682
36525
36637
36712
36528
36751
36646
36626
36411
36595
36513
36324
36575
36423
36507
36537
36403
36273
36398
36354
36031
36213
36079
36323
36337
36105
36430
36178
36319
36226
36195
36087
36154
36565
36261
36492
36307
36210
36393
36252
36465
36654
36365
36205
36579
36382
36617
36276
36653
36260
36289
36578
36298
36329
36303
36600
36590
36588
36525
36383
36390
36555
36304
36397
36398
36829
36595
36640
36585
36818
36547
36741
36692
36555
36626
36645
36566
36590
36828
36758
36606
36702
36851
36805
36623
36584
36944
36902
36834
36944
36921
36960
36828
36851
36722
36859
36731
36828
37013
36893
36678
36707
36902
36958
37009
36795
37009
36966
36994
36917
36918
36955
36859
37049
37149
37011
37025
36890
37239
36939
36840
37106
37175
37046
37205
37069
37119
37059
36947
36827
36958
36985
36675
36701
36922
36522
36519
36456
36719
36571
36585
36666
36454
36273
36453
36398
36250
36289
36185
36051
36319
36328
36164
36258
36024
36180
36011
35933
35884
36001
36240
36201
35974
35942
36201
36018
36131
36180
36216
35912
36084
36101
35986
36201
36204
36185
35997
36234
36395
36191
36142
36313
36169
36294
36401
36439
36380
36213
36341
36148
36336
36287
36291
36525
36518
36643
36302
36261
36324
36274
36323
36337
36477
36390
36395
36593
36435
36545
36416
36747
36614
36874
36844
36616
36657
36958
36658
36653
36903
36948
36782
36914
36842
36713
36950
36849
36922
36906
37063
37148
37092
37130
37051
37178
37013
36977
37054
36879
36830
37150
37249
37257
37119
37219
36968
37259
37281
37011
36943
37284
37207
37066
37092
37319
37095
37312
37185
37158
37360
36967
37189
36966
37341
37287
36989
37251
37302
36981
37192
36925
36673
36842
36612
36904
36850
36729
36517
36511
36573
36409
36566
36345
36444
36463
36568
36609
36299
36333
36526
36206
36290
36182
36550
36382
36191
36498
36101
36441
36314
36402
36069
36317
36349
36129
36005
36078
36090
36281
36324
36194
36310
36497
36096
36057
36153
36119
36367
36082
36222
36348
36127
36417
36505
36516
36336
36156
36524
36495
36538
36479
36324
36360
36400
36274
36471
36407
36390
36340
36522
36288
36373
36418
36414
36427
36510
36639
36549
36646
36464
36602
36771
36713
36703
36487
36630
36626
36809
36626
36919
36889
36927
36937
36622
36759
36916
36997
37047
37008
37083
37057
36811
36761
36957
37064
36929
36809
36977
36759
36953
37241
37141
37026
37126
37237
37073
36968
37278
37068
36937
36870
37102
37232
37008
37189
37367
36997
37198
37310
37345
37193
37345
37063
37314
36995
36934
36856
36969
36911
36885
36751
36907
36562
36674
36489
36538
36422
36714
36600
36394
36534
36276
36471
36525
36433
36326
36487
36487
36143
36480
36311
36354
36172
36373
36118
36114
36106
36100
36015
36195
36296
36127
35902
36236
36405
36244
36386
36233
36254
36260
36179
36165
36386
36438
36316
36269
36381
36204
36314
36199
36444
36172
36449
36345
36383
36361
36404
36451
36171
36429
36454
36508
36572
36352
36605
36270
36613
36522
36728
36335
36243
36387
36323
36325
36279
36581
36393
36305
36467
36517
36641
36390
36370
36641
36419
36685
36398
36497
36552
36531
36355
36592
36496
36679
36604
36726
36416
36506
36398
36766
36422
36710
36453
36749
36530
36898
36646
36761
36521
36916
36770
36633
36798
36480
36663
36710
36570
36586
36608
36845
36620
36793
36689
36880
36884
36980
36917
36695
37049
36692
36573
36784
36655
36727
36705
37025
37003
36746
36588
36602
36803
36519
36465
36274
36485
36578
36518
36352
36355
36396
36134
36276
36403
36209
36339
36177
35967
36119
36044
36167
36038
36007
36074
35934
36062
36209
36169
35793
35927
35925
36110
35942
35809
35999
36162
35790
35860
36246
35875
35951
36027
35964
36017
36270
36175
36241
36038
35961
36285
36273
36251
36288
36376
36053
36319
36199
35916
36202
36238
35983
36088
36090
36215
36388
36093
36198
36339
36338
36080
36103
36069
36205
36267
36181
36135
36237
36395
36242
36404
36166
36397
36144
36152
36272
36424
36188
36459
36084
36221
36484
36394
36131
36371
36177
36299
36102
36405
36277
36322
36495
36234
36483
36167
36312
36452
36450
36587
36333
36602
36521
36283
36521
36711
36667
36421
36758
36554
36432
36456
36460
36667
36472
36684
36899
36682
36843
36756
36645
36542
36624
36792
36517
36450
36648
36683
36458
36332
36410
36397
36373
36122
36162
36375
36336
36251
36177
36298
35894
35943
35825
35886
36119
35902
35797
36016
36107
35863
36118
35963
35920
35804
35876
35672
35843
35933
35758
35589
35843
36066
35817
36053
35936
35713
35788
35981
36060
35999
36077
35933
36234
36233
35784
35999
36054
35895
35941
35889
36026
36243
36168
36227
36161
36007
36322
36392
36069
35968
36288
36427
36174
36367
36358
36453
36098
35997
36257
36243
36108
36345
36515
36371
36387
36444
36217
36376
36473
36326
36214
36539
36466
36330
36628
36245
36219
36592
36338
36184
36262
36357
36563
36586
36596
36381
36443
36525
36378
36544
36671
36346
36478
36729
36715
36424
36418
36573
36450
36717
36893
36783
36461
36772
36716
36824
36670
36801
36792
36751
36575
36748
36821
36780
36845
36916
36809
36582
36687
36730
36409
36366
36439
36371
36330
36138
36450
36322
36432
36253
36086
36193
36170
36172
36319
36248
35968
35909
36200
35865
35878
36249
36176
35936
36003
35910
35914
35737
35817
36013
35782
35751
36082
35814
35766
35813
35816
35931
36055
36127
35942
35958
36082
36269
35947
36176
36041
36062
36292
36047
36215
36082
35972
36153
36152
36096
36214
36360
36266
36262
36339
36204
36193
36331
36224
36247
36303
36278
36161
36278
36528
36351
36310
36392
36555
36372
36245
36317
36239
36558
36402
36311
36281
36582
36582
36660
36289
36257
36270
36344
36385
36261
36634
36416
36455
36630
36579
36617
36413
36320
36417
36479
36594
36544
36692
36374
36670
36487
36379
36477
36656
36781
36642
36636
36429
36552
36621
36406
36728
36501
36691
36366
36666
36372
36770
36763
36716
36429
36422
36352
36278
36471
36514
36259
36192
36319
36201
36180
35881
36168
35815
35962
35928
36041
35942
35671
35862
35775
35812
35609
35660
35909
35773
35822
35606
35884
35659
35546
35486
35728
35387
35522
35815
35614
35730
35763
35428
35682
35489
35713
35510
35903
35697
35867
35748
35880
36009
35993
35788
35927
35875
36008
35707
35783
35940
35869
35793
36081
36044
35860
36150
36066
36028
35983
36182
36113
36254
35892
36266
36247
36219
35940
36134
35939
36344
36184
36440
36352
36356
36219
36334
36431
36144
36178
36415
36153
36104
36464
36165
36435
36117
36526
36303
36280
36287
36423
36234
36363
36280
36524
36240
36506
36319
36285
36385
36667
36300
36273
36304
36344
36324
36330
36483
36474
36460
36457
36483
36434
36644
36466
36676
36567
36561
36524
36390
36536
36683
36517
36664
36538
36606
36469
36717
36611
36570
36520
36416
36237
36310
36295
36168
36149
36200
36270
36098
35982
35812
35947
35977
35731
35998
36053
35820
35590
35787
35868
35720
35805
36025
35774
35865
35621
35956
35900
35484
35872
35739
35534
35916
35924
35489
35650
35878
35981
35993
35842
36043
35815
35859
35951
35788
36104
36121
35830
36082
35999
36061
35967
35898
36010
35960
36053
36041
36001
35964
36072
36113
36076
35964
36100
36177
35886
36135
36361
36303
35965
36080
36280
36333
36289
36372
36242
36448
36061
36372
36527
36245
36472
36279
36202
36206
36149
36340
36329
36232
36457
36618
36491
36470
36304
36577
36406
36395
36498
36473
36237
36582
36524
36577
36367
36421
36558
36484
36507
36495
36300
36346
36435
36573
36565
36363
36549
36492
36574
36500
36590
36684
36596
36598
36639
36615
36547
36496
36669
36561
36607
36487
36331
36266
36107
36183
36067
36200
36014
36335
35971
36158
36206
35939
36093
35940
35816
35989
35838
35942
35981
35940
35838
35795
35991
35975
35731
35643
35605
35881
35887
35682
35607
35736
35558
35880
35785
35712
35562
35825
35868
35893
35898
36036
35853
35887
35833
36107
35889
35939
35844
36055
35751
36021
35958
35790
36007
36077
35994
35905
35681
35894
36097
36008
35887
35957
36008
36152
36176
35919
35944
35977
36107
36178
35976
36023
36096
36222
36186
36151
36026
36196
36193
36189
36225
36114
36251
36179
35957
36177
35882
36041
36256
36017
36129
36012
35940
36149
36345
36122
36202
36112
36149
36420
36073
36424
36214
36123
36344
36281
36484
36560
36478
36368
36273
36653
36424
36605
36286
36715
36548
36465
36648
36466
36239
36380
36230
36296
36445
36254
36350
36107
35998
36145
36227
36109
36096
35881
36013
36116
35847
36186
35840
35825
35893
35931
35912
35599
35879
35718
35540
35728
35591
35675
35762
35456
35458
35371
35447
35399
35380
35293
35632
35668
35331
35411
35649
35433
35733
35534
35277
35708
35498
35451
35362
35608
35383
35316
35402
35800
35702
35495
35699
35679
35817
35650
35684
35604
35672
35568
35561
35596
35765
35589
35633
35814
35853
35662
35717
35960
35831
35984
35917
35624
35769
35674
35856
35611
35703
36032
35696
36057
36029
36060
35976
35607
36110
36095
35844
35856
35916
36050
36077
36067
36060
35796
35835
35887
35987
36105
35820
36157
35987
36071
36143
36308
35958
35958
36204
35980
36274
36174
36011
36268
36034
36135
35994
36168
35927
36093
36067
36084
36118
35859
35724
35703
35927
35713
35844
35549
35587
35607
35448
35494
35488
35331
35278
35321
35121
35447
34974
35072
34973
34947
35192
34989
35158
35119
34852
34884
34928
34711
34925
34939
34673
34819
34772
34697
34804
34793
34637
34439
34706
34711
34599
34877
34728
34470
34821
34948
34581
34914
34894
34952
34933
34826
34643
34540
34676
34722
34831
34912
34617
34993
34769
34821
34942
35041
34907
35092
34759
34925
35075
34884
35087
35184
35045
35027
35001
35114
35230
35052
35190
35264
35126
35084
35069
35164
34963
35217
35399
35140
35329
35151
35172
35185
35363
35360
35342
35130
35092
35361
35262
35265
35315
35112
35227
34986
35029
35287
35041
35314
35227
35313
34998
35133
35305
35136
35071
35418
35153
35265
35104
35276
35421
35261
35267
35330
35131
35218
35064
35267
35165
34920
35164
35173
35052
34743
34902
34670
34714
34849
34726
34919
34792
34512
34426
34460
34550
34307
34676
34536
34148
34394
34112
34311
34113
34284
34298
34284
34265
33879
34207
33814
34103
33911
33976
33830
33920
33886
33918
33670
34014
33815
33853
33833
34120
34039
33915
33818
34123
34088
34002
34115
33924
34139
34182
34183
34196
34161
34141
34181
34235
34203
34250
34245
34269
34414
34380
34281
34430
34456
34489
34395
34479
34190
34203
34597
34532
34178
34581
34396
34494
34254
34412
34340
34407
34389
34681
34380
34463
34379
34738
34732
34394
34639
34478
34372
34511
34741
34622
34337
34746
34572
34619
34408
34764
34601
34561
34624
34616
34686
34626
34883
34748
34754
34917
34793
35052
34994
34593
35008
35013
34914
35119
35081
34852
34967
34808
35003
34896
34874
34917
34813
34593
34878
34651
34541
34485
34561
34738
34680
34434
34539
34658
34368
34419
34261
34290
34184
34171
34270
34274
34212
33934
33837
33889
34007
34157
33985
33963
33950
33869
34038
33814
33601
33793
33815
33788
33771
33733
33949
33823
33684
33611
33702
33995
33817
33821
33906
33921
33905
34000
33908
34018
34063
33994
34184
34214
34004
34069
34178
34362
34047
34167
34198
34319
34474
34461
34182
34562
34529
34307
34273
34272
34447
34658
34649
34729
34492
34716
34663
34819
34572
34724
34730
34499
34538
34638
34881
34663
34833
34733
34960
34861
34918
34708
34743
34732
34683
34902
34855
34999
35059
34826
34982
34921
35185
34846
34932
34736
35030
35034
34858
35196
35009
34811
34850
34987
35181
35067
34936
34939
35154
35180
34890
35045
35117
35220
35166
35295
34896
35070
35162
35211
34988
34979
34908
34630
34890
34679
34851
34774
34772
34631
34733
34823
34413
34540
34582
34532
34306
34357
34600
34478
34236
34213
34193
34429
34250
34041
34405
34106
33968
34308
34364
34315
34333
34398
34177
34025
34124
34164
34220
34010
34254
34498
34188
34143
34353
34416
34260
34337
34137
34480
34334
34356
34504
34441
34223
34529
34295
34571
34192
34362
34364
34642
34318
34418
34730
34766
34587
34525
34631
34777
34567
34638
34643
34542
34995
35027
34921
34787
35033
34769
35047
34803
34895
34815
34859
34771
35123
35030
34954
34751
34951
34940
34896
34849
34927
34880
34999
34808
35085
34958
35118
34950
34982
34891
34988
35074
35064
35091
35258
35014
35173
35087
35010
35190
35381
35257
35165
35340
35292
35124
35152
35138
35153
35141
35209
35365
35162
35289
35211
35021
35006
35200
35045
35031
35075
35149
34768
34770
34947
34950
34661
34863
34952
34732
34395
34623
34534
34476
34718
34692
34380
34411
34504
34300
34430
34574
34450
34134
34547
34533
34352
34197
34199
34497
34491
34180
34439
34247
34388
34578
34364
34559
34438
34595
34232
34496
34520
34593
34677
34423
34644
34398
34470
34598
34578
34693
34566
34730
34764
34600
34691
34514
34694
34450
34507
34567
34619
34530
34560
34656
34931
34789
34769
34862
34952
34727
34669
34673
34879
34785
34875
34726
34815
34734
35111
35057
34869
34737
34926
35072
34909
34881
34962
35096
34906
35030
35040
34927
35112
34942
35118
34841
35173
34925
34813
34851
35002
35006
35125
35271
35188
35280
35105
35086
35016
35359
35244
35405
35006
35332
35022
35090
35344
34958
35080
35279
35014
34905
34902
34887
34797
34932
34963
34846
34754
34801
34833
34676
34359
34449
34594
34561
34578
34499
34484
34414
34370
34397
34418
34321
34215
34318
34241
34180
34239
34240
34199
34063
34287
34123
34326
33999
34380
34306
34275
34134
34405
34175
34372
34258
34357
34358
34384
34486
34445
34451
34422
34671
34513
34540
34437
34503
34777
34499
34601
34616
34563
34662
34668
34699
34604
34454
34575
34672
34738
34632
34731
34768
34868
34692
34782
34798
34922
34757
35003
34843
34807
34849
34807
35085
35087
35069
35083
34951
34828
34847
34897
34817
35169
35218
35078
35212
34951
34951
34839
34965
35219
35243
35295
35188
34985
35279
34925
35150
35012
35195
35267
35138
35301
35281
35116
35194
35565
35170
35267
35287
35276
35521
35528
35610
35465
35321
35330
35219
35151
35017
35268
35100
35106
34967
35134
35064
34807
34973
34692
34763
34885
34670
34880
34637
34486
34440
34348
34721
34673
34307
34559
34196
34355
34707
34475
34332
34566
34193
34482
34077
34301
34386
34370
34396
34562
34345
34417
34319
34053
34197
34218
34183
34361
34473
34184
34343
34377
34634
34400
34426
34454
34647
34546
34524
34638
34677
34698
34386
34635
34581
34705
34525
34742
34752
34861
34580
34743
34643
34976
34653
34904
34891
34650
34728
34812
34768
34854
34993
35022
35141
35210
34913
34995
35085
35181
35024
35080
34951
34973
35102
35267
35026
35176
34923
35269
35207
34985
35230
35107
35197
35166
35341
35508
35216
35147
35506
35293
35442
35192
35490
35487
35120
35482
35454
35261
35474
35350
35217
35442
35154
35394
35475
35368
35358
35571
35344
35510
35199
35569
35213
35113
35190
35185
35124
35146
34838
34729
34912
34788
35018
34867
34840
34439
34561
34774
34672
34683
34701
34359
34535
34289
34312
34471
34117
34579
34456
34127
34208
34517
34343
34333
34222
34167
34132
33901
34061
34290
34034
34148
34004
34169
34133
34163
34228
34188
34196
34219
34183
34254
34085
34298
34399
34206
34422
34306
34307
34244
34466
34347
34422
34286
34479
34622
34244
34136
34490
34314
34497
34392
34446
34310
34386
34523
34277
34455
34232
34534
34496
34609
34614
34606
34748
34556
34536
34382
34552
34361
34425
34523
34414
34408
34376
34450
34496
34718
34688
34467
34554
34414
34531
34652
34852
34498
34496
34622
34459
34584
34709
34697
34522
34615
34591
34733
34590
34765
34587
34620
34673
34668
34901
34671
34796
34909
34930
35086
35041
35156
34947
34637
35037
34979
34970
34681
34608
34623
34663
34315
34611
34727
34303
34578
34466
34159
34281
34144
34439
34181
34190
33978
34291
33940
34105
34297
34037
34127
33969
33915
33946
33982
33879
33928
33799
33834
33748
33735
33870
33817
33937
33813
33574
33739
34012
33928
33996
33828
34128
33923
34082
33784
34189
33803
33769
34038
34108
34226
33971
34064
34198
33977
34041
34273
34075
34041
34251
34062
34127
34302
34423
34301
34004
34362
34372
34364
34392
34436
34352
34555
34531
34414
34336
34598
34548
34341
34654
34359
34440
34740
34603
34381
34634
34881
34653
34567
34825
34706
34521
34610
34903
34727
34581
34790
34859
34769
34875
34781
34934
34737
35006
34947
35189
35082
34821
34848
34863
34927
35157
35016
35133
35151
35043
35105
35072
34833
35212
35360
35263
35153
35216
35206
35152
35232
35381
35243
35038
35120
35256
34984
34847
35136
35085
35056
34628
35008
34959
34723
34412
34786
34646
34527
34429
34646
34566
34594
34429
34634
34425
34490
34252
34189
34443
34148
34071
34168
34016
34284
34064
34191
33967
34139
34189
34205
34244
34082
34199
34116
34208
34182
34265
34308
34352
34178
34412
34529
34466
34721
34325
34666
34507
34368
34337
34679
34839
34673
34553
34656
34492
34474
34592
34800
34510
34666
34387
34550
34953
34849
34886
34653
34867
34571
34779
34999
34762
34873
34982
34913
34960
34668
35058
34781
34779
34744
34777
34951
34943
34930
35224
35129
35103
34935
35193
35151
34768
34913
34939
34939
34860
34888
35137
34919
34966
35242
35136
35049
35221
35300
35142
34906
35004
35434
35308
35360
35375
35213
35489
35192
35177
35242
35417
35346
35438
35460
35429
35581
35239
35542
35516
35313
35476
35466
35350
35149
35371
35284
35359
35380
35169
35082
35029
35222
35085
34788
35078
34902
34913
34782
34993
34779
34584
34826
34800
34728
34391
34483
34607
34620
34699
34460
34396
34554
34364
34711
34652
34644
34646
34724
34391
34293
34387
34628
34448
34380
34458
34567
34661
34532
34560
34638
34583
34758
34934
34763
34779
34693
34926
34741
34798
34945
34718
34754
34876
34706
35012
35010
34999
35140
34823
34933
35090
34797
35032
34824
35191
34949
35200
34874
34966
35297
35165
34925
34992
35281
35190
35353
35340
35034
34938
35389
35400
35125
35247
35371
35228
35483
35475
35139
35312
35475
35202
35206
35253
35480
35328
35252
35470
35488
35512
35414
35399
35561
35524
35485
35628
35508
35475
35420
35599
35718
35396
35411
35640
35464
35614
35459
35548
35449
35664
35756
35525
35871
35517
35472
35549
35556
35430
35797
35421
35551
35513
35601
35210
35217
35224
35327
35231
35090
35118
35236
35009
35203
35128
35188
35014
34773
35032
35019
34872
34885
34863
34944
34826
34623
34769
34673
34810
34674
34794
34651
34715
34485
34686
34687
34707
34630
34576
34685
34870
34743
34585
34618
34933
34992
34935
34969
34948
35044
34806
34879
34932
34809
34926
34735
35126
34849
35099
34877
34776
34976
34921
34800
35282
35119
34990
34853
34911
34873
35114
34893
35076
34975
35247
35157
35248
35125
35029
35070
35148
34891
35137
35233
35175
35038
35129
35190
35046
35251
35214
35047
35086
35063
35085
35322
35117
35151
35242
35287
35333
35317
35383
35095
35033
35209
35209
35269
35154
35454
35553
35281
35130
35402
35246
35314
35298
35149
35182
35338
35541
35539
35458
35187
35533
35382
35113
35437
35148
35233
35268
35133
35041
35192
35207
35170
35193
35141
34881
34880
34665
34966
34629
35007
34778
34795
34752
34694
34513
34453
34675
34559
34630
34307
34278
34497
34260
34389
34538
34311
34503
34446
34203
34274
34178
34340
34241
34233
34478
34541
34650
34401
34341
34314
34494
34450
34447
34691
34609
34622
34620
34660
34642
34356
34456
34775
34410
34631
34849
34424
34578
34502
34711
34527
34533
34830
34904
34823
34471
34642
34993
34943
34897
34679
34925
34944
34742
34754
34809
34612
34909
35134
34923
35044
35030
34934
34829
34922
35149
34974
34745
34902
35202
35037
34724
34874
35192
35173
35070
34857
35041
34827
35144
35209
34864
34917
34854
35108
35145
35208
35066
34970
35281
35324
35185
35336
35048
35139
35279
35276
34962
35145
35023
35211
35290
35354
35133
35141
35050
34984
34940
35069
35165
35250
34829
34718
35041
34748
34841
34642
34880
34668
34784
34762
34900
34888
34500
34591
34528
34536
34722
34502
34559
34479
34591
34357
34257
34313
34188
34378
34624
34434
34464
34321
34325
34421
34652
34279
34543
34532
34504
34735
34549
34245
34424
34558
34431
34378
34680
34422
34573
34309
34813
34637
34376
34471
34838
34694
34746
34622
34466
34521
34783
34486
34725
34809
34820
34593
34771
34879
34754
34632
34753
34954
34883
34842
34907
34961
35050
34792
35019
34861
35180
34924
34786
34771
34945
35024
35034
35031
34998
34808
34906
34853
34990
35083
34812
34796
35037
34775
35029
34996
35095
35038
35120
35155
35134
34995
35001
35085
35047
35171
35064
35085
34905
34997
35004
35205
35225
35199
35109
35235
34914
35107
35416
35154
35077
35409
35119
35187
35216
35424
35258
34943
35022
35047
35143
34927
35039
35081
34885
34764
34880
34762
34722
34670
34474
34526
34658
34402
34459
34462
34260
34522
34216
34401
34463
34520
34466
34032
34154
34091
34063
34284
34081
34026
34112
34172
34157
34198
34089
34035
34132
34163
34091
34001
34117
34140
34076
34095
34140
34155
34072
34123
34037
34102
34043
34197
34115
34128
34072
34221
34058
33962
33961
34227
34225
33993
34293
34123
34146
34278
34180
34444
34147
34125
34296
34431
34300
34251
34378
34257
34314
34349
34422
34348
34503
34338
34690
34513
34571
34543
34611
34314
34478
34806
34553
34711
34625
34798
34548
34460
34664
34703
34584
34627
34701
34771
34787
34733
34905
34785
34804
34716
35014
34752
35021
34941
35136
35035
35067
34834
34735
34799
34941
35002
34995
34978
35221
35104
34964
34936
35024
35016
34970
35272
35061
35330
35151
35141
34992
35108
35309
35110
35340
35142
35135
35122
35003
34821
34837
34923
34774
34707
34607
34857
34731
34422
34586
34668
34402
34224
34430
34322
34133
34259
34112
34071
34160
34162
34013
34179
33975
34026
34072
34068
33945
33974
34045
33929
33927
33991
33941
33847
33880
33870
33879
33890
33824
33873
33856
33817
33989
33808
33738
34061
34107
33870
33962
33841
33968
34109
33975
33877
34188
33988
34003
33869
34193
34199
33915
34072
34238
33944
34162
33983
34282
33994
34132
34180
34366
34132
34182
34124
34282
34397
34227
34557
34331
34443
34423
34429
34425
34421
34356
34485
34570
34506
34628
34495
34509
34542
34516
34519
34566
34645
34650
34752
34607
34649
34668
34485
34649
34511
34849
34880
34693
34854
34761
34846
34858
34907
34812
34920
34882
34954
34885
34863
35008
34890
35006
35121
34952
34917
35196
35079
35106
34848
35124
35254
35106
35236
35099
35218
35110
35127
35143
35094
35157
35167
35122
35135
35246
35106
35173
35050
35130
34973
34807
34996
35028
34748
34927
34806
34897
34650
34734
34573
34342
34661
34375
34565
34663
34593
34561
34561
34450
34272
34305
34370
34454
34388
34239
34395
34460
34215
34379
34144
34177
34262
34442
34149
34434
34358
34083
34382
34093
34311
34041
34151
34271
34438
34216
34320
34531
34417
34337
34487
34441
34380
34355
34478
34435
34441
34435
34504
34475
34528
34620
34586
34308
34558
34806
34428
34692
34838
34494
34572
34680
34893
34588
34677
34554
34598
34875
34822
34663
34929
34638
34741
34776
34676
34677
34653
34809
34951
34873
34911
34777
35006
35002
34744
34952
34771
34876
35120
35036
34788
34956
35089
35021
34832
34997
34978
35042
35058
35129
35046
35067
34810
34923
35099
34900
35002
34959
35284
35193
35024
35161
35271
35176
35369
35415
35005
34955
35182
35339
35027
35190
35506
35302
35145
35235
35361
35285
35403
35370
35176
35171
35448
35174
35273
35029
35105
34985
35076
35039
34994
35267
34914
34712
34828
34939
34718
34700
35048
34860
34792
34831
34940
34741
34597
34637
34716
34823
34664
34717
34886
34843
34812
34537
34835
34443
34556
34756
34561
34829
34680
34868
34717
34593
34584
34540
34643
34869
34562
34777
34666
34659
34682
34892
34924
34806
35048
34710
34580
34837
34707
34745
34867
34804
34921
34928
34935
34799
34896
34904
34692
35093
34848
34846
34780
34835
34962
34839
35050
34901
34887
34685
35172
34958
34847
35162
35213
35172
34996
34927
35274
34993
35026
35092
35069
35252
35048
35358
35264
34984
35152
35362
35232
35258
35087
35405
35251
35321
35130
35204
35126
35301
35177
35327
35343
35209
35493
35275
35416
35225
35509
35291
35192
35244
35297
35332
35486
35279
35177
35417
35330
35426
35183
35428
35194
35364
35595
35387
35536
35350
35556
35340
35343
35401
35416
35297
35348
35538
35516
35496
35714
35416
35222
35359
35445
35353
35091
35281
35313
35157
35080
35416
35298
35128
34985
35168
35246
35202
34969
35025
34880
34745
35064
34901
35082
35036
35090
35115
34744
34974
34942
34984
35073
34885
34744
34855
34854
35017
35101
34851
34805
34783
34832
34946
35086
34777
34923
35048
35019
34815
34881
35120
34991
34857
35025
35044
35246
35016
35010
34765
35278
35051
34858
35192
35254
35097
35059
35050
34922
34925
35006
35250
35138
34983
35233
34885
35046
34868
35192
35199
35212
34955
35097
35287
35092
34988
35110
35256
35203
35020
34986
35125
35234
35223
35383
35275
35038
35085
34972
35235
35037
35046
35304
35149
35174
35074
35199
35398
35178
35085
35165
34973
35307
35390
35360
35101
35471
35175
35415
35156
35199
35402
35376
35427
35360
35347
35375
35417
35354
35233
35404
35538
35602
35416
35477
35393
35487
35484
35447
35598
35333
35576
35384
35229
35506
35268
35522
35371
35386
35424
35447
35304
35288
35161
35396
35148
35315
35185
35275
35103
35212
35286
34925
35141
35115
35198
34935
34800
34941
35155
35135
34932
34837
34885
35069
34675
35097
35048
34805
34716
34982
35063
34941
34873
34789
34946
34984
34764
34981
34716
34857
34907
34749
34830
34902
34771
34821
34853
35085
35098
34986
34899
34868
34918
35182
35119
35217
35112
34963
34794
34856
35058
34927
35069
34982
35060
34901
35141
34956
35074
35173
35048
35110
35112
35119
35128
35244
35163
35175
35318
35181
35269
35271
35235
35179
35313
35051
35427
35047
35097
35032
35423
34992
35282
35086
35160
35023
35379
35209
35134
34990
35347
35131
35198
35009
35390
35200
35419
35300
35136
35247
35041
35310
35336
35339
35254
35451
35533
35155
35163
35542
35299
35353
35194
35659
35332
35306
35503
35301
35355
35617
35380
35522
35509
35645
35700
35516
35453
35338
35316
35455
35451
35488
35654
35555
35228
35277
35224
35479
35038
35150
35437
35024
35313
35488
35026
35185
35241
35145
35184
35006
34929
35060
35106
35196
34986
35080
35079
34893
35186
35025
35048
34976
35023
34924
34800
34900
34817
34863
34866
34875
34899
34817
34894
35010
35019
34657
34780
35083
34910
34703
34767
35133
34804
34695
35099
35136
34831
34884
35098
35200
34799
34996
34956
34966
34994
34796
34932
34834
34827
35089
34870
34905
35148
35067
35236
35075
35278
35074
35068
34911
34932
34873
34946
35177
35094
35335
35229
35058
35203
35175
35008
35153
35241
35152
35237
35203
35271
35178
35016
35239
35366
35044
35386
35075
35061
35192
35222
35303
35354
35319
35180
35279
35341
35276
35178
35087
35139
35110
35202
35450
35419
35234
35172
35319
35104
35254
35270
35325
35483
35410
35187
35533
35436
35374
35491
35508
35348
35232
35514
35414
35561
35231
35506
35553
35345
35257
35316
35459
35178
35493
35334
35059
35148
35293
35011
35275
35193
35022
34887
34970
35081
35231
35158
34929
34980
35018
34741
35079
35054
34962
34913
35161
34828
34727
34963
34725
34931
34751
35017
34815
34693
34740
34613
34825
35032
34856
34823
34760
35025
34809
35084
34724
34677
35116
35049
35025
34746
34698
34964
35038
34952
35108
35071
34722
35102
35140
34902
34946
34981
35094
34831
34764
34777
34782
35062
35057
34798
34850
35100
34901
34819
34890
35129
35145
34905
35166
34984
35269
35043
35147
35014
35292
35134
34921
35126
34939
35078
35258
35249
34951
35004
35146
35256
35190
35040
35226
35125
35127
35303
35195
35019
35306
35282
35340
35094
35115
35195
35316
35014
35107
35183
35402
35332
35011
35163
35398
35266
35305
35424
35072
35177
35210
35478
35358
35061
35357
35429
35400
35196
35250
35516
35227
35346
35456
35426
35192
35070
35008
35177
34906
35021
35232
34976
35066
35069
34935
35088
34764
35010
34970
34807
34594
34917
34805
34854
34552
34905
34712
34791
34566
34451
34654
34548
34705
34505
34466
34458
34639
34511
34463
34532
34552
34400
34334
34539
34399
34550
34349
34568
34427
34622
34651
34771
34664
34424
34440
34735
34592
34728
34621
34835
34734
34404
34595
34488
34573
34892
34612
34479
34497
34463
34866
34784
34773
34623
34580
34752
34681
34697
34508
34640
34694
34666
34727
34590
34770
34708
34845
34749
34752
34891
34688
34673
34938
34744
34770
34609
34952
34923
34873
34844
34788
35091
34924
34698
34975
34731
34851
34910
34887
35018
34877
35108
35155
34764
34835
35209
34923
35095
34951
35130
34981
34982
35123
34934
35029
35117
35056
35139
35009
35039
35116
35080
35098
35082
35306
35101
35224
34969
34879
35088
35057
34875
35267
35122
34733
34863
34832
34965
34580
34789
34726
34550
34852
34719
34822
34452
34681
34407
34418
34637
34667
34594
34586
34474
34595
34402
34333
34300
34486
34382
34093
34368
34388
34349
34106
34389
34398
34018
34428
34514
34320
34358
34388
34438
34258
34090
34473
34138
34397
34433
34304
34584
34327
34304
34653
34560
34294
34265
34299
34502
34248
34288
34503
34284
34434
34345
34439
34453
34548
34495
34561
34473
34501
34559
34713
34521
34547
34677
34562
34597
34661
34683
34590
34604
34621
34659
34567
34668
34640
34677
34659
34766
34715
34747
34635
34755
34757
34757
34704
34866
34877
34689
34946
35005
34955
34839
34725
34918
34812
34784
34826
34954
34759
34999
34938
34747
34872
34705
34959
35115
34931
35065
34978
34897
34970
35009
35063
34904
34938
34989
35039
34897
34997
35078
34960
34829
34892
35072
34848
34582
34708
34921
34707
34590
34893
34705
34349
34425
34610
34510
34565
34383
34430
34606
34509
34479
34374
34365
34314
34349
34430
34264
34163
34353
34242
34147
34330
34386
34404
34286
34320
34408
34296
34245
34264
34346
34360
34285
34464
34407
34225
34431
34380
34435
34390
34455
34471
34357
34465
34497
34571
34348
34381
34349
34541
34358
34388
34587
34590
34468
34402
34380
34385
34536
34520
34791
34574
34403
34579
34438
34755
34591
34763
34611
34634
34667
34790
34730
34640
34618
34724
34521
34673
34741
34729
34857
34811
34705
34823
34894
34866
34809
34851
34654
35074
35017
34682
35157
34728
34707
34790
34826
35136
34973
34971
34884
34844
34973
34908
35121
34804
34888
35209
35007
35106
35020
35000
35002
35058
34868
35074
34811
34896
34978
34941
35107
35015
34964
34866
34861
34867
34735
34890
34664
34469
34637
34823
34568
34513
34430
34608
34474
34311
34263
34477
34465
34431
34469
34487
34235
34324
34324
34430
34186
34348
34237
34038
34370
34080
34274
34053
34330
34420
34427
34038
34358
34505
34462
34279
34381
34163
34395
34346
34562
34443
34238
34388
34537
34527
34432
34354
34615
34578
34543
34601
34494
34451
34559
34412
34400
34217
34513
34682
34544
34311
34603
34488
34560
34579
34489
34450
34452
34396
34680
34821
34604
34706
34694
34765
34680
34626
34530
34849
34601
34665
34667
34767
34894
34610
34715
34629
34739
34794
34872
34886
34703
34824
34790
34805
34673
