40087
40393
40672
40929
41174
41402
41608
41804
41995
42171
42329
42473
42601
42712
42810
42908
43010
43107
43196
43278
43351
43413
43467
43525
43594
43668
43749
43846
43958
44076
44195
44313
44423
44514
44588
44651
44697
44720
44727
44728
44720
44700
44680
44662
44635
44592
44539
44479
44408
44332
44258
44195
44138
44081
44037
44022
44018
44016
44019
44025
44026
44017
44005
43996
43975
43938
43897
43858
43812
43759
43704
43640
43562
43478
43396
43307
43199
43079
42962
42848
42732
42623
42536
42469
42413
42369
42338
42314
42284
42245
42202
42155
42093
42017
41926
41817
41689
41555
41423
41280
41129
40983
40847
40721
40610
40518
40447
40383
40326
40280
40237
40191
40142
40093
40036
39965
39886
39807
39721
39621
39512
39404
39295
39172
39034
38879
38706
38523
38351
38190
38035
37889
37759
37648
37541
37428
37324
37235
37152
37070
37004
36955
36906
36851
36796
36739
36669
36589
36506
36420
36328
36233
36139
36047
35944
35830
35715
35591
35455
35310
35167
35032
34897
34763
34644
34530
34410
34300
34210
34125
34035
33949
33881
33836
33827
33862
33945
34067
34217
34403
34629
34879
35143
35423
35713
35999
36278
36555
36827
37083
37321
37549
37762
37949
38114
38261
38384
38471
38533
38590
38651
38719
38801
38898
38988
39049
39089
39116
39125
39121
39121
39134
39157
39188
39236
39305
39378
39446
39521
39601
39666
39710
39741
39761
39755
39727
39688
39635
39570
39496
39409
39305
39188
39066
38953
38851
38759
38684
38638
38620
38622
38641
38675
38714
38756
38807
38862
38907
38940
38965
38978
38976
38965
38947
38924
38891
38849
38808
38772
38738
38707
38685
38679
38678
38674
38671
38664
38642
38603
38554
38494
38424
38345
38264
38176
38079
37983
37899
37821
37746
37679
37631
37598
37568
37537
37503
37456
37392
37318
37242
37160
37066
36970
36881
36794
36710
36628
36542
36461
36401
36371
36359
36355
36362
36386
36418
36438
36439
36428
36407
36373
36330
36278
36219
36150
36074
36000
35930
35850
35766
35698
35647
35595
35544
35504
35472
35443
35426
35421
35417
35399
35372
35340
35298
35241
35185
35136
35085
35033
34987
34960
34953
34960
34975
34995
35008
35011
35007
34989
34947
34887
34824
34762
34706
34671
34665
34687
34736
34819
34946
35116
35320
35568
35880
36248
36649
37083
37551
38028
38494
38946
39375
39768
40127
40458
40768
41053
41306
41537
41751
41940
42102
42251
42392
42516
42620
42706
42774
42812
42820
42812
42796
42780
42776
42785
42794
42814
42858
42925
43001
43068
43123
43164
43179
43168
43144
43112
43064
42986
42880
42765
42641
42500
42356
42230
42128
42061
42032
42025
42012
41986
41964
41956
41950
41927
41886
41835
41776
41720
41688
41675
41661
41637
41608
41573
41522
41453
41369
41265
41137
40995
40856
40721
40584
40448
40323
40207
40092
39984
39890
39806
39725
39651
39587
39517
39429
39327
39213
39079
38932
38791
38664
38548
38438
38340
38254
38171
38089
38010
37929
37837
37738
37644
37554
37459
37352
37252
37166
37086
37007
36935
36868
36796
36722
36664
36617
36573
36534
36503
36473
36435
36394
36358
36320
36272
36221
36171
36120
36075
36048
36038
36027
36002
35969
35938
35906
35870
35839
35815
35789
35757
35723
35687
35644
35601
35564
35533
35487
35421
35348
35273
35197
35122
35056
35000
34953
34920
34910
34918
34932
34954
34989
35029
35067
35108
35156
35199
35241
35299
35394
35524
35684
35882
36125
36406
36726
37097
37519
37973
38448
38955
39489
40032
40566
41079
41567
42024
42447
42826
43147
43398
43581
43711
43797
43840
43851
43848
43842
43847
43880
43944
44030
44126
44228
44341
44467
44597
44730
44869
45006
45135
45259
45385
45509
45621
45723
45810
45867
45886
45878
45849
45796
45720
45630
45539
45440
45340
45257
45184
45113
45048
44997
44958
44922
44889
44857
44818
44771
44720
44663
44583
44477
44363
44253
44135
44013
43902
43809
43723
43642
43573
43522
43484
43446
43416
43393
43366
43332
43299
43271
43243
43206
43166
43125
43080
43032
42991
42958
42925
42885
42838
42779
42699
42603
42510
42425
42338
42248
42169
42098
42028
41968
41932
41915
41905
41906
41927
41959
41993
42035
42084
42122
42132
42115
42080
42026
41955
41874
41796
41721
41648
41582
41517
41448
41374
41302
41219
41120
41003
40868
40720
40561
40396
40241
40104
39981
39875
39789
39714
39644
39578
39523
39472
39417
39366
39327
39295
39256
39212
39165
39113
39054
38996
38938
38872
38795
38714
38631
38540
38449
38378
38330
38287
38247
38221
38216
38219
38219
38221
38221
38215
38204
38204
38224
38264
38326
38422
38554
38719
38927
39184
39484
39817
40185
40594
41028
41469
41916
42364
42798
43197
43564
43908
44222
44504
44763
44999
45201
45359
45480
45578
45657
45720
45779
45836
45886
45934
45995
46075
46162
46246
46339
46448
46560
46668
46776
46877
46962
47030
47086
47129
47150
47159
47168
47173
47165
47155
47155
47159
47155
47147
47130
47093
47030
46950
46861
46759
46653
46551
46453
46356
46261
46170
46084
45999
45918
45856
45813
45782
45764
45758
45757
45758
45763
45767
45759
45733
45698
45669
45643
45606
45563
45526
45491
45445
45388
45325
45250
45162
45070
44985
44900
44806
44708
44604
44484
44351
44223
44107
43994
43877
43764
43658
43549
43440
43341
43256
43174
43092
43014
42937
42859
42779
42698
42618
42541
42475
42418
42358
42294
42238
42194
42152
42094
42015
41922
41824
41722
41630
41564
41514
41461
41407
41359
41309
41245
41167
41071
40955
40833
40726
40641
40572
40520
40488
40477
40478
40487
40510
40546
40581
40607
40627
40644
40644
40629
40604
40572
40527
40463
40389
40307
40217
40125
40039
39955
39869
39787
39722
39668
39619
39578
39557
39544
39522
39488
39434
39356
39264
39181
39129
39109
39120
39172
39270
39408
39588
39826
40125
40468
40844
41251
41682
42117
42553
42993
43428
43838
44216
44570
44902
45205
45479
45732
45967
46178
46365
46531
46670
46783
46876
46961
47039
47108
47177
47254
47328
47389
47451
47518
47581
47638
47704
47784
47871
47957
48040
48117
48178
48218
48240
48248
48233
48192
48136
48070
47997
47921
47850
47786
47723
47665
47620
47583
47544
47507
47485
47481
47486
47502
47532
47571
47604
47630
47653
47670
47670
47656
47633
47585
47501
47391
47272
47141
47000
46861
46729
46601
46476
46362
46268
46187
46114
46053
46003
45950
45886
45822
45760
45689
45612
45544
45492
45444
45399
45360
45317
45260
45198
45146
45105
45068
45040
45028
45033
45051
45088
45148
45225
45306
45398
45512
45633
45751
45864
45968
46054
46111
46138
46136
46091
46000
45872
45715
45525
45313
45100
44899
44707
44524
44349
44181
44029
43909
43817
43741
43666
43585
43501
43410
43312
43218
43132
43041
42939
42836
42752
42686
42632
42587
42547
42496
42425
42334
42213
42051
41852
41629
41395
41159
40933
40735
40569
40427
40310
40232
40195
40181
40174
40162
40142
40107
40058
40000
39933
39844
39733
39618
39504
39391
39295
39233
39203
39196
39216
39272
39364
39487
39655
39879
40151
40459
40803
41177
41560
41944
42329
42705
43063
43397
43717
44030
44337
44633
44918
45186
45427
45633
45800
45929
46014
46055
46071
46067
46045
46016
45990
45973
45966
45973
46012
46089
46197
46332
46501
46689
46874
47050
47207
47337
47440
47517
47562
47560
47501
47408
47303
47184
47050
46905
46756
46595
46412
46217
46022
45826
45627
45437
45265
45100
44942
44804
44687
44586
44502
44440
44396
44357
44318
44294
44293
44307
44333
44368
44403
44430
44446
44452
44440
44405
44359
44309
44242
44146
44030
43899
43747
43578
43407
43245
43094
42951
42824
42718
42625
42544
42480
42432
42381
42321
42262
42211
42163
42127
42114
42122
42136
42144
42148
42143
42121
42080
42026
41952
41853
41742
41632
41523
41405
41275
41136
40989
40831
40677
40543
40416
40287
40164
40055
39950
39845
39756
39688
39632
39580
39540
39519
39508
39504
39510
39528
39548
39561
39571
39578
39573
39555
39529
39489
39429
39354
39275
39193
39115
39057
39026
39009
38995
38986
38990
39005
39017
39024
39035
39051
39068
39096
39146
39210
39268
39323
39382
39443
39507
39588
39698
39844
40033
40278
40577
40914
41282
41687
42121
42563
43003
43441
43862
44249
44596
44899
45157
45369
45540
45675
45775
45851
45925
46009
46098
46190
46293
46410
46524
46620
46705
46792
46880
46961
47038
47116
47189
47258
47327
47400
47472
47542
47611
47673
47717
47743
47756
47759
47746
47713
47667
47610
47540
47459
47372
47276
47166
47047
46932
46823
46716
46615
46533
46469
46412
46364
46330
46305
46276
46246
46222
46200
46167
46116
46049
45961
45849
45725
45600
45460
45299
45136
44982
44837
44702
44585
44486
44395
44306
44232
44176
44124
44070
44021
43972
43917
43854
43782
43697
43600
43497
43393
43281
43153
43018
42890
42766
42639
42522
42423
42341
42268
42203
42154
42114
42068
42013
41961
41912
41865
41828
41796
41761
41716
41665
41620
41575
41516
41449
41376
41293
41199
41104
41008
40905
40799
40699
40605
40509
40411
40325
40254
40195
40145
40103
40062
40018
39977
39942
39903
39847
39779
39710
39640
39568
39496
39427
39350
39271
39204
39157
39122
39087
39052
39008
38947
38876
38808
38748
38690
38627
38574
38534
38506
38506
38547
38635
38771
38958
39199
39490
39817
40174
40558
40962
41370
41775
42176
42560
42916
43245
43556
43849
44123
44382
44627
44851
45041
45200
45344
45469
45576
45681
45785
45879
45961
46036
46112
46187
46262
46347
46449
46558
46666
46780
46891
46988
47074
47156
47229
47287
47340
47398
47454
47498
47529
47551
47563
47565
47564
47567
47561
47535
47496
47458
47419
47373
47328
47289
47242
47193
47155
47139
47147
47170
47210
47264
47318
47365
47409
47451
47484
47502
47506
47494
47459
47402
47331
47246
47151
47055
46969
46893
46821
46762
46731
46719
46709
46688
46660
46624
46577
46524
46467
46399
46318
46238
46164
46080
45967
45828
45677
45519
45356
45197
45044
44894
44756
44647
44560
44484
44419
44371
44344
44335
44338
44347
44354
44343
44312
44269
44208
44121
44012
43892
43761
43620
43481
43357
43239
43127
43037
42975
42936
42919
42934
42980
43043
43102
43156
43209
43250
43271
43277
43264
43227
43174
43122
43074
43026
42972
42916
42868
42821
42776
42744
42721
42694
42662
42641
42634
42634
42640
42652
42666
42676
42687
42692
42674
42627
42561
42506
42483
42494
42554
42673
42838
43039
43283
43573
43895
44230
44574
44928
45279
45617
45948
46272
46582
46874
47147
47398
47623
47820
47995
48151
48282
48393
48502
48612
48714
48812
48922
49043
49158
49266
49374
49480
49589
49703
49827
49963
50102
50239
50378
50509
50619
50710
50789
50854
50898
50919
50922
50905
50873
50840
50803
50753
50689
50623
50563
50495
50409
50310
50203
50084
49958
49841
49728
49615
49510
49428
49367
49323
49295
49284
49284
49286
49288
49299
49309
49298
49268
49233
49189
49135
49075
49011
48943
48859
48766
48678
48592
48504
48423
48353
48282
48202
48114
48018
47899
47757
47603
47440
47271
47104
46956
46834
46727
46635
46567
46521
46480
46435
46396
46360
46313
46259
46210
46160
46097
46027
45956
45879
45798
45723
45665
45617
45570
45532
45505
45478
45438
45393
45353
45314
45275
45251
45251
45266
45284
45310
45340
45352
45339
45313
45280
45233
45172
45111
45051
44987
44913
44829
44736
44636
44535
44436
44337
44234
44132
44041
43966
43902
43854
43827
43809
43796
43790
43792
43795
43791
43780
43764
43734
43680
43605
43510
43391
43252
43096
42927
42762
42620
42516
42454
42431
42442
42490
42576
42686
42813
42961
43128
43313
43521
43748
43983
44210
44423
44629
44828
45013
45182
45338
45481
45606
45717
45814
45892
45948
45995
46052
46116
46183
46262
46349
46429
46495
46555
46612
46657
46681
46700
46724
46737
46733
46732
46742
46757
46780
46819
46874
46933
46995
47063
47125
47175
47212
47241
47254
47233
47180
47116
47043
46956
46866
46791
46724
46657
46599
46557
46523
46485
46444
46406
46369
46318
46255
46188
46112
46022
45921
45823
45725
45620
45519
45430
45346
45261
45183
45119
45059
45000
44950
44908
44865
44822
44783
44744
44708
44677
44650
44619
44577
44523
44454
44357
44229
44083
43929
43765
43583
43393
43207
43031
42876
42757
42670
42612
42577
42561
42557
42546
42523
42501
42477
42435
42374
42302
42225
42139
42045
41956
41885
41823
41760
41705
41663
41621
41575
41536
41506
41476
41458
41460
41463
41451
41426
41395
41359
41304
41232
41153
41065
40967
40866
40769
40671
40564
40452
40350
40255
40166
40095
40045
40001
39952
39899
39837
39757
39661
39552
39426
39271
39090
38900
38711
38534
38376
38240
38121
38006
37891
37784
37681
37567
37444
37325
37207
37081
36955
36840
36738
36648
36585
36556
36559
36593
36659
36764
36892
37029
37179
37351
37531
37701
37856
38001
38131
38246
38349
38431
38478
38485
38460
38416
38367
38328
38305
38300
38310
38336
38392
38474
38567
38668
38777
38884
38972
39035
39077
39100
39106
39109
39116
39119
39106
39084
39067
39047
39014
38979
38948
38914
38871
38833
38803
38765
38715
38660
38601
38536
38468
38404
38342
38278
38215
38162
38124
38094
38071
38060
38053
38036
38013
38001
38001
37998
38001
38022
38050
38073
38092
38110
38123
38116
38083
38036
37986
37932
37881
37843
37813
37788
37774
37765
37754
37740
37729
37723
37714
37700
37689
37679
37660
37631
37598
37557
37497
37417
37331
37245
37155
37061
36968
36875
36780
36689
36607
36528
36447
36372
36306
36240
36174
36118
36077
36040
35997
35950
35910
35876
35849
35832
35824
35818
35809
35795
35775
35748
35716
35687
35665
35646
35633
35634
35648
35662
35668
35669
35660
35630
35585
35541
35507
35476
35446
35424
35409
35392
35370
35346
35322
35296
35273
35258
35241
35213
35178
35141
35096
35048
35005
34969
34940
34917
34904
34908
34925
34942
34956
34962
34956
34935
34896
34838
34765
34697
34658
34655
34682
34742
34844
34980
35137
35312
35509
35715
35921
36133
36353
36567
36765
36950
37130
37305
37468
37619
37765
37897
37999
38079
38149
38199
38228
38252
38285
38329
38384
38465
38579
38714
38867
39040
39225
39412
39596
39774
39938
40071
40163
40225
40262
40263
40232
40186
40135
40085
40046
40018
39997
39977
39961
39950
39933
39908
39878
39849
39817
39779
39738
39702
39674
39653
39640
39633
39629
39623
39622
39624
39622
39613
39601
39582
39550
39499
39432
39351
39249
39126
38995
38863
38717
38556
38391
38227
38066
37916
37788
37682
37589
37509
37460
37439
37424
37409
37397
37373
37326
37260
37186
37106
37017
36926
36836
36745
36652
36567
36493
36423
36354
36295
36254
36226
36204
36189
36173
36139
36087
36027
35962
35886
35807
35736
35678
35629
35591
35571
35557
35542
35530
35527
35534
35545
35556
35567
35571
35569
35572
35581
35595
35604
35608
35604
35581
35536
35481
35425
35356
35270
35174
35079
34982
34884
34795
34718
34636
34546
34465
34403
34347
34296
34257
34234
34215
34195
34175
34153
34119
34075
34028
33982
33933
33885
33843
33801
33750
33695
33648
33601
33550
33505
33490
33522
33599
33721
33899
34129
34395
34690
35014
35349
35675
35995
36308
36598
36866
37126
37382
37622
37836
38027
38202
38350
38466
38560
38636
38688
38722
38743
38743
38733
38735
38763
38820
38896
38987
39085
39180
39264
39345
39434
39514
39555
39561
39553
39544
39548
39569
39604
39648
39704
39775
39859
39940
40003
40051
40086
40096
40082
40059
40027
39979
39920
39865
39825
39803
39807
39842
39900
39964
40034
40114
40206
40299
40388
40473
40541
40583
40613
40639
40650
40637
40609
40573
40521
40454
40383
40317
40251
40186
40140
40120
40115
40118
40128
40133
40125
40102
40075
40044
39989
39904
39809
39710
39610
39521
39454
39415
39387
39369
39371
39390
39412
39440
39472
39492
39480
39438
39386
39321
39236
39137
39031
38920
38804
38685
38577
38483
38400
38328
38271
38219
38165
38111
38054
37989
37918
37847
37779
37713
37647
37594
37557
37523
37498
37495
37510
37535
37566
37601
37636
37662
37671
37669
37654
37621
37578
37532
37486
37441
37398
37360
37321
37275
37233
37203
37170
37118
37049
36975
36898
36825
36768
36734
36723
36740
36787
36859
36962
37108
37296
37518
37758
38004
38250
38480
38675
38830
38958
39058
39125
39170
39212
39262
39323
39402
39500
39610
39728
39853
39980
40098
40203
40307
40419
40531
40625
40699
40753
40782
40786
40774
40753
40719
40679
40649
40633
40626
40632
40667
40736
40815
40890
40965
41030
41073
41096
41099
41082
41042
40987
40930
40874
40810
40736
40667
40611
40564
40534
40524
40527
40536
40550
40569
40591
40614
40634
40658
40690
40729
40781
40840
40889
40924
40950
40964
40950
40903
40832
40743
40633
40496
40343
40190
40051
39937
39859
39819
39818
39854
39911
39975
40030
40067
40084
40082
40046
39979
39896
39791
39661
39525
39391
39256
39113
38968
38831
38704
38575
38441
38314
38189
38065
37954
37851
37745
37635
37531
37428
37316
37198
37088
36997
36926
36876
36847
36837
36851
36892
36950
37008
37049
37071
37080
37067
37017
36929
36808
36660
36495
36328
36174
36036
35915
35825
35779
35769
35773
35780
35787
35787
35782
35778
35762
35719
35648
35557
35453
35339
35218
35099
34983
34867
34754
34651
34557
34470
34391
34329
34290
34263
34244
34239
34249
34265
34291
34338
34399
34461
34522
34592
34675
34761
34853
34960
35081
35211
35351
35499
35646
35782
35909
36028
36136
36228
36308
36375
36416
36432
36434
36427
36411
36387
36363
36345
36334
36340
36369
36418
36477
36547
36644
36774
36919
37072
37230
37380
37512
37630
37738
37826
37876
37893
37892
37875
37838
37792
37749
37711
37683
37676
37703
37755
37797
37811
37798
37766
37738
37744
37792
37867
37946
38021
38093
38155
38211
38263
38296
38293
38265
38228
38187
38134
38068
37990
37895
37790
37701
37651
37631
37611
37586
37563
37539
37505
37464
37412
37340
37251
37155
37059
36960
36855
36739
36610
36462
36303
36158
36045
35965
35913
35884
35869
35855
35844
35843
35842
35816
35759
35686
35611
35534
35458
35384
35307
35222
35132
35048
34966
34875
34774
34681
34593
34496
34391
34286
34179
34063
33946
33843
33752
33669
33592
33522
33457
33388
33317
33247
33171
33080
32980
32878
32776
32672
32568
32459
32332
32186
32037
31901
31776
31659
31561
31475
31386
31293
31203
31116
31014
30899
30783
30669
30556
30453
30366
30290
30218
30148
30084
30021
29961
29915
29894
29889
29893
29913
29961
30037
30144
30290
30467
30658
30851
31047
31249
31452
31656
31862
32062
32241
32396
32531
32649
32747
32829
32901
32964
33019
33075
33142
33215
33288
33366
33451
33541
33640
33755
33883
34013
34131
34235
34327
34400
34453
34491
34520
34536
34535
34529
34532
34538
34536
34537
34544
34548
34551
34568
34601
34638
34677
34722
34772
34827
34888
34959
35039
35117
35196
35286
35388
35487
35582
35683
35784
35869
35943
36005
36042
36044
36018
35989
35964
35939
35923
35915
35907
35897
35889
35886
35887
35893
35912
35934
35942
35933
35914
35889
35855
35812
35768
35724
35677
35626
35574
35521
35482
35470
35472
35473
35470
35466
35463
35455
35432
35402
35371
35332
35276
35217
35166
35117
35065
35018
34977
34927
34873
34834
34819
34816
34813
34810
34812
34810
34794
34767
34730
34674
34600
34518
34438
34361
34289
34233
34197
34173
34157
34156
34161
34162
34159
34156
34149
34128
34087
34031
33957
33863
33756
33651
33556
33468
33389
33329
33284
33248
33219
33197
33183
33165
33140
33112
33076
33037
33008
32997
33005
33034
33095
33188
33290
33395
33518
33651
33788
33942
34121
34317
34506
34681
34845
35002
35149
35295
35448
35605
35756
35911
36080
36248
36405
36552
36692
36818
36918
36990
37047
37085
37101
37106
37111
37114
37118
37138
37181
37251
37348
37465
37594
37711
37811
37913
38022
38116
38185
38239
38284
38330
38392
38465
38537
38595
38634
38658
38667
38655
38637
38623
38606
38585
38582
38614
38678
38760
38866
39001
39144
39285
39433
39585
39723
39839
39935
40012
40057
40062
40041
40003
39954
39899
39847
39801
39751
39697
39644
39595
39550
39511
39474
39432
39370
39284
39182
39066
38932
38792
38659
38532
38413
38312
38234
38160
38068
37956
37841
37724
37599
37475
37361
37255
37150
37053
36968
36889
36807
36726
36641
36544
36438
36336
36242
36145
36044
35953
35877
35810
35751
35714
35699
35688
35678
35679
35687
35691
35686
35674
35652
35615
35568
35513
35444
35357
35266
35186
35120
35065
35029
35015
35006
34993
34981
34969
34946
34910
34861
34805
34731
34635
34528
34421
34306
34184
34062
33942
33822
33709
33621
33561
33514
33482
33471
33484
33523
33596
33706
33846
34002
34173
34361
34557
34757
34969
35198
35442
35694
35954
36223
36491
36750
37003
37250
37486
37709
37920
38117
38286
38425
38544
38643
38718
38773
38818
38858
38889
38917
38952
38998
39050
39107
39173
39254
39353
39473
39608
39743
39868
39983
40086
40169
40224
40254
40273
40279
40269
40253
40244
40238
40233
40238
40264
40313
40371
40431
40482
40509
40513
40505
40482
40440
40391
40352
40330
40317
40307
40311
40335
40362
40380
40398
40413
40409
40386
40352
40302
40234
40156
40084
40023
39962
39900
39842
39787
39733
39683
39630
39565
39483
39389
39300
39216
39135
39060
38990
38916
38841
38779
38725
38664
38591
38513
38438
38358
38266
38169
38067
37953
37830
37715
37615
37522
37435
37367
37315
37267
37222
37195
37180
37155
37112
37055
36984
36893
36784
36667
36534
36382
36226
36080
35943
35818
35717
35653
35621
35604
35602
35613
35624
35632
35646
35656
35649
35620
35572
35510
35435
35349
35265
35186
35102
35015
34935
34867
34806
34750
34704
34669
34636
34602
34567
34524
34461
34382
34301
34216
34127
34055
34009
33981
33964
33970
34016
34097
34201
34337
34504
34689
34889
35107
35340
35582
35840
36124
36431
36743
37054
37385
37734
38088
38433
38765
39078
39352
39583
39790
39982
40152
40301
40438
40566
40681
40791
40901
41001
41078
41139
41197
41249
41284
41305
41323
41341
41362
41400
41452
41514
41588
41682
41806
41951
42109
42288
42476
42652
42812
42958
43088
43194
43269
43323
43367
43400
43421
43449
43482
43499
43498
43495
43496
43491
43480
43466
43439
43401
43362
43331
43305
43281
43270
43277
43297
43323
43351
43386
43423
43445
43454
43455
43429
43367
43281
43180
43061
42933
42814
42720
42645
42584
42543
42509
42453
42367
42263
42135
41968
41775
41577
41373
41156
40939
40748
40595
40470
40367
40287
40216
40139
40054
39961
39854
39728
39577
39402
39203
38983
38761
38547
38336
38126
37929
37752
37587
37435
37305
37198
37110
37037
36981
36938
36902
36873
36854
36837
36806
36759
36694
36605
36481
36327
36149
35950
35730
35502
35290
35108
34959
34846
34770
34715
34659
34603
34555
34502
34438
34378
34329
34282
34236
34197
34160
34109
34039
33957
33868
33763
33637
33504
33368
33222
33068
32919
32789
32673
32576
32511
32479
32475
32510
32596
32739
32930
33164
33436
33737
34058
34398
34756
35114
35453
35773
36080
36370
36632
36875
37105
37311
37485
37636
37764
37860
37917
37943
37951
37933
37893
37852
37820
37797
37795
37828
37900
38003
38130
38276
38429
38570
38690
38791
38864
38899
38896
38861
38794
38698
38588
38474
38356
38242
38141
38067
38011
37960
37916
37886
37866
37849
37835
37819
37797
37773
37757
37751
37742
37729
37716
37701
37676
37642
37609
37586
37560
37527
37497
37469
37432
37392
37353
37305
37242
37166
37077
36974
36860
36746
36636
36512
36368
36214
36070
35946
35844
35766
35721
35698
35680
35660
35632
35585
35516
35428
35324
35209
35100
35011
34941
34878
34817
34762
34713
34664
34613
34559
34501
34435
34361
34284
34201
34114
34032
33964
33917
33884
33865
33865
33879
33900
33934
33968
33982
33966
33927
33873
33802
33708
33607
33516
33432
33355
33296
33260
33240
33224
33210
33198
33185
33170
33158
33150
33140
33124
33115
33125
33154
33195
33250
33311
33363
33401
33432
33453
33458
33450
33432
33405
33370
33335
33318
33327
33362
33433
33552
33715
33917
34161
34443
34748
35067
35392
35719
36033
36326
36599
36851
37067
37251
37416
37567
37699
37810
37914
38023
38136
38252
38385
38534
38692
38861
39040
39212
39358
39476
39578
39664
39730
39783
39825
39843
39833
39806
39781
39755
39716
39674
39641
39616
39595
39584
39579
39563
39522
39460
39385
39295
39186
39064
38937
38799
38656
38523
38408
38311
38233
38177
38150
38155
38187
38242
38312
38383
38448
38509
38562
38592
38601
38594
38574
38534
38478
38409
38324
38212
38082
37939
37772
37583
37378
37160
36932
36703
36493
36319
36171
36049
35966
35917
35892
35890
35910
35946
35979
35995
36000
35999
35986
35961
35928
35885
35831
35772
35716
35660
35594
35521
35452
35391
35331
35278
35241
35207
35171
35138
35116
35101
35082
35061
35039
35005
34954
34907
34873
34843
34806
34769
34739
34712
34686
34672
34674
34688
34717
34759
34806
34848
34881
34899
34892
34853
34785
34688
34569
34429
34272
34115
33961
33808
33676
33574
33491
33421
33375
33362
33370
33384
33400
33427
33459
33496
33549
33624
33719
33838
33996
34201
34451
34741
35078
35464
35880
36303
36728
37152
37563
37953
38321
38661
38957
39204
39415
39595
39745
39877
40002
40121
40228
40334
40449
40569
40683
40797
40922
41044
41151
41244
41328
41396
41440
41469
41496
41521
41552
41600
41668
41749
41831
41911
41984
42033
42043
42021
41978
41909
41818
41719
41620
41515
41405
41297
41194
41078
40946
40815
40690
40576
40486
40420
40367
40329
40315
40323
40334
40334
40322
40298
40253
40185
40105
40029
39962
39908
39869
39837
39805
39773
39748
39729
39708
39680
39648
39613
39558
39468
39343
39188
39002
38785
38545
38294
38050
37829
37642
37489
37371
37289
37242
37212
37186
37164
37147
37119
37067
37001
36935
36859
36756
36633
36502
36361
36220
36093
35982
35879
35779
35686
35599
35506
35407
35321
35256
35200
35148
35097
35040
34967
34885
34813
34755
34700
34646
34601
34557
34496
34420
34342
34261
34175
34090
34011
33932
33848
33766
33687
33604
33507
33403
33303
33207
33104
33001
32905
32810
32716
32639
32590
32565
32552
32551
32560
32562
32554
32544
32529
32496
32445
32388
32333
32283
32246
32231
32242
32279
32354
32485
32671
32898
33165
33471
33798
34124
34444
34761
35064
35339
35592
35833
36060
36267
36458
36647
36838
37019
37186
37346
37505
37662
37816
37961
38089
38202
38310
38410
38492
38554
38607
38653
38691
38731
38783
38848
38916
38991
39090
39213
39339
39455
39553
39619
39646
39636
39589
39496
39358
39199
39041
38884
38726
38573
38432
38307
38203
38126
38077
38046
38029
38035
38065
38112
38167
38224
38276
38306
38308
38290
38251
38176
38066
37949
37834
37717
37600
37493
37401
37323
37263
37223
37198
37182
37178
37189
37202
37206
37204
37204
37192
37144
37058
36942
36797
36617
36408
36187
35968
35761
35588
35459
35363
35293
35254
35244
35259
35289
35327
35359
35360
35331
35286
35228
35154
35069
34971
34861
34738
34608
34487
34371
34253
34149
34069
34011
33970
33948
33945
33946
33937
33927
33919
33900
33856
33790
33719
33648
33572
33499
33432
33366
33312
33278
33257
33250
33256
33275
33305
33335
33357
33369
33361
33313
33224
33104
32960
32794
32612
32434
32269
32120
31996
31901
31828
31772
31741
31739
31752
31769
31792
31826
31862
31895
31932
31986
32058
32143
32251
32386
32540
32701
32875
33058
33240
33419
33597
33772
33924
34044
34145
34235
34309
34359
34386
34391
34383
34375
34375
34383
34389
34393
34409
34440
34490
34561
34652
34754
34856
34962
35081
35205
35330
35462
35605
35752
35890
36014
36122
36197
36223
36200
36131
36016
35868
35711
35554
35400
35269
35178
35124
35091
35071
35071
35087
35111
35139
35165
35176
35168
35150
35124
35084
35024
34949
34873
34800
34726
34661
34613
34572
34535
34507
34494
34490
34484
34471
34446
34400
34328
34238
34136
34018
33885
33754
33645
33557
33496
33471
33479
33511
33556
33604
33651
33681
33682
33655
33599
33506
33381
33230
33054
32858
32661
32485
32339
32216
32118
32050
31995
31941
31892
31854
31822
31786
31746
31701
31645
31571
31486
31389
31274
31146
31015
30885
30756
30625
30494
30365
30225
30077
29932
29793
29658
29534
29433
29355
29284
29221
29181
29164
29156
29152
29153
29161
29175
29205
29261
29327
29391
29456
29530
29607
29672
29727
29781
29831
29864
29883
29886
29862
29810
29743
29674
29603
29529
29464
29417
29380
29352
29342
29361
29401
29460
29545
29655
29784
29936
30111
30301
30495
30686
30878
31065
31229
31372
31499
31601
31675
31728
31772
31810
31835
31852
31866
31875
31880
31897
31936
31986
32033
32076
32112
32126
32117
32103
32089
32068
32040
32015
32001
31992
31982
31970
31956
31934
31906
31870
31821
31745
31641
31515
31366
31197
31029
30879
30746
30619
30507
30426
30371
30326
30297
30288
30294
30310
30334
30368
30404
30436
30466
30496
30521
30533
30538
30541
30530
30505
30480
30463
30443
30421
30409
30406
30392
30360
30323
30289
30257
30227
30207
30194
30172
30141
30107
30064
30006
29938
29869
29792
29693
29580
29463
29348
29234
29132
29051
28982
28912
28840
28779
28735
28709
28711
28744
28792
28843
28896
28955
29006
29038
29055
29059
29050
29036
29027
29015
28987
28943
28894
28842
28777
28702
28628
28558
28491
28442
28420
28414
28411
28415
28430
28443
28436
28410
28372
28319
28256
28200
28159
28123
28085
28051
28033
28026
28027
28039
28049
28039
28005
27953
27888
27814
27741
27684
27647
27624
27626
27664
27727
27807
27909
28034
28174
28310
28442
28579
28715
28850
28997
29166
29349
29542
29755
29992
30234
30456
30655
30845
31024
31178
31313
31438
31545
31633
31710
31779
31838
31890
31939
31986
32022
32057
32105
32159
32212
32274
32364
32483
32617
32753
32888
33016
33124
33210
33280
33332
33360
33380
33411
33439
33455
33470
33493
33517
33541
33570
33608
33649
33687
33723
33759
33786
33796
33802
33814
33831
33849
33878
33924
33971
34011
34043
34055
34048
34034
34013
33980
33935
33887
33849
33824
33806
33801
33821
33857
33896
33943
33998
34047
34076
34092
34104
34103
34080
34037
33986
33923
33852
33781
33710
33640
33573
33512
33460
33410
33362
33325
33302
33288
33284
33291
33308
33332
33360
33391
33421
33445
33462
33476
33482
33478
33465
33443
33404
33343
33271
33200
33125
33045
32967
32898
32834
32767
32703
32649
32605
32562
32528
32502
32470
32430
32399
32385
32382
32386
32402
32429
32457
32481
32496
32497
32475
32428
32364
32285
32194
32103
32024
31957
31896
31846
31808
31772
31731
31691
31665
31653
31657
31680
31729
31805
31903
32025
32185
32380
32599
32846
33120
33401
33683
33973
34268
34551
34809
35041
35247
35418
35559
35688
35811
35926
36031
36132
36237
36339
36438
36537
36633
36726
36823
36933
37048
37149
37239
37328
37416
37503
37595
37694
37793
37884
37972
38055
38131
38215
38320
38439
38560
38673
38780
38878
38957
39012
39049
39075
39081
39066
39045
39023
38985
38931
38874
38817
38753
38682
38610
38541
38474
38414
38380
38376
38384
38401
38429
38461
38491
38523
38559
38585
38580
38548
38506
38451
38371
38275
38170
38051
37921
37795
37688
37599
37518
37439
37363
37286
37210
37147
37094
37046
36998
36952
36911
36872
36837
36813
36796
36776
36754
36739
36726
36707
36687
36673
36660
36635
36607
36585
36561
36522
36472
36419
36362
36290
36208
36130
36058
35986
35922
35857
35785
35710
35636
35569
35514
35467
35436
35430
35439
35460
35506
35571
35632
35673
35701
35721
35716
35683
35630
35557
35466
35370
35278
35184
35086
34992
34912
34842
34773
34718
34689
34672
34651
34633
34625
34617
34595
34558
34517
34470
34408
34338
34266
34195
34135
34102
34103
34133
34190
34293
34438
34602
34772
34960
35165
35369
35578
35797
36015
36224
36430
36647
36867
37080
37288
37500
37710
37912
38112
38301
38464
38596
38704
38797
38877
38941
38996
39049
39093
39135
39193
39269
39351
39437
39534
39645
39760
39876
40005
40140
40263
40377
40490
40599
40682
40733
40761
40768
40752
40725
40694
40658
40614
40574
40543
40509
40466
40427
40405
40399
40394
40390
40396
40407
40414
40417
40419
40415
40398
40364
40312
40242
40163
40087
40020
39959
39900
39847
39805
39773
39751
39741
39733
39715
39691
39681
39686
39695
39708
39723
39733
39730
39719
39701
39674
39636
39597
39569
39540
39499
39450
39398
39348
39309
39289
39276
39255
39224
39194
39169
39144
39118
39093
39069
39035
38983
38923
38861
38790
38709
38621
38527
38421
38303
38192
38095
38004
37916
37839
37775
37719
37668
37620
37573
37526
37485
37459
37435
37391
37339
37285
37217
37139
37069
37005
36942
36875
36806
36739
36661
36570
36475
36370
36245
36098
35939
35773
35595
35406
35219
35042
34871
34717
34597
34504
34428
34367
34323
34289
34251
34208
34166
34117
34063
34019
33988
33961
33940
33933
33955
34006
34079
34178
34300
34434
34577
34746
34951
35181
35429
35696
35983
36282
36588
36900
37212
37505
37774
38016
38228
38406
38554
38684
38798
38884
38937
38976
39005
39018
39017
39015
39019
39023
39033
39060
39100
39148
39213
39292
39375
39471
39582
39703
39827
39947
40065
40179
40278
40357
40425
40480
40510
40514
40502
40482
40446
40392
40329
40258
40179
40101
40033
39977
39937
39922
39937
39976
40020
40065
40110
40150
40170
40172
40157
40108
40023
39919
39808
39694
39576
39464
39366
39283
39214
39158
39113
39071
39023
38970
38908
38830
38736
38636
38534
38425
38309
38202
38107
38020
37943
37883
37832
37777
37720
37668
37618
37556
37488
37427
37374
37315
37256
37203
37146
37078
37008
36946
36889
36820
36735
36654
36577
36493
36399
36295
36172
36035
35906
35788
35679
35566
35450
35345
35248
35151
35070
35005
34941
34882
34828
34779
34728
34676
34621
34558
34473
34365
34246
34115
33963
33798
33635
33467
33296
33134
32992
32868
32758
32670
32611
32569
32542
32533
32531
32516
32479
32431
32384
32340
32291
32234
32171
32094
32005
31922
31852
31791
31739
31707
31705
31722
31760
31836
31951
32095
32271
32488
32737
33007
33303
33632
33990
34361
34737
35116
35484
35834
36167
36476
36741
36950
37125
37285
37419
37519
37609
37692
37756
37804
37850
37905
37959
38009
38071
38141
38218
38310
38424
38545
38654
38747
38829
38890
38919
38911
38865
38783
38668
38526
38375
38217
38053
37900
37766
37643
37529
37431
37350
37279
37222
37187
37177
37176
37178
37191
37204
37205
37189
37168
37149
37128
37102
37081
37059
37022
36967
36904
36838
36762
36675
36591
36507
36412
36306
36198
36086
35973
35866
35768
35667
35554
35436
35316
35192
35059
34930
34817
34724
34649
34594
34551
34505
34456
34406
34355
34289
34196
34078
33936
33771
33594
33423
33266
33127
33008
32920
32864
32821
32786
32774
32774
32759
32728
32695
32655
32600
32534
32468
32405
32342
32283
32237
32201
32160
32116
32077
32040
31997
31952
31908
31860
31810
31764
31728
31704
31690
31697
31733
31799
31906
32065
32272
32508
32758
33011
33252
33461
33632
33770
33866
33911
33912
33882
33820
33720
33596
33458
33309
33156
33023
32933
32882
32854
32848
32873
32919
32978
33054
33150
33256
33365
33485
33621
33766
33924
34108
34323
34553
34785
35028
35281
35530
35768
36002
36237
36459
36664
36868
37066
37245
37405
37564
37731
37899
38070
38250
38434
38615
38797
38979
39146
39288
39415
39533
39634
39709
39763
39795
39793
39756
39702
39639
39564
39483
39408
39347
39293
39244
39209
39177
39131
39064
38983
38894
38796
38692
38591
38497
38420
38365
38337
38326
38322
38327
38342
38356
38359
38349
38327
38292
38244
38190
38140
38088
38024
37960
37902
37843
37775
37705
37643
37585
37519
37447
37374
37292
37198
37102
37006
36903
36790
36676
36564
36450
36334
36212
36076
35923
35756
35591
35432
35273
35125
34993
34870
34752
34645
34562
34498
34438
34378
34319
34249
34155
34046
33944
33850
33755
33664
33577
33487
33386
33276
33165
33049
32922
32790
32654
32506
32352
32209
32074
31926
31757
31594
31446
31298
31154
31027
30924
30847
30801
30792
30819
30876
30961
31073
31194
31308
31415
31504
31562
31588
31589
31571
31532
31474
31408
31345
31299
31275
31277
31301
31337
31372
31398
31403
31369
31295
31204
31111
31013
30920
30866
30868
30928
31046
31228
31467
31751
32081
32464
32885
33320
33754
34177
34582
34969
35341
35698
36034
36337
36610
36864
37094
37297
37480
37648
37793
37913
38013
38093
38146
38174
38188
38191
38167
38106
38027
37940
37845
37756
37692
37658
37638
37628
37631
37636
37628
37603
37564
37511
37449
37391
37343
37296
37249
37214
37203
37207
37221
37253
37299
37340
37372
37401
37427
37439
37430
37406
37377
37337
37285
37233
37186
37145
37109
37085
37074
37069
37066
37077
37100
37122
37141
37158
37164
37152
37129
37108
37085
37054
37025
37007
36985
36948
36907
36874
36844
36818
36803
36790
36765
36725
36682
36636
36582
36513
36435
36359
36284
36197
36106
36014
35919
35822
35736
35665
35601
35541
35490
35447
35401
35349
35299
35250
35194
35137
35081
35016
34937
34857
34789
34728
34665
34607
34564
34527
34485
34446
34412
34375
34324
34269
34222
34181
34144
34118
34106
34095
34084
34085
34098
34100
34080
34043
33991
33919
33834
33750
33675
33598
33521
33460
33413
33369
33328
33297
33273
33249
33228
33213
33194
33160
33119
33084
33052
33018
32992
32980
32981
33006
33072
33184
33335
33527
33771
34067
34402
34766
35160
35573
35983
36389
36798
37205
37585
37923
38233
38519
38770
38985
39164
39309
39413
39474
39500
39495
39460
39405
39338
39267
39192
39129
39092
39074
39074
39111
39193
39311
39451
39607
39774
39935
40073
40186
40276
40330
40346
40344
40329
40294
40239
40179
40123
40061
39988
39910
39833
39758
39687
39634
39599
39572
39555
39552
39552
39550
39549
39553
39551
39537
39518
39501
39488
39478
39469
39462
39447
39420
39385
39341
39279
39200
39121
39047
38984
38926
38872
38817
38756
38686
38610
38523
38411
38270
38115
37956
37789
37618
37446
37272
37092
36915
36750
36597
36461
36342
36244
36168
36105
36063
36045
36029
36001
35969
35933
35887
35822
35740
35656
35568
35469
35368
35273
35182
35090
35004
34929
34855
34778
34706
34639
34567
34483
34389
34293
34199
34110
34029
33958
33892
33833
33781
33735
33686
33637
33592
33537
33455
33351
33237
33111
32965
32808
32648
32486
32322
32164
32015
31866
31712
31558
31400
31236
31070
30912
30763
30618
30472
30334
30207
30087
29976
29892
29843
29834
29876
29974
30116
30291
30505
30759
31042
31335
31634
31946
32269
32593
32927
33272
33617
33949
34272
34585
34868
35119
35348
35553
35720
35844
35938
36008
36036
36030
36016
36006
35989
35955
35911
35863
35812
35760
35715
35675
35644
35633
35645
35671
35698
35730
35774
35824
35862
35880
35886
35871
35830
35770
35702
35622
35525
35418
35322
35237
35149
35065
34996
34936
34878
34826
34783
34739
34694
34658
34639
34626
34618
34622
34638
34657
34676
34697
34716
34727
34731
34730
34717
34677
34606
34525
34445
34360
34270
34177
34074
33954
33828
33712
33609
33512
33432
33378
33339
33312
33294
33286
33280
33269
33264
33270
33264
33240
33217
33196
33154
33074
32978
32878
32762
32638
32527
32434
32355
32298
32268
32258
32253
32253
32256
32251
32234
32217
32206
32188
32154
32114
32076
32032
31983
31939
31900
31860
31817
31782
31765
31758
31756
31766
31795
31835
31868
31890
31901
31899
31884
31860
31826
31778
31716
31654
31605
31563
31515
31461
31409
31356
31307
31280
31276
31280
31291
31310
31333
31354
31383
31429
31488
31544
31600
31668
31750
31851
31989
32181
32422
32702
33030
33414
33838
34294
34787
35310
35838
36353
36851
37325
37751
38118
38423
38661
38844
38987
39106
39210
39296
39364
39423
39475
39523
39577
39643
39716
39795
39882
39977
40071
40159
40246
40340
40433
40508
40565
40604
40622
40611
40580
40536
40473
40380
40260
40128
39992
39862
39744
39635
39529
39423
39337
39276
39220
39162
39105
39047
38986
38920
38847
38765
38676
38591
38514
38436
38353
38284
38242
38221
38206
38198
38212
38244
38272
38287
38299
38304
38291
38266
38228
38164
38069
37949
37808
37641
37463
37281
37099
36928
36777
36657
36575
36527
36507
36511
36528
36544
36561
36597
36648
36705
36767
36830
36882
36908
36911
36897
36859
36790
36688
36566
36424
36260
36094
35943
35805
35682
35584
35513
35458
35413
35382
35362
35341
35311
35276
35237
35191
35139
35084
35027
34968
34923
34904
34904
34909
34917
34926
34931
34925
34908
34884
34856
34816
34772
34729
34675
34591
34485
34378
34271
34165
34081
34020
33967
33917
33878
33849
33828
33810
33809
33834
33878
33936
34023
34148
34299
34478
34702
34971
35271
35599
35962
36362
36796
37260
37746
38242
38730
39208
39673
40114
40515
40874
41200
41492
41745
41965
42165
42336
42482
42617
42740
42842
42926
42989
43027
43044
43049
43052
43057
43067
43089
43140
43228
43342
43473
43629
43799
43957
44095
44217
44315
44376
44397
44378
44317
44211
44063
43894
43711
43512
43303
43091
42878
42659
42446
42263
42118
42011
41948
41925
41923
41928
41941
41966
41987
41991
41981
41949
41885
41798
41715
41643
41571
41501
41455
41433
41419
41399
41368
41323
41266
41210
41155
41089
41002
40903
40799
40693
40584
40478
40373
40260
40134
40005
39886
39781
39686
39607
39539
39469
39393
39318
39243
39154
39044
38923
38795
38653
38502
38359
38227
38096
37965
37847
37747
37658
37582
37528
37497
37472
37448
37433
37420
37396
37367
37343
37318
37280
37231
37179
37115
37035
36951
36865
36766
36659
36562
36485
36425
36373
36336
36315
36295
36274
36258
36250
36241
36226
36210
36190
36160
36121
36092
36077
36063
36046
36037
36032
36018
35993
35959
35915
35856
35790
35723
35653
35586
35537
35530
35576
35673
35824
36037
36302
36607
36946
37322
37723
38138
38572
39018
39455
39879
40291
40685
41044
41360
41639
41883
42088
42261
42411
42542
42647
42733
42813
42884
42936
42969
42997
43021
43041
43070
43124
43202
43293
43401
43528
43662
43791
43918
44042
44147
44232
44306
44369
44415
44434
44423
44385
44317
44217
44103
43980
43841
43689
43541
43408
43287
43179
43080
42984
42890
42802
42732
42685
42649
42618
42600
42591
42582
42572
42570
42575
42576
42573
42566
42543
42503
42444
42368
42275
42167
42058
41949
41832
41707
41585
41481
41396
41326
41268
41222
41181
41146
41116
41091
41053
40992
40925
40864
40801
40732
40665
40601
40533
40463
40390
40305
40212
40124
40044
39964
39885
39809
39740
39672
39603
39537
39474
39397
39298
39186
39065
38935
38800
38685
38605
38546
38495
38462
38447
38439
38436
38435
38421
38389
38344
38289
38221
38132
38029
37918
37799
37672
37540
37409
37280
37152
37037
36944
36865
36798
36749
36720
36696
36654
36593
36516
36415
36293
36164
36033
35894
35755
35625
35509
35399
35287
35177
35074
34971
34864
34773
34711
34679
34674
34697
34741
34808
34911
35062
35253
35474
35735
36036
36370
36729
37115
37534
37979
38430
38881
39334
39785
40228
40663
41077
41448
41770
42047
42287
42478
42609
42693
42741
42745
42714
42661
42596
42528
42472
42452
42467
42502
42557
42633
42722
42814
42905
42997
43080
43137
43168
43180
43164
43115
43039
42937
42808
42659
42510
42376
42256
42137
42014
41894
41776
41660
41565
41495
41440
41395
41365
41352
41349
41354
41369
41385
41387
41371
41348
41324
41294
41258
41226
41196
41163
41134
41117
41108
41094
41078
41062
41035
40991
40940
40899
40864
40824
40784
40755
40730
40708
40688
40667
40629
40566
40486
40397
40303
40215
40141
40081
40030
39988
39962
39952
39948
39944
39945
39946
39943
39936
39931
39926
39911
39892
39871
39844
39807
39759
39711
39660
39593
39511
39418
39302
39167
39030
38902
38783
38671
38572
38489
38422
38376
38356
38358
38368
38376
38381
38381
38357
38297
38206
38085
37937
37773
37596
37404
37199
36989
36795
36620
36461
36327
36230
36155
36084
36023
35977
35940
35891
35820
35726
35610
35483
35356
35239
35136
35044
34961
34881
34803
34730
34668
34619
34571
34520
34470
34432
34405
34393
34399
34419
34447
34496
34589
34745
34963
35245
35599
36024
36507
37039
37616
38222
38832
39439
40043
40626
41160
41637
42061
42420
42707
42929
43100
43221
43297
43347
43390
43423
43445
43474
43515
43555
43593
43629
43660
43683
43699
43718
43749
43783
43814
43847
43887
43920
43952
44000
44066
44136
44202
44268
44318
44338
44331
44300
44236
44134
44003
43855
43699
43536
43382
43255
43153
43068
42999
42949
42910
42876
42850
42824
42783
42716
42633
42542
42439
42321
42189
42042
41874
41690
41499
41301
41106
40929
40778
40649
40534
40433
40351
40284
40227
40188
40174
40181
40196
40213
40232
40244
40236
40204
40153
40075
39963
39830
39687
39535
39376
39226
39092
38974
38878
38815
38784
38768
38751
38731
38698
38644
38563
38456
38316
38135
37916
37674
37415
37139
36855
36577
36308
36044
35800
35592
35417
35264
35133
35020
34913
34806
34704
34615
34534
34455
34382
34316
34250
34183
34134
34110
34099
34093
34104
34140
34188
34241
34304
34369
34416
34432
34417
34367
34291
34207
34126
34044
33955
33871
33814
33784
33776
33792
33839
33911
34001
34102
34215
34330
34437
34543
34656
34773
34884
35001
35134
35281
35450
35654
35909
36217
36575
36992
37464
37972
38504
39052
39613
40175
40734
41296
41858
42398
42907
43391
43841
44237
44578
44864
45097
45275
45406
45500
45557
45578
45575
45566
45554
45536
45518
45516
45521
45527
45540
45558
45563
45550
45526
45495
45451
45389
45329
45288
45260
45244
45245
45256
45265
45274
45287
45294
45293
45286
45279
45273
45266
45261
45264
45274
45277
45275
45275
45272
45259
45250
45257
45276
45298
45332
45385
45444
45501
45561
45622
45678
45716
45732
45725
45684
45611
45529
45455
45396
45355
45342
45352
45366
45372
45367
45335
45264
45157
45025
44872
44694
44497
44295
44097
43907
43738
43607
43515
43456
43438
43470
43545
43650
43772
43892
43985
44040
44059
44053
44026
43967
43873
43749
43596
43429
43269
43122
42976
42815
42644
42479
42317
42163
42022
41884
41742
41606
41489
41395
41319
41259
41209
41156
41102
41064
41044
41031
41027
41036
41053
41072
41087
41102
41115
41116
41098
41061
41013
40961
40903
40844
40792
40741
40686
40643
40615
40584
40546
40507
40465
40403
40323
40248
40183
40122
40078
40058
40062
40092
40157
40274
40445
40661
40926
41252
41637
42078
42578
43127
43711
44320
44940
45551
46129
46656
47136
47573
47963
48299
48585
48821
49009
49149
49262
49365
49455
49526
49593
49657
49718
49783
49857
49929
49986
50027
50060
50096
50136
50185
50244
50306
50361
50415
50475
50535
50586
50631
50677
50721
50752
50774
50795
50810
50808
50794
50773
50741
50692
50629
50559
50474
50371
50262
50154
50048
49946
49855
49787
49750
49743
49761
49795
49831
49864
49897
49921
49920
49892
49843
49772
49676
49564
49446
49328
49211
49103
49011
48928
48852
48794
48751
48710
48666
48621
48582
48539
48485
48425
48354
48266
48160
48048
47941
47834
47722
47616
47516
47415
47315
47219
47127
47041
46962
46890
46820
46751
46681
46611
46537
46456
46372
46296
46225
46144
46060
45983
45905
45818
45735
45661
45583
45495
45402
45314
45228
45143
45065
45004
44949
44895
44848
44802
44749
44688
44624
44561
44489
44405
44312
44211
44106
44005
43917
43839
43757
43675
43602
43535
43464
43389
43315
43229
43124
43010
42910
42829
42758
42692
42639
42601
42570
42541
42521
42508
42498
42498
42514
42554
42633
42773
42979
43246
43574
43966
44417
44915
45459
46055
46691
47338
47977
48596
49179
49703
50158
50543
50853
51081
51234
51324
51358
51347
51315
51282
51256
51247
51272
51321
51384
51470
51593
51761
51961
52176
52397
52623
52840
53040
53226
53389
53509
53586
53627
53638
53617
53559
53480
53389
53281
53164
53050
52933
52803
52675
52548
52410
52257
52099
51948
51801
51652
51503
51364
51236
51123
51025
50935
50845
50754
50671
50605
50549
50492
50436
50386
50340
50302
50286
50289
50293
50294
50300
50309
50308
50294
50275
50250
50201
50131
50052
49970
49880
49782
49688
49598
49497
49387
49281
49176
49066
48950
48837
48721
48587
48445
48305
48158
48003
47847
47689
47520
47339
47153
46975
46813
46672
46564
46487
46421
46359
46308
46271
46232
46193
46160
46123
46070
46012
45952
45886
45810
45732
45661
45592
45520
45449
45383
45317
45253
45207
45182
45169
45154
45142
45135
45118
45089
45064
45050
45033
45001
44959
44920
44885
44853
44832
44829
44840
44861
44895
44946
45006
45065
45119
45158
45171
45159
45127
45073
44993
44897
44790
44667
44538
44433
44375
44373
44428
44544
44734
44996
45328
45741
46224
46750
47305
47879
48453
49008
49521
49989
50413
50778
51086
51349
51572
51754
51904
52043
52187
52315
52419
52515
52599
52660
52706
52738
52746
52729
52704
52688
52674
52654
52639
52643
52666
52700
52746
52806
52869
52931
53003
53084
53156
53203
53230
53244
53243
53217
53167
53092
52986
52851
52700
52536
52348
52140
51923
51706
51494
51293
51119
50978
50861
50774
50725
50705
50699
50707
50739
50791
50843
50883
50912
50935
50947
50953
50955
50946
50920
50885
50843
50782
50702
50608
50510
50414
50323
50243
50173
50102
50029
49960
49885
49795
49684
49552
49401
49228
49039
48843
48641
48426
48204
47996
47806
47620
47449
47312
47210
47131
47078
47057
47059
47065
47073
47093
47116
47123
47108
47075
47018
46936
46841
46742
46629
46502
46371
46245
46115
45982
45860
45755
45655
45558
45480
45431
45393
45360
45344
45352
45381
45426
45478
45524
45554
45560
45534
45471
45364
45224
45063
44883
44684
44475
44271
44078
43900
43748
43629
43529
43432
43335
43244
43153
43062
42983
42916
42857
42810
42784
42778
42785
42810
42867
42959
43094
43283
43520
43790
44083
44404
44760
45150
45561
45990
46438
46893
47330
47738
48121
48475
48787
49055
49292
49495
49664
49815
49956
50076
50175
50267
50363
50457
50545
50643
50765
50902
51043
51193
51349
51493
51616
51728
51834
51932
52023
52115
52206
52273
52306
52320
52321
52292
52230
52138
52008
51844
51664
51481
51288
51078
50870
50686
50528
50394
50301
50263
50267
50297
50349
50420
50496
50570
50645
50718
50768
50789
50798
50811
50816
50806
50790
50763
50717
50648
50555
50437
50303
50169
50045
49934
49831
49741
49674
49616
49556
49503
49459
49407
49332
49240
49134
49013
48873
48714
48534
48327
48102
47877
47663
47456
47256
47071
46912
46773
46647
46546
46479
46433
46404
46392
46396
46413
46437
46466
46497
46517
46530
46535
46520
46473
46393
46300
46202
46098
45993
45899
45818
45743
45677
45624
45576
45510
45428
45333
45218
45085
44949
44817
44686
44560
44447
44355
44277
44208
44155
44110
44053
43982
43900
43809
43708
43609
43513
43418
43316
43206
43103
43011
42926
42858
42814
42792
42794
42840
42947
43108
43306
43544
43828
44146
44480
44832
45209
45594
45976
46364
46754
47134
47495
47843
48180
48494
48775
49029
49257
49455
49630
49795
49942
50057
50148
50229
50305
50379
50455
50536
50613
50684
50760
50847
50930
50995
51062
51143
51225
51300
51376
51447
51491
51512
51521
51529
51532
51526
51518
51513
51501
51480
51456
51429
51393
51349
51307
51260
51189
51096
50992
50883
50768
50653
50553
50476
50429
50416
50437
50480
50530
50587
50654
50719
50773
50819
50858
50878
50872
50843
50795
50720
50618
50499
50372
50234
50087
49947
49825
49721
49632
49566
49526
49498
49484
49499
49540
49587
49628
49666
49695
49707
49703
49682
49638
49567
49472
49356
49219
49063
48906
48770
48656
48555
48473
48414
48378
48361
48360
48367
48370
48359
48333
48300
48263
48223
48175
48110
48019
47912
47804
47703
47611
47529
47471
47434
47411
47399
47406
47428
47444
47443
47430
47397
47334
47250
47148
47023
46869
46700
46538
46392
46270
46190
46154
46144
46144
46152
46168
46185
46195
46207
46217
46215
46204
46198
46204
46224
46262
46331
46433
46562
46724
46926
47165
47439
47746
48088
48457
48827
49193
49564
49944
50327
50705
51075
51427
51747
52040
52314
52557
52765
52948
53122
53287
53436
53571
53700
53824
53944
54070
54202
54332
54455
54582
54726
54877
55031
55199
55369
55514
55633
55740
55837
55911
55960
55982
55976
55950
55924
55906
55889
55864
55822
55766
55696
55597
55466
55310
55139
54960
54786
54632
54505
54405
54340
54313
54317
54338
54375
54423
54469
54497
54510
54510
54494
54454
54394
54325
54249
54172
54114
54079
54056
54044
54054
54078
54082
54050
53984
53880
53742
53586
53421
53248
53065
52884
52725
52588
52470
52375
52302
52234
52168
52121
52096
52079
52061
52042
52028
52012
51984
51947
51896
51824
51735
51640
51543
51434
51318
51220
51147
51094
51062
51057
51070
51079
51075
51061
51038
50997
50938
50862
50769
50654
50532
50420
50323
50235
50159
50099
50052
50012
49990
49996
50019
50047
50081
50124
50163
50187
50199
50196
50168
50111
50030
49934
49822
49695
49572
49454
49336
49218
49111
49010
48911
48816
48735
48663
48595
48536
48485
48431
48375
48333
48328
48355
48401
48477
48590
48728
48886
49078
49317
49604
49930
50294
50682
51067
51436
51792
52132
52454
52761
53055
53331
53568
53763
53929
54071
54192
54292
54378
54461
54543
54638
54755
54881
55008
55139
55288
55443
55582
55700
55806
55900
55980
56047
56102
56138
56151
56147
56132
56104
56061
56002
55933
55851
55761
55679
55610
55543
55469
55394
55324
55246
55153
55060
54970
54868
54755
54637
54519
54402
54293
54203
54131
54069
54021
53991
53973
53960
53954
53957
53966
53972
53974
53969
53948
53899
53831
53760
53683
53589
53492
53394
53284
53159
53040
52936
52833
52732
52642
52558
52466
52360
52246
52134
52018
51900
51794
51696
51591
51480
51371
51260
51139
51009
50875
50734
50586
50446
50332
50243
50175
50135
50131
50146
50161
50179
50204
50224
50226
50212
50191
50157
50108
50054
49998
49936
49872
49817
49770
49723
49668
49606
49538
49455
49356
49254
49146
49029
48918
48818
48728
48643
48569
48509
48452
48381
48295
48195
48067
47898
47695
47482
47268
47051
46841
46635
46421
46201
45992
45800
45617
45438
45264
45095
44922
44745
44581
44428
44273
44111
43950
43802
43686
43616
43591
43608
43669
43783
43952
44169
44420
44697
45001
45322
45633
45918
46167
46370
46524
46643
46742
46824
46892
46961
47042
47125
47212
47308
47419
47537
47655
47774
47890
47996
48090
48177
48256
48316
48356
48387
48417
48447
48489
48544
48600
48644
48678
48703
48712
48695
48653
48599
48538
48466
48388
48309
48222
48119
48011
47913
47813
47698
47574
47447
47312
47172
47043
46926
46814
46712
46639
46591
46549
46506
46473
46453
46434
46407
46379
46343
46283
46204
46124
46043
45963
45891
45837
45804
45781
45758
45739
45713
45667
45604
45533
45441
45308
45141
44954
44751
44531
44301
44078
43865
43665
43485
43329
43186
43059
42962
42898
42851
42807
42768
42735
42694
42641
42580
42505
42413
42313
42205
42084
41945
41795
41654
41531
41423
41340
41293
41276
41277
41293
41322
41355
41389
41436
41505
41593
41691
41798
41916
42037
42147
42246
42337
42414
42485
42566
42653
42730
42790
42835
42869
42888
42892
42879
42843
42780
42697
42613
42537
42463
42398
42352
42321
42299
42294
42313
42349
42392
42440
42497
42554
42610
42672
42750
42850
42972
43127
43312
43514
43732
43979
44264
44591
44943
45315
45703
46092
46468
46824
47149
47428
47658
47843
47990
48104
48198
48281
48358
48421
48474
48536
48607
48675
48741
48819
48909
49002
49104
49215
49326
49429
49529
49628
49719
49794
49854
49895
49911
49909
49904
49901
49902
49899
49897
49904
49913
49918
49926
49937
49931
49910
49880
49839
49776
49690
49602
49523
49450
49390
49361
49361
49381
49419
49473
49530
49574
49597
49602
49585
49536
49458
49362
49244
49098
48935
48770
48602
48429
48264
48120
47996
47880
47764
47646
47531
47431
47352
47287
47227
47166
47103
47032
46941
46834
46721
46605
46483
46357
46237
46122
46004
45887
45773
45647
45505
45360
45222
45078
44910
44719
44524
44328
44134
43954
43802
43676
43568
43477
43408
43351
43298
43250
43205
43153
43096
43048
43008
42963
42908
42847
42781
42705
42620
42539
42462
42379
42295
42216
42138
42048
41943
41824
41689
41530
41349
41155
40954
40749
40555
40390
40258
40143
40048
39986
39956
39943
39942
39945
39931
39893
39839
39768
39676
39568
39452
39337
39221
39108
39022
38980
38973
38998
39066
39175
39313
39485
39701
39959
40249
40573
40930
41307
41686
42062
42431
42769
43064
43325
43565
43773
43940
44077
44200
44306
44387
44446
44488
44510
44515
44520
44538
44563
44591
44623
44657
44685
44719
44780
44871
44977
45088
45205
45322
45421
45495
45545
45567
45553
45509
45447
45364
45262
45156
45064
44985
44907
44834
44773
44720
44677
44648
44632
44624
44621
44624
44631
44630
44611
44588
44567
44539
44508
44487
44471
44451
44429
44416
44423
44447
44485
44535
44583
44610
44615
44601
44559
44484
44378
44261
44144
44026
43917
43828
43751
43675
43595
43521
43453
43387
43331
43289
43253
43221
43203
43199
43197
43200
43212
43227
43240
43253
43268
43282
43274
43238
43183
43116
43035
42945
42849
42748
42640
42523
42411
42302
42189
42077
41973
41873
41778
41693
41620
41550
41469
41379
41291
41203
41108
41005
40909
40832
40776
40731
40693
40653
40608
40562
40512
40444
40346
40232
40108
39963
39803
39651
39514
39385
39272
39187
39126
39080
39051
39044
39060
39087
39123
39168
39210
39238
39256
39266
39256
39213
39144
39065
38980
38893
38816
38757
38711
38676
38668
38701
38771
38866
38982
39125
39290
39470
39665
39871
40089
40318
40561
40818
41080
41346
41632
41941
42258
42583
42918
43254
43582
43898
44193
44449
44658
44833
44991
45131
45246
45345
45439
45519
45568
45589
45595
45589
45575
45567
45579
45615
45669
45737
45819
45897
45953
45986
45990
45962
45907
45832
45746
45644
45529
45415
45302
45186
45070
44961
44856
44751
44658
44595
44564
44556
44574
44632
44723
44833
44960
45094
45221
45340
45446
45523
45560
45555
45519
45462
45377
45259
45124
44986
44843
44709
44600
44517
44453
44399
44353
44317
44287
44265
44257
44258
44252
44237
44224
44206
44166
44113
44055
43985
43896
43799
43713
43629
43542
43464
43400
43332
43250
43167
43090
43012
42927
42835
42747
42670
42597
42526
42464
42397
42319
42247
42191
42138
42084
42035
41992
41954
41924
41911
41907
41895
41868
41826
41762
41662
41526
41368
41188
40994
40809
40652
40521
40403
40308
40243
40189
40124
40050
39978
39906
39831
39766
39716
39671
39622
39569
39512
39446
39367
39280
39189
39090
38985
38890
38806
38716
38612
38502
38386
38249
38091
37930
37772
37620
37491
37402
37343
37297
37271
37272
37294
37331
37392
37482
37607
37772
37988
38253
38556
38891
39261
39661
40080
40506
40937
41376
41816
42256
42693
43107
43484
43829
44145
44423
44645
44810
44948
45074
45183
45280
45373
45466
45558
45647
45739
45838
45937
46037
46145
46259
46375
46502
46643
46788
46925
47048
47152
47220
47243
47224
47174
47092
46978
46849
46723
46603
46496
46416
46360
46320
46299
46301
46321
46345
46372
46407
46440
46455
46456
46453
46436
46394
46327
46248
46163
46068
45975
45895
45817
45734
45652
45573
45483
45377
45272
45174
45074
44971
44874
44788
44708
44634
44572
44521
44478
44442
44420
44407
44389
44357
44319
44270
44194
44090
43982
43881
43784
43692
43612
43541
43473
43410
43354
43301
43246
43193
43144
43089
43014
42930
42856
42788
42716
42646
42581
42511
42440
42382
42337
42302
42272
42250
42236
42223
42211
42206
42202
42187
42158
42125
42091
42043
41981
41926
41883
41844
41817
41808
41802
41782
41745
41695
41633
41558
41477
41393
41303
41215
41140
41088
41054
41018
40982
40961
40946
40932
40926
40930
40942
40963
41000
41060
41136
41220
41316
41428
41547
41675
41825
42004
42200
42403
42625
42877
43156
43461
43794
44149
44510
44862
45210
45549
45871
46185
46505
46821
47121
47406
47682
47933
48139
48305
48441
48531
48560
48534
48473
48396
48323
48267
48232
48217
48225
48271
48351
48438
48521
48608
48698
48783
48861
48935
48999
49059
49117
49164
49195
49213
49228
49245
49253
49249
49248
49255
49260
49255
49247
49243
49248
49263
49290
49317
49327
49320
49304
49284
49258
49211
49151
49080
48992
48896
48809
48724
48634
48540
48453
48373
48299
48238
48193
48156
48119
48083
48053
48022
47985
47943
47908
47875
47834
47790
47755
47726
47685
47634
47582
47528
47467
47412
47361
47301
47231
47159
47084
47007
46930
46850
46765
46671
46571
46476
46392
46315
46248
46200
46172
46159
46156
46155
46143
46115
46082
46055
46034
46007
45969
45914
45839
45742
45627
45492
45325
45118
44887
44657
44433
44219
44032
43888
43784
43712
43678
43687
43719
43757
43802
43854
43894
43913
43913
43892
43847
43779
43697
43611
43517
43424
43347
43283
43216
43144
43075
43002
42918
42826
42734
42639
42537
42437
42354
42296
42269
42291
42373
42514
42718
42989
43314
43672
44057
44474
44915
45356
45781
46197
46611
47008
47373
47709
48013
48271
48490
48682
48848
48992
49123
49249
49367
49467
49557
49641
49714
49776
49837
49907
49983
50054
50124
50209
50312
50423
50549
50687
50829
50968
51103
51224
51314
51362
51373
51348
51288
51208
51128
51053
50983
50922
50876
50842
50807
50764
50721
50683
50647
50615
50586
50558
50523
50485
50457
50437
50421
50413
50421
50438
50440
50428
50409
50369
50296
50196
50087
49976
49859
49742
49626
49510
49398
49307
49246
49206
49174
49152
49136
49111
49074
49025
48962
48875
48755
48613
48463
48302
48142
48000
47876
47768
47683
47631
47605
47589
47580
47579
47579
47568
47550
47530
47505
47467
47425
47392
47361
47325
47280
47206
47085
46917
46721
46512
46296
46079
45882
45719
45592
45506
45466
45472
45506
45549
45598
45647
45679
45690
45681
45646
45579
45493
45403
45317
45233
45159
45109
45075
45043
45019
45011
45013
45012
45010
45017
45032
45056
45104
45181
45268
45346
45414
45470
45496
45486
45454
45410
45353
45295
45254
45236
45236
45249
45276
45321
45388
45491
45643
45851
46121
46465
46881
47359
47884
48445
49029
49607
50159
50681
51166
51586
51921
52175
52359
52470
52495
52444
52340
52198
52029
51854
51683
51519
51372
51247
51147
51066
50998
50953
50931
50915
50895
50872
50850
50820
50781
50740
50686
50604
50491
50352
50189
50001
49799
49600
49400
49194
48997
48824
48665
48505
48344
48191
48050
47923
47826
47769
47749
47757
47792
47849
47917
47994
48085
48194
48309
48416
48520
48627
48724
48805
48875
48930
48964
48977
48965
48918
48830
48711
48576
48435
48292
48157
48035
47920
47804
47691
47584
47479
47363
47240
47119
46997
46866
46728
46590
46436
46264
46094
45937
45782
45631
45500
45390
45285
45174
45058
44934
44784
44606
44427
44263
44107
43964
43854
43782
43738
43719
43728
43751
43772
43783
43782
43763
43732
43708
43693
43675
43645
43604
43555
43493
43417
43345
43291
43241
43189
43147
43122
43102
43073
43035
42979
42884
42747
42576
42376
42154
41926
41711
41519
41348
41211
41119
41063
41028
41012
41020
41043
41065
41080
41096
41108
41100
41078
41056
41032
41009
41008
41038
41094
41172
41286
41453
41672
41941
42260
42619
43000
43402
43837
44302
44776
45242
45695
46127
46524
46873
47171
47414
47593
47721
47825
47929
48030
48131
48236
48338
48425
48501
48566
48602
48601
48568
48515
48445
48356
48255
48151
48045
47940
47854
47799
47781
47802
47865
47963
48082
48223
48390
48574
48742
48873
48964
49020
49037
49023
48996
48960
48912
48869
48852
48862
48883
48902
48926
48955
48985
49020
49065
49111
49153
49196
49242
49279
49296
49292
49273
49241
49195
49146
49109
49084
49062
49053
49058
49062
49063
49062
49053
49029
48986
48937
48883
48818
48742
48661
48566
48457
48348
48244
48146
48050
47952
47861
47781
47703
47629
47571
47520
47463
47405
47358
47307
47239
47159
47082
47007
46931
46859
46788
46705
46614
46527
46450
46386
46334
46294
46264
46239
46220
46216
46226
46234
46241
46257
46272
46268
46238
46196
46144
46074
45983
45874
45752
45616
45469
45320
45176
45036
44917
44831
44771
44720
44681
44658
44639
44603
44545
44467
44365
44246
44130
44031
43951
43893
43882
43941
44065
44241
44473
44759
45096
45487
45938
46446
46988
47545
48117
48693
49245
49755
50211
50596
50893
51113
51270
51372
51422
51434
51428
51413
51391
51372
51368
51375
51387
51406
51436
51470
51496
51520
51552
51595
51651
51734
51838
51949
52058
52169
52281
52376
52447
52500
52531
52525
52480
52411
52327
52226
52112
51992
51869
51739
51612
51499
51395
51296
51208
51139
51080
51026
50996
50998
51011
51026
51055
51110
51180
51246
51301
51349
51386
51417
51429
51408
51368
51326
51290
51258
51213
51149
51079
51011
50936
50848
50755
50652
50520
50361
50187
50009
49830
49656
49498
49352
49207
49071
48955
48856
48760
48660
48557
48452
48343
48231
48122
48011
47889
47771
47666
47567
47473
47390
47318
47247
47173
47101
47037
46969
46887
46797
46699
46584
46465
46352
46237
46114
45982
45839
45690
45541
45403
45282
45173
45076
45002
44955
44919
44872
44823
44780
44737
44690
44649
44611
44562
44502
44439
44374
44303
44220
44126
44027
43925
43828
43749
43686
43621
43549
43476
43402
43322
43243
43180
43138
43119
43139
43217
43352
43534
43764
44057
44415
44828
45292
45807
46359
46939
47544
48160
48766
49341
49878
50374
50815
51203
51555
51872
52144
52368
52560
52736
52897
53044
53199
53373
53553
53739
53934
54128
54298
54441
54577
54712
54838
54961
55106
55275
55455
55642
55829
56000
56140
56247
56317
56337
56300
56224
56130
56024
55902
55772
55641
55508
55377
55259
55155
55059
54972
54906
54866
54841
54822
54807
54798
54789
54780
54782
54786
54767
54715
54637
54539
54428
54313
54207
54109
54014
53924
53838
53757
53681
53617
53571
53530
53479
53422
53361
53289
53198
53092
52985
52873
52747
52615
52487
52364
52244
52133
52036
51955
51887
51836
51791
51743
51690
51637
51585
51523
51447
51361
51259
51131
50987
50835
50678
50514
50348
50198
50068
49957
49869
49818
49799
49794
49800
49821
49842
49842
49812
49767
49708
49636
49563
49493
49417
49332
49250
49173
49092
49000
48905
48804
48687
48553
48412
48262
48086
47889
47685
47479
47271
47069
46880
46707
46548
46406
46285
46175
46063
45952
45851
45755
45655
45552
45448
45339
45224
45117
45025
44940
44862
44808
44793
44827
44924
45104
45370
45708
46105
46563
47084
47645
48221
48800
49367
49907
50412
50876
51290
51638
51923
52165
52370
52538
52686
52834
52978
53109
53235
53362
53487
53604
53721
53846
53965
54057
54119
54152
54158
54144
54123
54101
54068
54028
53997
53971
53946
53915
53877
53843
53803
53746
53681
53609
53524
53427
53312
53163
52980
52784
52612
52474
52358
52261
52188
52135
52095
52071
52062
52053
52027
51996
51977
51965
51943
51904
51851
51783
51702
51622
51542
51447
51330
51192
51036
50858
50659
50454
50260
50069
49884
49717
49571
49437
49314
49218
49153
49108
49083
49077
49077
49070
49053
49029
48996
48938
48854
48739
48583
48387
48167
47936
47697
47452
47209
46966
46717
46473
46258
46083
45937
45811
45717
45652
45600
45556
45525
45500
45468
45425
45375
45314
45231
45122
45003
44877
44743
44608
44486
44375
44260
44140
44023
43906
43781
43660
43548
43434
43315
43198
43096
43009
42920
42824
42718
42593
42444
42280
42111
41936
41759
41597
41455
41333
41237
41171
41125
41079
41024
40961
40881
40776
40654
40523
40393
40274
40183
40138
40144
40201
40320
40517
40791
41124
41512
41956
42444
42962
43511
44090
44689
45286
45869
46428
46943
47398
47793
48136
48433
48680
48889
49076
49239
49378
49503
49618
49715
49795
49876
49960
50032
50089
50151
50231
50338
50479
50650
50836
51019
51199
51378
51546
51690
51803
51879
51912
51901
51859
51788
51684
51548
51392
51229
51071
50926
50800
50693
50602
50531
50488
50463
50442
50413
50379
50345
50302
50253
50207
50161
50103
50035
49978
49939
49906
49881
49884
49917
49963
50011
50057
50102
50148
50197
50251
50302
50351
50404
50458
50490
50478
50428
50350
50240
50099
49947
49800
49660
49533
49428
49352
49295
49248
49200
49144
49071
48975
48852
48702
48518
48302
48059
47783
47467
47119
46749
46352
45927
45492
45077
44690
44333
44022
43768
43567
43410
43298
43233
43206
43199
43207
43231
43259
43287
43316
43344
43360
43360
43351
43347
43338
43314
43278
43228
43154
43064
42974
42888
42806
42737
42699
42696
42719
42764
42845
42959
43095
43258
43445
43637
43815
43980
44135
44268
44359
44411
44434
44424
44387
44337
44281
44223
44176
44156
44176
44239
44345
44502
44707
44952
45246
45598
46006
46452
46922
47411
47912
48406
48885
49337
49750
50116
50444
50748
51028
51273
51481
51662
51816
51935
52022
52089
52135
52153
52153
52149
52135
52102
52061
52036
52046
52094
52184
52314
52470
52648
52856
53085
53304
53484
53621
53719
53764
53751
53694
53599
53469
53316
53152
52991
52840
52710
52615
52554
52520
52516
52552
52630
52741
52881
53049
53222
53383
53530
53662
53769
53843
53899
53944
53972
53979
53973
53949
53900
53827
53733
53622
53504
53391
53288
53204
53136
53085
53061
53074
53104
53138
53166
53170
53125
53029
52895
52729
52522
52272
51989
51672
51328
50966
50605
50260
49943
49664
49425
49222
49066
48967
48927
48933
48971
49036
49123
49215
49294
49357
49402
49414
49390
49336
49250
49127
48977
48822
48679
48546
48427
48334
48269
48225
48197
48187
48188
48196
48212
48242
48279
48309
48329
48342
48345
48334
48318
48302
48277
48231
48167
48100
48028
47939
47839
47743
47653
47565
47481
47411
47350
47287
47233
47192
47155
47125
47112
47120
47141
47176
47231
47306
47389
47476
47578
47709
47876
48094
48383
48741
49154
49625
50146
50698
51256
51805
52334
52827
53262
53645
53980
54267
54506
54715
54908
55084
55239
55376
55491
55573
55624
55655
55670
55658
55621
55585
55563
55555
55574
55635
55737
55865
56016
56187
56365
56542
56720
56895
57059
57196
57304
57382
57421
57416
57381
57330
57257
57157
57040
56922
56804
56681
56568
56472
56384
56303
56239
56197
56167
56142
56131
56133
56135
56132
56129
56126
56115
56094
56072
56047
56010
55959
55906
55846
55769
55680
55592
55507
55422
55347
55291
55250
55210
55166
55121
55060
54965
54839
54693
54537
54381
54237
54115
54005
53910
53834
53771
53704
53634
53577
53538
53500
53460
53424
53391
53356
53316
53269
53203
53109
52996
52869
52728
52577
52428
52283
52144
52006
51872
51752
51639
51521
51401
51289
51186
51092
51012
50950
50900
50852
50805
50762
50706
50627
50536
50436
50320
50194
50078
49977
49884
49802
49746
49719
49709
49705
49704
49701
49680
49635
49573
49495
49393
49269
49126
48968
48806
48652
48519
48405
48305
48225
48163
48106
48047
47995
47955
47915
47858
47798
47768
47782
47839
47948
48117
48342
48626
48979
49398
49858
50344
50852
51376
51889
52375
52832
53265
53666
54038
54393
54727
55025
55287
55514
55703
55848
55947
56003
56016
55988
55931
55867
55805
55751
55720
55728
55769
55843
55958
56111
56289
56477
56665
56848
57017
57151
57247
57303
57297
57220
57085
56896
56661
56400
56131
55867
55612
55369
55145
54944
54759
54594
54465
54370
54284
54201
54121
54035
53942
53851
53768
53685
53595
53506
53438
53393
53355
53320
53293
53270
53242
53214
53192
53161
53112
53052
52991
52922
52844
52766
52684
52587
52472
52349
52219
52089
51975
51880
51795
51709
51625
51550
51482
51405
51315
51212
51081
50913
50722
50528
50332
50136
49955
49807
49698
49625
49596
49618
49668
49721
49766
49788
49766
49694
49588
49462
49324
49186
49067
48975
48910
48866
48839
48830
48829
48829
48827
48815
48782
48729
48656
48556
48426
48276
48117
47950
47776
47608
47458
47324
47202
47099
47014
46932
46847
46776
46719
46665
46607
46545
46484
46424
46353
46280
46209
46131
46053
45982
45912
45833
45749
45668
45588
45505
45424
45352
45286
45227
45181
45162
45177
45228
45332
45498
45713
45963
46251
46594
46993
47432
47906
48412
48938
49485
50061
50654
51234
51782
52297
52771
53180
53512
53770
53955
54069
54133
54174
54206
54221
54221
54228
54260
54318
54398
54488
54575
54658
54743
54836
54933
55025
55116
55219
55330
55441
55555
55682
55806
55906
55978
56023
56037
56023
55995
55968
55940
55907
55869
55821
55755
55681
55614
55559
55523
55516
55548
55614
55698
55796
55914
56040
56156
56257
56335
56382
56394
56378
56353
56333
56314
56297
56293
56294
56289
56282
56272
56252
56216
56176
56151
56140
56143
56169
56217
56271
56324
56378
56430
56473
56496
56503
56495
56457
56390
56310
56224
56129
56032
55950
55890
55833
55770
55708
55647
55571
55477
55385
55303
55225
55151
55080
55009
54923
54822
54710
54579
54424
54262
54109
53955
53803
53668
53549
53428
53297
53166
53038
52908
52773
52647
52540
52436
52332
52229
52123
52010
51904
51820
51753
51699
51663
51651
51662
51682
51700
51709
51703
51673
51622
51563
51494
51410
51324
51246
51164
51072
50986
50917
50848
50774
50709
50655
50601
50546
50504
50483
50482
50505
50560
50653
50787
50977
51239
51583
52010
52513
53085
53714
54380
55063
55756
56441
57086
57677
58217
58695
59088
59394
59631
59809
59925
59993
60030
60039
60013
59967
59924
59880
59838
59814
59803
59790
59778
59772
59779
59791
59800
59809
59819
59824
59819
59812
59805
59791
59765
59732
59695
59646
59580
59510
59438
59363
59291
59229
59166
59094
59014
58934
58855
58774
58701
58653
58629
58620
58628
58651
58676
58699
58731
58777
58822
58860
58896
58934
58968
58993
59008
59005
58972
58907
58819
58711
58576
58413
58235
58050
57854
57649
57457
57283
57115
56959
56834
56735
56648
56572
56517
56480
56447
56417
56392
56369
56346
56336
56343
56345
56328
56298
56261
56209
56135
56042
55931
55792
55617
55416
55200
54981
54770
54580
54419
54275
54140
54020
53916
53815
53708
53610
53525
53454
53404
53379
53379
53400
53442
53512
53603
53706
53818
53936
54038
54105
54136
54139
54109
54040
53932
53796
53635
53457
53279
53116
52964
52818
52687
52581
52498
52434
52395
52377
52371
52373
52385
52406
52418
52403
52362
52302
52227
52151
52082
52008
51920
51832
51773
51756
51779
51851
51986
52193
52483
52875
53368
53941
54562
55210
55876
56543
57207
57861
58492
59081
59607
60067
60464
60792
61053
61263
61429
61551
61640
61716
61784
61835
61872
61906
61936
61953
61965
61986
62015
62048
62089
62146
62211
62274
62342
62424
62507
62579
62650
62726
62797
62853
62898
62935
62952
62944
62916
62865
62787
62675
62539
62385
62217
62050
61909
61809
61746
61709
61693
61687
61678
61656
61624
61571
61481
61362
61250
61166
61116
61106
61144
61217
61305
61399
61492
61563
61589
61575
61534
61473
61396
61313
61235
61161
61081
60989
60877
60728
60541
60333
60105
59850
59575
59299
59041
58796
58563
58359
58191
58048
57932
57840
57766
57699
57633
57573
57513
57443
57365
57288
57202
57091
56963
56836
56718
56604
56496
56398
56313
56246
56208
56199
56202
56205
56209
56215
56211
56188
56148
56087
55992
55862
55726
55605
55486
55364
55256
55169
55095
55028
54966
54904
54838
54776
54728
54695
54657
54614
54579
54543
54497
54447
54391
54324
54245
54158
54067
53971
53869
53769
53678
53587
53491
53406
53335
53267
53207
53173
53178
53225
53323
53486
53716
54014
54380
54817
55311
55838
56379
56926
57459
57952
58403
58826
59227
59602
59957
60305
60642
60956
61247
61516
61753
61934
62059
62147
62196
62200
62168
62114
62039
61949
61859
61786
61731
61683
61646
61619
61596
61577
61567
61557
61532
61494
61465
61449
61423
61378
61318
61238
61128
61002
60870
60736
60608
60496
60409
60340
60278
60216
60154
60085
60001
59910
59813
59700
59565
59416
59267
59131
59010
58914
58853
58814
58800
58829
58891
58963
59038
59123
59216
59295
