25282
25070
24860
24683
24543
24426
24327
24246
24158
24038
23896
23758
23627
23487
23351
23241
23143
23045
22964
22900
22830
22732
22606
22469
22315
22137
21962
21807
21660
21518
21396
21294
21185
21069
20973
20892
20806
20717
20640
20569
20498
20438
20408
20401
20372
20320
20259
20169
20039
19885
19752
19664
19626
19663
19812
20060
20381
20785
21277
21828
22408
23026
23686
24358
25023
25693
26381
27062
27720
28355
28960
29503
29969
30391
30771
31094
31369
31621
31848
32017
32129
32208
32249
32232
32171
32105
32041
31980
31933
31896
31854
31795
31725
31648
31547
31425
31316
31243
31186
31132
31093
31062
31005
30907
30777
30628
30482
30350
30247
30181
30128
30076
30029
29989
29923
29822
29724
29645
29572
29504
29454
29420
29394
29384
29398
29418
29411
29382
29351
29310
29254
29192
29144
29104
29053
28993
28928
28843
28733
28618
28505
28379
28222
28052
27897
27757
27630
27517
27418
27311
27181
27037
26873
26677
26460
26260
26085
25923
25784
25678
25581
25462
25337
25227
25117
24982
24845
24728
24620
24509
24407
24338
24292
24228
24139
24025
23875
23682
23475
23294
23143
23006
22890
22798
22706
22598
22491
22383
22263
22135
22019
21926
21851
21791
21747
21712
21653
21565
21475
21384
21265
21125
21014
20942
20876
20813
20765
20706
20609
20491
20372
20257
20156
20105
20146
20278
20496
20818
21247
21740
22269
22835
23426
24023
24622
25240
25874
26497
27101
27689
28272
28826
29341
29830
30287
30683
31014
31312
31583
31805
31988
32162
32330
32456
32529
32560
32540
32460
32347
32236
32139
32045
31962
31911
31870
31811
31749
31690
31599
31456
31288
31124
30970
30832
30724
30650
30581
30508
30448
30403
30354
30295
30260
30253
30248
30246
30269
30316
30347
30348
30331
30306
30271
30228
30205
30205
30210
30223
30248
30253
30212
30143
30067
29985
29879
29760
29661
29566
29453
29340
29231
29086
28882
28653
28423
28183
27939
27714
27516
27306
27069
26824
26575
26308
26028
25775
25563
25372
25206
25071
24963
24853
24727
24595
24452
24297
24155
24062
24013
23968
23917
23871
23818
23737
23653
23605
23582
23556
23535
23529
23525
23514
23501
23482
23442
23371
23291
23210
23112
22998
22891
22801
22693
22551
22390
22218
22021
21805
21611
21443
21269
21088
20926
20777
20619
20462
20309
20141
19938
19711
19495
19296
19135
19054
19074
19174
19333
19560
19862
20219
20609
21040
21516
22023
22562
23145
23771
24409
25034
25646
26228
26748
27202
27633
28053
28431
28765
29085
29386
29637
29844
30016
30137
30193
30195
30167
30128
30073
30004
29935
29865
29787
29717
29664
29602
29509
29396
29278
29149
29009
28870
28740
28614
28491
28382
28295
28199
28087
27979
27868
27736
27589
27465
27376
27312
27288
27321
27394
27461
27519
27583
27636
27668
27701
27757
27826
27882
27921
27958
27974
27948
27892
27814
27701
27546
27365
27197
27051
26909
26780
26665
26524
26345
26160
25979
25793
25607
25450
25331
25220
25120
25053
25007
24942
24852
24762
24677
24582
24484
24415
24369
24313
24252
24192
24110
23978
23806
23626
23448
23267
23098
22961
22851
22762
22690
22629
22558
22464
22352
22226
22096
21969
21864
21799
21755
21721
21696
21672
21627
21558
21488
21406
21294
21168
21057
20964
20865
20765
20675
20588
20483
20380
20327
20339
20422
20593
20866
21223
21631
22088
22596
23123
23642
24171
24731
25319
25919
26521
27128
27717
28275
28825
29364
29846
30243
30580
30871
31115
31317
31501
31681
31842
31992
32143
32288
32396
32460
32495
32482
32410
32312
32212
32109
31997
31888
31809
31753
31684
31601
31524
31440
31322
31193
31085
30993
30901
30812
30738
30668
30597
30535
30482
30412
30317
30229
30160
30098
30047
30025
30033
30037
30028
30003
29955
29875
29763
29651
29554
29457
29363
29297
29253
29214
29182
29160
29128
29053
28944
28817
28656
28463
28272
28112
27973
27837
27720
27626
27524
27387
27229
27054
26850
26614
26378
26161
25955
25763
25601
25462
25319
25164
25012
24850
24656
24439
24239
24059
23886
23738
23635
23568
23509
23448
23386
23307
23189
23059
22955
22863
22768
22694
22649
22598
22504
22374
22223
22064
21912
21783
21696
21627
21553
21482
21414
21324
21210
21111
21042
21000
21011
21107
21295
21549
21858
22226
22646
23099
23583
24124
24725
25374
26077
26824
27576
28296
28986
29651
30276
30832
31331
31809
32259
32666
33038
33378
33667
33891
34072
34223
34328
34383
34426
34476
34509
34520
34523
34526
34502
34446
34392
34350
34301
34248
34211
34195
34174
34138
34090
34011
33883
33729
33586
33454
33329
33224
33153
33089
33006
32905
32801
32695
32570
32448
32358
32295
32252
32232
32240
32268
32302
32334
32351
32345
32325
32320
32320
32292
32235
32170
32104
32007
31873
31739
31618
31497
31378
31279
31188
31078
30955
30828
30683
30501
30297
30096
29897
29696
29512
29366
29243
29119
28984
28837
28661
28450
28238
28044
27850
27646
27449
27280
27131
26997
26889
26813
26744
26660
26566
26464
26328
26161
25989
25812
25631
25459
25312
25188
25067
24950
24857
24774
24670
24556
24444
24317
24154
23966
23802
23680
23586
23527
23508
23489
23438
23369
23292
23193
23063
22925
22791
22657
22543
22488
22511
22605
22774
23028
23364
23740
24147
24605
25120
25693
26315
26998
27733
28466
29186
29906
30608
31267
31889
32472
32991
33430
33810
34158
34465
34724
34965
35197
35386
35508
35579
35609
35602
35564
35527
35511
35509
35511
35525
35559
35598
35623
35639
35642
35613
35551
35490
35437
35369
35289
35214
35145
35071
35005
34949
34887
34800
34697
34596
34500
34391
34281
34187
34099
34021
33978
33978
34001
34016
34020
34019
33989
33917
33837
33767
33695
33614
33532
33450
33356
33258
33160
33046
32900
32725
32541
32349
32134
31900
31679
31480
31285
31097
30924
30749
30551
30337
30130
29925
29702
29477
29279
29094
28913
28751
28621
28499
28361
28220
28089
27950
27796
27639
27490
27344
27200
27079
26996
26928
26869
26829
26799
26739
26641
26538
26441
26336
26222
26129
26062
26010
25974
25970
25988
25989
25963
25924
25862
25771
25671
25576
25483
25387
25309
25261
25217
25155
25081
24998
24885
24737
24595
24499
24441
24413
24435
24522
24659
24847
25107
25438
25837
26303
26863
27513
28223
28984
29787
30608
31402
32149
32857
33522
34136
34710
35278
35827
36329
36796
37239
37633
37952
38207
38416
38583
38708
38807
38899
38966
38998
39019
39033
39013
38947
38870
38817
38790
38791
38837
38918
38989
39029
39047
39042
38991
38887
38765
38642
38508
38364
38239
38126
38000
37857
37695
37513
37309
37094
36898
36721
36568
36459
36397
36355
36301
36227
36135
36017
35861
35697
35562
35434
35306
35203
35139
35089
35029
34966
34896
34803
34689
34592
34520
34437
34340
34244
34143
34007
33822
33628
33460
33303
33147
33001
32852
32682
32505
32323
32110
31868
31628
31417
31227
31040
30864
30708
30548
30353
30135
29911
29690
29477
29280
29097
28917
28735
28547
28364
28177
27977
27780
27583
27367
27139
26945
26786
26633
26493
26380
26283
26175
26051
25931
25817
25701
25601
25531
25472
25407
25335
25259
25164
25029
24877
24723
24562
24409
24295
24227
24184
24149
24128
24131
24144
24171
24255
24413
24636
24925
25320
25828
26401
27022
27707
28444
29186
29918
30649
31357
32005
32591
33138
33640
34088
34507
34921
35301
35621
35890
36117
36285
36383
36436
36474
36491
36480
36452
36416
36368
36300
36221
36135
36024
35880
35736
35605
35481
35367
35278
35213
35132
35025
34910
34789
34642
34464
34282
34105
33925
33752
33619
33527
33454
33404
33385
33377
33354
33319
33276
33216
33142
33081
33047
33022
32986
32945
32925
32926
32933
32940
32944
32926
32867
32771
32642
32481
32298
32124
31953
31770
31584
31414
31251
31069
30865
30643
30391
30095
29767
29429
29084
28731
28388
28086
27817
27538
27241
26942
26634
26300
25956
25622
25303
24992
24704
24469
24274
24108
23979
23885
23809
23742
23687
23641
23571
23471
23374
23284
23195
23113
23055
23007
22932
22822
22711
22601
22462
22294
22116
21922
21700
21469
21259
21066
20878
20703
20547
20395
20223
20043
19880
19715
19526
19353
19242
19197
19210
19305
19510
19825
20240
20758
21367
22026
22706
23403
24109
24796
25466
26146
26827
27481
28114
28734
29333
29888
30390
30841
31237
31557
31804
32012
32184
32305
32388
32461
32521
32554
32576
32606
32629
32622
32590
32551
32512
32469
32437
32426
32421
32414
32418
32445
32484
32527
32579
32633
32665
32665
32649
32628
32578
32496
32420
32360
32302
32251
32239
32265
32302
32363
32469
32593
32703
32813
32943
33072
33164
33211
33233
33233
33194
33140
33107
33094
33088
33089
33100
33101
33085
33069
33050
32996
32893
32765
32617
32432
32214
32013
31839
31663
31483
31311
31135
30921
30681
30445
30211
29966
29717
29479
29251
29019
28792
28590
28410
28223
28017
27798
27563
27302
27037
26806
26590
26363
26157
25995
25814
25568
25298
25035
24765
24468
24173
23913
23681
23478
23322
23214
23113
23007
22909
22814
22703
22579
22489
22459
22492
22596
22766
22984
23240
23549
23918
24332
24761
25221
25760
26372
27044
27776
28559
29367
30162
30924
31655
32341
32974
33573
34156
34697
35186
35641
36066
36435
36739
37006
37236
37418
37557
37692
37837
37968
38081
38177
38245
38259
38230
38190
38131
38042
37950
37877
37812
37742
37669
37609
37554
37488
37417
37345
37249
37123
36991
36889
36799
36701
36621
36566
36503
36421
36337
36263
36185
36098
36016
35940
35875
35833
35823
35828
35812
35781
35762
35745
35710
35656
35585
35486
35350
35192
35050
34928
34803
34690
34608
34519
34381
34213
34029
33826
33604
33390
33206
33034
32875
32752
32657
32548
32410
32263
32107
31934
31744
31563
31409
31260
31109
30960
30804
30610
30389
30171
29956
29718
29460
29226
29032
28871
28740
28627
28512
28365
28193
28028
27866
27682
27492
27333
27207
27089
26989
26930
26888
26840
26803
26773
26711
26605
26471
26313
26133
25952
25796
25672
25563
25469
25402
25376
25384
25435
25566
25776
26055
26413
26870
27409
28019
28703
29438
30179
30885
31559
32204
32794
33311
33780
34234
34669
35067
35436
35780
36080
36323
36525
36701
36828
36884
36880
36838
36757
36634
36507
36406
36329
36274
36245
36229
36206
36182
36168
36149
36086
35974
35846
35706
35526
35314
35107
34899
34683
34480
34317
34190
34082
33990
33920
33847
33747
33629
33518
33424
33334
33257
33200
33150
33091
33037
33017
33025
33044
33077
33127
33174
33199
33199
33176
33114
33019
32931
32848
32746
32630
32516
32400
32264
32124
32007
31903
31787
31663
31546
31417
31251
31060
30876
30704
30535
30379
30243
30120
29998
29887
29794
29683
29526
29341
29143
28934
28713
28501
28315
28135
27951
27759
27541
27272
26959
26644
26339
26046
25781
25554
25359
25177
25016
24895
24792
24673
24553
24453
24362
24267
24178
24112
24061
23991
23908
23824
23717
23564
23384
23208
23038
22866
22702
22557
22414
22276
22180
22142
22148
22195
22319
22524
22802
23171
23657
24246
24900
25610
26372
27156
27912
28636
29344
30013
30629
31207
31757
32277
32754
33180
33565
33908
34200
34459
34694
34887
35020
35106
35164
35197
35212
35235
35281
35313
35312
35302
35288
35247
35167
35081
35004
34921
34835
34763
34709
34646
34561
34455
34317
34144
33956
33797
33676
33568
33484
33430
33377
33294
33194
33103
33021
32942
32870
32818
32779
32753
32746
32740
32707
32634
32544
32465
32393
32327
32288
32279
32269
32242
32208
32167
32094
31978
31854
31731
31599
31473
31366
31267
31139
30978
30793
30596
30398
30202
30030
29878
29733
29603
29491
29371
29218
29035
28846
28655
28444
28231
28049
27880
27704
27534
27381
27226
27054
26887
26729
26567
26402
26262
26156
26065
25984
25933
25911
25876
25814
25742
25659
25535
25373
25218
25086
24975
24890
24836
24801
24769
24741
24709
24645
24543
24426
24318
24207
24082
23972
23902
23839
23754
23657
23564
23476
23384
23318
23311
23366
23492
23710
24025
24417
24872
25382
25942
26512
27074
27655
28264
28891
29525
30163
30789
31371
31905
32425
32929
33365
33721
34024
34281
34489
34671
34851
35020
35146
35232
35285
35295
35250
35170
35070
34953
34823
34692
34582
34492
34422
34379
34347
34284
34178
34057
33923
33774
33622
33495
33397
33302
33202
33091
32956
32796
32630
32485
32361
32240
32132
32056
32001
31935
31865
31796
31718
31621
31524
31461
31430
31410
31395
31383
31358
31304
31229
31146
31055
30943
30833
30738
30637
30531
30432
30331
30194
30011
29801
29573
29324
29062
28834
28649
28482
28328
28196
28076
27943
27802
27665
27510
27317
27113
26906
26691
26466
26239
26027
25822
25628
25471
25358
25269
25186
25113
25050
24979
24886
24782
24681
24556
24391
24211
24028
23829
23622
23439
23281
23134
23007
22905
22817
22720
22608
22485
22349
22182
21986
21774
21541
21274
20997
20750
20548
20395
20315
20321
20393
20532
20774
21127
21567
22068
22622
23214
23811
24394
24964
25517
26040
26520
26965
27374
27742
28081
28413
28734
29015
29263
29486
29665
29775
29823
29829
29794
29719
29611
29504
29416
29324
29232
29165
29101
29019
28932
28849
28771
28668
28521
28352
28172
27979
27810
27687
27599
27551
27541
27554
27558
27542
27517
27481
27431
27376
27329
27285
27243
27226
27255
27322
27400
27501
27638
27773
27851
27878
27898
27920
27923
27900
27871
27844
27813
27783
27765
27743
27688
27614
27526
27407
27263
27117
26988
26874
26772
26684
26605
26505
26370
26226
26079
25911
25717
25542
25406
25293
25200
25143
25119
25092
25058
25028
24999
24936
24823
24687
24537
24372
24220
24109
24029
23956
23894
23856
23819
23766
23713
23669
23609
23504
23368
23220
23050
22856
22668
22509
22379
22293
22273
22330
22436
22582
22793
23079
23430
23849
24356
24940
25561
26207
26881
27560
28199
28792
29360
29893
30370
30805
31229
31638
32012
32365
32717
33051
33340
33580
33781
33934
34017
34043
34028
33974
33884
33778
33676
33568
33451
33360
33303
33247
33177
33105
33034
32945
32826
32701
32581
32458
32327
32206
32095
31983
31873
31773
31677
31564
31441
31331
31225
31118
31035
31002
31008
31026
31052
31094
31141
31177
31203
31222
31220
31175
31097
31012
30927
30839
30777
30756
30752
30740
30723
30705
30665
30591
30498
30392
30255
30085
29915
29742
29559
29391
29253
29120
28974
28833
28707
28586
28442
28269
28089
27910
27738
27599
27498
27423
27374
27364
27391
27406
27385
27346
27289
27194
27058
26905
26757
26609
26461
26326
26203
26060
25884
25699
25510
25303
25084
24894
24744
24611
24503
24448
24442
24452
24484
24565
24692
24863
25094
25411
25817
26288
26826
27437
28084
28718
29343
29985
30645
31301
31949
32585
33191
33767
34333
34890
35401
35844
36230
36561
36825
37026
37195
37335
37447
37539
37629
37720
37797
37865
37928
37978
37999
37995
37979
37963
37941
37915
37899
37887
37870
37853
37834
37799
37727
37619
37492
37341
37162
36980
36824
36683
36546
36434
36357
36284
36202
36125
36043
35931
35773
35577
35346
35072
34762
34449
34147
33828
33495
33183
32911
32681
32493
32371
32304
32248
32199
32166
32120
32025
31903
31782
31654
31517
31388
31278
31180
31080
30976
30864
30730
30575
30422
30276
30126
29969
29823
29697
29564
29423
29285
29148
28988
28792
28579
28353
28109
27862
27658
27497
27352
27233
27146
27063
26941
26782
26620
26457
26277
26082
25886
25687
25476
25276
25097
24922
24745
24581
24453
24347
24230
24092
23924
23697
23420
23154
22948
22817
22771
22832
22993
23218
23501
23856
24270
24694
25105
25521
25952
26396
26859
27364
27899
28415
28891
29328
29710
30024
30292
30557
30808
31019
31207
31405
31591
31741
31878
32008
32101
32131
32121
32118
32129
32159
32228
32337
32440
32510
32550
32559
32518
32417
32274
32093
31878
31656
31452
31274
31098
30921
30751
30575
30367
30126
29862
29568
29261
28960
28664
28352
28000
27628
27272
26929
26579
26248
25971
25735
25518
25325
25154
24981
24783
24565
24341
24113
23885
23669
23481
23312
23148
22985
22820
22633
22423
22227
22060
21910
21774
21652
21537
21422
21313
21220
21138
21036
20926
20839
20769
20709
20679
20693
20735
20778
20821
20865
20885
20862
20808
20750
20695
20641
20585
20524
20438
20326
20199
20043
19831
19570
19299
19029
18755
18493
18252
18016
17745
17440
17116
16767
16393
16020
15699
15439
15227
15066
14971
14936
14926
14931
14949
14976
15013
15086
15223
15414
15648
15946
16315
16728
17174
17672
18228
18829
19459
20132
20846
21574
22312
23064
23829
24574
25281
25962
26609
27209
27768
28311
28843
29353
29851
30314
30707
31019
31266
31475
31651
31787
31901
32015
32117
32205
32308
32431
32559
32672
32765
32857
32956
33054
33151
33255
33338
33379
33384
33352
33265
33127
32986
32852
32702
32548
32414
32295
32163
32008
31844
31678
31519
31372
31258
31162
31055
30949
30844
30703
30513
30307
30122
29968
29837
29723
29622
29504
29346
29175
29007
28842
28682
28524
28376
28236
28102
27983
27878
27752
27596
27437
27280
27123
26975
26845
26731
26600
26455
26304
26135
25923
25665
25382
25083
24779
24500
24268
24072
23893
23734
23591
23438
23239
23003
22758
22509
22257
22031
21856
21705
21562
21438
21330
21214
21076
20941
20819
20702
20598
20532
20509
20501
20501
20508
20507
20496
20488
20520
20594
20673
20742
20811
20871
20881
20831
20757
20684
20618
20573
20561
20582
20618
20698
20863
21106
21423
21817
22271
22746
23207
23685
24215
24776
25350
25937
26536
27117
27658
28159
28612
29004
29330
29611
29847
30029
30169
30288
30379
30419
30411
30353
30235
30056
29839
29637
29467
29303
29145
29006
28874
28733
28585
28444
28295
28102
27874
27635
27390
27149
26941
26770
26608
26439
26270
26100
25906
25684
25473
25299
25156
25041
24961
24914
24878
24849
24839
24835
24808
24755
24702
24653
24596
24536
24504
24511
24525
24542
24578
24612
24608
24571
24517
24450
24359
24269
24217
24188
24167
24161
24169
24165
24133
24089
24041
23972
23887
23829
23807
23790
23761
23719
23666
23592
23496
23396
23289
23161
23006
22855
22716
22577
22443
22330
22228
22116
22009
21914
21809
21665
21482
21287
21092
20879
20660
20471
20310
20153
20000
19857
19709
19546
19385
19238
19081
18897
18716
18557
18410
18283
18218
18228
18311
18472
18720
19049
19434
19873
20372
20905
21432
21948
22459
22950
23403
23825
24249
24671
25052
25393
25704
25962
26149
26287
26399
26473
26491
26473
26450
26419
26370
26316
26275
26228
26168
26119
26090
26051
25985
25900
25794
25645
25453
25258
25062
24852
24644
24463
24299
24125
23953
23816
23716
23607
23474
23334
23189
23038
22908
22826
22777
22734
22695
22665
22615
22529
22441
22377
22319
22246
22173
22122
22076
22031
22004
21994
21966
21907
21832
21739
21625
21506
21405
21326
21246
21153
21055
20948
20806
20629
20425
20193
19927
19649
19397
19174
18963
18766
18593
18432
18253
18057
17856
17636
17386
17127
16884
16662
16459
16293
16168
16064
15967
15868
15756
15610
15423
15221
15023
14831
14649
14492
14369
14255
14133
14002
13853
13681
13494
13325
13170
13012
12864
12755
12679
12604
12536
12525
12596
12742
12978
13316
13738
14234
14806
15447
16132
16821
17504
18172
18792
19346
19860
20341
20764
21123
21444
21740
22002
22228
22422
22582
22686
22729
22724
22676
22570
22417
22255
22097
21934
21774
21647
21567
21516
21483
21460
21429
21369
21292
21220
21142
21065
21029
21032
21030
20988
20914
20832
20733
20617
20525
20477
20452
20440
20441
20455
20454
20423
20390
20364
20342
20337
20361
20413
20470
20525
20578
20622
20627
20584
20534
20505
20481
20460
20462
20489
20516
20518
20501
20471
20414
20344
20287
20225
20153
20088
20023
19930
19797
19642
19477
19294
19090
18899
18748
18630
18539
18486
18472
18459
18436
18414
18386
18337
18263
18191
18126
18069
18036
18055
18122
18202
18288
18371
18418
18409
18365
18320
18274
18218
18171
18155
18147
18118
18074
18028
17975
17891
17780
17682
17592
17487
17386
17304
17209
17088
16983
16921
16903
16951
17109
17381
17739
18184
18715
19309
19926
20558
21218
21891
22553
23208
23875
24543
25179
25771
26320
26803
27191
27484
27698
27839
27923
27997
28090
28180
28248
28304
28360
28406
28414
28375
28298
28196
28091
28002
27939
27886
27831
27776
27717
27619
27476
27332
27204
27083
26967
26878
26813
26751
26701
26666
26623
26541
26421
26288
26146
25994
25855
25746
25655
25565
25492
25443
25384
25294
25210
25153
25101
25042
24995
24963
24935
24914
24907
24897
24854
24766
24653
24518
24366
24224
24123
24047
23952
23836
23713
23577
23414
23232
23055
22873
22655
22419
22204
22023
21872
21746
21640
21530
21386
21210
21015
20794
20545
20285
20042
19827
19641
19489
19374
19279
19192
19124
19085
19040
18959
18857
18735
18575
18391
18236
18126
18035
17956
17910
17892
17861
17817
17778
17727
17643
17539
17453
17384
17316
17247
17179
17104
16990
16845
16715
16619
16576
16622
16783
17061
17436
17892
18414
18969
19535
20129
20758
21405
22054
22707
23363
23991
24584
25155
25694
26165
26560
26879
27112
27256
27329
27370
27391
27380
27349
27326
27315
27301
27281
27258
27209
27107
26977
26846
26711
26582
26481
26422
26382
26337
26282
26207
26092
25931
25772
25644
25527
25420
25325
25235
25135
25022
24918
24814
24701
24599
24531
24495
24457
24423
24401
24377
24331
24256
24178
24101
24013
23936
23885
23833
23750
23654
23568
23475
23355
23227
23110
22990
22870
22765
22668
22543
22372
22180
21980
21774
21562
21371
21221
21088
20958
20843
20741
20614
20448
20287
20139
19993
19864
19772
19704
19622
19524
19421
19314
19188
19051
18934
18843
18765
18710
18685
18657
18594
18510
18432
18346
18236
18130
18057
17992
17914
17841
17772
17680
17557
17438
17349
17270
17197
17129
17054
16949
16813
16687
16577
16473
16385
16315
16251
16174
16087
15999
15905
15814
15757
15778
15891
16100
16414
16838
17352
17899
18467
19075
19713
20354
20995
21642
22273
22868
23439
23989
24490
24914
25273
25576
25816
25991
26131
26265
26375
26453
26514
26557
26557
26520
26461
26375
26238
26059
25896
25768
25647
25537
25463
25402
25327
25242
25164
25076
24947
24795
24646
24485
24328
24208
24134
24079
24011
23925
23819
23693
23550
23410
23276
23143
23024
22937
22892
22872
22871
22889
22915
22919
22890
22852
22817
22783
22756
22755
22772
22773
22767
22774
22774
22734
22644
22513
22352
22170
21982
21813
21652
21492
21351
21230
21104
20946
20760
20550
20316
20070
19840
19644
19459
19273
19102
18957
18808
18639
18479
18327
18163
17986
17816
17664
17523
17396
17283
17165
17014
16831
16639
16433
16210
15990
15799
15635
15486
15348
15230
15114
14962
14790
14619
14446
14279
14135
14028
13952
13889
13844
13819
13777
13698
13601
13490
13343
13166
12999
12856
12729
12625
12555
12532
12547
12614
12766
13019
13359
13781
14308
14937
15638
16385
17143
17864
18514
19097
19635
20137
20595
21028
21462
21873
22238
22572
22881
23149
23352
23490
23576
23625
23643
23659
23702
23743
23750
23726
23668
23561
23418
23283
23159
23035
22921
22822
22733
22641
22551
22466
22364
22209
22015
21830
21666
21517
21386
21281
21191
21097
21000
20914
20835
20738
20640
20564
20512
20479
20479
20530
20612
20706
20804
20888
20948
20976
20995
21021
21047
21067
21082
21089
21062
20994
20910
20812
20704
20603
20527
20479
20447
20416
20382
20332
20234
20097
19963
19827
19678
19537
19414
19283
19112
18912
18706
18486
18262
18062
17896
17735
17565
17413
17283
17149
16998
16858
16740
16626
16514
16421
16350
16269
16167
16052
15921
15762
15576
15413
15288
15173
15076
15003
14937
14853
14745
14622
14493
14365
14255
14169
14073
13931
13763
13597
13420
13238
13093
13009
12977
13001
13093
13260
13512
13848
14274
14792
15375
16007
16684
17396
18107
18790
19445
20056
20614
21137
21643
22131
22560
22917
23207
23415
23534
23590
23628
23664
23685
23699
23724
23726
23674
23599
23509
23389
23235
23077
22961
22882
22827
22808
22820
22813
22752
22661
22553
22430
22300
22175
22064
21944
21814
21689
21568
21443
21317
21225
21169
21131
21117
21124
21131
21116
21093
21073
21045
21003
20957
20935
20936
20934
20915
20883
20827
20736
20635
20557
20496
20439
20395
20371
20347
20301
20248
20191
20121
20040
19961
19894
19820
19724
19609
19478
19317
19127
18954
18815
18679
18531
18373
18205
18000
17765
17555
17381
17232
17111
17028
16966
16886
16776
16649
16503
16354
16236
16159
16099
16027
15947
15874
15784
15648
15500
15359
15222
15094
14988
14912
14845
14771
14701
14629
14531
14421
14366
14397
14507
14707
15025
15462
15978
16555
17199
17892
18591
19278
19957
20632
21286
21912
22524
23104
23635
24128
24581
24957
25224
25411
25553
25644
25683
25699
25709
25696
25655
25590
25503
25381
25219
25043
24868
24687
24508
24353
24235
24122
24001
23876
23736
23557
23343
23146
22981
22831
22704
22607
22520
22425
22323
22221
22124
22030
21956
21924
21917
21916
21930
21957
21978
21969
21937
21915
21927
21973
22044
22133
22201
22228
22237
22233
22198
22131
22062
21997
21920
21844
21780
21723
21634
21500
21345
21175
20997
20827
20687
20566
20421
20245
20057
19852
19616
19366
19131
18910
18701
18516
18363
18222
18071
17919
17766
17581
17345
17102
16891
16700
16523
16374
16251
16107
15933
15764
15600
15430
15258
15106
14983
14875
14783
14723
14672
14576
14432
14274
14110
13929
13749
13604
13488
13370
13239
13103
12975
12871
12806
12817
12919
13119
13428
13854
14377
14963
15624
16353
17106
17861
18622
19391
20138
20838
21494
22106
22644
23089
23468
23804
24096
24349
24579
24782
24943
25068
25159
25198
25165
25076
24974
24875
24780
24699
24643
24606
24559
24485
24386
24260
24114
23972
23868
23804
23756
23713
23680
23652
23610
23543
23451
23346
23240
23146
23076
23010
22937
22862
22779
22671
22540
22429
22351
22296
22273
22282
22305
22298
22255
22207
22152
22070
21984
21935
21908
21868
21826
21793
21755
21679
21553
21407
21263
21119
20984
20861
20724
20565
20393
20201
19979
19737
19506
19300
19102
18911
18733
18565
18391
18205
18013
17808
17584
17360
17183
17059
16946
16833
16731
16627
16498
16356
16222
16101
15991
15904
15848
15795
15716
15622
15525
15402
15237
15058
14911
14800
14703
14626
14573
14514
14423
14310
14185
14045
13897
13773
13684
13610
13545
13504
13496
13509
13545
13666
13905
14261
14737
15335
16024
16752
17494
18242
18968
19649
20301
20948
21579
22165
22696
23177
23600
23938
24208
24444
24632
24764
24868
24979
25078
25134
25165
25182
25164
25110
25053
25000
24935
24857
24776
24702
24620
24531
24441
24343
24222
24075
23931
23804
23681
23563
23461
23365
23241
23088
22917
22731
22544
22375
22238
22123
22010
21909
21828
21744
21646
21554
21478
21402
21308
21215
21161
21138
21128
21126
21123
21101
21060
21023
20988
20936
20872
20813
20745
20639
20508
20380
20257
20119
19965
19798
19613
19424
19249
19100
18968
18824
18655
18467
18252
18018
17798
17611
17447
17290
17150
17033
16914
16770
16623
16488
16343
16194
16061
15956
15863
15768
15675
15577
15446
15280
15133
15022
14923
14834
14763
14704
14613
14482
14351
14224
14080
13923
13778
13640
13493
13347
13207
13058
12884
12705
12568
12484
12456
12505
12646
12873
13168
13549
14033
14608
15257
15965
16702
17414
18083
18730
19349
19915
20426
20912
21374
21794
22178
22532
22852
23110
23299
23440
23536
23592
23614
23617
23611
23592
23568
23560
23542
23482
23403
23336
23276
23218
23166
23133
23105
23063
22999
22910
22808
22692
22568
22458
22356
22239
22120
22013
21888
21738
21591
21450
21313
21189
21106
21062
21024
20998
20990
20989
20965
20909
20861
20834
20814
20803
20816
20846
20859
20849
20830
20789
20698
20587
20498
20419
20333
20256
20183
20083
19942
19769
19569
19359
19156
18975
18828
18698
18573
18452
18319
18148
17936
17715
17484
17252
17037
16846
16684
16529
16373
16212
16023
15807
15596
15418
15262
15102
14944
14804
14656
14468
14256
14053
13858
13665
13494
13363
13240
13111
12986
12860
12715
12543
12371
12220
12075
11929
11799
11685
11547
11380
11207
11035
10854
10676
10563
10552
10648
10864
11219
11701
12258
12873
13542
14233
14909
15569
16237
16898
17526
18126
18704
19244
19715
20119
20481
20798
21063
21302
21534
21734
21896
22041
22171
22264
22307
22317
22297
22242
22164
22085
22017
21945
21855
21750
21637
21502
21348
21216
21098
20965
20828
20710
20601
20468
20314
20153
19991
19833
19704
19628
19577
19514
19448
19385
19311
19225
19146
19095
19077
19097
19148
19213
19263
19284
19286
19272
19253
19236
19226
19223
19205
19166
19120
19057
18947
18786
18615
18449
18285
18130
18011
17931
17857
17774
17683
17559
17385
17176
16958
16725
16472
16225
16008
15808
15598
15384
15180
14962
14706
14422
14133
13842
13551
13286
13063
12858
12652
12452
12258
12048
11818
11600
11412
11249
11115
11036
11016
11021
11032
11061
11103
11119
11107
11086
11040
10958
10868
10795
10727
10656
10588
10529
10484
10457
10473
10570
10769
11066
11465
11983
12612
13326
14100
14907
15704
16466
17198
17894
18544
19148
19714
20241
20708
21112
21463
21763
21994
22161
22307
22436
22532
22608
22682
22736
22730
22675
22609
22535
22439
22342
22276
22233
22177
22096
22002
21908
21802
21670
21531
21387
21243
21119
21012
20891
20740
20588
20457
20350
20267
20218
20207
20200
20177
20152
20129
20103
20079
20093
20158
20244
20333
20428
20519
20578
20602
20619
20632
20636
20646
20677
20720
20736
20717
20672
20593
20475
20344
20235
20151
20072
19990
19912
19811
19664
19507
19356
19202
19059
18940
18838
18715
18556
18394
18240
18091
17958
17853
17757
17626
17454
17267
17067
16853
16651
16490
16364
16251
16143
16042
15946
15848
15752
15681
15630
15576
15528
15497
15454
15363
15228
15078
14916
14732
14555
14416
14311
14250
14263
14370
14560
14827
15195
15662
16184
16737
17353
18040
18771
19522
20272
21005
21696
22334
22913
23419
23843
24198
24519
24811
25063
25284
25489
25665
25793
25890
25971
26022
26025
25984
25918
25826
25704
25570
25451
25353
25267
25201
25160
25118
25066
25023
24995
24947
24863
24761
24643
24499
24334
24188
24078
23984
23910
23869
23844
23810
23780
23766
23758
23739
23709
23676
23641
23603
23567
23545
23531
23531
23566
23638
23722
23793
23856
23921
23950
23922
23869
23802
23704
23568
23424
23284
23142
23004
22884
22776
22656
22525
22405
22284
22134
21956
21774
21591
21388
21178
20994
20822
20643
20470
20316
20166
20007
19846
19701
19562
19420
19289
19180
19082
18980
18876
18778
18667
18528
18389
18265
18131
17974
17816
17668
17528
17405
17310
17241
17176
17097
17011
16914
16785
16622
16459
16310
16169
16052
15980
15939
15938
16025
16236
16564
16975
17460
18030
18673
19369
20107
20881
21656
22399
23111
23787
24399
24941
25434
25894
26326
26726
27099
27445
27749
27997
28190
28345
28438
28458
28446
28421
28370
28296
28245
28233
28230
28221
28193
28148
28090
28013
27933
27862
27778
27689
27611
27523
27415
27308
27203
27077
26916
26737
26557
26369
26191
26052
25955
25868
25777
25696
25626
25550
25473
25428
25418
25422
25429
25438
25449
25439
25395
25336
25271
25181
25060
24943
24845
24762
24704
24686
24699
24691
24653
24603
24524
24393
24228
24060
23899
23738
23578
23426
23271
23091
22897
22700
22482
22248
22040
21875
21728
21579
21427
21267
21073
20841
20618
20424
20236
20054
19897
19760
19607
19437
19268
19105
18926
18730
18540
18368
18204
18048
17925
17833
17740
17640
17544
17436
17304
17168
17045
16930
16817
16721
16652
16587
16507
16421
16331
16218
16069
15900
15719
15533
15362
15241
15200
15239
15369
15612
15978
16437
16976
17595
18273
18982
19706
20450
21210
21954
22661
23339
23982
24565
25095
25577
25994
26326
26581
26788
26961
27101
27225
27338
27422
27474
27510
27532
27527
27482
27406
27306
27184
27038
26899
26789
26690
26593
26508
26433
26340
26219
26086
25947
25786
25606
25438
25281
25127
24993
24908
24871
24833
24769
24682
24580
24467
24358
24286
24261
24262
24277
24299
24304
24273
24233
24201
24158
24093
24016
23947
23891
23846
23816
23784
23723
23623
23519
23427
23331
23234
23162
23106
23013
22871
22702
22503
22252
21958
21661
21370
21085
20825
20607
20423
20252
20093
19950
19802
19619
19426
19269
19141
19025
18935
18868
18796
18703
18595
18472
18325
18147
17953
17770
17610
17475
17375
17306
17230
17131
17016
16878
16719
16560
16445
16375
16314
16253
16191
16115
16000
15859
15732
15624
15527
15449
15403
15365
15307
15232
15144
15037
14904
14766
14655
14564
14480
14432
14442
14491
14589
14778
15077
15470
15935
16484
17118
17801
18513
19245
19984
20692
21341
21928
22451
22914
23333
23731
24105
24446
24761
25060
25339
25574
25753
25883
25954
25952
25901
25829
25733
25621
25515
25436
25378
25322
25269
25213
25128
24998
24848
24706
24574
24455
24353
24267
24176
24078
23977
23866
23722
23537
23343
23145
22949
22779
22659
22580
22518
22479
22453
22416
22354
22278
22227
22207
22196
22197
22218
22243
22258
22267
22276
22270
22221
22141
22058
21957
21842
21747
21678
21608
21518
21404
21264
21089
20876
20660
20461
20272
20088
19910
19741
19557
19342
19117
18883
18638
18395
18185
18012
17856
17709
17566
17415
17234
17018
16798
16590
16391
16210
16063
15922
15753
15576
15409
15241
15059
14875
14717
14586
14468
14372
14293
14203
14091
13972
13847
13725
13614
13523
13448
13363
13258
13141
13013
12863
12697
12551
12419
12288
12161
12050
11955
11837
11700
11582
11474
11360
11263
11237
11306
11475
11758
12173
12693
13274
13919
14645
15421
16211
16995
17753
18478
19154
19776
20338
20840
21291
21706
22090
22419
22683
22884
23022
23098
23119
23120
23115
23094
23063
23031
22988
22903
22777
22642
22511
22385
22278
22213
22178
22141
22097
22042
21960
21851
21740
21650
21574
21488
21390
21281
21150
20988
20819
20657
20498
20353
20237
20155
20075
19975
19891
19832
19779
19737
19728
19748
19758
19755
19744
19708
19610
19458
19316
19210
19117
19035
18974
18912
18814
18692
18568
18431
18282
18134
18008
17891
17752
17597
17440
17256
17024
16764
16492
16223
15962
15728
15545
15380
15207
15042
14891
14730
14547
14368
14191
14027
13897
13811
13755
13693
13613
13523
13419
13308
13199
13110
13047
12989
12927
12863
12777
12653
12510
12371
12229
12084
11960
11873
11809
11744
11670
11580
11468
11332
11206
11113
11032
10940
10841
10734
10586
10391
10187
9989
9807
9660
9579
9573
9618
9727
9929
10227
10611
11079
11657
12337
13078
13866
14685
15489
16233
16906
17519
18066
18550
19001
19438
19835
20167
20445
20681
20855
20946
20987
21003
20990
20949
20906
20869
20810
20710
20585
20448
20293
20124
19969
19828
19694
19573
19480
19409
19339
19264
19175
19060
18925
18783
18661
18551
18437
18329
18237
18143
18024
17906
17820
17753
17689
17643
17634
17645
17650
17647
17641
17637
17634
17644
17684
17737
17796
17867
17940
17974
17954
17912
17859
17793
17725
17679
17644
17578
17481
17369
17233
17052
16832
16607
16386
16167
15965
15785
15604
15387
15154
14945
14752
14564
14400
14271
14139
13971
13785
13592
13389
13182
12985
12822
12686
12563
12448
12340
12209
12033
11854
11697
11556
11431
11338
11275
11215
11152
11090
11012
10906
10776
10639
10502
10359
10225
10113
10009
9892
9767
9639
9501
9359
9247
9207
9249
9374
9596
9922
10339
10831
11404
12051
12757
13503
14279
15077
15854
16577
17248
17856
18371
18795
19176
19520
19817
20074
20300
20491
20615
20667
20672
20640
20572
20482
20392
20311
20221
20117
20010
19887
19736
19591
19480
19387
19290
19201
19127
19046
18925
18768
18595
18418
18241
18089
17975
17868
17759
17665
17579
17472
17347
17248
17184
17144
17128
17146
17188
17212
17211
17208
17199
17182
17172
17188
17228
17259
17280
17292
17283
17255
17229
17227
17231
17223
17207
17190
17163
17101
17009
16906
16788
16648
16501
16364
16209
16016
15807
15580
15320
15028
14741
14471
14202
13937
13678
13416
13126
12813
12513
12233
11967
11724
11521
11342
11157
10974
10810
10655
10486
10307
10145
10000
9868
9773
9718
9665
9587
9498
9410
9312
9189
9061
8953
8852
8743
8636
8531
8417
8301
8232
8243
8346
8560
8889
9319
9828
10405
11075
11826
12620
13443
14279
15091
15837
16506
17129
17708
18226
18679
19072
19403
19660
19864
20045
20185
20282
20364
20440
20493
20498
20449
20361
20250
20122
19979
19830
19654
19452
19248
19031
18802
18579
18381
18213
18043
17865
17705
17561
17430
17325
17276
17275
17286
17304
17320
17304
17230
17111
16995
16889
16774
16667
16588
16519
16434
16360
16321
16301
16288
16292
16328
16395
16471
16529
16552
16518
16430
16340
16276
16225
16183
16150
16114
16043
15933
15824
15731
15649
15588
15552
15532
15497
15442
15357
15224
15044
14845
14668
14519
14380
14255
14141
14015
13862
13707
13576
13463
13368
13301
13271
13247
13206
13165
13121
13058
12985
12927
12898
12861
12795
12717
12627
12522
12408
12313
12234
12148
12061
11973
11873
11735
11564
11393
11216
11028
10855
10711
10571
10404
10216
10035
9866
9711
9589
9531
9536
9601
9753
10004
10337
10731
11194
11727
12302
12906
13555
14252
14950
15625
16282
16910
17490
18018
18532
19039
19518
19972
20396
20759
21030
21214
21348
21442
21496
21531
21563
21581
21564
21526
21489
21447
21388
21337
21325
21322
21301
21275
21254
21220
21146
21040
20915
20769
20615
20480
20377
20279
20169
20052
19926
19778
19604
19446
19318
19208
19118
19056
19021
18984
18938
18908
18891
18887
18905
18956
19031
19101
19160
19211
19235
19224
19206
19209
19230
19248
19262
19288
19311
19300
19278
19261
19235
19200
19161
19121
19071
19009
18945
18873
18777
18643
18511
18406
18308
18200
18073
17920
17712
17451
17206
17008
16834
16681
16566
16484
16400
16314
16241
16170
16092
16025
15985
15949
15888
15813
15732
15613
15444
15266
15124
15016
14917
14827
14747
14657
14548
14444
14348
14247
14146
14067
14012
13949
13869
13773
13648
13485
13303
13152
13046
12977
12947
12956
12997
13063
13167
13328
13541
13796
14103
14486
14929
15399
15890
16402
16913
17403
17880
18377
18884
19371
19846
20308
20717
21052
21346
21607
21823
21994
22142
22281
22396
22481
22557
22627
22656
22632
22592
22552
22502
22445
22413
22420
22437
22457
22494
22527
22519
22476
22419
22343
22235
22128
22056
21998
21934
21874
21825
21781
21716
21638
21557
21462
21356
21267
21208
21164
21126
21112
21126
21148
21173
21214
21272
21321
21348
21376
21405
21418
21421
21446
21496
21553
21613
21677
21738
21760
21735
21692
21638
21568
21497
21445
21397
21336
21267
21205
21137
21035
20917
20799
20666
20528
20417
20343
20287
20236
20192
20143
20055
19918
19771
19627
19476
19323
19182
19051
18909
18756
18603
18439
18254
18050
17861
17709
17595
17511
17450
17398
17331
17244
17153
17064
16969
16883
16833
16806
16778
16753
16729
16694
16625
16544
16474
16396
16301
16221
16173
16138
16108
16089
16076
16052
16023
16027
16079
16178
16330
16544
16816
17122
17467
17865
18304
18758
19223
19722
20252
20795
21348
21911
22466
22978
23431
23841
24211
24528
24811
25084
25331
25538
25707
25836
25919
25946
25940
25928
25912
25904
25909
25916
25899
25847
25779
25697
25605
25521
25462
25422
25369
25297
25215
25117
24991
24844
24699
24556
24412
24288
24204
24146
24081
24014
23953
23890
23820
23763
23756
23787
23821
23863
23918
23950
23936
23921
23932
23944
23946
23946
23961
23973
23960
23935
23899
23840
23764
23709
23699
23695
23680
23658
23615
23530
23417
23310
23210
23110
23022
22963
22913
22843
22752
22653
22542
22417
22287
22162
22027
21856
21667
21476
21274
21060
20865
20726
20635
20573
20543
20539
20526
20489
20453
20427
20401
20363
20328
20310
20291
20274
20268
20264
20230
20162
20092
20023
19958
19901
19857
19815
19740
19625
19492
19339
19153
18959
18788
18642
18522
18438
18397
18376
18349
18320
18291
18260
18234
18235
18294
18428
18640
18940
19331
19781
20268
20789
21328
21868
22407
22975
23566
24148
24725
25304
25866
26362
26777
27131
27428
27670
27879
28091
28301
28477
28617
28732
28809
28836
28830
28814
28787
28751
28726
28725
28723
28703
28678
28641
28581
28508
28447
28415
28394
28375
28360
28336
28271
28164
28053
27947
27843
27746
27675
27633
27591
27541
27495
27438
27340
27225
27163
27154
27160
27172
27195
27216
27192
27123
27038
26942
26836
26747
26680
26600
26491
26367
26240
26082
25876
25661
25459
25255
25047
24847
24661
24467
24254
24019
23761
23490
23222
22991
22800
22632
22490
22379
22283
22173
22054
21944
21824
21678
21529
21407
21302
21202
21124
21068
21005
20899
20767
20644
20527
20406
20302
20235
20182
20126
20090
20078
20051
19992
19914
19813
19699
19592
19514
19471
19448
19443
19449
19457
19434
19369
19293
19220
19147
19082
19029
18983
18928
18869
18827
18785
18730
18692
18710
18786
18912
19105
19369
19680
19996
20321
20690
21106
21560
22059
22592
23111
23588
24044
24483
24887
25248
25582
25889
26145
26351
26513
26623
26667
26655
26629
26598
26553
26509
26475
26444
26378
26271
26161
26051
25939
25846
25788
25749
25700
25634
25562
25490
25392
25280
25194
25127
25059
25000
24961
24915
24834
24733
24623
24502
24384
24293
24239
24189
24126
24046
23945
23817
23665
23542
23467
23413
23369
23336
23300
23237
23153
23077
23007
22922
22835
22782
22761
22734
22687
22617
22512
22380
22257
22163
22079
21988
21900
21816
21710
21572
21435
21315
21193
21053
20912
20784
20653
20516
20384
20249
20073
19862
19662
19474
19288
19110
18966
18863
18772
18685
18599
18489
18333
18147
17961
17777
17599
17438
17307
17197
17084
16979
16896
16810
16693
16578
16498
16416
16304
16176
16038
15871
15662
15432
15202
14992
14821
14705
14648
14644
14704
14832
15023
15245
15484
15777
16145
16578
17075
17636
18249
18873
19486
20102
20721
21325
21907
22480
23029
23526
23967
24349
24661
24888
25049
25189
25308
25389
25447
25495
25518
25505
25496
25524
25565
25599
25630
25662
25662
25620
25564
25498
25416
25334
25287
25279
25274
25264
25255
25231
25171
25081
25006
24956
24875
24757
24628
24464
24239
23996
23767
23557
23372
23234
23163
23145
23157
23208
23293
23389
23490
23596
23715
23843
23977
24122
24268
24378
24445
24531
24659
24814
24990
25185
25383
25532
25620
25674
25689
25662
25609
25547
25477
25387
25279
25161
25037
24909
24793
24726
24715
24738
24793
24875
24944
24977
24985
24966
24908
24810
24695
24589
24480
24364
24257
24153
24024
23864
23712
23585
23473
23370
23274
23183
23058
22886
22698
22509
22332
22194
22130
22151
22242
22404
22642
22948
23309
23738
24255
24839
25464
26133
26848
27569
28218
28760
29227
29662
30082
30518
30977
31401
31745
32029
32279
32468
32558
32569
32538
32495
32457
32440
32448
32461
32467
32453
32397
32284
32136
32004
31891
31779
31675
31589
31516
31445
31373
31305
31223
31086
30907
30707
30498
30304
30149
30045
29981
29940
29941
29990
30047
30084
30119
30163
30204
30233
30283
30365
30470
30604
30768
30947
31111
31253
31379
31481
31537
31551
31562
31587
31615
31660
31745
31848
31934
31991
32018
31999
31929
31846
31790
31757
31736
31732
31769
31826
31851
31839
31803
31742
31659
31584
31537
31494
31443
31402
31373
31327
31246
31171
31112
31057
31009
30974
30943
30882
30783
30665
30538
30386
30201
30016
29851
29701
29576
29497
29465
29454
29467
29537
29673
29858
30101
30414
30781
31191
31644
32141
32662
33185
33726
34279
34798
35265
35711
36135
36521
36866
37180
37458
37673
37826
37938
38023
38064
38056
38028
37984
37918
37834
37758
37709
37660
37590
37501
37396
37248
37054
36851
36663
36496
36344
36207
36065
35892
35697
35490
35279
35058
34835
34630
34425
34226
34067
33948
33820
33657
33483
33312
33153
33018
32914
32844
32780
32705
32623
32532
32421
32283
32149
32033
31924
31835
31794
31785
31757
31704
31631
31521
31363
31171
30982
30799
30599
30391
30189
29966
29696
29406
29113
28813
28506
28204
27926
27660
27398
27158
26936
26694
26421
26152
25902
25671
25471
25305
25151
24974
24770
24546
24291
24014
23746
23511
23304
23107
22913
22722
22521
22272
21990
21714
21441
21176
20947
20773
20652
20575
20553
20593
20696
20871
21147
21528
21972
22456
22998
23600
24220
24823
25430
26042
26637
27216
27792
28357
28867
29311
29705
30042
30315
30554
30800
31056
31312
31583
31878
32172
32441
32684
32914
33134
33338
33540
33751
33952
34136
34319
34497
34643
34736
34791
34831
34869
34911
34976
35069
35175
35293
35433
35592
35752
35899
36030
36133
36197
36230
36268
36316
36355
36383
36404
36414
36413
36414
36416
36410
36386
36350
36319
36284
36227
36169
36139
36108
36054
35996
35956
35926
35867
35777
35666
35510
35296
35042
34764
34477
34184
33901
33635
33364
33083
32802
32526
32235
31916
31602
31305
31007
30712
30453
30229
30003
29767
29513
29227
28911
28585
28274
27980
27695
27433
27208
26994
26774
26563
26372
26188
25985
25765
25549
25344
25167
25033
24940
24867
24791
24726
24691
24690
24739
24875
25113
25430
25817
26271
26787
27334
27890
28467
29055
29631
30195
30757
31309
31824
32288
32686
33002
33220
33354
33451
33531
33591
33637
33671
33669
33613
33513
33378
33215
33017
32810
32622
32435
32252
32091
31954
31813
31642
31445
31227
30991
30747
30520
30305
30086
29866
29653
29445
29215
28961
28725
28512
28312
28139
28028
27973
27945
27932
27926
27916
27879
27813
27746
27683
27613
27556
27523
27471
27367
27221
27049
26858
26643
26415
26180
25930
25675
25434
25207
24956
24667
24373
24081
23793
23529
23319
23164
23027
22903
22789
22663
22506
22329
22149
21961
21751
21529
21327
21135
20925
20709
20493
20253
19970
19663
19385
19132
18879
18654
18476
18275
18004
17724
17470
17221
16969
16744
16559
16390
16231
16088
15966
15865
15803
15826
15949
16167
16483
16899
17389
17915
18482
19082
19684
20272
20851
21438
22022
22575
23086
23566
24001
24369
24673
24928
25126
25262
25362
25464
25560
25630
25676
25698
25671
25591
25479
25345
25194
25029
24876
24734
24579
24411
24247
24088
23915
23712
23474
23196
22855
22452
22039
21636
21226
20812
20418
20044
19673
19313
18991
18714
18471
18274
18145
18061
18006
17986
17994
18008
18006
17995
17997
18010
18029
18064
18120
18166
18184
18181
18161
18109
18012
17908
17817
17716
17604
17486
17354
17184
16990
16805
16622
16421
16213
16018
15829
15642
15472
15344
15238
15112
14964
14813
14664
14512
14381
14300
14249
14208
14192
14209
14226
14210
14191
14202
14236
14295
14392
14526
14665
14792
14905
15000
15061
15090
15128
15181
15230
15281
15348
15438
15535
15648
15809
16031
16329
16722
17226
17826
18476
19165
19898
20656
21434
22255
23122
23999
24847
25653
26413
27110
27729
28286
28801
29249
29618
29933
30200
30389
30491
30545
30563
30542
30503
30457
30393
30285
30137
29976
29811
29651
29516
29408
29316
29235
29182
29154
29113
29027
28922
28840
28766
28672
28565
28470
28380
28267
28137
28004
27860
27707
27577
27496
27443
27394
27358
27332
27294
27229
27164
27099
27023
26953
26905
26881
26851
26796
26722
26622
26501
26375
26278
26208
26134
26057
25985
25888
25748
25585
25418
25252
25082
24905
24737
24561
24348
24114
23885
23660
23426
23196
22996
22820
22660
22513
22373
22213
22022
21819
21608
21385
21153
20943
20762
20579
20383
20190
19995
19772
19523
19283
19053
18827
18611
18430
18281
18118
17937
17756
17571
17386
17224
17097
16977
16838
16687
16540
16396
16245
16118
16076
16135
16300
16582
16973
17434
17929
18471
19073
19728
20427
21167
21936
22681
23372
24034
24667
25267
25846
26432
27013
27546
28027
28470
28855
29173
29447
29711
29962
30181
30368
30516
30620
30675
30697
30725
30753
30758
30752
30741
30691
30579
30445
30324
30211
30107
30026
29980
29934
29860
29786
29719
29656
29609
29586
29573
29513
29388
29250
29123
29012
28924
28859
28812
28774
28738
28711
28691
28677
28676
28700
28716
28688
28634
28581
28519
28428
28330
28254
28185
28103
28021
27947
27852
27718
27572
27428
27275
27105
26933
26763
26576
26376
26180
25992
25773
25502
25208
24909
24611
24325
24074
23863
23656
23442
23231
23016
22779
22528
22297
22098
21916
21755
21623
21491
21337
21169
20990
20802
20597
20380
20165
19933
19679
19454
19288
19134
18970
18808
18638
18436
18202
17975
17761
17546
17344
17173
17034
16902
16778
16687
16644
16649
16713
16879
17150
17504
17947
18498
19132
19807
20515
21248
21964
22641
23294
23941
24574
25175
25749
26297
26786
27204
27582
27923
28188
28363
28481
28549
28563
28539
28512
28495
28467
28419
28356
28278
28165
28016
27845
27656
27437
27188
26936
26682
26411
26146
25909
25685
25444
25190
24925
24627
24292
23955
23647
23366
23107
22887
22719
22576
22446
22344
22271
22204
22128
22061
22023
22013
22028
22077
22159
22236
22296
22352
22395
22395
22353
22299
22243
22184
22133
22114
22124
22135
22143
22156
22160
22122
22051
21985
21932
21888
21874
21921
22020
22133
22251
22373
22475
22528
22533
22510
22477
22432
22380
22333
22270
22195
22135
22101
22068
22027
21983
21923
21833
21726
21645
21593
21541
21492
21457
21423
21371
21311
21242
21138
20977
20776
20566
20353
20138
19941
19771
19613
19443
19268
19097
18914
18708
18508
18352
18247
18195
18208
18291
18425
18614
18887
19244
19658
20110
20618
21184
21795
22452
23157
23887
24607
25314
26009
26663
27229
27705
28123
28484
28777
29011
29204
29363
29485
29584
29683
29778
29849
29906
29949
29951
29892
29798
29697
29588
29470
29374
29315
29257
29176
29082
28989
28871
28719
28557
28390
28192
27960
27729
27524
27341
27191
27087
27025
26970
26904
26840
26791
26741
26691
26664
26654
26638
26624
26633
26653
26674
26700
26732
26758
26745
26689
26604
26486
26333
26188
26085
26001
25909
25811
25712
25594
25445
25271
25074
24851
24615
24395
24195
23997
23812
23655
23510
23332
23116
22882
22633
22368
22093
21838
21618
21409
21204
21013
20815
20581
20335
20114
19921
19742
19577
19432
19299
19165
19042
18932
18806
18651
18483
18314
18150
18012
17921
17882
17862
17849
17851
17850
17800
17690
17551
17396
17229
17056
16912
16815
16741
16683
16653
16672
16755
16915
17159
17466
17818
18211
18652
19145
19690
20286
20912
21530
22101
22635
23161
23664
24125
24566
25000
25394
25719
25982
26184
26323
26404
26440
26439
26397
26322
26228
26109
25937
25723
25506
25284
25056
24840
24673
24567
24481
24379
24254
24106
23926
23723
23547
23408
23287
23188
23115
23042
22954
22858
22769
22681
22578
22468
22363
22261
22159
22074
22022
21996
21991
22016
22064
22105
22138
22171
22198
22192
22144
22074
21987
21877
21755
21647
21559
21479
21407
21352
21302
21219
21098
20956
20795
20626
20474
20349
20242
20132
20014
19892
19743
19548
19330
19119
18907
18689
18481
18291
18109
17939
17796
17673
17532
17352
17178
17023
16865
16705
16572
16474
16375
16260
16147
16045
15924
15765
15593
15428
15271
15127
15012
14915
14812
14719
14663
14656
14692
14788
14973
15248
15608
16065
16625
17274
17976
18705
19445
20184
20896
21576
22218
22811
23357
23866
24337
24732
25036
25262
25415
25484
25481
25463
25452
25437
25415
25389
25356
25301
25224
25141
25039
24890
24705
24520
24334
24145
23983
23861
23748
23619
23482
23332
23145
22906
22665
22465
22287
22123
21989
21889
21793
21687
21605
21560
21542
21555
21604
21684
21760
21816
21854
21867
21861
21861
21907
21984
22059
22133
22209
22278
22306
22276
22212
22130
22033
21925
21818
21704
21561
21408
21264
21120
20976
20849
20757
20680
20597
20514
20430
20313
20159
20006
19863
19732
19623
19532
19450
19350
19227
19097
18957
18794
18623
18484
18380
18306
18267
18243
18206
18127
18004
17861
17714
17562
17418
17298
17184
17052
16927
16838
16786
16774
16832
16993
17255
17612
18070
18617
19211
19833
20480
21137
21786
22428
23091
23768
24422
25043
25621
26138
26570
26917
27210
27447
27614
27727
27826
27934
28033
28122
28202
28249
28232
28162
28088
28019
27942
27872
27822
27767
27690
27607
27531
27451
27346
27230
27109
26976
26839
26717
26618
26532
26457
26405
26375
26321
26228
26132
26053
25991
25943
25918
25923
25929
25926
25915
25883
25821
25748
25700
25671
25647
25644
25674
25712
25709
25659
25593
25513
25428
25365
25335
25307
25261
25193
25091
24959
24791
24617
24464
24296
24104
23926
23781
23624
23419
23202
22988
22780
22596
22451
22328
22185
22015
21829
21618
21391
21186
21037
20931
20845
20771
20697
20619
20530
20439
20361
20284
20216
20178
20172
20166
20128
20062
19972
19864
19748
19649
19598
19601
19671
19819
20045
20319
20629
21022
21512
22072
22696
23381
24106
24826
25519
26184
26823
27432
28013
28585
29139
29640
30081
30471
30792
31037
31234
31399
31521
31598
31647
31694
31727
31714
31662
31589
31498
31406
31330
31276
31234
31184
31127
31068
30986
30877
30779
30710
30648
30576
30494
30408
30306
30176
30030
29866
29682
29499
29351
29234
29126
29027
28939
28850
28737
28605
28489
28394
28306
28248
28222
28196
28152
28091
28021
27923
27783
27620
27446
27261
27065
26870
26686
26506
26326
26151
25984
25803
25600
25383
25149
24902
24656
24429
24221
24023
23835
23654
23466
23255
23017
22764
22503
22237
21973
21732
21519
21329
21173
21060
20962
20838
20688
20529
20362
20170
19967
19773
19584
19400
19244
19129
19028
18920
18805
18679
18535
18381
18259
18180
18105
18031
17969
17900
17785
17623
17450
17271
17088
16914
16760
16619
16477
16340
16235
16167
16122
16124
16211
16392
16680
17098
17635
18240
18869
19509
20154
20795
21420
22034
22650
23261
23858
24436
24987
25470
25860
26184
26448
26662
26839
27005
27168
27286
27350
27377
27357
27284
27186
27111
27061
27007
26949
26904
26862
26796
26719
26660
26604
26551
26524
26524
26522
26485
26414
26327
26222
26098
25995
25927
25844
25732
25607
25468
25312
25145
24992
24869
24753
24638
24530
24425
24311
24187
24094
24050
24032
24033
24072
24135
24168
24163
24139
24088
24012
23919
23825
23738
23645
23546
23451
23348
23211
23054
22900
22740
22559
22376
22216
22068
21915
21766
21612
21425
21203
20997
20824
20667
20525
20391
20262
20118
19953
19784
19614
19445
19280
19138
19027
18921
18807
18687
18554
18398
18245
18132
18054
17982
17911
17855
17799
17725
17634
17537
17425
17276
17121
16991
16868
16728
16595
16491
16395
16287
16172
16053
15925
15784
15654
15547
15455
15379
15313
15247
15141
14984
14810
14637
14455
14283
14177
14177
14285
14513
14868
15332
15857
16425
17046
17710
18405
19121
19859
20620
21386
22134
22838
23467
24014
24502
24938
25304
25594
25836
26056
26226
26330
26388
26396
26353
26280
26217
26177
26131
26080
26031
25969
25868
25736
25615
25522
25449
25397
25369
25333
25251
25144
25035
24908
24766
24640
24556
24488
24393
24277
24148
23994
23811
23633
23490
23363
23239
23119
23008
22887
22744
22616
22511
22403
22297
22218
22167
22106
22027
21951
21872
21773
21658
21553
21471
21393
21313
21229
21112
20939
20720
20485
20245
19988
19722
19461
19182
18861
18522
18173
17802
17399
16982
16586
16204
15828
15471
15131
14781
14406
14046
13719
13422
13170
12985
12867
12766
12659
12567
12479
12366
12231
12137
12095
12076
12076
12106
12160
12199
12207
12199
12172
12121
12071
12046
12035
12008
11970
11924
11851
11728
11588
11468
11365
11275
11206
11160
11124
11088
11051
11004
10916
10781
10648
10533
10412
10288
10187
10119
10059
10012
10033
10145
10328
10582
10937
11389
11900
12461
13069
13694
14301
14888
15468
16029
16569
17113
17661
18160
18565
18892
19155
19359
19508
19609
19680
19726
19750
19771
19798
19792
19726
19638
19550
19463
19389
19353
19352
19346
19331
19327
19326
19303
19256
19224
19226
19244
19267
19290
19305
19291
19268
19268
19267
19244
19219
19206
19192
19151
19099
19062
19034
19009
19017
19077
19161
19243
19323
19398
19447
19463
19481
19506
19529
19549
19576
19616
19637
19621
19585
19536
19463
19367
19282
19222
19168
19118
19076
19032
18958
18849
18719
18572
18412
18259
18131
18009
17881
17763
17663
17551
17393
17209
17042
16899
16770
16662
16587
16518
16430
16336
16240
16128
16005
15900
15818
15732
15645
15574
15514
15437
15338
15235
15115
14960
14781
14632
14525
14423
14324
14238
14144
14033
13934
13880
13846
13798
13733
13661
13573
13451
13316
13205
13106
13010
12928
12868
12810
12746
12696
12673
12687
12759
12905
13130
13402
13707
14065
14478
14939
15449
16016
16631
17268
17906
18532
19124
19657
20144
20626
21085
21488
21845
22159
22416
22617
22788
22960
23122
23247
23328
23368
23364
23316
23255
23203
23149
23096
23053
23018
22978
22928
22895
22872
22834
22783
22739
22709
22670
22607
22529
22442
22334
22204
22088
21995
21914
21855
21817
21775
21706
21631
21583
21551
21517
21500
21523
21562
21599
21645
21691
21717
21709
21694
21704
21721
21732
21736
21731
21689
21596
21491
21395
21306
21222
21134
21038
20904
20726
20531
20334
20143
19969
19834
19742
19658
19575
19500
19406
19266
19099
18943
18807
18677
18560
18471
18394
18296
18192
18101
18007
17906
17823
17762
17691
17598
17505
17415
17309
17183
17069
16978
16894
16816
16754
16706
16637
16535
16420
16299
16173
16046
15951
15888
15840
15813
15805
15796
15760
15691
15619
15562
15527
15537
15625
15783
15987
16243
16568
16944
17343
17789
18309
18880
19475
20088
20713
21331
21943
22552
23139
23660
24096
24479
24826
25123
25371
25599
25817
25996
26131
26241
26322
26360
26362
26360
26354
26321
26276
26258
26258
26252
26244
26237
26218
26162
26075
25984
25892
25795
25709
25650
25587
25493
25382
25266
25125
24953
24791
24664
24553
24447
24356
24290
24233
24180
24145
24123
24077
24002
23941
23909
23896
23904
23945
24021
24104
24183
24260
24312
24311
24274
24225
24165
24089
23997
23908
23819
23720
23621
23525
23401
23229
23031
22834
22639
22439
22256
22110
21985
21866
21754
21647
21526
21377
21207
21012
20795
20575
20386
20233
20088
19947
19818
19689
19540
19378
19240
19121
18992
18873
18783
18694
18583
18458
18351
18255
18133
17993
17859
17719
17571
17433
17322
17231
17137
17056
17004
16938
16826
16690
16541
16381
16217
16065
15940
15824
15712
15612
15511
15380
15221
15081
14962
14837
14716
14629
14584
14570
14589
14657
14775
14927
15137
15438
15831
16294
16825
17434
18096
18785
19507
20257
20992
21667
22288
22866
23387
23844
24272
24695
25096
25464
25802
26114
26370
26556
26700
26807
26866
26892
26925
26970
27002
27027
27054
27073
27058
27017
26978
26933
26877
26828
26812
26827
26853
26882
26922
26946
26921
26860
26777
26676
26569
26462
26375
26314
26273
26242
26212
26148
26037
25934
25868
25823
25792
25786
25814
25855
25917
26018
26146
26298
26490
26743
27053
27378
27710
28061
28407
28700
28939
29157
29362
29550
29723
29885
30010
30065
30058
30020
29967
29914
29870
29837
29786
29710
29641
29579
29492
29372
29256
29159
29066
28971
28880
28797
28695
28567
28423
28255
28065
27874
27714
27581
27454
27339
27256
27190
27092
26957
26808
26649
26473
26287
26120
25966
25802
25641
25498
25350
25162
24943
24715
24482
24243
24016
23822
23639
23451
23272
23102
22906
22675
22435
22187
21925
21661
21425
21228
21045
20876
20728
20581
20395
20171
19951
19735
19506
19291
19123
18990
18874
18786
18744
18749
18792
18896
19076
19318
19630
20031
20527
21125
21808
22553
23341
24124
24879
25616
26331
26997
27595
28148
28669
29146
29581
29991
30380
30723
31006
31224
31368
31426
31405
31339
31247
31128
30984
30846
30721
30596
30490
30441
30430
30417
30408
30408
30399
30355
30290
30240
30199
30146
30096
30056
29989
29883
29770
29662
29544
29406
29273
29159
29045
28933
28833
28750
28656
28549
28455
28370
28286
28210
28167
28168
28189
28221
28267
28313
28329
28310
28277
28232
28167
28096
28051
28025
27984
27928
27862
27770
27630
27461
27305
27157
27009
26892
26812
26717
26585
26436
26278
26100
25901
25708
25536
25371
25212
25069
24932
24767
24569
24382
24221
24074
23947
23852
23774
23666
23522
23369
23205
23025
22857
22732
22629
22503
22355
22212
22077
21926
21770
21637
21518
21401
21302
21229
21164
21081
20992
20912
20835
20760
20701
20657
20598
20521
20442
20358
20255
20138
20050
19992
19944
19906
19877
19852
19802
19718
19616
19493
19352
19215
19105
19021
18924
18802
18661
18481
18256
18033
17851
17693
17547
17441
17401
17425
17504
17665
17922
18259
18674
19181
19779
20421
21074
21749
22441
23139
23834
24536
25239
25897
26499
27061
27565
27969
28275
28528
28734
28889
29015
29145
29274
29373
29443
29493
29513
29498
29469
29459
29461
29447
29420
29389
29354
29307
29265
29243
29220
29196
29187
29191
29172
29104
29018
28938
28848
28744
28655
28601
28544
28461
28366
28261
28150
28044
27967
27926
27895
27864
27838
27805
27744
27678
27642
27623
27596
27567
27550
27535
27495
27445
27391
27313
27217
27128
27064
27010
26954
26909
26864
26777
26642
26503
26372
26234
26087
25950
25834
25705
25549
25386
25212
25002
24756
24529
24331
24138
23967
23829
23705
23560
23396
23244
23108
22975
22854
22759
22664
22530
22376
22225
22061
21856
21625
21420
21243
21083
20944
20824
20685
20495
20290
20105
19941
19793
19676
19595
19494
19352
19216
19095
18974
18871
18808
18768
18695
18587
18471
18333
18174
18031
17948
17913
17880
17831
17773
17691
17565
17413
17269
17134
17005
16895
16813
16733
16631
16548
16513
16520
16562
16662
16845
17103
17433
17845
18336
18865
19409
19986
20595
21219
21863
22542
23235
23896
24514
25094
25636
26112
26503
26836
27117
27346
27532
27703
27862
27988
28080
28128
28106
27999
27836
27663
27484
27294
27105
26929
26742
26527
26318
26121
25914
25689
25473
25299
25141
24985
24852
24738
24608
24459
24342
24272
24218
24163
24119
24079
23992
23856
23724
23614
23528
23474
23454
23447
23424
23402
23395
23392
23384
23383
23414
23463
23500
23520
23514
23464
23360
23244
23158
23083
23006
22932
22856
22740
22565
22372
22170
21940
21687
21434
21193
20934
20641
20344
20052
19768
19509
19289
19103
18907
18697
18484
18244
17966
17677
17414
17176
16939
16698
16473
16248
15994
15732
15481
15231
14984
14764
14589
14440
14294
14160
14047
13914
13741
13562
13392
13221
13047
12892
12765
12624
12463
12302
12146
11973
11780
11625
11536
11501
11528
11620
11751
11875
11981
12073
12141
12190
12244
12318
12375
12377
12341
12291
12209
12081
11935
11817
11737
11697
11709
11779
11882
12001
12165
12402
12711
13087
13530
14036
14563
15090
15630
16169
16678
17148
17613
18080
18501
18858
19169
19415
19567
19654
19710
19736
19745
19762
19808
19880
19942
19984
20004
19983
19906
19805
19724
19654
19576
19523
19517
19518
19503
19497
19492
19460
19390
19313
19251
19195
19141
19089
19028
18938
18814
18706
18636
18590
18571
18591
18644
18685
18698
18699
18685
18650
18609
18594
18606
18626
18665
18718
18756
18766
18774
18816
18873
18915
18944
18962
18942
18869
18777
18702
18628
18542
18458
18382
18293
18179
18074
17975
17865
17753
17650
17544
17399
17207
17009
16815
16617
16417
16232
16064
15873
15646
15400
15137
14842
14544
14295
14081
13872
13674
13500
13334
13135
12924
12747
12604
12492
12429
12411
12395
12357
12309
12261
12203
12130
12070
12033
12002
11978
11957
11930
11873
11787
11707
11632
11551
11484
11451
11439
11409
11361
11305
11236
11144
11046
10990
10993
11047
11156
11345
11607
11917
12289
12747
13271
13853
14505
15217
15948
16661
17346
17992
18592
19159
19726
20301
20842
21318
21739
22105
22383
22573
22728
22862
22961
23035
23107
23176
23216
23225
23217
23183
23106
23005
22919
22847
22785
22755
22768
22800
22815
22818
22821
22815
22792
22777
22785
22802
22821
22856
22910
22956
22974
22980
22974
22949
22916
22901
22915
22939
22973
23014
23046
23047
23011
22977
22955
22919
22879
22875
22913
22953
22968
22965
22932
22847
22727
22608
22490
22361
22238
22136
22034
21911
21786
21662
21515
21329
21137
20970
20812
20643
20479
20337
20199
20058
19938
19837
19714
19559
19412
19276
19136
18998
18876
18761
18642
18535
18448
18370
18278
18169
18058
17946
17825
17710
17624
17551
17475
17415
17388
17359
17290
17191
17082
16964
16835
16720
16641
16584
16524
16471
16429
16376
16298
16225
16169
16129
16112
16134
16193
16254
16298
16320
16312
16263
16183
16114
16074
16067
16108
16212
16383
16598
16856
17173
17541
17940
18397
18943
19545
20171
20829
21519
22208
22856
23468
24078
24680
25256
25829
26406
26939
27399
27801
28140
28395
28570
28703
28819
28901
28954
28984
28982
28944
28883
28840
28826
28826
28849
28894
28951
28980
28970
28965
28969
28966
28976
29020
29073
29100
29089
29043
28971
28876
28779
28708
28649
28588
28546
28526
28499
28435
28358
28303
28266
28239
28233
28245
28230
28182
28139
28110
28081
28049
28040
28058
28075
28083
28083
28062
27989
27862
27741
27649
27557
27456
27361
27264
27136
26981
26823
26656
26467
26283
26129
25982
25820
25656
25510
25362
25177
24977
24790
24602
24426
24297
24221
24155
24076
23996
23915
23836
23773
23745
23749
23745
23730
23712
23677
23606
23515
23441
23398
23375
23372
23402
23450
23466
23453
23448
23446
23425
23403
23401
23389
23322
23206
23064
22889
22680
22469
22285
22099
21888
21674
21471
21264
21041
20825
20617
20404
20189
19990
19812
19637
19460
19286
19111
18909
18690
18510
18392
18343
18387
18544
18813
19179
19633
20172
20774
21395
22038
22725
23441
24168
24918
25701
26494
27263
28005
28715
29350
29888
30348
30748
31093
31384
31641
31891
32123
32340
32562
32798
33010
33170
33304
33420
33512
33591
33683
33788
33881
33956
34019
34070
34092
34071
34012
33921
33793
33647
33521
33414
33317
33251
33230
33230
33197
33129
33050
32951
32822
32698
32610
32553
32520
32526
32578
32634
32672
32727
32806
32899
33003
33128
33275
33414
33542
33672
33789
33851
33861
33859
33856
33844
33821
33804
33793
33767
33735
33708
33662
33574
33470
33375
33278
33172
33071
32985
32905
32793
32645
32474
32274
32052
31847
31680
31519
31342
31160
30974
30765
30527
30299
30097
29915
29759
29644
29567
29497
29419
29331
29215
29042
28815
28591
28401
28241
28124
28040
27957
27850
27724
27607
27512
27420
27322
27226
27119
26969
26801
26649
26501
26352
26220
26128
26061
25998
25943
25897
25831
25730
25628
25547
25462
25368
25282
25212
25120
25009
24932
24888
24859
24859
24925
25068
25251
25478
25771
26127
26541
27027
27616
28289
29000
29732
30470
31175
31824
32448
33078
33696
34270
34794
35270
35690
36039
36340
36615
36846
37030
37191
37347
37479
37568
37628
37656
37666
37678
37703
37737
37740
37700
37650
37600
37555
37536
37560
37604
37614
37588
37551
37501
37428
37341
37269
37208
37124
37014
36879
36706
36508
36327
36189
36078
35975
35888
35815
35746
35676
35617
35581
35540
35491
35457
35445
35424
35376
35340
35326
35315
35315
35341
35375
35374
35326
35247
35135
34989
34828
34687
34570
34451
34322
34193
34055
33888
33712
33554
33402
33245
33096
32960
32815
32626
32409
32189
31959
31717
31496
31327
31183
31033
30881
30731
30572
30402
30253
30125
29982
29824
29671
29530
29375
29191
29011
28837
28664
28517
28419
28352
28263
28146
28017
27867
27691
27527
27400
27279
27131
26958
26779
26589
26359
26109
25882
25678
25490
25332
25204
25072
24913
24736
24544
24332
24101
23873
23655
23424
23180
22948
22742
22570
22454
22441
22531
22699
22952
23306
23739
24199
24684
25247
25886
26560
27256
27954
28612
29208
29755
30283
30794
31261
31675
32036
32324
32532
32705
32879
33033
33150
33244
33311
33334
33299
33229
33157
33093
33044
33009
32976
32931
32881
32867
32898
32940
32983
33015
33015
32981
32930
32895
32884
32864
32822
32770
32699
32597
32482
32382
32279
32148
32008
31871
31734
31609
31521
31492
31497
31507
31536
31577
31612
31655
31732
31842
31933
31985
32018
32031
32022
32000
31980
31967
31928
31850
31751
31640
31523
31422
31369
31351
31304
31223
31139
31050
30950
30863
30808
30758
30678
30572
30462
30353
30248
30171
30131
30092
30031
29956
29862
29753
29626
29502
29413
29346
29288
29244
29201
29138
29058
29007
28997
28992
28990
28989
28972
28918
28835
28771
28733
28699
28682
28696
28712
28704
28681
28647
28593
28506
28400
28316
28244
28154
28050
27938
27803
27638
27490
27416
27418
27481
27629
27873
28187
28563
29023
29566
30170
30827
31528
32266
33011
33742
34446
35105
35718
36295
36857
37405
37906
38354
38746
39067
39320
39525
39704
39847
39947
40019
40082
40124
40100
40035
39980
39929
39880
39857
39863
39861
39812
39731
39642
39540
39423
39315
39229
39135
39022
38903
38777
38633
38473
38335
38236
38145
38060
37977
37871
37737
37607
37521
37461
37411
37395
37403
37414
37416
37417
37455
37525
37595
37655
37709
37725
37679
37605
37541
37463
37350
37234
37145
37062
36945
36817
36693
36549
36382
36228
36105
35971
35803
35618
35424
35220
35013
34836
34687
34536
34399
34286
34154
33953
33702
33459
33243
33046
32868
32717
32582
32421
32233
32060
31904
31757
31631
31531
31427
31293
31152
31044
30970
30915
30872
30843
30820
30786
30752
30709
30630
30530
30440
30374
30301
30205
30097
29972
29820
29653
29516
29423
29330
29225
29109
28966
28784
28569
28359
28182
28035
27927
27883
27899
27952
28056
28247
28523
28885
29355
29930
30568
31226
31901
32611
33356
34125
34905
35681
36409
37057
37644
38176
38648
39071
39467
39850
40165
40398
40596
40766
40909
41040
41174
41315
41435
41531
41609
41664
41707
41766
41864
41980
42075
42152
42237
42323
42389
42450
42525
42586
42604
42591
42547
42471
42367
42246
42137
42045
41967
41904
41839
41753
41649
41576
41558
41547
41522
41490
41448
41373
41269
41196
41175
41168
41170
41185
41197
41169
41098
41021
40942
40850
40755
40674
40591
40460
40292
40126
39957
39783
39629
39505
39378
39221
39043
38849
38633
38389
38135
37885
37627
37367
37118
36877
36621
36346
36087
35849
35622
35425
35267
35127
34964
34777
34590
34399
34191
33989
33813
33648
33483
33325
33178
33016
32808
32589
32405
32244
32101
32000
31942
31882
31786
31675
31559
31427
31288
31159
31037
30906
30770
30650
30555
30449
30313
30182
30078
29981
29889
29806
29722
29590
29402
29208
29042
28911
28834
28849
28964
29143
29376
29685
30088
30580
31160
31820
32517
33226
33956
34703
35433
36106
36729
37329
37891
38400
38885
39363
39802
40183
40511
40785
41019
41225
41416
41600
41762
41895
41993
42056
42082
42073
42044
41996
41924
41835
41774
41766
41805
41868
41931
41976
41961
41876
41754
41598
41406
41215
41049
40901
40767
40652
40562
40468
40341
40211
40095
39965
39826
39707
39621
39538
39449
39378
39329
39273
39200
39141
39108
39088
39085
39105
39136
39140
39110
39061
38980
38851
38672
38492
38332
38167
37993
37806
37588
37318
37012
36716
36442
36176
35931
35722
35512
35266
35012
34776
34551
34333
34125
33939
33771
33615
33483
33372
33253
33129
33044
33001
32973
32958
32960
32969
32946
32873
32768
32644
32511
32385
32292
32237
32191
32137
32075
31998
31888
31758
31638
31530
31427
31337
31263
31183
31068
30935
30816
30712
30620
30545
30495
30454
30400
30355
30325
30266
30158
30056
29983
29904
29808
29712
29625
29511
29359
29172
28945
28680
28395
28138
27909
27702
27572
27529
27539
27591
27694
27855
28079
28368
28738
29210
29754
30347
30994
31680
32366
33018
33627
34208
34762
35269
35745
36214
36658
37054
37415
37756
38029
38217
38367
38482
38543
38564
38587
38622
38639
38637
38632
38619
38580
38516
38441
38344
38230
38129
38069
38046
38032
38026
38040
38055
38032
37984
37933
37862
37753
37628
37529
37463
37410
37374
37357
37323
37249
37165
37092
37019
36939
36875
36832
36779
36710
36640
36562
36453
36311
36168
36026
35867
35704
35567
35457
35356
35268
35179
35068
34919
34728
34518
34292
34030
33747
33478
33207
32910
32603
32294
31975
31641
31316
31041
30809
30605
30428
30261
30067
29835
29611
29409
29215
29033
28889
28788
28694
28602
28514
28409
28271
28102
27948
27815
27692
27589
27520
27472
27400
27292
27170
27037
26892
26751
26630
26516
26389
26252
26130
26008
25846
25663
25491
25325
25160
25027
24955
24918
24880
24827
24753
24645
24502
24364
24247
24133
24016
23911
23821
23727
23643
23588
23556
23532
23530
23601
23760
23980
24251
24609
25047
25531
26061
26635
27204
27717
28182
28623
29034
29421
29821
30262
30716
31159
31599
32042
32464
32828
33132
33402
33648
33872
34093
34328
34543
34716
34859
34973
35048
35100
35156
35195
35219
35267
35346
35429
35480
35501
35512
35511
35483
35439
35412
35398
35387
35403
35474
35573
35652
35721
35797
35850
35858
35853
35871
35890
35892
35885
35879
35866
35853
35856
35869
35872
35855
35844
35852
35882
35938
36012
36089
36122
36097
36033
35937
35824
35709
35599
35488
35367
35247
35148
35049
34915
34766
34628
34496
34367
34251
34162
34076
33948
33789
33630
33451
33240
33029
32844
32673
32499
32326
32169
32020
31864
31706
31548
31379
31200
31032
30877
30733
30617
30539
30486
30415
30316
30204
30071
29907
29733
29586
29467
29359
29263
29192
29133
29058
28973
28899
28832
28746
28648
28583
28551
28532
28539
28567
28590
28596
28588
28561
28503
28422
28364
28353
28381
28451
28599
28850
29180
29582
30075
30645
31255
31900
32590
33306
34003
34680
35358
36012
36607
37153
37675
38173
38632
39064
39492
39902
40267
40599
40915
41194
41406
41556
41661
41698
41656
41585
41506
41376
41183
40982
40799
40608
40398
40195
40006
39813
39611
39399
39160
38874
38553
38247
37972
37720
37500
37338
37239
37172
37127
37110
37108
37098
37082
37067
37042
37000
36962
36963
36992
37028
37092
37185
37284
37368
37434
37479
37493
37474
37443
37405
37347
37260
37173
37112
37047
36957
36861
36768
36642
36469
36258
36009
35710
35364
35012
34666
34318
33966
33614
33263
32886
32470
32030
31580
31114
30637
30185
29769
29393
29079
28832
28620
28402
28173
27950
27724
27488
27261
27051
26846
26644
26460
26310
26178
26055
25957
25880
25777
25634
25491
25362
25241
25142
25084
25058
25034
25002
24962
24910
24817
24683
24556
24448
24342
24251
24199
24167
24124
24075
24022
23950
23850
23739
23653
23597
23562
23560
23583
23589
23567
23565
23612
23692
23796
23961
24212
24543
24947
25425
25973
26553
27140
27761
28414
29078
29751
30454
31178
31893
32594
33275
33915
34485
34967
35394
35782
36117
36410
36698
36962
37171
37336
37476
37577
37619
37621
37630
37663
37711
37771
37847
37927
37995
38060
38126
38174
38198
38223
38247
38243
38219
38194
38170
38112
38013
37913
37817
37707
37596
37503
37416
37315
37210
37095
36942
36743
36532
36358
36228
36119
36029
35964
35899
35798
35669
35527
35376
35215
35054
34911
34787
34682
34608
34551
34463
34318
34143
33955
33758
33552
33365
33207
33042
32867
32702
32552
32386
32198
32009
31809
31600
31411
31262
31136
31008
30887
30770
30628
30429
30171
29889
29613
29334
29066
28837
28628
28421
28241
28106
27985
27842
27681
27512
27329
27128
26948
26823
26721
26613
26498
26379
26224
26031
25833
25637
25422
25193
24990
24832
24703
24593
24498
24402
24288
24161
24035
23893
23706
23486
23276
23083
22898
22733
22598
22464
22308
22137
21952
21745
21498
21239
21011
20807
20638
20537
20509
20518
20548
20625
20762
20961
21227
21577
22009
22488
23005
23560
24144
24725
25293
25871
26453
27018
27567
28123
28668
29150
29568
29935
30242
30482
30672
30853
31030
31180
31314
31434
31517
31549
31555
31559
31562
31566
31570
31582
31600
31615
