44548
45162
45718
46222
46681
47098
47469
47793
48074
48314
48519
48694
48834
48930
48985
49013
49018
48997
48954
48896
48829
48752
48660
48553
48436
48309
48182
48072
47982
47893
47794
47695
47597
47497
47393
47285
47172
47058
46951
46855
46768
46689
46623
46569
46525
46485
46452
46433
46428
46433
46453
46495
46551
46612
46686
46769
46839
46891
46931
46967
46998
47016
47017
47001
46968
46926
46879
46834
46785
46720
46640
46552
46458
46355
46238
46107
45966
45823
45679
45531
45380
45228
45080
44935
44793
44650
44513
44383
44259
44140
44030
43929
43835
43744
43647
43543
43439
43337
43236
43129
43017
42903
42791
42681
42575
42475
42377
42274
42172
42085
42018
41961
41909
41865
41828
41787
41738
41682
41618
41548
41477
41403
41324
41249
41180
41121
41067
40997
40906
40808
40706
40597
40486
40374
40260
40146
40034
39920
39800
39675
39552
39444
39358
39298
39274
39300
39389
39560
39826
40188
40634
41154
41733
42354
42987
43607
44207
44782
45323
45820
46275
46688
47057
47383
47662
47894
48085
48242
48366
48457
48519
48556
48568
48558
48528
48473
48393
48294
48183
48066
47950
47836
47723
47605
47476
47344
47214
47083
46951
46818
46684
46543
46394
46246
46102
45967
45845
45731
45626
45538
45465
45410
45377
45367
45384
45420
45466
45525
45595
45669
45743
45814
45883
45957
46031
46094
46143
46186
46221
46240
46246
46236
46208
46165
46111
46040
45948
45840
45721
45591
45461
45332
45198
45059
44915
44766
44617
44471
44328
44176
44013
43850
43698
43553
43405
43256
43120
42994
42872
42756
42645
42534
42419
42306
42209
42120
42031
41951
41881
41817
41756
41700
41657
41627
41596
41554
41500
41447
41404
41361
41312
41259
41205
41149
41088
41018
40942
40866
40788
40709
40633
40556
40470
40374
40274
40180
40104
40065
40080
40154
40299
40533
40866
41286
41775
42320
42904
43508
44116
44709
45270
45797
46292
46750
47169
47543
47871
48157
48403
48610
48769
48883
48964
49016
49037
49029
48992
48931
48849
48750
48638
48518
48395
48267
48132
47991
47847
47700
47549
47398
47249
47099
46944
46782
46614
46445
46284
46136
46003
45890
45798
45728
45673
45631
45605
45596
45605
45637
45688
45750
45818
45903
45999
46088
46169
46246
46319
46385
46442
46488
46518
46534
46536
46523
46496
46459
46410
46345
46259
46155
46040
45918
45793
45661
45517
45363
45204
45044
44885
44729
44576
44422
44273
44129
43984
43835
43687
43539
43393
43249
43109
42979
42861
42753
42649
42546
42446
42348
42249
42152
42061
41981
41909
41836
41765
41696
41627
41554
41474
41393
41316
41239
41162
41090
41024
40957
40885
40816
40753
40684
40608
40530
40457
40383
40303
40225
40162
40131
40148
40235
40416
40703
41097
41586
42154
42774
43422
44085
44747
45390
45997
46568
47101
47589
48032
48435
48795
49109
49382
49617
49814
49976
50105
50198
50250
50264
50250
50214
50163
50101
50024
49934
49841
49752
49663
49571
49479
49385
49289
49195
49104
49013
48921
48825
48722
48611
48495
48383
48285
48204
48134
48072
48025
47989
47957
47929
47911
47899
47885
47869
47856
47854
47871
47901
47930
47959
47997
48036
48061
48074
48085
48092
48085
48063
48022
47967
47902
47828
47749
47666
47571
47465
47351
47232
47109
46986
46863
46734
46600
46470
46343
46205
46056
45905
45755
45603
45453
45308
45172
45039
44910
44788
44675
44569
44468
44368
44271
44178
44088
43997
43904
43816
43735
43657
43581
43502
43422
43348
43275
43196
43116
43041
42968
42898
42840
42791
42741
42686
42620
42550
42480
42409
42332
42247
42149
42040
41925
41809
41696
41584
41472
41356
41238
41126
41033
40977
40971
41030
41163
41385
41702
42122
42631
43203
43815
44448
45086
45715
46322
46905
47458
47970
48435
48856
49230
49556
49835
50076
50284
50461
50603
50706
50770
50804
50814
50797
50753
50688
50611
50528
50441
50355
50271
50187
50100
50003
49905
49813
49719
49620
49524
49434
49347
49262
49174
49087
48998
48902
48806
48726
48663
48609
48555
48501
48451
48410
48391
48394
48409
48427
48450
48482
48513
48544
48580
48617
48649
48675
48687
48684
48670
48644
48610
48568
48519
48467
48412
48348
48277
48201
48123
48042
47944
47831
47714
47597
47473
47345
47214
47077
46931
46783
46634
46482
46334
46203
46083
45962
45838
45708
45571
45438
45319
45209
45101
44988
44866
44742
44622
44507
44400
44300
44204
44112
44029
43962
43909
43862
43811
43751
43681
43601
43519
43447
43388
43332
43268
43196
43119
43039
42967
42900
42822
42734
42636
42530
42419
42307
42196
42083
41975
41880
41792
41699
41595
41482
41363
41242
41116
40990
40884
40813
40790
40829
40947
41162
41476
41886
42382
42954
43584
44247
44923
45590
46230
46840
47416
47955
48451
48896
49290
49634
49928
50173
50372
50530
50654
50752
50823
50866
50879
50857
50807
50741
50662
50561
50438
50305
50181
50070
49965
49861
49757
49659
49575
49500
49418
49324
49215
49091
48967
48857
48757
48659
48570
48495
48426
48361
48308
48263
48218
48178
48152
48142
48144
48158
48185
48218
48255
48294
48334
48371
48406
48437
48467
48493
48503
48494
48473
48439
48390
48330
48261
48183
48095
48002
47902
47796
47682
47553
47407
47247
47085
46926
46761
46590
46419
46254
46100
45951
45805
45657
45508
45361
45214
45069
44924
44779
44638
44509
44389
44271
44156
44040
43922
43806
43699
43604
43517
43436
43354
43276
43201
43123
43042
42965
42889
42817
42753
42695
42642
42585
42513
42425
42330
42239
42153
42066
41975
41878
41777
41682
41603
41534
41461
41379
41285
41181
41067
40952
40839
40722
40598
40473
40341
40202
40066
39937
39818
39721
39673
39694
39790
39978
40274
40682
41205
41830
42529
43273
44030
44776
45492
46169
46803
47388
47921
48402
48833
49202
49513
49777
50000
50184
50320
50406
50454
50473
50462
50426
50376
50310
50228
50136
50035
49922
49796
49659
49514
49364
49220
49089
48971
48855
48731
48602
48467
48326
48185
48043
47909
47792
47689
47600
47520
47447
47383
47334
47311
47311
47327
47353
47379
47409
47453
47506
47556
47608
47662
47712
47759
47806
47848
47880
47892
47880
47851
47813
47767
47712
47649
47577
47491
47395
47289
47172
47048
46907
46744
46572
46400
46224
46040
45854
45673
45500
45323
45144
44969
44794
44615
44440
44276
44116
43963
43824
43689
43558
43437
43321
43207
43094
42973
42848
42727
42608
42490
42374
42262
42157
42060
41974
41901
41832
41764
41706
41656
41603
41549
41490
41421
41346
41263
41176
41092
41011
40922
40825
40724
40621
40518
40415
40308
40195
40083
39979
39876
39774
39671
39558
39436
39318
39202
39092
39001
38945
38949
39035
39220
39515
39922
40442
41064
41774
42551
43365
44179
44969
45716
46410
47048
47628
48145
48594
48981
49306
49578
49799
49969
50092
50177
50224
50236
50221
50181
50112
50023
49917
49806
49691
49565
49426
49280
49133
48988
48848
48712
48580
48450
48317
48173
48014
47849
47679
47505
47347
47207
47073
46944
46827
46731
46661
46616
46593
46590
46606
46645
46704
46772
46842
46918
47001
47084
47160
47229
47290
47344
47387
47423
47457
47487
47509
47513
47488
47442
47381
47297
47196
47081
46950
46808
46661
46510
46349
46174
45995
45819
45645
45468
45287
45104
44927
44765
44614
44466
44313
44150
43986
43838
43698
43558
43419
43277
43134
42991
42849
42716
42589
42467
42355
42252
42159
42073
41989
41900
41807
41708
41618
41546
41481
41407
41331
41265
41202
41137
41074
41006
40927
40844
40767
40691
40615
40542
40466
40382
40290
40190
40082
39966
39845
39722
39599
39482
39376
39293
39247
39260
39352
39540
39838
40246
40760
41378
42082
42845
43638
44440
45229
45982
46685
47336
47927
48446
48894
49286
49623
49905
50134
50317
50457
50562
50636
50679
50690
50661
50601
50527
50445
50349
50239
50117
49978
49826
49671
49515
49361
49214
49077
48939
48791
48634
48476
48316
48152
47987
47829
47682
47546
47424
47324
47246
47192
47156
47131
47120
47124
47139
47162
47195
47234
47277
47326
47384
47440
47487
47532
47581
47621
47644
47652
47648
47634
47614
47580
47530
47467
47395
47314
47219
47107
46980
46843
46695
46543
46389
46228
46054
45875
45695
45516
45339
45163
44989
44817
44647
44480
44316
44158
44005
43852
43690
43523
43356
43190
43032
42889
42765
42653
42549
42448
42346
42242
42136
42032
41935
41841
41742
41640
41539
41443
41358
41281
41202
41123
41051
40981
40906
40822
40735
40650
40564
40476
40392
40311
40221
40124
40024
39927
39829
39729
39625
39514
39405
39304
39209
39119
39036
38967
38923
38921
38992
39161
39442
39828
40318
40918
41620
42398
43224
44067
44899
45697
46438
47117
47743
48312
48819
49257
49626
49936
50199
50405
50557
50669
50747
50790
50801
50782
50741
50679
50596
50498
50392
50276
50149
50022
49901
49786
49671
49553
49431
49303
49178
49052
48917
48776
48634
48491
48345
48204
48072
47953
47848
47751
47665
47598
47551
47522
47508
47506
47506
47515
47540
47578
47630
47693
47748
47796
47844
47894
47935
47968
47999
48024
48034
48023
47994
47950
47888
47810
47719
47621
47517
47403
47280
47148
47008
46859
46693
46511
46319
46125
45934
45745
45556
45370
45188
45012
44840
44672
44510
44355
44207
44062
43925
43797
43673
43548
43424
43295
43163
43033
42912
42802
42692
42583
42485
42403
42332
42260
42182
42096
42003
41908
41815
41730
41653
41577
41504
41438
41379
41324
41263
41198
41140
41084
41014
40932
40847
40763
40678
40592
40500
40398
40291
40187
40090
40003
39915
39816
39712
39604
39487
39365
39248
39136
39019
38903
38797
38702
38618
38566
38567
38647
38836
39149
39590
40153
40827
41594
42427
43299
44185
45054
45879
46647
47345
47969
48522
48999
49401
49739
50028
50274
50477
50640
50767
50856
50909
50930
50924
50889
50821
50728
50614
50484
50346
50202
50057
49920
49791
49667
49546
49423
49299
49184
49072
48959
48848
48732
48604
48470
48343
48226
48116
48015
47936
47878
47827
47787
47770
47770
47778
47795
47816
47840
47868
47899
47933
47970
48009
48055
48106
48147
48175
48190
48194
48184
48158
48120
48073
48013
47940
47858
47770
47676
47578
47472
47358
47231
47096
46955
46803
46645
46484
46319
46151
45984
45822
45671
45525
45368
45207
45054
44906
44767
44640
44511
44369
44219
44070
43926
43790
43665
43548
43440
43343
43257
43172
43081
42985
42894
42818
42752
42689
42623
42548
42462
42372
42286
42200
42109
42022
41949
41885
41815
41737
41651
41558
41469
41388
41303
41210
41116
41021
40927
40840
40755
40663
40567
40469
40365
40254
40145
40038
39933
39830
39720
39594
39452
39303
39153
39013
38901
38823
38786
38813
38918
39113
39412
39824
40351
40984
41711
42513
43354
44200
45024
45810
46549
47235
47860
48421
48913
49334
49691
49988
50223
50406
50548
50653
50721
50763
50780
50764
50719
50653
50569
50467
50349
50223
50093
49960
49832
49715
49599
49479
49362
49249
49132
49010
48887
48768
48650
48533
48415
48294
48176
48069
47980
47914
47868
47834
47807
47790
47786
47792
47805
47829
47863
47904
47947
47989
48033
48073
48106
48130
48147
48167
48189
48204
48211
48207
48181
48130
48064
47992
47918
47834
47731
47608
47472
47332
47195
47056
46909
46758
46608
46452
46294
46133
45966
45795
45621
45448
45280
45118
44964
44815
44657
44491
44332
44187
44045
43909
43784
43672
43569
43460
43347
43241
43143
43054
42973
42893
42807
42725
42649
42570
42489
42410
42332
42258
42185
42101
42006
41913
41823
41731
41641
41556
41471
41384
41294
41203
41120
41044
40964
40874
40782
40695
40602
40498
40390
40280
40164
40041
39916
39793
39671
39542
39409
39279
39155
39035
38935
38866
38841
38881
39007
39234
39576
40042
40617
41285
42031
42824
43638
44452
45243
45991
46683
47315
47889
48403
48851
49230
49549
49815
50032
50202
50334
50429
50494
50531
50533
50500
50442
50357
50248
50129
50000
49857
49705
49549
49395
49247
49106
48964
48821
48691
48569
48447
48319
48189
48063
47945
47835
47728
47625
47535
47458
47385
47321
47273
47242
47224
47219
47229
47255
47295
47343
47396
47450
47501
47548
47594
47627
47645
47660
47681
47698
47700
47687
47663
47629
47583
47524
47447
47348
47230
47096
46948
46796
46644
46492
46333
46164
45991
45823
45657
45490
45324
45155
44980
44803
44626
44451
44287
44137
43992
43844
43700
43567
43440
43326
43228
43135
43035
42932
42832
42734
42641
42551
42464
42381
42301
42221
42143
42069
41995
41913
41828
41752
41678
41602
41530
41465
41401
41333
41267
41201
41131
41054
40970
40888
40810
40721
40621
40515
40412
40311
40204
40095
39990
39884
39780
39675
39558
39430
39302
39181
39064
38955
38872
38831
38849
38946
39141
39442
39849
40358
40967
41662
42417
43205
44002
44787
45546
46258
46909
47498
48017
48464
48839
49148
49401
49603
49764
49890
49973
50014
50021
50005
49967
49908
49839
49757
49657
49549
49434
49293
49132
48964
48791
48615
48436
48251
48065
47882
47699
47518
47338
47163
47004
46865
46735
46613
46511
46437
46389
46368
46369
46380
46403
46439
46486
46548
46620
46702
46791
46876
46960
47045
47121
47190
47254
47299
47322
47336
47343
47333
47308
47275
47236
47185
47113
47016
46902
46775
46634
46481
46323
46162
45994
45821
45643
45461
45281
45104
44934
44765
44590
44421
44265
44110
43948
43788
43639
43500
43364
43231
43102
42976
42853
42734
42621
42510
42405
42313
42232
42158
42092
42033
41968
41898
41828
41757
41689
41622
41550
41479
41419
41370
41322
41264
41194
41123
41066
41020
40963
40896
40831
40761
40688
40614
40543
40474
40404
40326
40240
40146
40050
39953
39849
39739
39623
39503
39375
39245
39129
39040
38986
38970
39010
39145
39394
39756
40228
40806
41477
42218
42998
43790
44583
45355
46078
46744
47358
47909
48387
48797
49152
49453
49705
49922
50101
50235
50332
50391
50411
50396
50353
50290
50210
50115
50009
49891
49771
49656
49551
49449
49335
49202
49063
48927
48788
48640
48495
48358
48219
48070
47916
47774
47645
47529
47424
47337
47279
47244
47223
47218
47230
47261
47310
47374
47443
47509
47577
47649
47721
47786
47848
47903
47948
47988
48022
48041
48035
48004
47961
47906
47844
47776
47700
47612
47509
47384
47240
47084
46921
46757
46596
46426
46238
46043
45852
45660
45465
45267
45066
44864
44667
44474
44288
44108
43937
43778
43634
43497
43364
43236
43110
42990
42881
42785
42697
42608
42517
42427
42348
42279
42208
42130
42047
41963
41888
41812
41731
41654
41584
41518
41458
41405
41349
41285
41214
41142
41073
41007
40943
40887
40839
40788
40730
40670
40608
40543
40472
40393
40307
40214
40113
40008
39895
39768
39632
39491
39348
39198
39045
38896
38749
38611
38489
38386
38305
38256
38247
38294
38423
38656
39000
39464
40047
40732
41494
42313
43169
44029
44866
45653
46378
47042
47642
48168
48624
49025
49374
49670
49918
50117
50266
50372
50448
50495
50508
50492
50451
50393
50329
50261
50190
50111
50020
49927
49837
49750
49667
49594
49526
49451
49365
49277
49189
49098
49007
48922
48835
48741
48648
48568
48506
48452
48403
48371
48359
48357
48357
48353
48350
48359
48388
48426
48466
48511
48562
48608
48643
48671
48692
48709
48725
48738
48735
48706
48664
48617
48564
48504
48429
48340
48250
48153
48039
47915
47789
47657
47525
47397
47270
47146
47027
46901
46765
46620
46466
46307
46150
45997
45854
45725
45604
45484
45365
45254
45150
45053
44969
44890
44808
44726
44649
44576
44503
44423
44337
44254
44170
44079
43985
43900
43827
43765
43715
43664
43604
43541
43483
43427
43374
43325
43274
43212
43142
43076
43018
42960
42896
42824
42745
42655
42555
42450
42349
42249
42145
42042
41949
41859
41759
41652
41539
41416
41287
41164
41050
40931
40806
40685
40570
40453
40332
40224
40146
40109
40131
40232
40431
40743
41175
41724
42363
43055
43776
44518
45267
46000
46694
47338
47928
48463
48947
49372
49739
50055
50320
50543
50736
50892
51000
51073
51117
51132
51116
51076
51010
50926
50834
50737
50639
50547
50458
50375
50298
50214
50122
50031
49942
49855
49770
49683
49591
49489
49376
49261
49150
49047
48958
48883
48814
48749
48696
48664
48651
48653
48663
48676
48685
48694
48701
48712
48734
48769
48803
48830
48858
48891
48924
48944
48942
48922
48896
48862
48818
48762
48687
48597
48496
48387
48277
48161
48036
47903
47766
47625
47483
47343
47205
47068
46930
46795
46661
46528
46401
46271
46138
46003
45863
45720
45575
45431
45295
45175
45064
44958
44857
44767
44687
44612
44533
44445
44354
44267
44187
44107
44022
43941
43867
43792
43715
43641
43571
43508
43454
43399
43338
43272
43205
43139
43070
42993
42907
42818
42735
42658
42576
42486
42394
42307
42226
42144
42051
41943
41828
41712
41599
41488
41374
41250
41116
40977
40834
40685
40535
40388
40246
40118
40011
39922
39859
39849
39910
40061
40316
40682
41159
41744
42418
43151
43916
44688
45442
46162
46839
47463
48021
48522
48972
49364
49698
49977
50209
50398
50538
50637
50705
50743
50753
50732
50678
50598
50505
50405
50296
50190
50087
49976
49858
49740
49625
49512
49396
49277
49162
49050
48939
48829
48714
48599
48485
48368
48255
48152
48063
47986
47915
47854
47809
47783
47780
47791
47811
47845
47892
47947
48005
48064
48125
48189
48247
48300
48347
48379
48398
48410
48414
48404
48378
48336
48276
48199
48116
48025
47917
47793
47667
47533
47377
47207
47039
46867
46687
46503
46317
46138
45969
45810
45658
45508
45356
45208
45071
44943
44825
44715
44601
44482
44362
44245
44143
44056
43966
43873
43786
43706
43633
43571
43515
43454
43377
43290
43206
43133
43076
43024
42972
42924
42880
42836
42788
42738
42691
42643
42597
42554
42498
42423
42342
42266
42189
42106
42015
41913
41803
41688
41571
41453
41341
41234
41123
41002
40874
40746
40619
40502
40405
40337
40311
40341
40439
40624
40910
41300
41789
42372
43034
43745
44476
45204
45906
46570
47189
47766
48294
48764
49171
49525
49832
50085
50294
50467
50601
50696
50749
50767
50757
50719
50657
50583
50500
50405
50302
50190
50067
49935
49799
49662
49530
49401
49266
49123
48979
48834
48690
48548
48409
48274
48141
48016
47907
47816
47749
47701
47660
47627
47611
47608
47623
47654
47697
47745
47801
47870
47949
48029
48108
48184
48255
48318
48367
48403
48418
48408
48378
48333
48276
48214
48142
48065
47986
47900
47800
47683
47553
47413
47260
47093
46919
46742
46567
46402
46245
46097
45953
45813
45676
45532
45377
45224
45080
44945
44817
44696
44582
44478
44380
44285
44195
44107
44020
43941
43867
43794
43722
43654
43582
43502
43421
43347
43281
43223
43168
43113
43056
43001
42949
42895
42841
42791
42737
42672
42597
42519
42435
42346
42259
42175
42092
42005
41916
41825
41733
41636
41535
41431
41326
41222
41118
41009
40893
40784
40702
40653
40648
40711
40871
41143
41536
42045
42654
43343
44078
44828
45567
46282
46972
47625
48230
48780
49277
49718
50103
50440
50729
50977
51181
51331
51437
51505
51539
51555
51551
51521
51466
51395
51315
51223
51118
51010
50908
50813
50724
50632
50536
50442
50350
50254
50155
50056
49960
49861
49752
49636
49522
49422
49339
49270
49209
49150
49093
49042
48998
48961
48936
48930
48944
48962
48975
48988
49010
49044
49089
49143
49193
49232
49262
49283
49289
49285
49268
49239
49201
49158
49103
49030
48933
48816
48682
48542
48405
48269
48133
47996
47857
47715
47576
47438
47295
47142
46980
46824
46670
46511
46353
46203
46065
45935
45806
45677
45552
45439
45337
45236
45128
45015
44908
44817
44737
44655
44576
44510
44449
44379
44307
44233
44155
44080
44009
43936
43858
43775
43692
43619
43555
43497
43443
43389
43329
43257
43178
43094
43003
42910
42820
42733
42650
42564
42464
42358
42257
42155
42040
41913
41788
41668
41543
41409
41267
41123
40990
40876
40781
40709
40685
40738
40891
41160
41552
42056
42653
43330
44065
44832
45607
46372
47107
47792
48422
49000
49521
49976
50362
50689
50966
51199
51397
51566
51704
51807
51867
51888
51874
51829
51762
51682
51596
51498
51395
51289
51184
51088
51002
50916
50829
50742
50653
50565
50474
50379
50279
50173
50057
49937
49821
49714
49615
49522
49436
49365
49306
49256
49215
49177
49146
49129
49130
49141
49154
49175
49206
49244
49292
49341
49383
49415
49435
49444
49451
49457
49452
49432
49399
49358
49303
49237
49157
49062
48950
48827
48700
48566
48425
48276
48121
47968
47815
47658
47497
47328
47149
46973
46808
46652
46499
46350
46208
46065
45916
45756
45589
45425
45267
45114
44968
44833
44709
44593
44483
44377
44276
44186
44107
44024
43935
43852
43776
43702
43631
43557
43480
43395
43304
43211
43126
43052
42984
42920
42851
42775
42699
42620
42532
42438
42338
42232
42121
42011
41904
41800
41694
41588
41486
41390
41291
41179
41056
40932
40803
40669
40542
40417
40285
40153
40035
39944
39897
39919
40031
40250
40587
41039
41600
42257
42990
43772
44582
45392
46171
46907
47596
48231
48797
49293
49724
50100
50426
50701
50924
51103
51243
51342
51403
51427
51416
51374
51308
51219
51112
50995
50879
50761
50640
50520
50399
50279
50160
50035
49908
49785
49662
49535
49404
49267
49126
48982
48842
48711
48593
48490
48405
48343
48300
48265
48239
48226
48224
48226
48233
48251
48284
48323
48361
48400
48449
48504
48549
48578
48594
48602
48604
48598
48580
48555
48523
48481
48427
48360
48278
48180
48068
47945
47809
47667
47519
47359
47182
46995
46808
46623
46434
46248
46069
45895
45718
45535
45347
45164
44994
44839
44697
44562
44422
44278
44139
44013
43903
43808
43722
43644
43569
43487
43398
43304
43213
43134
43065
42998
42931
42876
42833
42787
42723
42643
42553
42458
42359
42260
42164
42061
41953
41853
41762
41675
41589
41504
41412
41306
41191
41074
40955
40831
40699
40564
40436
40318
40209
40117
40038
39975
39950
39993
40119
40344
40676
41117
41660
42297
43010
43770
44555
45345
46115
46847
47528
48143
48692
49184
49613
49974
50271
50509
50691
50818
50893
50931
50941
50924
50880
50801
50686
50547
50387
50216
50039
49856
49664
49467
49272
49087
48916
48746
48564
48376
48187
47989
47783
47577
47373
47177
46997
46835
46692
46570
46463
46370
46297
46247
46218
46212
46225
46251
46282
46324
46373
46418
46465
46523
46580
46630
46672
46710
46741
46758
46755
46736
46704
46663
46616
46558
46485
46403
46316
46226
46126
46006
45868
45713
45546
45379
45217
45060
44906
44757
44608
44451
44288
44131
43986
43847
43708
43576
43445
43314
43188
43071
42969
42876
42790
42707
42616
42524
42441
42363
42278
42183
42084
41986
41891
41800
41711
41627
41551
41477
41404
41335
41273
41221
41183
41147
41103
41051
40999
40944
40889
40834
40774
40711
40634
40540
40440
40344
40250
40151
40041
39922
39799
39683
39578
39477
39382
39309
39275
39291
39382
39572
39871
40275
40778
41376
42068
42840
43660
44490
45307
46099
46848
47533
48148
48700
49193
49623
49983
50282
50534
50744
50906
51011
51072
51106
51118
51101
51054
50983
50906
50824
50724
50603
50470
50330
50188
50050
49918
49789
49667
49552
49447
49356
49276
49197
49109
49006
48892
48777
48666
48553
48440
48336
48245
48165
48099
48054
48033
48029
48037
48058
48085
48109
48135
48166
48199
48232
48267
48309
48354
48393
48421
48440
48451
48446
48428
48407
48377
48324
48251
48170
48081
47975
47859
47736
47595
47437
47272
47101
46921
46737
46554
46381
46215
46049
45883
45713
45539
45365
45200
45045
44906
44780
44659
44541
44428
44322
44223
44128
44029
43929
43832
43743
43656
43566
43473
43378
43277
43174
43072
42970
42870
42770
42672
42575
42479
42377
42269
42151
42023
41892
41764
41633
41493
41346
41196
41039
40873
40694
40505
40310
40109
39900
39680
39455
39228
39009
38810
38630
38464
38315
38188
38086
38026
38033
38128
38329
38649
39086
39621
40230
40905
41629
42373
43117
43843
44544
45222
45866
46463
46994
47448
47829
48148
48405
48596
48721
48791
48820
48816
48777
48705
48604
48476
48327
48163
47990
47821
47656
47494
47340
47197
47059
46923
46784
46641
46497
46360
46229
46094
45950
45795
45627
45455
45288
45125
44971
44838
44727
44630
44548
44485
44443
44417
44401
44394
44399
44424
44472
44540
44615
44689
44760
44832
44905
44972
45029
45075
45110
45131
45139
45135
45122
45091
45039
44975
44904
44818
44715
44603
44487
44367
44240
44105
43961
43807
43648
43488
43329
43173
43018
42866
42719
42574
42427
42290
42171
42055
41931
41803
41677
41553
41433
41319
41212
41113
41024
40946
40873
40804
40742
40685
40627
40565
40508
40453
40397
40341
40290
40247
40207
40165
40123
40082
40042
39998
39949
39897
39844
39790
39735
39676
39608
39531
39453
39380
39306
39229
39150
39069
38984
38893
38795
38691
38584
38481
38383
38289
38201
38127
38081
38078
38139
38291
38554
38934
39426
40020
40704
41464
42287
43150
44026
44887
45710
46480
47186
47818
48379
48871
49290
49635
49912
50131
50300
50420
50498
50539
50545
50518
50464
50390
50301
50198
50083
49956
49822
49686
49548
49402
49248
49091
48933
48777
48620
48458
48290
48124
47960
47794
47625
47463
47314
47185
47077
46982
46899
46833
46795
46780
46779
46786
46806
46843
46896
46960
47032
47105
47177
47244
47302
47354
47397
47436
47475
47503
47513
47506
47482
47440
47382
47311
47227
47121
46992
46847
46690
46516
46324
46124
45925
45729
45533
45333
45124
44909
44693
44482
44281
44083
43883
43688
43505
43333
43164
42999
42843
42691
42546
42409
42282
42166
42061
41962
41864
41769
41676
41583
41493
41407
41326
41255
41189
41118
41045
40973
40898
40820
40743
40669
40597
40522
40442
40361
40279
40191
40098
40010
39927
39845
39761
39671
39570
39463
39347
39222
39095
38977
38867
38761
38656
38559
38486
38456
38487
38597
38801
39112
39536
40069
40703
41420
42200
43024
43867
44701
45506
46269
46974
47612
48173
48660
49077
49425
49707
49934
50115
50246
50329
50379
50404
50399
50364
50302
50217
50113
49994
49863
49722
49570
49409
49250
49098
48949
48806
48669
48534
48393
48246
48091
47926
47756
47587
47427
47280
47139
47001
46880
46787
46716
46666
46640
46637
46649
46673
46714
46775
46852
46933
47012
47088
47161
47233
47300
47355
47405
47448
47480
47494
47490
47470
47431
47367
47287
47203
47111
47002
46874
46730
46575
46419
46262
46093
45906
45714
45533
45356
45172
44982
44798
44622
44445
44272
44111
43961
43815
43667
43515
43368
43228
43090
42949
42814
42684
42555
42431
42315
42209
42118
42039
41958
41868
41774
41689
41613
41535
41458
41387
41316
41243
41167
41087
41006
40923
40839
40752
40660
40566
40470
40374
40277
40174
40070
39968
39866
39763
39657
39555
39468
39409
39398
39450
39585
39826
40188
40674
41266
41936
42670
43451
44256
45063
45852
46598
47289
47925
48499
49009
49457
49843
50168
50436
50648
50813
50940
51030
51084
51108
51100
51062
51007
50938
50855
50760
50654
50540
50419
50298
50175
50054
49935
49815
49695
49575
49455
49331
49202
49067
48928
48794
48669
48549
48437
48336
48240
48152
48080
48020
47972
47939
47922
47921
47938
47967
48005
48051
48103
48155
48199
48236
48272
48308
48336
48347
48344
48339
48327
48304
48267
48216
48147
48057
47957
47848
47726
47592
47442
47276
47101
46919
46736
46552
46368
46181
45997
45821
45650
45479
45309
45142
44977
44815
44660
44514
44372
44232
44097
43967
43842
43722
43610
43503
43403
43306
43213
43123
43030
42932
42833
42734
42635
42542
42456
42371
42285
42203
42124
42051
41978
41901
41820
41740
41663
41593
41531
41471
41405
41327
41243
41151
41047
40936
40822
40703
40585
40474
40370
40264
40149
40028
39907
39797
39715
39674
39688
39778
39967
40268
40688
41220
41851
42567
43341
44148
44967
45777
46552
47280
47945
48541
49068
49525
49916
50247
50522
50747
50931
51080
51190
51265
51310
51327
51317
51284
51233
51171
51096
51010
50911
50800
50685
50577
50476
50383
50291
50193
50090
49982
49873
49769
49669
49566
49452
49332
49215
49109
49010
48913
48816
48720
48631
48559
48508
48475
48456
48456
48473
48493
48512
48535
48566
48600
48632
48662
48692
48715
48727
48728
48720
48704
48684
48656
48611
48548
48470
48381
48282
48169
48038
47897
47752
47603
47451
47298
47142
46983
46819
46656
46497
46338
46174
46004
45834
45672
45520
45368
45213
45059
44920
44792
44658
44519
44382
44246
44107
43966
43825
43692
43568
43454
43353
43265
43187
43112
43031
42945
42854
42760
42671
42587
42498
42412
42336
42261
42179
42094
42008
41920
41833
41743
41650
41561
41479
41401
41319
41222
41111
41000
40894
40788
40676
40558
40433
40302
40164
40022
39880
39740
39607
39476
39350
39246
39181
39163
39210
39346
39590
39954
40444
41049
41754
42534
43356
44191
45015
45808
46560
47252
47869
48417
48906
49332
49696
49999
50241
50433
50585
50693
50764
50806
50813
50787
50733
50658
50569
50472
50368
50260
50157
50058
49958
49851
49737
49626
49519
49413
49299
49177
49056
48936
48812
48685
48555
48426
48304
48190
48084
47986
47903
47837
47784
47734
47685
47648
47635
47646
47666
47690
47722
47760
47799
47837
47871
47896
47918
47941
47964
47980
47979
47966
47942
47894
47826
47746
47654
47546
47427
47303
47174
47042
46904
46760
46606
46443
46272
46094
45912
45727
45538
45344
45147
44946
44746
44551
44372
44209
44050
43885
43716
43548
43387
43234
43084
42939
42803
42678
42565
42467
42374
42279
42180
42075
41970
41866
41762
41659
41558
41455
41355
41255
41159
41071
40983
40890
40787
40686
40590
40497
40402
40303
40203
40104
40013
39929
39844
39759
39672
39573
39465
39353
39240
39126
39004
38871
38736
38602
38469
38332
38195
38069
37951
37843
37762
37730
37758
37862
38062
38367
38786
39316
39945
40661
41446
42273
43117
43960
44775
45538
46243
46890
47461
47949
48367
48724
49023
49267
49459
49603
49708
49780
49820
49829
49806
49750
49664
49559
49440
49309
49173
49031
48880
48723
48572
48424
48275
48130
47984
47828
47659
47479
47301
47134
46970
46812
46662
46521
46388
46258
46132
46025
45944
45887
45850
45838
45847
45868
45898
45937
45989
46047
46107
46171
46237
46298
46350
46391
46417
46431
46443
46443
46417
46366
46297
46208
46106
45996
45881
45756
45620
45477
45324
45159
44987
44817
44650
44475
44290
44105
43924
43736
43542
43351
43169
42994
42829
42671
42511
42339
42160
41985
41810
41638
41479
41320
41161
41016
40885
40766
40654
40535
40410
40290
40174
40061
39958
39868
39782
39699
39623
39552
39482
39417
39350
39272
39189
39101
39006
38907
38808
38714
38633
38555
38468
38380
38300
38225
38145
38056
37957
37847
37728
37609
37497
37386
37279
37177
37083
37000
36937
36912
36949
37067
37283
37611
38053
38603
39255
39984
40765
41578
42408
43233
44019
44751
45423
46031
46577
47056
47464
47804
48079
48296
48462
48578
48646
48670
48654
48611
48548
48466
48371
48260
48131
47990
47839
47676
47502
47317
47128
46935
46741
46549
46353
46148
45937
45725
45514
45304
45104
44922
44758
44612
44487
44386
44300
44229
44181
44163
44166
44188
44231
44291
44359
44433
44517
44612
44715
44817
44912
45004
45087
45156
45205
45234
45247
45252
45253
45238
45198
45133
45054
44954
44829
44689
44538
44374
44204
44027
43846
43667
43493
43318
43141
42960
42778
42595
42411
42225
42042
41865
41693
41527
41368
41214
41063
40917
40769
40616
40465
40327
40202
40087
39976
39867
39762
39661
39561
39466
39379
39301
39225
39136
39037
38941
38849
38764
38682
38595
38506
38420
38340
38259
38173
38089
38007
37924
37839
37751
37660
37569
37481
37389
37288
37188
37094
37008
36939
36894
36886
36943
37097
37360
37735
38217
38794
39455
40191
40980
41794
42612
43404
44147
44834
45459
46021
46513
46939
47312
47629
47887
48092
48252
48371
48455
48504
48516
48491
48439
48369
48286
48191
48080
47949
47799
47633
47462
47298
47143
46986
46827
46669
46507
46335
46155
45970
45783
45600
45427
45265
45112
44965
44829
44719
44637
44575
44535
44519
44517
44529
44561
44617
44691
44773
44854
44935
45017
45101
45181
45252
45310
45348
45366
45372
45362
45331
45285
45229
45158
45069
44970
44861
44742
44618
44487
44345
44195
44037
43875
43710
43537
43360
43178
42988
42787
42580
42375
42174
41979
41794
41623
41467
41321
41178
41037
40896
40756
40614
40472
40338
40221
40119
40021
39922
39829
39747
39664
39578
39491
39409
39335
39269
39208
39147
39081
39016
38953
38890
38826
38756
38678
38599
38526
38452
38368
38274
38178
38085
37993
37899
37797
37683
37567
37459
37362
37272
37178
37079
36986
36911
36861
36852
36910
37064
37333
37715
38206
38797
39479
40240
41055
41889
42714
43510
44259
44954
45594
46174
46682
47115
47481
47783
48027
48222
48378
48500
48579
48619
48626
48606
48555
48476
48374
48253
48117
47975
47832
47683
47534
47390
47252
47125
47015
46912
46810
46706
46599
46488
46373
46258
46143
46033
45930
45839
45766
45705
45655
45620
45598
45590
45593
45602
45619
45644
45673
45708
45752
45801
45852
45906
45961
46014
46055
46074
46070
46053
46020
45967
45899
45820
45735
45638
45526
45397
45249
45086
44915
44740
44552
44346
44128
43905
43678
43448
43210
42967
42728
42498
42276
42059
41839
41615
41389
41167
40959
40772
40604
40456
40323
40196
40064
39929
39794
39657
39529
39419
39320
39232
39146
39057
38969
38893
38824
38760
38701
38643
38578
38507
38433
38358
38288
38222
38157
38095
38029
37953
37868
37774
37669
37556
37447
37343
37238
37127
37014
36903
36800
36708
36623
36535
36439
36341
36249
36166
36090
36030
36004
36042
36155
36349
36633
37024
37529
38137
38828
39582
40376
41193
42017
42826
43606
44342
45021
45633
46180
46663
47079
47429
47711
47931
48100
48224
48304
48348
48365
48357
48318
48251
48171
48072
47958
47841
47724
47602
47478
47359
47244
47131
47016
46902
46789
46676
46560
46444
46323
46195
46062
45936
45826
45738
45675
45628
45585
45548
45523
45512
45514
45525
45545
45580
45630
45689
45752
45819
45884
45943
45994
46033
46058
46075
46087
46084
46062
46024
45970
45902
45822
45722
45606
45481
45343
45184
45013
44835
44652
44466
44280
44097
43908
43711
43510
43303
43092
42880
42666
42448
42232
42026
41834
41651
41475
41309
41151
40997
40843
40690
40542
40399
40263
40137
40024
39919
39823
39739
39667
39604
39543
39478
39412
39348
39280
39206
39130
39051
38969
38889
38811
38734
38660
38585
38500
38404
38304
38205
38108
38009
37911
37810
37701
37591
37481
37365
37251
37137
37022
36916
36824
36739
36655
36568
36470
36366
36262
36159
36060
35974
35909
35880
35907
36010
36215
36539
36984
37544
38204
38939
39724
40540
41369
42196
43007
43785
44512
45179
45774
46294
46743
47123
47433
47675
47860
47998
48092
48147
48175
48178
48152
48098
48019
47921
47805
47679
47545
47399
47247
47090
46925
46760
46601
46450
46308
46175
46042
45904
45764
45628
45496
45372
45267
45181
45112
45059
45017
44987
44977
44991
45018
45047
45085
45134
45193
45259
45335
45424
45515
45601
45683
45754
45806
45840
45857
45856
45846
45828
45795
45744
45684
45613
45522
45418
45303
45170
45022
44868
44709
44541
44369
44199
44031
43865
43698
43525
43354
43194
43042
42889
42734
42582
42436
42296
42161
42028
41900
41777
41662
41554
41448
41335
41211
41085
40968
40865
40767
40672
40586
40507
40431
40362
40304
40252
40203
40157
40111
40065
40019
39962
39895
39825
39758
39697
39640
39580
39518
39457
39395
39326
39254
39185
39116
39044
38970
38894
38814
38728
38640
38566
38522
38520
38575
38702
38913
39218
39627
40147
40754
41421
42136
42892
43663
44425
45159
45846
46475
47034
47511
47911
48246
48520
48740
48912
49038
49121
49170
49195
49199
49179
49131
49054
48952
48838
48717
48590
48449
48289
48121
47956
47792
47632
47475
47314
47144
46963
46777
46589
46401
46224
46060
45899
45753
45632
45538
45471
45431
45416
45424
45449
45494
45559
45632
45702
45767
45835
45910
45988
46062
46125
46178
46225
46258
46279
46292
46301
46297
46268
46216
46151
46072
45979
45873
45750
45610
45468
45324
45169
45003
44824
44639
44457
44283
44123
43968
43811
43656
43503
43351
43204
43054
42903
42758
42626
42508
42402
42303
42204
42106
42010
41906
41791
41679
41572
41461
41348
41237
41132
41033
40939
40850
40761
40674
40590
40512
40437
40368
40305
40243
40174
40101
40029
39956
39879
39797
39707
39611
39514
39419
39327
39239
39148
39050
38947
38839
38727
38615
38515
38446
38411
38416
38473
38600
38819
39152
39599
40140
40765
41464
42218
43004
43803
44590
45343
46049
46705
47304
47835
48295
48688
49020
49300
49534
49720
49854
49947
50003
50021
50013
49983
49926
49851
49769
49678
49578
49477
49374
49259
49132
49006
48886
48767
48639
48504
48373
48250
48123
47987
47851
47712
47572
47435
47307
47199
47106
47027
46972
46937
46914
46902
46901
46908
46922
46947
46982
47025
47077
47140
47212
47283
47354
47425
47480
47514
47537
47557
47568
47559
47530
47485
47422
47342
47240
47115
46975
46827
46676
46523
46359
46189
46021
45852
45677
45500
45332
45174
45011
44842
44669
44500
44338
44176
44011
43848
43692
43542
43399
43263
43131
42996
42861
42731
42608
42492
42391
42308
42234
42160
42078
41985
41891
41807
41727
41639
41540
41428
41314
41211
41122
41043
40965
40886
40808
40733
40659
40590
40525
40467
40419
40375
40328
40273
40199
40111
40025
39947
39872
39796
39717
39635
39552
39481
39431
39413
39446
39540
39711
39988
40385
40891
41494
42177
42912
43683
44478
45281
46067
46819
47528
48182
48773
49301
49765
50163
50491
50751
50953
51113
51244
51338
51387
51398
51384
51347
51289
51215
51132
51046
50965
50887
50808
50720
50624
50526
50436
50358
50285
50204
50110
50007
49903
49801
49690
49568
49446
49328
49213
49104
49008
48925
48855
48798
48757
48730
48710
48698
48699
48717
48751
48792
48834
48877
48916
48947
48968
48983
48990
48989
48975
48944
48900
48850
48793
48726
48652
48566
48464
48350
48224
48089
47942
47786
47626
47469
47312
47156
47002
46848
46692
46530
46368
46213
46058
45896
45732
45571
45412
45254
45099
44944
44789
44640
44495
44349
44202
44061
43932
43807
43685
43570
43458
43345
43242
43152
43072
42998
42923
42845
42767
42691
42614
42536
42456
42375
42295
42220
42144
42065
41985
41904
41829
41757
41674
41580
41478
41372
41264
41152
41036
40917
40788
40654
40523
40392
40259
40129
39999
39868
39748
39650
39583
39561
39607
39745
39995
40365
40850
41431
42093
42822
43606
44420
45240
46044
46820
47557
48239
48859
49413
49900
50313
50652
50924
51139
51306
51427
51502
51539
51542
51511
51458
51389
51297
51183
51056
50924
50793
50673
50558
50441
50322
50205
50090
49972
49852
49728
49591
49440
49281
49118
48955
48796
48647
48511
48393
48293
48201
48118
48049
47994
47948
47914
47892
47875
47861
47853
47860
47886
47931
47988
48045
48087
48114
48133
48145
48141
48119
48077
48018
47948
47871
47779
47672
47553
47423
47280
47125
46959
46787
46613
46437
46256
46065
45871
45678
45484
45290
45098
44911
44736
44571
44412
44254
44093
43928
43760
43589
43418
43251
43084
42910
42725
42536
42351
42176
42009
41849
41702
41569
41447
41330
41219
41115
41013
40911
40809
40708
40609
40507
40406
40309
40216
40128
40044
39957
39860
39755
39643
39527
39410
39293
39177
39063
38959
38864
38776
38691
38608
38522
38422
38313
38203
38098
38001
37922
37877
37890
37970
38135
38406
38787
39273
39856
40515
41223
41953
42688
43416
44133
44832
45501
46132
46722
47258
47728
48132
48472
48748
48960
49111
49204
49243
49232
49175
49079
48949
48797
48634
48466
48296
48122
47943
47762
47587
47419
47259
47108
46961
46816
46675
46532
46383
46233
46091
45959
45841
45739
45647
45560
45485
45433
45405
45396
45401
45416
45437
45466
45508
45573
45660
45762
45877
45997
46108
46204
46283
46348
46398
46432
46453
46455
46435
46392
46331
46263
46188
46097
45985
45857
45706
45531
45346
45160
44973
44784
44594
44400
44206
44013
43823
43640
43464
43292
43121
42954
42795
42646
42503
42365
42234
42110
41993
41879
41767
41657
41555
41469
41400
41339
41276
41203
41122
41037
40949
40857
40770
40694
40627
40569
40517
40464
40404
40340
40271
40199
40130
40061
39990
39915
39834
39755
39681
39607
39531
39452
39366
39279
39195
39116
39049
39003
39004
39081
39255
39532
39913
40396
40967
41608
42306
43043
43801
44567
45330
46071
46779
47440
48036
48563
49029
49433
49772
50052
50273
50435
50542
50600
50609
50579
50521
50441
50339
50210
50057
49887
49706
49521
49342
49172
49013
48860
48710
48560
48404
48236
48055
47865
47667
47472
47288
47118
46963
46825
46701
46594
46511
46444
46383
46328
46284
46257
46252
46268
46296
46329
46361
46397
46437
46479
46521
46566
46613
46652
46676
46689
46693
46682
46650
46599
46528
46433
46318
46195
46060
45909
45748
45588
45426
45248
45060
44875
44697
44521
44348
44178
44001
43824
43654
43484
43313
43152
43009
42880
42756
42632
42511
42391
42266
42140
42019
41903
41790
41680
41578
41487
41399
41308
41220
41134
41051
40975
40912
40864
40822
40777
40726
40670
40608
40538
40465
40389
40306
40220
40136
40051
39966
39889
39808
39725
39645
39572
39502
39425
39335
39241
39151
39062
38970
38894
38851
38861
38945
39129
39434
39863
40403
41038
41747
42513
43314
44131
44949
45752
46521
47240
47905
48520
49076
49558
49963
50300
50579
50808
50984
51109
51186
51218
51210
51172
51107
51022
50931
50836
50731
50619
50508
50400
50282
50165
50060
49965
49868
49764
49655
49545
49430
49310
49175
49017
48849
48686
48529
48380
48240
48102
47971
47862
47784
47734
47697
47675
47681
47705
47729
47753
47784
47823
47865
47905
47937
47963
47982
47998
48009
48007
47988
47956
47913
47858
47792
47722
47646
47555
47444
47315
47173
47025
46868
46701
46526
46337
46133
45925
45724
45527
45331
45141
44953
44766
44583
44406
44231
44055
43880
43704
43527
43356
43194
43046
42911
42779
42648
42525
42411
42305
42208
42118
42025
41925
41823
41717
41610
41509
41418
41329
41237
41144
41055
40972
40891
40808
40726
40645
40564
40474
40383
40292
40192
40084
39977
39873
39769
39663
39558
39460
39366
39274
39174
39066
38958
38857
38780
38749
38793
38930
39176
39542
40026
40609
41275
42004
42777
43585
44406
45211
45981
46710
47391
48009
48560
49047
49468
49823
50114
50337
50494
50591
50639
50659
50651
50607
50538
50454
50349
50224
50084
49926
49760
49596
49434
49276
49121
48964
48805
48645
48475
48297
48116
47928
47725
47516
47324
47149
46980
46813
46655
46522
46419
46340
46280
46231
46198
46186
46186
46185
46186
46200
46231
46276
46327
46375
46421
46464
46492
46507
46519
46524
46520
46501
46459
46396
46320
46231
46134
46023
45887
45729
45561
45388
45202
44998
44788
44582
44377
44177
43991
43814
43639
43463
43283
43102
42923
42741
42559
42388
42233
42090
41946
41800
41657
41519
41389
41268
41147
41022
40898
40776
40665
40571
40485
40402
40325
40252
40171
40082
39993
39909
39832
39764
39706
39655
39591
39513
39440
39373
39311
39258
39207
39150
39086
39026
38964
38891
38812
38737
38668
38596
38516
38426
38336
38255
38177
38098
38018
37930
37837
37757
37706
37697
37750
37889
38128
38485
38971
39574
40269
41026
41823
42635
43450
44258
45044
45794
46501
47153
47732
48226
48637
48977
49260
49486
49652
49767
49841
49878
49876
49837
49766
49673
49560
49419
49251
49066
48865
48652
48439
48232
48027
47826
47632
47440
47248
47056
46864
46670
46474
46276
46074
45882
45710
45564
45442
45339
45252
45177
45117
45077
45059
45057
45064
45083
45119
45177
45250
45325
45400
45472
45539
45607
45668
45719
45762
45785
45792
45790
45776
45743
45692
45626
45540
45430
45298
45157
45014
44868
44709
44544
44378
44214
44047
43876
43708
43530
43341
43155
42982
42822
42666
42519
42388
42263
42133
42004
41879
41762
41655
41555
41458
41366
41280
41198
41109
41014
40920
40829
40737
40650
40569
40492
40414
40339
40274
40214
40157
40104
40049
39990
39925
39855
39794
39743
39695
39646
39588
39515
39431
39348
39268
39180
39082
38980
38879
38783
38695
38610
38525
38443
38370
38321
38309
38351
38471
38689
39013
39447
39984
40601
41280
42008
42772
43562
44362
45138
45863
46533
47142
47685
48163
48585
48950
49240
49465
49641
49771
49856
49893
49882
49832
49760
49671
49565
49436
49290
49130
48957
48765
48550
48330
48109
47883
47662
47454
47245
47024
46796
46565
46328
46092
45866
45658
45468
45295
45145
45025
44935
44871
44829
44806
44799
44807
44834
44883
44948
45024
45106
45190
45277
45361
45439
45509
45564
45603
45622
45622
45606
45578
45537
45490
45437
45365
45271
45165
45045
44909
44767
44628
44488
44337
44177
44012
43837
43645
43449
43257
43069
42886
42712
42551
42402
42260
42121
41990
41862
41731
41597
41465
41337
41217
41101
40988
40881
40782
40683
40582
40477
40376
40285
40201
40119
40045
39983
39923
39863
39802
39735
39663
39589
39512
39436
39368
39307
39243
39174
39106
39046
38991
38938
38878
38810
38734
38657
38575
38479
38372
38265
38159
38049
37938
37836
37758
37711
37701
37755
37895
38129
38462
38905
39457
40099
40813
41582
42389
43215
44029
44813
45566
46276
46928
47515
48030
48473
48845
49152
49406
49612
49768
49874
49935
49957
49941
49886
49790
49661
49501
49315
49114
48899
48667
48427
48187
47942
47687
47427
47172
46930
46697
46464
46233
46012
45799
45596
45399
45209
45037
44889
44767
44670
44592
44528
44481
44453
44439
44442
44467
44509
44564
44630
44700
44771
44844
44913
44965
45001
45032
45067
45099
45123
45128
45110
45073
45019
44946
44860
44761
44652
44539
44424
44302
44170
44030
43887
43739
43587
43440
43295
43145
42991
42834
42679
42532
42392
42255
42115
41979
41848
41718
41598
41491
41382
41264
41147
41037
40932
40824
40716
40617
40532
40448
40361
40274
40181
40086
40003
39936
39877
39822
39769
39712
39644
39580
39532
39499
39468
39437
39406
39365
39308
39243
39178
39105
39017
38914
38809
38706
38607
38516
38433
38357
38284
38221
38173
38137
38118
38148
38253
38444
38731
39123
39615
40193
40832
41518
42241
42984
43736
44492
45233
45937
46601
47215
47761
48240
48652
48993
49265
49475
49634
49746
49810
49828
49807
49749
49665
49558
49427
49280
49116
48937
48759
48581
48389
48183
47978
47778
47585
47404
47232
47060
46877
46693
46516
46341
46172
46012
45863
45734
45626
45532
45447
45379
45326
45279
45248
45239
45236
45237
45259
45302
45365
45440
45514
45584
45647
45704
45747
45769
45772
45762
45736
45692
45631
45562
45483
45389
45280
45159
45018
44857
44690
44526
44372
44223
44067
43902
43727
43547
43377
43217
43052
42885
42723
42562
42402
42250
42116
41996
41873
41743
41614
41484
41359
41243
41131
41016
40899
40782
40667
40561
40470
40388
40312
40239
40165
40093
40028
39971
39917
39862
39806
39745
39677
39608
39536
39457
39378
39305
39234
39160
39078
38991
38907
38830
38764
38705
38642
38574
38503
38427
38341
38254
38175
38118
38102
38134
38223
38390
38663
39051
39546
40137
40814
41547
42308
43082
43860
44634
45396
46121
46785
47377
47905
48375
48784
49131
49414
49636
49792
49885
49933
49953
49941
49885
49786
49650
49486
49303
49121
48933
48731
48525
48312
48093
47885
47686
47487
47288
47092
46895
46692
46490
46289
46083
45888
45716
45561
45417
45296
45209
45150
45111
45089
45074
45071
45094
45147
45219
45300
45391
45487
45579
45660
45723
45766
45795
45814
45822
45823
45821
45813
45786
45735
45661
45568
45463
45352
45230
45095
44942
44780
44611
44436
44267
44107
43943
43779
43620
43461
43302
43142
42981
42818
42656
42504
42358
42208
42061
41918
41786
41669
41557
41442
41331
41232
41147
41075
41010
40945
40876
40802
40728
40657
40588
40519
40449
40386
40326
40260
40196
40141
40084
40014
39939
39873
39815
39757
39693
39624
39555
39490
39417
39332
39238
39142
39053
38969
38888
38810
38742
38698
38690
38742
38876
39099
39424
39860
40396
41007
41668
42359
43066
43784
44510
45236
45946
46621
47244
47807
48300
48721
49072
49351
49559
49704
49803
49864
49885
49866
49814
49738
49640
49519
49377
49206
49002
48767
48514
48249
47973
47691
47407
47118
46822
46524
46226
45926
45638
45370
45121
44898
44699
44521
44368
44243
44145
44074
44037
44036
44075
44148
44238
44326
44414
44508
44605
44701
44798
44902
45008
45105
45190
45254
45291
45299
45285
45258
45219
45158
45077
44987
44885
44776
44666
44554
44432
44293
44145
44000
43850
43694
43537
43378
43219
43065
42906
42747
42600
42467
42344
42218
42085
41942
41801
41679
41573
41471
41368
41267
41171
41083
41007
40940
40871
40790
40700
40612
40530
40454
40382
40310
40235
40165
40107
40053
40001
39950
39891
39819
39744
39675
39605
39534
39466
39401
39337
39263
39178
39093
39018
38951
38896
38866
38879
38947
39089
39324
39657
40094
40626
41232
41895
42600
43328
44060
44787
45500
46188
46833
47425
47960
48434
48846
49195
49484
49718
49897
50029
50120
50176
50199
50181
50125
50037
49924
49785
49623
49451
49275
49094
48903
48703
48499
48296
48100
47917
47740
47549
47344
47139
46945
46766
46601
46455
46326
46204
46092
45993
45910
45847
45802
45770
45751
45753
45778
45816
45862
45907
45951
45997
46044
46089
46143
46200
46246
46278
46291
46279
46248
46207
46152
46079
45992
45895
45795
45694
45592
45484
45368
45242
45101
44946
44786
44625
44462
44296
44125
43952
43782
43617
43458
43302
43154
43013
42886
42781
42685
42588
42497
42407
42319
42241
42171
42097
42016
41930
41843
41759
41673
41587
41504
41427
41354
41287
41230
41176
41112
41047
40992
40931
40856
40780
40711
40644
40575
40511
40453
40391
40314
40222
40126
40039
39960
39885
39813
39740
39676
39641
39648
39720
39884
40152
40517
40977
41528
42156
42841
43564
44303
45042
45778
46498
47185
47821
48392
48896
49340
49718
50020
50256
50439
50578
50677
50731
50742
50724
50679
50607
50506
50375
50230
50082
49926
49765
49604
49444
49290
49147
49005
48858
48707
48549
48379
48198
48017
47837
47651
47467
47296
47145
47017
46910
46819
46742
46680
46641
46619
46602
46584
46567
46557
46563
46584
46621
46673
46730
46786
46840
46884
46912
46928
46929
46910
46872
46811
46728
46630
46524
46411
46297
46182
46055
45917
45783
45645
45490
45326
45160
44990
44818
44658
44507
44355
44198
44040
43883
43731
43584
43439
43297
43154
43014
42881
42754
42633
42516
42405
42303
42200
42089
41977
41867
41761
41665
41572
41474
41379
41296
41224
41162
41106
41048
40982
40909
40827
40740
40657
40575
40496
40427
40366
40303
40235
40163
40084
40000
39912
39824
39739
39656
39573
39486
39397
39308
39229
39167
39123
39115
39180
39335
39584
39930
40375
40921
41552
42238
42952
43683
44423
45161
45892
46608
47286
47911
48474
48961
49370
49710
49983
50197
50355
50456
50506
50516
50492
50438
50355
50239
50100
49951
49787
49604
49410
49215
49020
48823
48628
48439
48252
48064
47869
47662
47454
47252
47059
46880
46714
46561
46423
46305
46207
46124
46061
46017
45988
45970
45963
45971
45995
46027
46067
46116
46173
46239
46308
46380
46453
46512
46556
46583
46592
46588
46569
46524
46452
46353
46237
46110
45973
45834
45700
45564
45413
45247
45079
44912
44735
44549
44363
44187
44017
43846
43684
43527
43370
43215
43064
42916
42772
42634
42500
42371
42250
42137
42029
41919
41813
41712
41612
41514
41420
41333
41258
41184
41103
41021
40943
40861
40780
40710
40649
40590
40535
40483
40433
40384
40327
40252
40173
40098
40018
39934
39851
39767
39676
39576
39469
39360
39256
39158
39065
38974
38887
38811
38762
38764
38844
39015
39286
39670
40168
40763
41428
42131
42855
43598
44349
45088
45798
46467
47088
47649
48140
48567
48944
49268
49526
49715
49845
49928
49971
49979
49951
49884
49789
49675
49540
49379
49202
49017
48823
48619
48410
48198
47982
47768
47551
47324
47091
46862
46638
46419
46208
46014
45838
45676
45533
45414
45322
45257
45214
45184
45158
45142
45150
45186
45240
45302
45373
45460
45549
45625
45689
45748
45799
45837
45865
45887
45894
45878
45843
45797
45739
45658
45556
45441
45312
45173
45032
44890
44741
44588
44433
44273
44113
43948
43768
43580
43402
43232
43059
42882
42711
42548
42393
42247
42105
41970
41847
41729
41610
41498
41401
41316
41236
41157
41081
41008
40938
40869
40794
40706
40609
40512
40428
40362
40305
40243
40178
40117
40059
40000
39938
39869
39793
39714
39633
39545
39460
39382
39308
39237
39170
39109
39052
39000
38964
38964
39024
39156
39371
39687
40105
40619
41216
41886
42610
43368
44140
44910
45663
46380
47050
47666
48224
48720
49148
49508
49804
50039
50223
50366
50468
50524
50528
50491
50428
50338
50218
50070
49898
49707
49513
49323
49136
48956
48781
48611
48440
48265
48090
47914
47728
47528
47323
47117
46910
46717
46543
46386
46253
46144
46052
45973
45916
45886
45879
45883
45894
45916
45952
45993
46041
46102
46164
46221
46268
46305
46339
46368
46384
46389
46387
46375
46348
46310
46261
46192
46091
45965
45832
45696
45552
45397
45235
45063
44884
44702
44524
44351
44180
44014
43850
43691
43533
43367
43194
43024
42863
42712
42568
42424
42280
42139
42001
41866
41744
41637
41543
41454
41370
41291
41214
41136
41061
40988
40917
40852
40794
40740
40685
40632
40574
40512
40447
40375
40297
40222
40151
40081
40015
39955
39891
39812
39728
39649
39567
39480
39395
39309
39217
39119
39032
38959
38905
38887
38925
39036
39245
39574
40027
40590
41246
41979
42758
43551
44336
45105
45859
46588
47264
47876
48429
48922
49348
49703
49982
50189
50343
50458
50541
50597
50622
50607
50558
50487
50399
50287
50149
49995
49830
49658
49489
49322
49154
48987
48815
48632
48444
48258
48072
47883
47699
47521
47344
47175
47018
46870
46734
46617
46515
46432
46365
46307
46268
46255
46260
46281
46322
46371
46409
46438
46474
46516
46561
46607
46640
46650
46648
46641
46629
46602
46547
46463
46359
46248
46129
45997
45854
45706
45559
45410
45262
45104
44925
44741
44567
44397
44228
44062
43896
43728
43562
43403
43249
43094
42938
42785
42642
42511
42390
42269
42139
42009
41885
41772
41672
41580
41482
41379
41282
41195
41116
41037
40954
40871
40785
40690
40591
40496
40412
40339
40266
40190
40112
40034
39960
39895
39832
39765
39691
39618
39553
39490
39413
39324
39234
39144
39053
38960
38867
38774
38685
38603
38536
38493
38486
38531
38646
38851
39153
39558
40070
40679
41368
42110
42885
43671
44443
45192
45908
46580
47205
47772
48266
48689
49046
49335
49567
49751
49882
49962
50003
50010
49982
49924
49842
49729
49578
49402
49223
49039
48845
48650
48454
48256
48068
47890
47715
47538
47360
47182
47000
46810
46610
46412
46232
46072
45922
45785
45665
45567
45500
45460
45438
45425
45424
45436
45459
45490
45536
45596
45657
45716
45772
45819
45861
45904
45934
45940
45931
45911
45877
45823
45751
45665
45571
45473
45367
45253
45132
44996
44854
44713
44564
44392
44204
44018
43840
43667
43498
43336
43177
43021
42865
42703
42541
42379
42217
42060
41906
41754
41621
41505
41400
41297
41192
41086
40979
40871
40769
40682
40609
40548
40489
40417
40326
40221
40113
40019
39948
39892
39840
39788
39733
39664
39582
39506
39437
39376
39321
39265
39202
39129
39045
38946
38838
38725
38611
38504
38398
38295
38200
38107
38008
37918
37853
37823
37831
37887
38014
38236
38562
39006
39569
40227
40952
41716
42498
43283
44053
44797
45508
46172
46780
47325
47803
48210
48555
48848
49087
49260
49373
49443
49474
49465
49415
49333
49221
49075
48893
48691
48482
48270
48059
47851
47639
47420
47188
46948
46714
46485
46254
46033
45821
45612
45412
45227
45061
44919
44789
44662
44542
44446
44379
44340
44323
44324
44339
44369
44417
44477
44541
44611
44686
44752
44802
44842
44874
44888
44892
44895
44883
44850
44803
44743
44671
44589
44494
44383
44257
44117
43969
43809
43642
43473
43301
43128
42958
42793
42625
42455
42279
42099
41924
41753
41577
41408
41254
41108
40961
40819
40694
40587
40484
40374
40262
40152
40039
39925
39813
39715
39634
39565
39503
39444
39386
39334
39279
39209
39127
39049
38985
38922
38852
38784
38716
38647
38586
38540
38498
38447
38384
38321
38262
38201
38130
38049
37959
37858
37748
37645
37560
37497
37466
37473
37519
37627
37829
38134
38544
39059
39668
40350
41080
41835
42603
43367
44105
44803
45457
46065
46630
47145
47597
47979
48287
48519
48685
48796
48853
48853
48800
48713
48601
48461
48293
48102
47892
47668
47443
47226
47010
46783
46542
46294
46052
45815
45575
45329
45079
44836
44607
44393
44193
44019
43875
43746
43636
43553
43496
43457
43428
43418
43429
43462
43517
43592
43680
43768
43858
43949
44042
44131
44209
44267
44300
44311
44302
44286
44267
44236
44186
44121
44045
43949
43831
43700
43554
43385
43203
43024
42850
42679
42504
42330
42168
42018
41875
41737
41596
41453
41321
41204
41093
40986
40885
40792
40704
40621
40538
40455
40371
40287
40204
40118
40021
39918
39815
39715
39625
39544
39465
39387
39314
39248
39187
39129
39071
39016
38960
38898
38826
38754
38675
38576
38471
38367
38264
38172
38095
38016
37924
37827
37738
37666
37609
37563
37540
37562
37655
37840
38126
38515
39006
39594
40268
41007
41776
42543
43299
44038
44745
45414
46045
46630
47148
47592
47965
48273
48518
48700
48823
48893
48917
48900
48845
48754
48624
48464
48284
48082
47861
47638
47417
47192
46970
46752
46536
46326
46117
45905
45691
45474
45255
45042
44843
44662
44505
44372
44253
44153
44079
44031
44003
43986
43981
44000
44047
44117
44202
44290
44379
44469
44558
44644
44723
44789
44834
44858
44866
44862
44844
44822
44796
44757
44697
44623
44532
44413
44276
44135
43996
43855
43701
43536
43359
43170
42971
42776
42592
42415
42243
42076
41920
41775
41641
41527
41426
41321
41207
41096
40986
40870
40752
40633
40522
40427
40349
40286
40227
40164
40096
40029
39970
39913
39846
39771
39708
39661
39617
39574
39530
39481
39434
39396
39359
39310
39251
39193
39138
39092
39044
38983
38909
38828
38747
38661
38568
38471
38370
38272
38186
38117
38061
38016
37996
38031
38135
38324
38619
39031
39555
40173
40866
41608
42373
43148
43923
44681
45401
46070
46688
47248
47742
48163
48518
48816
49058
49241
49371
49460
49507
49517
49498
49439
49339
49209
49057
48885
48700
48506
48306
48099
47889
47687
47504
47342
47194
47055
46913
46761
46600
46430
46248
46064
45884
45704
45538
45396
45269
45160
45075
45018
44982
44957
44946
44952
44971
44994
45027
45070
45118
45169
45230
45287
45326
45352
45367
45367
45351
45319
45276
45221
45155
45078
44982
44867
44743
44609
44466
44320
44181
44043
43894
43739
43587
43437
43280
43119
42954
42785
42609
42427
42253
42098
41961
41827
41697
41578
41465
41359
41259
41158
41050
40945
40841
40742
40653
40566
40478
40394
40313
40230
40148
40077
40019
39964
39902
39830
39754
39679
39611
39555
39501
39445
39386
39320
39255
39203
39157
39110
39061
39005
38942
38873
38795
38711
38618
38513
38403
38293
38186
38091
38008
37933
37879
37861
37889
37984
38165
38445
38823
39296
39864
40512
41211
41932
42650
43357
44042
44694
45311
45881
46388
46838
47243
47596
47890
48126
48302
48424
48504
48543
48534
48477
48384
48265
48131
47978
47807
47625
47441
47255
47065
46885
46723
46570
46423
46276
46126
45975
45820
45654
45479
45303
45127
44958
44797
44648
44524
44429
44363
44320
44286
44260
44245
44245
44261
44292
44334
44386
44444
44498
44545
44588
44627
44655
44668
44665
44651
44632
44603
44557
44506
44451
44380
44295
44201
44099
43985
43858
43719
43576
43426
43258
43081
42906
42732
42565
42404
42246
42091
41945
41811
41684
41559
41433
41308
41181
41049
40921
40805
40696
40598
40509
40421
40335
40253
40174
40097
40026
39957
39885
39816
39750
39686
39625
39560
39487
39407
39329
39260
39198
39140
39086
39034
38977
38919
38860
38792
38719
38654
38589
38519
38444
38362
38274
38184
38092
38001
37907
37811
37726
37648
37572
37502
37451
37439
37490
37618
37828
38129
38529
39030
39620
40284
40992
41718
42449
43170
43868
44526
45136
45702
46215
46666
47055
47385
47663
47890
48064
48181
48239
48245
48209
48140
48039
47912
47763
47598
47419
47224
47015
46805
46597
46390
46186
45995
45815
45640
45464
45284
45101
44920
44753
44606
44470
44333
44200
44086
44000
43944
43908
43884
43867
43856
43854
43866
43889
43931
43998
44082
44172
44266
44360
44441
44500
44541
44569
44585
44588
44583
44572
44548
44513
44469
44416
44349
44254
44140
44020
43890
43746
43598
43451
43303
43151
42993
42838
42687
42538
42387
42232
42076
41920
41767
41619
41477
41340
41206
41083
40975
40884
40803
40723
40647
40571
40489
40403
40315
40233
40153
40065
39974
39896
39829
39759
39691
39633
39579
39530
39483
39430
39372
39317
39265
39214
39159
39100
39039
38970
38887
38798
38708
38616
38522
38434
38351
38266
38176
38084
38002
37940
37914
37945
38049
38232
38505
38882
39358
39923
40565
41260
41987
42730
43467
44179
44859
45501
46095
46626
47091
47491
47822
48087
48294
48444
48537
48581
48580
48537
48467
48375
48260
48121
47962
47794
47614
47415
47202
46984
46765
46552
46348
46143
45931
45716
45498
45288
45096
44915
44736
44563
44405
44268
44153
44060
43988
43936
43901
43879
43866
43864
43876
43904
43946
44005
44083
44177
44273
44360
44439
44508
44561
44600
44625
44636
44635
44619
44583
44532
44464
44379
44278
44163
44034
43898
43761
43619
43474
43326
43173
43019
42865
42712
42560
42403
42235
42058
41886
41721
41556
41396
41249
41114
40987
40864
40744
40634
40532
40433
40347
40272
40198
40122
40047
39973
39900
39832
39768
39702
39633
39561
39490
39420
39350
39275
39202
39142
39090
39042
38998
38949
38894
38838
38776
38703
38624
38547
38470
38388
38299
38200
38100
38007
37923
37861
37831
37838
37889
38003
38201
38498
38911
39440
40062
40753
41487
42240
42995
43740
44462
45146
45789
46388
46930
47401
47804
48140
48409
48617
48768
48871
48936
48964
48952
48899
48814
48707
48584
48444
48289
48123
47949
47770
47588
47413
47249
47094
46944
46794
46643
46489
46325
46148
45967
45790
45627
45483
45353
45237
45130
45032
44950
44887
44841
44818
44810
44818
44843
44884
44939
44999
45052
45102
45156
45210
45254
45290
45330
45369
45395
45398
45377
45334
45265
45181
45086
44981
44866
44737
44600
44465
44331
44194
44055
43918
43780
43634
43480
43323
43170
43021
42876
42739
42604
42476
42357
42234
42103
41968
41838
41720
41609
41500
41394
41289
41191
41105
41023
40942
40863
40794
40736
40682
40628
40572
40516
40459
40399
40336
40277
40224
40175
40127
40075
40014
39947
39878
39813
39752
39688
39615
39532
39442
39352
39261
39165
39065
38959
38864
38781
38696
38614
38541
38470
38417
38409
38455
38568
38767
39068
39483
40006
40620
41303
42027
42772
43526
44277
45017
45731
46406
47027
47580
48063
48481
48838
49133
49367
49539
49662
49747
49791
49797
49771
49723
49655
49572
49476
49363
49231
49088
48943
48795
48646
48505
48377
48259
48148
48036
47919
47794
47659
47515
47367
47225
47087
46949
46824
46717
46624
46543
46479
46423
46369
46330
46304
46291
46298
46317
46334
46349
46371
46402
46441
46480
46504
46519
46532
46541
46539
46521
46487
46445
46396
46334
46252
46141
46007
45863
45716
45572
45434
45297
45154
44995
44824
44653
44489
44336
44193
44054
43914
43776
43637
43497
43359
43220
43067
42902
42747
42606
42480
42367
42261
42161
42070
41979
41883
41788
41696
41611
41537
41468
41400
41334
41272
41215
41161
41107
41055
41007
40962
40913
40854
40790
40726
40657
40582
40505
40428
40355
40283
40208
40132
40059
39986
39912
39832
39741
39645
39551
39456
39353
39248
39149
39062
39000
38975
39004
39110
39314
39622
40031
40533
41111
41756
42454
43179
43907
44631
45348
46044
46702
47309
47850
48316
48711
49043
49317
49539
49710
49831
49910
49946
49941
49905
49844
49761
49661
49547
49418
49277
49128
48969
48799
48625
48458
48301
48148
47988
47820
47652
47487
47325
47166
47009
46855
46704
46564
46434
46310
46192
46083
45986
45900
45824
45760
45717
45699
45701
45714
45732
45746
45757
45776
45811
45852
45891
45924
45940
45934
45911
45876
45825
45758
45676
45586
45495
45397
45285
45164
45038
44901
44751
44583
44399
44206
44017
43836
43665
43499
43331
43173
43024
42873
42726
42589
42451
42311
42170
42021
41869
41727
41597
41471
41347
41229
41116
41009
40905
40801
40704
40615
40532
40457
40391
40327
40261
40194
40130
40064
39992
39923
39860
39799
39732
39657
39579
39501
39431
39373
39323
39275
39220
39157
39087
39010
38929
38853
38778
38696
38604
38515
38429
38341
38255
38169
38082
38000
37936
37900
37903
37958
38092
38335
38704
39185
39759
40413
41128
41880
42652
43428
44183
44901
45581
46217
46799
47320
47781
48182
48517
48779
48971
49107
49196
49240
49241
49199
49120
49011
48883
48733
48563
48384
48200
48013
47822
47632
47452
47275
47096
46914
46724
46517
46304
46092
45888
45692
45500
45322
45162
45018
44885
44768
44678
44614
44572
44554
44555
44569
44598
44644
44701
44767
44831
44887
44941
44991
45028
45055
45077
45089
45089
45084
45071
45038
44978
44899
44808
44702
44576
44437
44301
44165
44029
43897
43772
43648
43522
43391
43255
43110
42951
42795
42642
42490
42335
42179
42025
41871
41718
41571
41430
41293
41159
41036
40927
40830
40745
40666
40592
40528
40469
40412
40354
40293
40234
40178
40113
40037
39956
39878
39805
39738
39673
39606
39536
39466
39404
39351
39299
39249
39204
39158
39103
39039
38972
38901
38825
38744
38655
38555
38445
38338
38244
38157
38070
37988
37924
37892
37910
37999
38178
38459
38846
39333
39913
40574
41293
42043
42806
43571
44329
45068
45764
46394
46949
47436
47863
48224
48518
48756
48942
49074
49159
49213
49237
49220
49164
49077
48964
48818
48638
48436
48227
48021
47818
47611
47394
47165
46925
46684
46443
46200
45953
45703
45457
45223
45009
44818
44647
44493
44357
44242
44151
44080
44033
44017
44029
44065
44119
44193
44279
44363
44449
44538
44621
44702
44786
44865
44932
44981
45009
45011
44990
44951
44903
44849
44781
44694
44597
44490
44367
44223
44065
43907
43749
43584
43409
43225
43034
42849
42678
42517
42360
42205
42044
41878
41717
41564
41418
41275
41137
41010
40895
40780
40664
40552
40447
40345
40243
40145
40055
39974
39903
39840
39776
39707
39640
39573
39505
39441
39379
39315
39243
39173
39115
39060
39001
38938
38871
38795
38719
38656
38604
38558
38507
38438
38356
38276
38197
38113
38021
37924
37830
37744
37667
37601
37565
37572
37629
37757
37988
38337
38806
39384
40045
40767
41544
42354
43165
43964
44743
45484
46164
46772
47304
47757
48133
48446
48707
48915
49073
49182
49244
49261
49239
49190
49121
49028
48912
48776
48621
48453
48277
48091
47890
47682
47474
47269
47072
46877
46679
46477
46279
46084
45882
45677
45485
45313
45157
45013
44880
44766
44677
44610
44560
44521
44500
44505
44534
44589
44660
44737
44813
44884
44950
45013
45078
45146
45210
45256
45277
45278
45263
45232
45178
45095
44990
44879
44771
44664
44546
44419
44276
44116
43954
43793
43621
43438
43255
43069
42877
42699
42535
42372
42209
42056
41912
41777
41655
41542
41437
41333
41225
41115
41007
40907
40812
40717
40620
40522
40429
40338
40249
40167
40084
39993
39898
39805
39716
39635
39562
39491
39423
39359
39300
39248
39201
39149
39088
39027
38967
38905
38838
38766
38690
38610
38526
38442
38358
38273
38188
38106
38026
37943
37857
37769
37682
37599
37524
37473
37459
37498
37614
37821
38130
38558
39102
39745
40466
41249
42072
42913
43753
44571
45344
46055
46699
47274
47777
48215
48586
48885
49116
49290
49414
49501
49553
49571
49559
49519
49456
49377
49277
49148
48990
48815
48635
48457
48288
48121
47943
47756
47570
47383
47190
46998
46815
46641
46473
46303
46132
45969
45821
45688
45571
45472
45390
45325
45277
45244
45228
45235
45259
45297
45344
45395
45448
45504
45554
45591
45625
45654
45666
45659
45640
45613
45575
45525
45464
45391
45301
45193
45070
44935
44793
44649
44498
44335
44158
43974
43796
43629
43473
43316
43154
42998
42842
42675
42500
42323
42147
41980
41825
41678
41537
41405
41283
41176
41083
40998
40912
40828
40749
40672
40598
40521
40439
40351
40260
40169
40076
39987
39911
39845
39783
39721
39661
39599
39528
39451
39378
39307
39237
39176
39121
39060
38988
38916
38846
38777
38710
38632
38546
38467
38391
38302
38205
38111
38022
37932
37834
37742
37659
37580
37518
37484
37497
37579
37746
38020
38412
38913
39510
40193
40943
41735
42543
43352
44151
44923
45653
46329
46937
47471
47924
48303
48619
48877
49083
49236
49327
49364
49361
49317
49233
49121
48987
48835
48672
48502
48328
48146
47958
47772
47589
47406
47230
47063
46898
46729
46546
46353
46160
45968
45777
45591
45424
45278
45153
45046
44950
44870
44802
44738
44684
44648
44632
44636
44665
44715
44781
44858
44934
45004
45073
45141
45197
45241
45267
45269
45247
45206
45154
45095
45025
44942
44843
44730
44607
44479
44344
44198
44043
43885
43718
43537
43353
43170
42985
42806
42632
42460
42296
42139
41981
41829
41679
41526
41376
41229
41080
40928
40777
40638
40512
40392
40284
40191
40112
40035
39955
39868
39777
39696
39626
39557
39483
39402
39310
39222
39145
39073
39007
38950
38899
38857
38814
38764
38715
38662
38606
38548
38482
38409
38331
38255
38183
38107
38024
37934
37845
37766
37689
37602
37508
37408
37303
37205
37124
37069
37044
37062
37141
37299
37556
37934
38432
39027
39703
40447
41235
42028
42808
43569
44301
44993
45632
46209
46723
47167
47546
47857
48104
48298
48443
48531
48567
48560
48505
48410
48291
48158
48012
47849
47665
47466
47255
47035
46812
46584
46358
46145
45943
45744
45548
45351
45146
44931
44713
44510
44327
44156
43998
43861
43749
43663
43603
43562
43543
43544
43565
43606
43662
43724
43785
43843
43905
43974
44049
44120
44181
44228
44255
44268
44275
44272
44247
44195
44117
44023
43932
43841
43739
43628
43504
43363
43215
43059
42892
42719
42544
42372
42212
42065
41919
41765
41609
41450
41291
41134
40978
40824
40681
40546
40419
40301
40186
40074
39966
39851
39724
39597
39480
39380
39292
39207
39121
39044
38968
38883
38797
38720
38654
38593
38538
38479
38408
38336
38274
38222
38178
38129
38078
38030
37982
37929
37874
37812
37746
37681
37613
37543
37477
37413
37343
37268
37196
37124
37048
36976
36904
36833
36764
36695
36622
36536
36440
36355
36292
36258
36263
36322
36454
36679
37012
37461
38033
38711
39466
40272
41097
41917
42708
43458
44168
44830
45438
45987
46474
46892
47232
47506
47719
47875
47978
48025
48023
47976
47888
47770
47628
47465
47282
47081
46871
46661
46452
46238
46022
45814
45606
45387
45166
44941
44715
44496
44285
44086
43903
43732
43573
43436
43325
43237
43169
43119
43078
43050
43039
43041
43056
43091
43155
43239
43330
43427
43532
43640
43740
43819
43872
43894
43899
43902
43890
43859
43808
43735
43648
43561
43474
43383
43279
43154
43016
42874
42724
42557
42382
42212
42044
41878
41707
41528
41355
41195
41040
40883
40724
40564
40415
40286
40163
40040
39919
39793
39664
39547
39442
39342
39251
39163
39069
38972
38878
38785
38693
38612
38539
38469
38405
38344
38279
38211
38141
38071
38017
37977
37941
37901
37846
37781
37718
37654
37590
37527
37463
37398
37332
37275
37223
37162
37095
37023
36951
36880
36803
36718
36634
36549
36469
36395
36321
36241
36157
36078
36011
35967
35964
36015
36132
36345
36679
37134
37707
38385
39138
39925
40727
41525
42299
43041
43742
44381
44960
45486
45955
46361
46699
46972
47186
47341
47438
47477
47462
47402
47305
47175
47018
46840
46653
46460
46262
46056
45838
45618
45396
45171
44946
44721
44493
44263
44031
43794
43555
43324
43111
42924
42762
42631
42525
42437
42370
42327
42304
42303
42325
42366
42421
42485
42559
42638
42724
42825
42932
43036
43130
43202
43254
43294
43318
43328
43328
43313
43280
43227
43157
43069
42960
42839
42713
42585
42456
42323
42181
42026
41855
41679
41510
41346
41185
41029
40872
40707
40541
40381
40229
40082
39940
39804
39677
39561
39452
39347
39246
39146
39040
38933
38831
38737
38648
38567
38488
38409
38337
38265
38196
38133
38071
38010
37952
37896
37843
37794
37749
37701
37649
37598
37547
37490
37431
37371
37312
37251
37187
37123
37061
37000
36933
36867
36799
36718
36625
36529
36434
36342
36256
36180
36114
36062
36039
36059
36130
36278
36521
36866
37318
37871
38502
39192
39926
40685
41443
42175
42862
43500
44100
44655
45156
45599
45981
46306
46571
46775
46918
47005
47038
47022
46967
46871
46734
46568
46382
46176
45942
45692
45439
45180
44913
44647
44389
44129
43865
43604
43351
43112
42886
42674
42475
42287
42110
41950
41814
41710
41633
41578
41542
41532
41552
41595
41657
41741
41848
41971
42106
42242
42369
42492
42615
42726
42821
42902
42969
43021
43053
43061
43038
42978
42891
42791
42686
42574
42453
42322
42189
42053
41915
41773
41617
41454
41289
41118
40942
40758
40569
40388
40218
40057
39908
39773
39650
39540
39438
39334
39223
39108
38998
38890
38773
38657
38553
38452
38351
38255
38179
38125
38077
38020
37965
37917
37872
37826
37782
37746
37712
37679
37649
37619
37584
37543
37493
37436
37376
37309
37235
37152
37061
36967
36877
36793
36719
36659
36613
36573
36540
36537
36581
36683
36862
37138
37513
37981
38545
39198
39907
40639
41382
42122
42839
43527
44188
44808
45375
45883
46327
46714
47044
47313
47523
47681
47789
47840
47846
47819
47763
47682
47574
47439
47285
47122
46956
46789
46627
46475
46327
46178
46018
45840
45646
45442
45233
45027
44831
44642
44462
44302
44167
44059
43977
43917
43873
43842
43822
43822
43838
43860
43892
43946
44021
44103
44184
44262
44343
44423
44504
44589
44668
44731
44782
44817
44832
44834
44824
44788
44725
44649
44567
44469
44347
44209
44069
43928
43777
43611
43438
43269
43108
42948
42786
42626
42478
42343
42222
42109
41995
41868
41735
41611
41489
41363
41237
41112
40993
40880
40774
40679
40590
40493
40385
40272
40152
40029
39916
39822
39739
39661
39579
39492
39405
39326
39260
39203
39151
39102
39056
39013
38967
38905
38829
38750
38668
38590
38523
38456
38388
38317
38249
38186
38118
38048
37996
37981
38013
38118
38318
38618
39028
39548
40168
40860
41591
42339
43092
43840
44569
45269
45931
46543
47096
47586
48008
48360
48646
48872
49045
49165
49229
49248
49237
49193
49112
49003
48873
48722
48564
48402
48228
48045
47865
47694
47528
47362
47203
47054
46909
46768
46635
46503
46373
46250
46126
45996
45866
45744
45631
45537
45461
45396
45348
45327
45328
45346
45378
45426
45485
45553
45625
45704
45792
45894
46005
46108
46198
46272
46322
46341
46335
46309
46272
46228
46168
46086
45994
45894
45781
45658
45524
45375
45214
45052
44889
44722
44552
44381
44209
44038
43879
43730
43583
43439
43301
43172
43045
42917
42791
42668
42554
42456
42372
42298
42232
42167
42106
42050
41992
41930
41867
41804
41741
41672
41595
41520
41445
41375
41313
41250
41179
41103
41031
40968
40914
40860
40804
40747
40685
40617
40537
40444
40352
40269
40188
40101
40007
39920
39854
39819
39828
39902
40061
40309
40657
41107
41644
42254
42917
43619
44354
45103
45848
46580
47287
47947
48541
49067
49526
49917
50246
50525
50758
50944
51084
51178
51236
51266
51271
51252
51210
51146
51060
50958
50852
50743
50633
50525
50422
50324
50232
50143
50045
49939
49830
49718
49599
49472
49344
49221
49099
48984
48885
48803
48737
48678
48631
48608
48599
48601
48618
48648
48695
48761
48838
48925
49020
49118
49210
49292
49363
49422
49462
49477
49474
49467
49456
49435
49400
49352
49289
49210
49124
49033
48933
48819
48691
48554
48407
48260
48116
47976
47841
47704
47565
47424
47273
47117
46967
46825
