33208
33113
33162
32976
33151
33042
33080
32957
33056
33142
33179
33106
33090
33017
33121
33138
33245
33189
33330
33140
33437
33351
33349
33285
33611
33369
33634
33499
33512
33501
33492
33613
33449
33501
33387
33561
33419
33506
33558
33569
33585
33564
33550
33591
33608
33595
33613
33627
33598
33656
33597
33787
33754
33663
33828
33835
33597
33602
33712
33747
33727
33819
33975
33896
33793
33866
33857
34002
33880
34050
34066
33829
34024
34048
34054
34169
34095
34151
34164
34104
34134
34025
34255
34308
34170
34208
34149
34320
34162
34341
34365
34320
34202
34344
34227
34251
34238
34343
34553
34318
34429
34395
34527
34497
34403
34371
34445
34567
34577
34367
34466
34469
34511
34506
34519
34647
34518
34466
34596
34666
34646
34577
34731
34711
34764
34581
34666
34699
34649
34825
34695
34647
34746
34897
34821
34704
34786
34742
34794
34819
34822
34898
34752
34761
34780
34559
34516
34297
34331
34190
33947
33825
33736
33581
33544
33496
33427
33268
33265
33257
33185
33060
33258
33003
33064
33167
32953
32909
32927
33072
32957
32860
32873
32964
32971
33035
32976
33077
32799
32937
32843
32966
32918
32956
32858
33019
33032
33024
33244
33059
33056
33302
33386
33166
33254
33483
33337
33387
33327
33291
33444
33374
33314
33550
33539
33485
33496
33343
33388
33386
33341
33514
33302
33444
33499
33522
33578
33535
33350
33434
33635
33504
33429
33460
33706
33529
33687
33621
33701
33657
33723
33788
33570
33699
33797
33619
33747
33795
33695
33800
33879
33786
33914
33865
33899
33953
33937
33894
33972
33854
34062
33928
34055
34062
34203
33995
34084
33984
34028
34082
34092
34276
34221
34280
34238
34133
34258
34233
34164
34326
34320
34282
34197
34341
34389
34452
34354
34360
34262
34312
34319
34458
34515
34342
34470
34420
34463
34543
34560
34667
34482
34484
34665
34680
34711
34690
34694
34600
34637
34761
34726
34630
34638
34837
34736
34685
34841
34838
34703
34720
34767
34702
34689
34689
34624
34568
34465
34542
34250
34010
34102
33767
33717
33543
33657
33608
33500
33177
33127
33250
33262
33021
32938
33040
33107
32825
32982
33002
32764
32782
32881
32720
32765
32700
32694
32944
32836
32808
32764
32912
32705
32660
32801
32803
32824
32910
32688
32820
33013
32874
32991
32882
33099
33100
33155
33168
33222
33160
33065
33246
33270
33261
33288
33323
33336
33196
33228
33369
33308
33298
33347
33341
33349
33388
33371
33368
33204
33163
33437
33174
33342
33165
33342
33305
33396
33450
33463
33298
33464
33496
33662
33363
33353
33478
33521
33445
33560
33737
33563
33504
33632
33566
33668
33620
33734
33714
33728
33692
33746
33772
33859
33887
33875
33856
33880
33916
34045
33978
33785
33919
34083
34121
34090
33875
34210
34009
34101
34254
34259
34016
34176
34118
34280
34189
34276
34176
34094
34366
34368
34234
34189
34250
34303
34358
34297
34272
34241
34377
34466
34486
34359
34451
34424
34535
34397
34569
34492
34386
34498
34643
34536
34630
34460
34594
34564
34524
34751
34559
34504
34567
34667
34740
34616
34910
34817
34620
34765
34701
34658
34655
34760
34665
34540
34614
34505
34537
34405
34138
34159
33984
33881
33656
33647
33619
33496
33341
33265
33246
33160
33174
32953
32992
32855
32873
32862
32873
32764
32883
32924
32838
32984
32745
32850
32825
32918
32801
32746
32719
32887
32691
32811
32874
32740
32846
32753
32612
32879
32925
32910
33035
32882
32998
33018
33032
32963
33117
33073
33192
33091
33282
33231
33339
33414
33226
33457
33392
33193
33398
33333
33164
33322
33203
33275
33338
33329
33464
33236
33441
33322
33398
33492
33242
33235
33341
33271
33517
33336
33421
33546
33477
33360
33630
33434
33543
33586
33641
33675
33641
33581
33472
33522
33625
33600
33565
33648
33645
33748
33713
33815
33737
33765
33860
33787
33942
34048
33796
34039
33998
33844
33907
33978
34013
33986
34089
34121
33938
34171
34069
34163
34237
34217
34110
34100
34138
34239
34306
34109
34258
34145
34112
34296
34294
34184
34237
34302
34322
34187
34308
34215
34284
34433
34322
34376
34286
34358
34499
34335
34411
34401
34340
34431
34603
34402
34369
34512
34549
34583
34488
34679
34708
34490
34701
34575
34551
34388
34593
34477
34257
34187
34019
33901
33947
33879
33757
33426
33348
33282
33148
33187
33022
33086
33169
33117
32981
33030
32954
32804
32861
32912
32979
32940
32751
32928
32792
32681
32683
32912
32909
32675
32796
32660
32836
32722
32794
32779
32836
32868
32910
32863
32833
32946
33065
33057
33106
33095
33171
33133
33067
33157
33355
33207
33339
33376
33165
33237
33277
33249
33363
33215
33238
33367
33188
33368
33369
33412
33204
33172
33348
33142
33241
33199
33424
33481
33248
33398
33424
33406
33302
33438
33571
33417
33315
33448
33503
33505
33481
33618
33565
33527
33618
33561
33592
33551
33642
33581
33729
33665
33807
33685
33809
33880
33773
33788
33758
33869
33848
34006
34018
33947
33879
33909
33835
34110
33944
34031
34012
34248
34180
34000
34117
34164
34184
34050
34227
34295
34205
34267
34180
34393
34274
34240
34212
34310
34362
34303
34197
34289
34463
34391
34477
34349
34435
34509
34543
34544
34312
34461
34500
34414
34527
34362
34550
34401
34541
34619
34549
34731
34625
34705
34730
34765
34702
34769
34582
34576
34457
34449
34310
34300
34181
34192
34062
34019
33767
33647
33414
33424
33268
33260
33135
32960
33049
32982
32933
33026
32921
32950
32836
32927
32754
32818
32853
32812
32835
32776
32686
32577
32512
32653
32778
32726
32615
32576
32732
32656
32785
32584
32654
32696
32573
32671
32717
32867
32820
32777
33020
32833
33034
33137
32978
33122
33104
33031
33231
33221
33031
33190
33114
33178
33117
33101
33159
33050
33139
33038
33234
33297
33269
33116
33041
33299
33220
33341
33188
33330
33283
33304
33351
33157
33373
33439
33287
33345
33458
33360
33572
33370
33355
33460
33363
33590
33540
33414
33615
33588
33576
33693
33507
33732
33692
33783
33575
33592
33757
33667
33741
33620
33722
33864
33886
33950
33951
33794
33843
33965
33904
34023
34092
34007
34100
34033
33925
34005
33969
34131
34224
34210
34012
34255
34159
34278
34184
34338
34152
34372
34311
34223
34295
34175
34261
34428
34256
34360
34448
34450
34527
34455
34289
34314
34578
34361
34548
34427
34629
34611
34643
34522
34428
34517
34433
34508
34516
34498
34555
34567
34751
34740
34677
34572
34710
34724
34688
34793
34675
34612
34662
34662
34430
34419
34439
34229
34242
34030
33717
33849
33639
33579
33347
33355
33097
33072
33149
32996
32925
32991
32858
32777
32894
32676
32853
32771
32696
32721
32678
32782
32734
32673
32587
32568
32735
32578
32542
32565
32760
32608
32760
32670
32780
32672
32754
32835
32698
32716
32838
32880
32961
32836
32928
33120
32989
33149
33163
33249
33066
32985
33182
33254
33134
33089
33102
33159
33065
33175
33129
33086
33246
33288
33112
33144
33183
33108
33190
33230
33263
33318
33244
33138
33237
33328
33270
33180
33246
33205
33435
33251
33504
33264
33316
33444
33301
33394
33514
33423
33617
33557
33654
33548
33447
33555
33483
33781
33791
33769
33898
33743
33733
33655
33726
33942
33784
33779
33948
33953
33848
33844
33893
34053
33920
33969
34063
33956
33970
34069
33916
34079
34123
33988
34175
34095
34036
33983
34261
34264
34140
34264
34019
34202
34107
34148
34251
34153
34250
34342
34149
34277
34166
34288
34191
34318
34309
34307
34391
34337
34255
34438
34498
34410
34420
34408
34567
34462
34538
34542
34405
34569
34449
34341
34408
34341
34084
33907
33947
33774
33693
33680
33371
33528
33371
33242
32999
33191
32880
32959
33025
32898
32790
32880
32759
32830
32612
32730
32839
32753
32725
32606
32665
32581
32558
32522
32547
32474
32622
32564
32539
32781
32567
32603
32658
32633
32830
32926
32708
32765
32841
32910
32833
32977
32990
33062
32995
33012
33064
33005
33005
33219
33033
33284
33203
33111
33117
33095
33209
33011
33199
33243
33247
33329
33074
33123
33178
33277
33283
33167
33192
33206
33123
33226
33192
33363
33435
33301
33440
33411
33306
33466
33443
33382
33518
33540
33370
33386
33603
33403
33563
33476
33635
33660
33481
33448
33557
33633
33516
33619
33722
33733
33800
33646
33811
33745
33853
33659
33735
33851
33790
33805
33711
33803
33901
33727
33910
34004
33881
33863
33897
34009
33902
34073
33964
33883
33907
33913
33891
33937
34060
33994
34110
33968
34037
34158
34037
34115
34064
34133
34011
34232
34231
34259
34140
34115
34077
34132
34286
34158
34261
34305
34192
34239
34425
34300
34245
34399
34287
34361
34415
34439
34496
34420
34329
34425
34266
34269
34153
34097
34015
33904
33820
33740
33587
33574
33220
33234
33229
32913
32879
33014
32895
32665
32844
32772
32758
32554
32649
32463
32593
32486
32689
32555
32434
32411
32587
32344
32315
32350
32249
32290
32442
32282
32325
32436
32514
32405
32370
32348
32483
32565
32477
32700
32648
32690
32661
32836
32697
32800
32768
32726
32739
32940
32995
32891
32913
32907
32863
32954
33001
32926
33053
32907
32825
32895
32898
32945
32946
33074
33059
32968
32984
33171
33067
33094
33208
33030
33165
33259
33164
33220
33162
33150
33102
33209
33054
33260
33157
33345
33356
33203
33200
33355
33500
33259
33467
33524
33421
33291
33342
33316
33432
33584
33395
33391
33432
33732
33545
33668
33524
33612
33571
33488
33547
33769
33633
33698
33781
33624
33648
33851
33603
33672
33949
33864
33922
33890
33937
33932
33865
33878
33859
33860
33816
33908
33899
33882
33857
34120
34045
33964
34139
33909
34021
33968
34130
33973
34184
34115
34012
34014
34249
34081
34084
34130
34184
34181
34142
34191
34211
34292
34222
34287
34339
34172
34317
34142
34378
34320
34372
34219
34222
34181
34327
34164
33978
33915
33962
33686
33701
33438
33221
33326
33182
33126
32915
32814
32904
32903
32775
32670
32640
32507
32587
32683
32569
32595
32534
32464
32629
32610
32377
32408
32383
32294
32498
32445
32277
32447
32528
32467
32504
32391
32552
32552
32407
32489
32503
32551
32683
32784
32688
32611
32800
32921
32744
32867
32942
32822
32811
33003
32989
33025
33028
32903
32991
32961
33042
32916
32800
32879
32890
33014
32828
33026
32833
32987
32988
33004
32896
32905
33011
32942
32977
33019
33174
33105
33225
33021
33220
33189
33104
33179
33288
33334
33160
33295
33358
33204
33343
33412
33290
33491
33406
33319
33314
33464
33518
33587
33509
33563
33550
33562
33555
33692
33594
33724
33610
33599
33678
33653
33699
33714
33727
33769
33785
33776
33753
33797
33804
33729
33849
33781
33944
33862
33997
33809
33738
33980
34020
33912
33991
33940
33942
34032
33837
34062
33859
33838
34037
34139
34035
34012
34007
34118
34191
34057
33945
34117
34130
34169
34154
34149
34043
34193
34264
34308
34314
34351
34317
34224
34182
34044
34070
34116
33859
33960
33775
33728
33629
33518
33378
33085
33188
32956
32939
32642
32628
32682
32712
32686
32534
32460
32617
32539
32571
32433
32435
32480
32504
32362
32362
32286
32341
32213
32330
32242
32319
32206
32300
32250
32243
32384
32292
32488
32318
32435
32604
32479
32576
32543
32669
32577
32647
32580
32837
32653
32686
32678
32935
32772
32880
32954
32989
32892
32863
32724
32815
32696
32794
32907
32897
32921
32800
32867
32854
32874
32935
32894
32847
32947
33070
33002
32999
32954
33086
32955
32907
33208
33046
33001
33169
33257
33105
33043
33157
33237
33250
33280
33351
33224
33236
33399
33215
33416
33270
33386
33492
33468
33422
33350
33467
33357
33394
33507
33553
33600
33590
33452
33455
33468
33534
33747
33697
33657
33638
33616
33656
33813
33604
33598
33635
33557
33715
33806
33821
33806
33715
33765
33846
33798
33968
33882
33778
33889
34058
33879
33852
34023
33994
33864
33913
33973
33867
34137
34005
34187
34093
33937
34098
34011
34182
34204
34121
34297
34276
34256
34158
34185
34306
34208
34102
34277
34355
34229
34162
34287
34433
34361
34114
34180
34043
34144
33872
33925
33763
33596
33388
33337
33247
33138
33023
32908
32829
32880
32841
32513
32671
32491
32647
32614
32455
32551
32464
32361
32329
32492
32347
32262
32408
32236
32387
32183
32204
32168
32277
32356
32292
32287
32289
32394
32277
32416
32357
32340
32355
32479
32401
32511
32615
32568
32539
32687
32729
32775
32866
32675
32898
32905
32924
32726
32779
32710
32935
32843
32850
32702
32688
32886
32895
32831
32755
32928
32817
32738
32948
32819
32857
33010
32871
32981
33073
32868
33053
32972
33130
33027
32983
33136
33022
33120
33039
33156
33040
33099
33118
33137
33092
33230
33222
33397
33266
33399
33224
33398
33424
33332
33404
33345
33322
33324
33312
33337
33547
33450
33641
33519
33405
33523
33446
33520
33447
33576
33668
33705
33519
33786
33761
33584
33824
33654
33824
33822
33642
33727
33652
33679
33891
33651
33707
33807
33959
33805
33840
33877
33753
33847
33761
33959
33826
33926
33856
33956
33995
33954
33949
33999
34058
34143
34038
34080
34043
33983
34164
34290
34166
34184
34234
34141
34302
34116
34097
34353
34363
34335
34180
34265
34041
33996
34030
33823
33698
33585
33523
33514
33325
33228
33080
32876
32880
32946
32798
32558
32588
32516
32537
32482
32542
32556
32327
32500
32291
32436
32475
32293
32204
32350
32188
32274
32213
32396
32420
32403
32456
32206
32211
32444
32332
32309
32427
32389
32410
32629
32480
32450
32614
32706
32705
32589
32687
32706
32692
32803
32841
32764
32837
32845
32898
32854
32714
32759
32732
32778
32876
32721
32982
32760
32971
32931
32962
33002
32951
32839
32978
32971
32817
32805
32985
33056
32992
33035
32905
33179
33092
33058
33149
33082
33104
33160
33194
33125
33141
33144
33168
33338
33228
33260
33338
33220
33342
33207
33395
33444
33332
33419
33420
33473
33467
33453
33385
33578
33645
33677
33610
33564
33477
33619
33510
33595
33578
33769
33779
33673
33577
33791
33659
33639
33686
33714
33729
33719
33807
33840
33873
33941
33826
33743
33909
34030
33816
33911
33977
33801
33906
34096
33880
34089
34069
34067
33905
34080
34017
34125
33981
33972
34258
34133
34109
34204
34139
34160
34144
34312
34153
34316
34242
34092
34140
34102
34292
34261
34005
33979
33832
33763
33653
33522
33458
33323
33212
33171
32898
33008
32860
32788
32835
32611
32560
32697
32624
32593
32574
32344
32417
32445
32367
32375
32396
32410
32435
32337
32185
32382
32408
32153
32230
32333
32308
32253
32395
32345
32202
32220
32222
32400
32490
32543
32482
32620
32560
32721
32663
32673
32556
32570
32738
32842
32732
32820
32799
32902
32867
32857
32821
32809
32765
32855
32777
32739
32892
32933
32883
32898
32762
32789
32757
32829
32958
32797
32926
33078
32881
33048
33108
33137
33018
33049
33059
33200
33023
33095
33092
33294
33233
33088
33051
33101
33309
33236
33232
33299
33142
33325
33377
33288
33223
33400
33289
33515
33315
33336
33542
33541
33563
33424
33579
33655
33507
33566
33615
33638
33717
33531
33648
33758
33601
33852
33742
33604
33903
33686
33655
33650
33870
33865
33883
33800
33955
33976
33846
34026
33932
33913
33858
34090
34012
33892
33989
34040
34061
33962
34059
33953
34040
33980
34056
34094
34181
34046
34300
34180
34170
34166
34341
34261
34294
34298
34268
34190
34323
34241
34197
34365
34291
34411
34292
34483
34254
34415
34329
34408
34265
34068
34003
33949
33773
33718
33512
33349
33486
33162
33241
32904
32915
32857
32689
32773
32871
32722
32578
32697
32533
32518
32479
32638
32579
32595
32409
32437
32445
32510
32486
32423
32533
32311
32533
32576
32524
32343
32601
32536
32481
32369
32476
32636
32727
32701
32586
32689
32626
32744
32922
32713
33010
32761
32852
32972
32760
32916
32852
32919
32900
33012
33070
32804
32890
32985
33021
33054
33015
32985
32930
32952
32947
33030
33051
33042
32938
33048
33032
33075
33234
33071
33163
33204
33144
33231
33345
33157
33291
33135
33319
33199
33321
33200
33401
33364
33278
33494
33565
33381
33570
33486
33585
33535
33624
33595
33520
33549
33497
33650
33670
33709
33827
33791
33630
33650
33846
33686
33755
33912
33882
33866
33974
34000
33937
34040
33881
33874
34041
34067
33956
34028
33984
34011
33942
34085
33951
34161
33983
34026
34029
34236
34294
34056
34279
34091
34039
34187
34316
34238
34275
34393
34386
34232
34228
34217
34325
34438
34477
34268
34486
34530
34421
34460
34400
34467
34549
34395
34621
34472
34594
34524
34569
34556
34420
34517
34435
34425
34333
34230
34078
34121
33886
33648
33618
33429
33391
33391
33251
33103
33026
33043
33057
32960
32875
32885
32903
32768
32651
32799
32563
32597
32765
32589
32689
32717
32715
32490
32587
32510
32556
32465
32629
32530
32504
32709
32616
32508
32762
32773
32793
32765
32647
32905
32730
32976
32997
32976
33087
32990
33079
33105
33006
33057
33031
33203
33169
33000
33186
33098
33016
33238
33252
33177
33197
33273
33115
33025
33138
33303
33258
33109
33171
33161
33344
33134
33353
33220
33360
33314
33280
33304
33274
33357
33479
33346
33440
33560
33356
33519
33522
33351
33530
33431
33563
33635
33626
33583
33622
33535
33636
33753
33814
33841
33817
33860
33872
33723
33686
33763
33713
33850
33973
33852
34070
34035
34096
33939
34028
33971
33910
34214
34114
33958
34117
34122
34103
34057
34090
34040
34096
34230
34135
34053
34286
34191
34085
34164
34168
34365
34176
34319
34446
34250
34386
34401
34397
34459
34361
34408
34301
34303
34465
34562
34565
34542
34529
34589
34561
34544
34492
34480
34485
34736
34671
34632
34667
34721
34562
34759
34566
34671
34765
34751
34879
34817
34631
34664
34771
34654
34693
34596
34340
34358
34294
34147
33911
33791
33630
33505
33526
33545
33325
33177
33258
33073
33062
32999
32987
32927
32871
32926
32794
32865
32813
32835
32814
32805
32859
32736
32769
32804
32740
32666
32675
32675
32700
32825
32697
32768
32644
32640
32712
32682
32900
32740
33020
32832
32941
32870
33193
33106
33227
33062
33084
33145
33353
33144
33185
33180
33218
33222
33270
33229
33198
33273
33142
33381
33275
33297
33234
33216
33326
33367
33281
33391
33356
33282
33377
33299
33513
33287
33331
33398
33526
33517
33595
33444
33386
33452
33648
33444
33582
33481
33651
33565
33603
33643
33763
33556
33636
33724
33797
33706
33720
33659
33820
33705
33930
33975
33982
33788
33935
33865
33849
33949
34058
34040
34126
33922
34173
34089
34012
34077
34081
34157
34089
34238
34136
34305
34187
34089
34228
34211
34362
34307
34241
34112
34355
34325
34361
34452
34274
34222
34260
34302
34486
34479
34294
34475
34392
34460
34560
34563
34438
34575
34592
34535
34586
34491
34516
34607
34553
34613
34653
34751
34712
34629
34752
34666
34655
34628
34737
34852
34873
34805
34807
34747
34537
34675
34478
34422
34198
34089
34072
33943
33739
33675
33768
33699
33474
33484
33212
33339
33330
33255
33021
33261
32978
33051
32947
32973
33139
33007
33034
32982
33111
32965
33081
32892
32997
32932
32808
32973
32905
32835
32861
32995
32939
32937
33084
33188
33166
33236
33091
33266
33289
33452
33176
33220
33299
33483
33437
33550
33600
33470
33552
33512
33667
33532
33363
33595
33483
33408
33578
33524
33543
33523
33526
33527
33602
33627
33578
33699
33599
33467
33684
33556
33594
33569
33644
33644
33647
33609
33701
33659
33716
33870
33727
33834
33905
33823
33962
33905
33866
33880
33913
33902
33935
33963
34000
34026
34052
34050
34037
34077
34097
34090
34112
34084
34158
34177
34117
34264
34303
34242
34260
34372
34262
34310
34447
34264
34367
34489
34325
34384
34313
34508
34324
34583
34352
34373
34596
34510
34557
34537
34623
34441
34544
34707
34643
34687
34607
34741
34744
34714
34813
34657
34705
34756
34619
34785
34797
34629
34868
34934
34763
34908
34944
34755
34884
34936
34967
34934
34856
34847
35023
34938
35072
35020
35103
35069
35102
34894
35007
34998
35037
34927
34957
34713
34622
34506
34535
34289
34062
33990
33917
33869
33826
33621
33556
33453
33527
33487
33346
33171
33326
33206
33127
33121
33256
33038
33106
33140
33273
33106
33045
33223
32998
33107
33052
33063
32978
33034
32956
33019
33057
33110
33144
33160
33113
33070
33149
33377
33296
33255
33276
33366
33408
33542
33560
33404
33450
33654
33655
33448
33626
33601
33469
33589
33518
33644
33498
33639
33707
33588
33640
33532
33582
33722
33786
33558
33534
33560
33629
33657
33671
33847
33800
33642
33765
33841
33718
33705
33799
33791
33783
33957
33846
34041
34017
33983
33878
33982
33895
33916
34139
34090
34105
33969
34143
34142
34082
34217
34196
34268
34232
34314
34221
34306
34250
34297
34283
34288
34353
34251
34307
34368
34327
34341
34322
34400
34528
34357
34429
34538
34450
34416
34552
34550
34399
34458
34463
34462
34566
34587
34693
34724
34715
34639
34605
34749
34687
34701
34817
34628
34837
34677
34835
34747
34922
34824
34716
34801
34828
34863
34907
35006
34852
35032
34958
34959
35082
35006
35063
35114
35066
35165
35179
35070
35083
35022
35100
34994
35131
35088
35065
35081
35050
34945
34919
34720
34686
34517
34412
34245
34071
34053
34085
33767
33740
33584
33479
33605
33503
33562
33541
33354
33212
33409
33201
33278
33345
33138
33155
33100
33162
33108
33328
33083
33307
33108
33149
33041
33226
33214
33099
33169
33303
33163
33170
33307
33235
33343
33348
33331
33563
33562
33483
33568
33630
33496
33617
33635
33748
33749
33807
33770
33805
33627
33782
33618
33629
33772
33776
33619
33664
33670
33701
33661
33734
33757
33763
33777
33790
33777
33758
33785
33850
33789
33700
33778
33807
33905
33916
33899
33947
33941
33954
33994
34039
34028
34069
34082
34055
34080
34102
34099
34124
34147
34182
34170
34096
34251
34310
34321
34332
34177
34455
34212
34162
34259
34368
34337
34349
34354
34342
34347
34466
34471
34398
34418
34683
34701
34645
34642
34486
34550
34668
34682
34695
34719
34818
34643
34690
34812
34694
34732
34671
34755
34724
34659
34797
34850
34848
34843
34792
34806
34973
34769
34870
34895
34812
34888
34990
34961
35032
34920
35123
34977
35161
35024
34944
35144
35208
35071
35148
35063
35104
35267
35151
35082
35130
35132
35326
35367
35103
35227
35106
34943
34984
34772
34782
34822
34533
34348
34348
34084
34093
33987
33944
33752
33508
33663
33548
33419
33461
33476
33485
33328
33189
33409
33275
33396
33274
33385
33189
33333
33223
33107
33221
33079
33083
33260
33095
33109
33170
33246
33274
33172
33361
33261
33255
33270
33428
33381
33539
33508
33336
33466
33637
33479
33460
33629
33547
33721
33585
33785
33678
33792
33611
33753
33845
33598
33818
33777
33715
33614
33712
33764
33748
33734
33704
33765
33820
33797
33687
33771
33702
33835
33779
33853
33854
33868
33961
34100
33915
33958
33966
33965
34097
33995
34140
33939
34045
34159
34022
33977
34216
34094
34218
34153
34223
34122
34314
34189
34362
34280
34224
34444
34508
34438
34259
34332
34447
34576
34435
34373
34528
34585
34486
34482
34477
34565
34583
34506
34537
34609
34643
34533
34557
34664
34768
34636
34737
34719
34838
34753
34780
34839
34790
34676
34727
34697
34807
34876
34821
34915
34823
34942
34893
34996
34920
34905
35013
34938
34992
35135
34981
34929
35112
35087
35129
35003
35200
35175
35088
35007
35034
35155
35256
35091
35131
35369
35273
35321
35230
35364
35224
35253
35416
35231
35305
35352
35322
35093
35264
35164
34935
34930
34758
34724
34633
34371
34267
34126
34008
33906
33738
33781
33557
33541
33477
33619
33605
33464
33520
33273
33189
33382
33273
33418
33338
33195
33346
33211
33245
33258
33216
33262
33259
33251
33239
33173
33224
33203
33174
33198
33253
33268
33366
33418
33395
33308
33577
33590
33448
33539
33495
33683
33598
33553
33621
33711
33744
33572
33661
33554
33751
33508
33654
33569
33692
33714
33622
33638
33637
33691
33660
33741
33729
33667
33593
33750
33707
33671
33632
33902
33830
33678
33810
33724
33911
34012
33903
33909
33856
34014
34020
33811
33867
34084
33901
34085
33951
34165
33950
34087
34051
34034
34076
34122
34170
34248
34180
34250
34191
34219
34374
34187
34459
34265
34387
34401
34405
34281
34357
34526
34426
34408
34444
34429
34460
34509
34512
34565
34580
34561
34673
34593
34587
34621
34494
34698
34689
34640
34726
34770
34754
34655
34718
34731
34934
34615
34733
34779
34733
34872
34754
34689
34907
34746
34758
34899
34783
34782
34948
34783
34917
34989
35052
34946
34977
35017
34960
35024
35089
34999
35004
35137
35139
35189
35066
35052
35085
35057
35057
35121
34944
34660
34796
34732
34388
34302
34340
34112
33982
33799
33971
33819
33551
33582
33629
33529
33415
33526
33470
33440
33409
33406
33403
33321
33299
33209
33203
33263
33186
33237
33228
33076
33230
33317
33178
33202
33080
33054
33260
33278
33303
33252
33128
33232
33327
33423
33496
33437
33403
33400
33599
33575
33493
33556
33646
33584
33624
33640
33743
33822
33658
33661
33727
33579
33719
33821
33637
33656
33793
33814
33607
33688
33652
33803
33627
33706
33668
33765
33852
33800
33716
33960
34000
33963
33760
34019
34041
33926
34064
33908
34016
33899
34117
34144
34009
34206
34102
34041
34213
34170
34316
34119
34181
34098
34169
34271
34377
34276
34346
34422
34310
34471
34538
34519
34336
34489
34317
34368
34571
34631
34527
34618
34501
34637
34672
34545
34546
34581
34648
34755
34614
34546
34790
34717
34864
34677
34642
34812
34695
34798
34812
34697
34801
34896
34753
34762
34982
34908
34893
34774
34967
34793
34918
34978
34959
34911
35000
34975
34979
34949
34961
35088
35079
34921
34927
35184
35102
34992
35061
35072
35165
35042
35173
35217
35266
35147
35327
35131
35226
35255
35128
35366
35106
35158
35314
35090
35032
34926
34991
34794
34828
34684
34434
34460
34270
34082
34032
34086
33947
33725
33635
33535
33686
33640
33450
33523
33551
33310
33324
33447
33349
33300
33405
33247
33329
33293
33371
33444
33281
33221
33301
33356
33228
33188
33188
33371
33304
33329
33206
33423
33298
33469
33506
33407
33630
33436
33545
33516
33581
33627
33606
33622
33794
33621
33613
33604
33629
33853
33774
33629
33702
33718
33633
33723
33621
33758
33827
33674
33806
33764
33732
33726
33799
33810
33775
33793
33968
33836
33799
33788
34011
33953
33852
33964
33909
33963
33907
34115
33978
33903
33966
34197
34061
34064
34152
34024
34127
34221
34147
34133
34107
34270
34126
34143
34346
34138
34219
34318
34321
34236
34294
34440
34380
34508
34294
34368
34532
34566
34496
34492
34474
34442
34411
34502
34559
34652
34516
34607
34690
34717
34599
34605
34669
34659
34586
34626
34784
34740
34702
34755
34733
34780
34822
34765
34668
34730
34691
34879
34802
34669
34745
34912
34944
34897
34875
34912
34898
34791
34960
34851
34825
34924
34878
34994
34881
35020
34984
34969
35136
34960
35107
35052
34877
34845
34929
34829
34700
34644
34472
34451
34114
34114
33957
33964
33753
33813
33589
33492
33493
33654
33390
33372
33332
33507
33438
33397
33308
33279
33200
33268
33311
33306
33220
33205
33189
33245
33288
33199
33250
33373
33272
33299
33279
33282
33246
33178
33458
33399
33384
33372
33492
33567
33629
33482
33494
33606
33782
33663
33790
33819
33602
33801
33612
33864
33704
33647
33792
33781
33696
33818
33717
33747
33746
33854
33801
33814
33838
33654
33761
33777
33742
33943
33978
34003
33872
33898
34020
33853
33912
33999
34010
34085
33916
33916
34024
34065
34089
34214
33980
34057
33998
34256
34024
34115
34120
34218
34288
34338
34323
34313
34368
34388
34326
34338
34413
34373
34361
34453
34414
34470
34568
34495
34499
34477
34530
34577
34634
34452
34703
34660
34477
34556
34572
34690
34548
34739
34675
34764
34661
34837
34842
34620
34764
34659
34718
34716
34761
34762
34807
34903
34891
34911
34776
34896
34873
34792
34972
35007
35007
35041
34987
35051
34920
35019
35023
34954
35031
35040
35043
35189
35096
34953
35050
35161
35191
35227
35149
35091
35095
35024
35170
35008
35040
34760
34769
34595
34562
34539
34243
34298
34044
34114
33902
33789
33753
33600
33612
33524
33575
33694
33586
33613
33567
33570
33391
33403
33453
33361
33483
33345
33248
33353
33280
33379
33201
33299
33338
33210
33387
33279
33465
33355
33404
33311
33403
33336
33375
33663
33642
33612
33533
33619
33650
33655
33750
33685
33718
33675
33821
33714
33855
33848
33875
33761
33635
33791
33793
33762
33874
33784
33850
33759
33832
33903
33856
33765
33876
33734
33832
33756
33868
33839
33952
33873
33892
33848
34059
34105
33923
34121
34137
34023
34017
34167
34101
34142
34232
34076
34049
34140
34214
34264
34316
34131
34313
34164
34371
34379
34285
34303
34377
34236
34438
34410
34434
34268
34534
34313
34361
34494
34597
34574
34637
34528
34381
34483
34549
34597
34611
34511
34632
34548
34523
34561
34537
34654
34637
34607
34792
34575
34675
34560
34748
34821
34709
34743
34681
34710
34763
34645
34937
34937
34762
34952
34795
34781
34928
34909
34940
34885
34993
34832
34809
34876
34867
34859
34895
35070
34996
34944
34916
34865
34898
34636
34568
34471
34502
34395
34290
34221
34044
33981
33821
33722
33560
33610
33628
33564
33483
33434
33512
33414
33243
33321
33373
33267
33374
33319
33267
33334
33276
33126
33195
33165
33192
33106
33223
33147
33135
33079
33327
33375
33281
33200
33144
33325
33188
33262
33278
33346
33335
33544
33572
33520
33670
33555
33734
33531
33530
33760
33615
33765
33612
33611
33740
33796
33609
33799
33703
33568
33716
33786
33786
33630
33734
33607
33750
33714
33647
33810
33818
33800
33701
33852
33751
33756
34055
33807
33936
33801
33822
33978
34068
33869
34040
34009
33949
34064
34149
34138
34116
34225
34055
33987
34270
34231
34224
34227
34146
34234
34243
34267
34135
34269
34363
34261
34174
34234
34307
34236
34264
34416
34370
34363
34486
34322
34383
34391
34393
34375
34435
34508
34611
34474
34676
34549
34487
34513
34700
34570
34511
34642
34550
34638
34640
34701
34630
34640
34609
34609
34717
34783
34703
34761
34832
34789
34862
34796
34802
34812
34886
34926
34814
34813
34932
34992
34896
34918
34925
35003
34926
34939
35095
35127
35004
35073
34963
35093
34998
34960
35054
34780
34789
34621
34594
34286
34219
34189
34049
34042
33870
33687
33739
33706
33524
33632
33399
33545
33346
33335
33441
33396
33401
33328
33300
33353
33197
33101
33253
33297
33144
33252
33224
33149
33250
33158
33207
33103
33156
33059
33110
33271
33208
33182
33114
33117
33226
33292
33331
33388
33412
33364
33383
33529
33434
33519
33494
33604
33605
33616
33717
33676
33580
33578
33517
33589
33707
33772
33688
33710
33603
33643
33549
33649
33524
33708
33570
33725
33634
33596
33780
33674
33675
33704
33816
33646
33942
33796
33688
33847
33879
33842
33880
33818
33940
33882
33877
33845
33920
33860
33944
33861
33989
34127
33997
33984
34075
34025
34162
34038
34003
34163
34034
34262
34287
34069
34323
34185
34142
34170
34140
34385
34215
34381
34388
34395
34250
34225
34391
34263
34434
34275
34405
34358
34388
34437
34501
34372
34342
34313
34448
34369
34477
34527
34387
34564
34486
34636
34463
34593
34710
34669
34451
34672
34525
34726
34779
34751
34653
34712
34600
34835
34835
34833
34842
34841
34894
34680
34817
34699
34788
34921
34705
34698
34825
34691
34706
34564
34374
34111
34151
33996
33884
33770
33704
33792
33550
33618
33398
33449
33402
33405
33279
33332
33271
33284
33216
33281
33223
33067
33151
33235
33036
33112
33052
33045
33066
33093
33151
32954
33196
33057
33064
33086
33218
33001
32990
33209
33114
33269
33252
33153
33304
33443
33239
33523
33530
33554
33447
33414
33412
33479
33475
33593
33502
33636
33474
33725
33617
33644
33747
33587
33532
33583
33493
33683
33674
33635
33738
33700
33633
33743
33788
33579
33714
33647
33735
33844
33677
33788
33807
33655
33786
33951
33907
34025
33997
33732
33899
33867
34042
33975
33852
34046
34050
34005
34062
33910
34035
34077
34155
34144
34152
34100
34148
34153
34172
34210
34134
34229
34210
34416
34172
34212
34364
34258
34349
34404
34359
34398
34511
34464
34406
34413
34383
34457
34533
34509
34466
34547
34571
34560
34513
34549
34551
34672
34504
34469
34540
34521
34586
34763
34629
34812
34759
34772
34813
34810
34641
34881
34815
34799
34865
34931
34844
34736
34761
34774
34793
34980
35001
35024
34992
34889
35075
35092
34887
35058
35015
34951
34810
34875
34961
34749
34704
34588
34440
34457
34280
34142
34048
33943
33886
33755
33715
33568
33548
33454
33583
33410
33410
33332
33336
33330
33184
33332
33139
33326
33242
33281
33222
33245
33122
33267
33065
33152
33081
33121
33061
32998
33016
33016
33051
32989
33109
33248
33116
33257
33428
33357
33267
33359
33352
33575
33371
33544
33672
33668
33592
33712
33566
33603
33647
33571
33644
33555
33650
33677
33627
33554
33763
33716
33571
33732
33571
33809
33790
33664
33819
33742
33739
33761
33632
33714
33803
33828
33745
33700
33694
33890
33925
33688
33795
33769
33857
33983
33808
33861
33906
33995
33952
33896
34112
33981
33968
34152
34165
34089
34234
34098
34222
34193
34285
34163
34120
34216
34331
34357
34287
34309
34347
34287
34254
34225
34307
34246
34290
34222
34440
34398
34491
34511
34333
34492
34504
34474
34334
34393
34413
34549
34528
34475
34374
34412
34368
34405
34624
34434
34467
34521
34438
34455
34532
34712
34639
34476
34569
34696
34658
34631
34683
34621
34661
34594
34750
34659
34791
34776
34673
34706
34683
34785
34863
34818
34815
34671
34865
34509
34647
34396
34366
34135
34002
34044
33821
33935
33679
33553
33663
33425
33525
33531
33252
33314
33261
33261
33284
33267
33248
33187
33219
33146
33088
33151
33231
33123
33189
33186
33143
33003
33120
32964
33093
33088
33162
33214
33166
33149
33238
33311
33264
33179
33429
33257
33352
33525
33455
33572
33597
33684
33491
33439
33620
33474
33701
33749
33698
33703
33682
33662
33671
33673
33575
33536
33547
33723
33667
33527
33776
33707
33669
33794
33694
33824
33680
33699
33754
33840
33778
33855
33884
33878
33977
33858
33963
33923
33835
33990
34052
34037
33965
33952
33896
33929
33930
34164
34182
34140
33965
34134
34209
34027
34129
34275
34293
34133
34278
34290
34204
34449
34251
34256
34284
34347
34335
34219
34486
34518
34360
34542
34394
34620
34465
34432
34635
34639
34593
34637
34535
34574
34575
34553
34593
34679
34655
34764
34679
34622
34600
34605
34646
34717
34755
34714
34712
34773
34774
34932
34781
34708
34893
34931
34983
34870
34938
34874
34844
34869
34869
34907
34952
34936
34984
34997
34964
34997
34993
35027
34941
34972
34747
34646
34689
34547
34347
34272
34245
33997
34083
33903
33656
33769
33591
33484
33410
33491
33449
33402
33210
33258
33333
33173
33280
33254
33010
33112
33244
33091
33200
33191
33044
32924
33132
32983
32961
33067
33092
33000
33098
33047
33188
33124
33189
33119
33177
33142
33272
33312
33244
33357
33222
33466
33494
33354
33519
33448
33644
33490
33586
33484
33513
33603
33662
33614
33605
33481
33668
33651
33462
33472
33598
33568
33509
33611
33726
33562
33627
33587
33785
33774
33756
33754
33764
33846
33675
33879
33792
33721
33809
33986
33912
33878
33913
33983
33912
33837
33996
34054
33993
34093
34116
34082
34014
34054
33948
34226
34048
34190
34115
34223
34292
34364
34404
34364
34187
34442
34421
34418
34299
34251
34409
34420
34334
34357
34524
34564
34390
34406
34568
34490
34605
34563
34472
34510
34694
34651
34711
34696
34511
34685
34666
34621
34630
34761
34807
34668
34867
34656
34563
34848
34773
34698
34761
34905
34797
34800
34850
34735
34838
34887
34857
34874
34906
34929
34813
34994
34861
34960
34877
34966
35122
35016
35025
35032
35022
35005
35057
35227
35076
35140
35058
35113
34938
34983
34776
34693
34652
34341
34197
34227
34095
34073
33777
33879
33847
33573
33507
33438
33377
33443
33400
33271
33202
33229
33164
33170
33324
33159
33253
33224
33091
33079
33211
33196
33249
33099
33136
33061
33053
33146
33275
33112
33069
33199
33288
33237
33128
33284
33399
33333
33511
33473
33561
33463
33654
33710
33487
33651
33576
33479
33594
33601
33728
33485
33718
33518
33657
33705
33722
33694
33752
33601
33604
33585
33601
33723
33554
33704
33582
33731
33810
33699
33870
33659
33698
33898
33898
33890
33961
33758
33854
33832
33930
33980
33914
33910
33903
34098
33975
34069
34079
34174
33943
34168
34013
34238
34084
34166
34274
34195
34223
34188
34179
34193
34217
34325
34323
34375
34369
34414
34426
34330
34383
34517
34414
34418
34398
34483
34503
34591
34442
34536
34576
34481
34466
34530
34568
34566
34452
34559
34730
34631
34600
34588
34676
34650
34622
34794
34581
34839
34694
34721
34558
34748
34870
34675
34741
34876
34769
34781
34850
34875
35036
34782
35030
34977
34827
34856
34918
34894
34821
34822
34821
34911
34852
34707
34499
34477
34422
34328
34139
34018
33910
34022
33880
33813
33542
33581
33468
33315
33386
33409
33393
33431
33351
33281
33142
33357
33285
33162
33092
33132
33071
33194
33120
33227
33104
33084
33039
33185
33199
33028
33223
33207
33325
33207
33410
33261
33216
33334
33383
33404
33528
33446
33621
33481
33649
33679
33613
33687
33671
33666
33740
33669
33631
33663
33679
33669
33656
33687
33707
33673
33636
33675
33713
33715
33746
33815
33734
33780
33606
33680
33779
33788
33787
33959
33867
33673
33975
33915
33844
33910
33877
33798
33864
33953
33849
34007
34134
34027
34041
33972
33903
34059
34174
34041
34063
34015
34116
34078
34145
34082
34177
34100
34362
34223
34211
34414
34260
34345
34453
34448
34310
34515
34356
34433
34580
34445
34511
34511
34464
34441
34496
34533
34499
34585
34682
34708
34617
34654
34681
34565
34592
34654
34578
34564
34775
34578
34732
34777
34790
34790
34866
34741
34652
34781
34777
34784
34789
34840
34881
34812
34895
34842
34794
34919
34981
34974
34863
34885
34977
35093
34992
35055
35064
34911
35004
34874
35065
34889
34902
34974
34931
34695
34716
34464
34479
34340
34265
34019
34033
33835
33864
33708
33614
33418
33526
33533
33253
33307
33364
33370
33242
33259
33205
33228
33128
33256
33105
33189
33220
33238
33097
32998
33097
33122
33086
33122
32924
33107
32905
33037
32909
33094
32973
33093
33058
33311
33313
33180
33154
33470
33313
33504
33423
33568
33402
33514
33551
33666
33556
33472
33502
33423
33462
33605
33562
33611
33510
33541
33721
33598
33451
33629
33633
33538
33634
33566
33728
33626
33669
33726
33568
33813
33635
33836
33829
33635
33685
33842
33743
33775
33793
33838
33855
33968
33821
33837
33924
33906
34046
34028
33958
34036
33939
34047
33994
34001
34064
34139
34016
34188
34284
34177
34194
34170
34284
34217
34304
34183
34402
34376
34379
34493
34281
34311
34290
34261
34482
34270
34405
34524
34443
34566
34474
34499
34478
34541
34485
34554
34481
34537
34552
34534
34564
34608
34574
34664
34581
34671
34616
34663
34658
34637
34677
34610
34646
34774
34692
34726
34719
34726
34728
34746
34665
34895
34704
34812
34791
34728
34791
34889
34876
34971
34972
34863
34940
34884
34875
34727
34772
34793
34711
34485
34341
34158
34159
33987
33870
33858
33836
33730
33577
33468
33426
33311
33277
33274
33257
33242
33277
33091
33045
33102
32979
33130
32959
33155
32998
32899
33069
33029
32960
33083
33048
32879
33081
32978
33073
32928
33037
33006
33219
33240
33051
33056
33119
33130
33272
33408
33407
33432
33291
33520
33352
33549
33426
33473
33393
33388
33521
33432
33450
33616
33415
33609
33518
33566
33554
33412
33519
33587
33566
33579
33485
33544
33432
33511
33454
33625
33534
33530
33506
33728
33695
33777
33731
33586
33585
33853
33718
33781
33802
33772
33856
33824
33816
33790
33934
33951
33898
33793
33813
33961
34068
34013
34013
34053
34189
34023
34144
34077
34024
34057
34068
34199
34131
34226
34205
34101
34240
34062
34275
34219
34302
34369
34329
34401
34366
34460
34401
34326
34345
34455
34283
34417
34291
34403
34393
34458
34519
34398
34498
34440
34557
34432
34402
34666
34595
34483
34593
34511
34535
34734
34699
34756
34602
34587
34670
34698
34772
34627
34841
34746
34748
34719
34704
34832
34806
34941
34935
34944
34716
34821
34599
34661
34420
34408
34231
34125
34100
33976
33749
33826
33789
33614
33558
33275
33402
33299
33253
33117
33127
33182
33041
33136
33059
33141
32949
32971
33069
33049
33071
32995
32988
32822
32828
32881
32819
33040
33061
32986
32928
32765
32935
33064
32959
32997
33000
33216
33112
33102
33255
33058
33179
33318
33363
33350
33229
33378
33346
33354
33499
33412
33303
33420
33516
33344
33440
33486
33331
33338
33508
33336
33501
33346
33486
33389
33430
33513
33435
33516
33513
33514
33524
33578
33573
33615
33616
33653
33606
33636
33660
33686
33692
33786
33731
33854
33853
33859
33910
33827
33791
33848
33876
33831
33833
33918
33902
33866
33944
33924
33972
33948
33983
34046
34043
34025
34087
34029
34052
34112
34062
34072
34107
34254
34109
34146
34167
34289
34208
34219
34245
34253
34252
34262
34428
34283
34412
34296
34286
34390
34483
34421
34365
34284
34389
34506
34515
34599
34569
34473
34600
34539
34496
34553
34662
34596
34497
34639
34538
34660
34722
34738
34666
34713
34632
34609
34774
34717
34810
34611
34762
34673
34880
34729
34814
34735
34934
35023
34808
34726
34788
34947
34877
34888
34806
34591
34439
34421
34463
34209
34230
34113
33932
33782
33494
33527
33526
33197
33252
33184
33115
33158
33011
33032
32974
32948
32974
32991
33054
32815
32859
32987
33001
32816
32908
32932
32944
32880
32688
32809
32709
32840
32689
32858
32722
32789
32739
32892
32955
32838
32964
33089
33009
32935
33190
33132
33068
33291
33322
33291
33268
33221
33336
33288
33283
33328
33292
33352
33239
33276
33238
33327
33298
33279
33396
33320
33351
33483
33421
33343
33438
33489
33494
33574
33560
33461
33371
33596
33375
33583
33643
33562
33685
33504
33528
33560
33601
33562
33734
33644
33767
33621
33657
33663
33840
33910
33750
33804
33820
33822
33820
33992
33845
34086
34005
33906
33918
34109
33995
33995
34190
34185
33970
34074
34028
34183
34310
34161
34357
34270
34132
34230
34374
34261
34307
34338
34321
34262
34302
34245
34312
34276
34367
34295
34480
34316
34401
34492
34417
34370
34564
34646
34470
34657
34664
34618
34460
34659
34648
34608
34798
34669
34818
34692
34805
34646
34816
34788
34842
34788
34660
34723
34723
34924
34740
34708
34809
34936
34811
34866
34977
35009
34919
34729
34714
34648
34712
34512
34397
34261
34289
33995
33828
33858
33696
33634
33501
33547
33443
33297
33285
33407
33223
33347
33194
33131
33182
33057
33109
32994
33005
33006
33146
33029
33119
32939
33051
32871
33054
32916
32885
33016
33004
33090
33024
33087
32962
33183
32991
33063
33157
33335
33384
33297
33238
33373
33392
33378
33490
33497
33457
33366
33436
33511
33586
33593
33497
33574
33506
33543
33584
33468
33395
33422
33589
33499
33500
33469
33464
33607
33731
33628
33640
33594
33565
33481
33688
33504
33693
33762
33699
33630
33687
33732
33747
33814
33680
33678
33733
33707
33716
33730
33902
33961
33826
33940
33968
34093
34093
33901
33986
34042
33955
34147
34224
34173
34324
34106
34071
34230
34310
34196
34206
34391
34415
34462
34402
34427
34231
34271
34483
34432
34419
34463
34289
34387
34574
34460
34589
34447
34377
34406
34357
34399
34451
34531
34511
34510
34570
34401
34572
34620
34618
34526
34625
34580
34615
34666
34676
34689
34659
34686
34786
34756
34863
34778
34681
34808
34916
34919
34873
34950
34957
34752
34976
34948
34860
34761
34678
34739
34432
34529
34416
34241
34190
33963
33899
33877
33723
33675
33439
33491
33444
33380
33179
33244
33205
33204
33252
33155
33205
33164
33087
33065
33060
33035
32981
33026
33046
33093
33012
32923
33112
33080
32949
33028
33013
33025
33071
33185
33292
33178
33267
33205
33204
33313
33340
33448
33471
33490
33665
33530
33588
33581
33581
33584
33638
33578
33632
33708
33652
33772
33580
33501
33607
33612
33576
33751
33615
33605
33778
33725
33630
33606
33606
33797
33629
33673
33799
33766
33739
33862
33815
33882
34043
33867
33769
33789
33760
34044
33842
34060
34029
33868
33942
34086
34075
34033
34153
34068
34250
34140
34084
34182
34151
34159
34144
34294
34383
34277
34360
34228
34434
34409
34523
34436
34349
34364
34528
34380
34352
34574
34514
34594
34452
34680
34475
34547
34518
34621
34705
34728
34767
34697
34758
34543
34648
34608
34786
34586
34775
34685
34637
34828
34904
34844
34863
34767
34790
34752
34794
34930
34916
34921
34901
34861
34903
34819
34958
35026
35063
34967
34973
35063
35060
34919
35117
35072
35114
35114
35000
35101
35147
35079
35157
35111
34938
35110
35054
34850
34635
34534
34552
34359
34283
34312
34146
33794
33839
33614
33623
33540
33387
33438
33459
33220
33286
33160
33294
33094
33170
33225
33098
33115
33025
33089
33012
33180
33207
33122
32947
33051
32996
33139
33082
33135
33003
33214
33144
33193
33083
33323
33281
33256
33244
33390
33481
33505
33461
33432
33386
33551
33657
33568
33709
33542
33680
33624
33581
33609
33467
33620
33597
33738
33616
33567
33583
33739
33674
33555
33698
33654
33798
33644
33642
33586
33612
33619
33607
33868
33908
33690
33719
33768
33927
33802
33897
33817
34060
33938
33826
34021
34067
34053
34024
34049
33997
34126
34131
34283
34178
34230
34149
34320
34195
34205
34179
34157
34395
34388
34312
34257
34456
34320
34293
34504
34476
34418
34374
34467
34375
34583
34387
34468
34566
34589
34711
34517
34575
34748
34713
34519
34704
34840
34751
34823
34752
34797
34662
34638
34789
34684
34761
34743
34843
34978
34946
34948
35022
34923
34999
34847
34815
35010
34845
35016
34951
34984
34954
35147
35067
35027
35035
34962
35104
34979
35214
35208
35155
34993
35284
35197
35092
35148
35329
35316
35271
35259
35202
35200
34988
35028
34899
34835
34771
34583
34631
34303
34195
34085
34041
33959
33881
33748
33615
33655
33475
33580
33514
33344
33461
33474
33409
33343
33167
33155
33237
33114
33152
33126
33096
33223
33290
33311
33117
33228
33245
33162
33112
33140
33268
33245
33378
33383
33316
33343
33457
33328
33366
33601
33470
33645
33511
33650
33679
33727
33591
33744
33507
33711
33807
33704
33602
33672
33563
33683
33657
33667
33634
33626
33744
33691
33712
33629
33762
33672
33684
33646
33737
33809
33680
33918
33746
33733
33908
34005
33993
34044
33974
34054
33928
33963
33842
34001
33930
33931
34127
33986
34028
34038
34160
34093
34235
34176
34141
34279
34179
34133
34299
34330
34347
34402
34214
34275
34304
34263
34434
34469
34498
34368
34362
34459
34448
34532
34526
34475
34564
34578
34459
34508
34638
34674
34467
34726
34574
34666
34667
34694
34693
34579
34736
34890
34852
34696
34693
34933
34695
34881
34716
34756
34932
34881
34800
34973
34862
34823
34885
34900
35030
35061
35046
35025
34910
35126
35020
34998
35033
35074
35123
35103
35124
35234
35162
35218
35056
35094
35063
34925
34829
34774
34689
34444
34553
34347
34166
34054
33844
33894
33683
33640
33706
33437
33573
33323
33314
33375
33325
33406
33106
33192
33168
33313
33237
33014
33057
33074
33165
33051
33134
33065
33096
33007
33058
33150
33047
33091
33102
33119
33127
33029
33081
33269
33230
33321
33316
33360
33392
33440
33378
33436
33475
33505
33512
33524
33541
33554
33560
33605
33560
33600
33580
33622
33660
33585
33476
33501
33702
33649
33684
33480
33674
33564
33713
33731
33726
33590
33550
33757
33783
33664
33799
33745
33675
33839
33760
33908
33846
33923
33770
34011
33980
33955
33965
33874
33849
33937
33975
34025
33937
33969
34147
34063
34047
34064
34113
34221
34258
34209
34264
34313
34229
34293
34361
34343
34274
34376
34355
34238
34278
34543
34360
34422
34466
34574
34423
34509
34396
34397
34383
34600
34637
34658
34678
34585
34674
34570
34542
34586
34746
34707
34704
34594
34721
34830
34747
34832
34818
34677
34876
34833
34823
34784
34894
34754
34997
34841
34810
35089
34866
34940
34972
34905
34914
34954
34997
35082
35093
35146
35021
35080
35049
35111
35095
35285
35153
35241
35201
35152
35108
34899
34936
34895
34810
34526
34474
34273
34259
34134
33987
33867
33761
33680
33645
33527
33487
33422
33314
33402
33259
33311
33235
33271
33240
33085
33096
33115
33109
32974
33147
33024
33160
33084
33134
32902
33093
32890
33047
33022
32973
32969
32953
32975
33174
33098
33210
33292
33117
33311
33442
33253
33396
33471
33448
33310
33344
33452
33429
33378
33486
33658
33549
33503
33466
33452
33503
33505
33472
33512
33511
33523
33511
33554
33415
33554
33647
33660
33568
33506
33726
33608
33643
33772
33828
33696
33640
33582
33603
33634
33834
33750
33693
33889
33836
33721
33822
33997
33842
33881
33992
33967
33841
33924
34095
33967
34042
34007
33945
33966
33987
34023
34047
34170
34133
34163
34157
34173
34214
34235
34216
34189
34279
34406
34346
34194
34344
34435
34430
34292
34473
34425
34317
34335
34382
34332
34475
34416
34448
34408
34588
34606
34552
34539
34456
34450
34584
34632
34595
34487
34555
34558
34636
34587
34677
34768
34708
34675
34629
34664
34689
34748
34909
34748
34953
34833
34884
34897
35013
34848
34837
34915
34937
35061
34901
34854
35007
34781
34817
34758
34456
34329
34302
34368
34028
34191
33885
33754
33661
33508
33539
33368
33421
33411
33345
33319
33371
33145
33096
33077
33244
33174
33178
33021
33161
33008
32970
33082
33061
33031
33013
33138
33055
33002
33028
33133
33005
33136
33098
33068
33090
33245
33169
33213
33108
33352
33439
33415
33456
33502
33492
33563
33508
33572
33512
33413
33467
33471
33661
33621
33438
33550
33638
33633
33542
33672
33570
33676
33480
33731
33551
33711
33520
33715
33619
33660
33652
33686
33724
33620
33826
33764
33775
33696
33902
33804
33868
33812
33913
33726
33964
33764
33973
33774
33975
34037
34016
34026
33878
34073
34129
33876
33910
33998
34159
33949
34193
34174
34092
34193
34119
34232
34233
34258
34138
34232
34344
34316
34337
34370
34213
34447
34231
34263
34253
34470
34369
34283
34416
34324
34446
34562
34500
34580
34393
34602
34410
34475
34503
34488
34619
34425
34615
34661
34605
34661
34627
34551
34757
34705
34756
34651
34787
34613
34749
34779
34727
34752
34791
34783
34854
34743
34823
34849
34916
34942
34897
34909
34904
34916
35022
34943
34905
34854
35030
34846
34880
34650
34495
34531
34437
34359
34039
33888
33949
33758
33626
33571
33344
33307
33369
33208
33279
33291
33072
32993
33030
33038
33036
32939
33092
33095
33016
32919
33047
32955
32923
32905
32844
32971
32872
32878
32952
32877
32905
32957
32970
33085
32926
33125
33091
32999
33136
33162
33076
33278
33271
33118
33174
33374
33277
33411
33280
33486
33321
33509
33244
33503
33404
33364
33550
33429
33319
33328
33527
33402
33458
33561
33346
33438
33484
33587
33466
33365
33523
33419
33500
33611
33610
33477
33572
33628
33709
33623
33676
33603
33533
33640
33619
33667
33805
33823
33873
33829
33687
33800
33875
33921
33959
34018
34033
33959
33938
33866
33916
34004
34118
34078
34049
34169
33979
34208
34180
34128
34041
34125
34157
34155
34322
34169
34325
34269
34401
34327
34112
34410
34463
34330
34299
34265
34432
34401
34414
34396
34289
34345
34492
34525
34504
34578
34535
34482
34470
34506
34385
34638
34539
34444
34392
34579
34662
34516
34599
34598
34663
34545
34651
34547
34517
34519
34659
34547
34628
34514
34675
34775
34622
34811
34752
34559
34688
34645
34455
34512
34447
34244
34215
34072
33892
33881
33638
33623
33548
33443
33371
33190
33323
33193
33088
32965
33058
32970
33070
32916
33013
33050
32857
32947
32873
32846
32987
32959
32997
32879
32912
32739
32916
32792
32759
32985
33014
32850
32855
32909
32946
32958
32954
33072
33170
33123
33181
33165
33246
33412
33308
33416
33314
33430
33363
33415
33299
33408
33356
33254
33335
33359
33275
33378
33526
33416
33327
33259
33315
33449
33402
33484
33346
33368
33397
33380
33578
33388
33569
33365
33528
33500
33502
33672
33491
33613
33593
33663
33566
33638
33593
33542
33659
33513
33736
33796
33595
33767
33645
33743
33777
33854
33913
33873
33805
33936
33757
33911
33964
34052
33993
33833
34014
34000
34056
34122
34066
34001
34109
34026
34097
34058
34203
34129
34157
34228
34202
34234
34145
34332
34218
34213
34413
34252
34305
34189
34355
34343
34244
34455
34338
34371
34325
34469
34393
34422
34405
34336
34461
34493
34400
34414
34459
34557
34612
34448
34369
34470
34441
34506
34578
34501
34451
34570
34529
34635
34676
34615
34460
34498
34428
34427
34234
34046
33971
33954
33785
33488
33588
33311
33394
33429
33122
33041
33052
32949
33121
33005
33020
32947
32849
32832
32839
32779
32855
32749
32935
32746
32867
32709
32868
32684
32772
32761
32822
32755
32772
32837
32776
32642
32738
32816
32937
32738
32932
33043
32965
33010
32880
33098
32979
33059
33192
33092
33036
33185
33091
33122
33175
33142
33119
33267
33204
33101
33229
33177
33176
33203
33208
33218
33165
33360
33232
33150
33343
33418
33366
33239
33210
33412
33387
33306
33265
33455
33413
33499
33458
33569
33433
33535
33408
33409
33482
33677
33416
33657
33503
33756
33626
33742
33589
33713
33687
33798
33695
33637
33679
33783
33777
33724
33705
33956
33765
33782
33912
33968
33894
34053
33997
34099
34012
33976
33956
33934
33977
34141
34046
34040
34157
34027
34152
34193
34169
34038
34244
34201
34169
34214
34282
34199
34099
34210
34190
34376
34143
34250
34390
34396
34255
34456
34270
34332
34303
34336
34314
34481
34345
34564
34422
34342
34502
34342
34532
34569
34485
34382
34353
34341
34156
34160
33866
33918
33795
33647
33434
33409
33383
33210
33162
33002
32903
33018
32987
32880
32967
32885
32667
32626
32888
32657
32758
32746
32644
32580
32755
32678
32757
32658
32680
32630
32610
32625
32735
32708
32751
32686
32591
32703
32642
32711
32670
32908
32750
32847
32866
32857
32989
33019
33100
33207
33061
33220
33126
33250
33099
33041
33236
33125
33216
33081
33185
33278
33260
33134
33214
33077
33180
33184
33133
33134
33091
33206
33119
33332
33233
33359
33209
33245
33314
33320
33375
33432
33312
33333
33435
33402
33482
33362
33420
33548
33572
33599
33491
33590
33692
33480
33607
33502
33748
33770
33796
33648
33865
33816
33830
33749
33696
33921
33726
33859
33909
33829
33990
33865
33951
34084
34010
34117
34110
33962
34033
34143
34040
34089
33996
34208
34051
34221
34248
34145
34062
34102
34222
34286
34129
34205
34352
34309
34222
34332
34307
34352
34267
34416
34372
34424
34321
34265
34404
34287
34408
34313
34574
34389
34407
34482
34616
34542
34614
34603
34668
34647
34406
34532
34413
34576
34486
34253
34258
34133
34137
33830
33801
33627
33671
33409
33346
33288
33238
33152
33046
33053
32936
32880
32975
32823
32918
32866
32954
32763
32836
32857
32687
32785
32803
32867
32811
32699
32746
32743
32612
32673
32797
32618
32807
32725
32744
32820
32814
32749
32839
32806
32876
33055
32928
32949
32987
33044
33005
33267
33177
33241
33330
33269
33341
33283
33105
33212
33216
33204
33234
33188
33185
33282
33179
33113
33272
33333
33198
33201
33236
33154
33314
33261
33298
33255
33471
33532
33330
33325
33538
33381
33534
33357
33495
33392
33461
33548
33668
33478
33619
33626
33614
33581
33648
33548
33651
33583
33756
33769
33763
33752
33894
33820
33735
33775
33772
33973
33968
33884
33792
33870
34036
33938
33922
33993
33982
34082
34026
34143
34025
34128
34112
34070
34143
34012
34215
34268
34140
34341
34179
34278
34162
34113
34325
34367
34203
34338
34236
34306
34339
34447
34399
34376
34403
34352
34336
34383
34561
34572
34580
34574
34496
34465
34656
34596
34460
34439
34671
34599
34674
34493
34518
34392
34516
34268
34241
34272
34114
33998
33879
33700
33517
33489
33378
33330
33315
33185
33212
33034
33126
32981
33078
32952
32916
32840
32907
32753
32783
32968
32834
32919
32939
32752
32695
32712
32872
32768
32696
32751
32758
32856
32779
32866
32838
32798
32795
32871
32905
32960
32972
33194
33236
33273
33091
33271
33232
33209
33250
33318
33393
33354
33380
33380
33483
33336
33323
33325
33437
33393
33411
33419
33380
33419
33369
33373
33385
33368
33414
33433
33427
33470
33419
33475
33464
33510
33495
33613
33581
33701
33564
33640
33653
33594
33525
33557
33705
33682
33630
33834
33669
33631
33778
33661
33697
33980
33802
33812
33856
33872
33961
33997
33996
34086
34012
33952
33951
34145
34055
34196
34120
34259
34158
34156
34224
34253
34305
34154
34205
34346
34318
34253
34249
34409
34443
34361
34306
34302
34500
34360
34508
34508
34535
34413
34486
34402
34582
34557
34456
34518
34597
34667
34572
34724
34607
34586
34663
34517
34643
34752
34694
34808
34631
34770
34873
34806
34852
34866
34775
34911
34751
34825
34763
34776
34780
34805
34830
34789
34643
34551
34553
34335
34259
34172
33906
33792
33740
33721
33413
33418
33374
33140
33201
33039
33157
33011
32913
32949
32878
32918
32831
32966
32910
32919
32985
32885
32705
32876
32751
32822
32919
32874
32851
32921
32814
32754
32713
32730
32893
32906
32811
32791
32954
32839
32944
32959
32957
33194
33003
33099
33130
33177
33394
33249
33276
33320
33217
33376
33411
33389
33482
33261
33297
33460
33268
33425
33367
33330
33368
33418
33355
33549
33340
33386
33448
33558
33378
33435
33623
33503
33674
33463
33483
33627
33614
33471
33610
33582
33485
33666
33594
33808
33668
33695
33761
33886
33781
33823
33859
33819
33906
34034
33885
34038
33951
33895
33877
34029
34059
34089
34096
34132
34156
34084
34059
34195
34070
34297
34115
34160
34348
34288
34247
34173
34372
34424
34430
34262
34351
34381
34441
34443
34385
34508
34449
34390
34465
34548
34552
34529
34522
34515
34601
34566
34452
34610
34625
34550
34720
34678
34628
34635
34608
34635
34694
34641
34713
34839
34648
34814
34749
34698
34961
34763
34762
34957
34946
34779
34912
35047
34832
34968
34859
34728
34950
34799
34819
34632
34379
34429
34140
34026
34046
33854
33757
33685
33455
33374
33499
33327
33292
33150
33211
33236
33256
33033
33073
33164
32956
33120
32930
32950
32964
32927
33143
32987
33022
33033
33084
33051
33086
33063
33090
32901
32876
33069
33033
33041
33171
33151
33081
33137
33245
33195
33166
33460
33417
33419
33363
33450
33358
33572
33502
33393
33591
33580
33627
33586
33604
33509
33397
33568
33403
33498
33607
33543
33585
33630
33571
33704
33658
33590
33663
33722
33698
33545
33757
33566
33797
33751
33822
33789
33631
33799
33865
33913
33855
33890
33809
33784
33849
33864
34009
33960
33853
33965
33980
33975
34011
33970
33980
34057
34116
34235
34160
34090
34205
34054
34166
34286
34216
34297
34418
34217
34351
34337
34418
34416
34471
34392
34532
34482
34409
34405
34416
34480
34435
34464
34413
34583
34549
34696
34512
34500
34516
34724
34717
34502
34665
34794
34642
34590
34629
34673
34808
34738
34723
34791
34697
34793
34728
34757
34923
34759
34969
34788
34851
34903
34815
35005
34889
35038
34853
35037
34902
34811
34772
34667
34605
34400
34306
34302
34041
33937
33858
33875
33865
33618
33575
33499
33556
33375
33263
33301
33121
33162
33108
33130
33122
33099
33095
32971
33042
32915
33091
33063
32962
32950
33095
33049
33038
33000
33077
33052
33031
32945
33052
32933
33026
33274
33192
33223
33291
33245
33247
33312
33347
33401
33453
33422
33468
33523
33500
33589
33538
33421
33533
33409
33535
33633
33477
33432
33503
33545
33531
33648
33683
33636
33625
33539
33515
33608
33701
33526
33639
33596
33535
33589
33622
33644
33628
33713
33773
33800
33785
33820
33759
33709
33826
33771
33850
33928
33858
34030
33891
33849
33854
34084
34000
34132
33973
34015
33926
34047
34192
34207
34240
34052
34156
34236
34078
34130
34376
34299
34386
34309
34332
34426
34269
34291
34464
34501
34504
34450
34354
34544
34514
34411
34490
34488
34431
34495
34524
34535
34442
34585
34476
34611
34644
34621
34665
34581
34793
34586
34677
34806
34855
34736
34632
34677
34671
34703
34890
34689
34864
34677
34839
34934
34903
34816
35029
34980
34794
34964
34938
35031
34853
34902
34990
35098
34936
35056
34880
34841
34834
34775
34639
34429
34460
34441
34231
34202
33950
33796
33775
33775
33694
33622
33575
33442
33325
33269
33366
33241
33130
33146
33254
33082
33129
33080
33200
33003
33022
33148
32964
33050
33042
32890
32933
33103
33052
32905
33126
33090
33033
33127
32970
33203
33110
33250
33108
33156
33240
33358
33231
33277
33377
33369
33310
33464
33532
33412
33524
33541
33519
33420
33411
33643
33564
33440
33506
33427
33518
33426
33574
33636
33536
33688
33641
33446
33643
33623
33555
33678
33528
33596
33639
33651
33752
33705
33674
33778
33830
33618
33732
33757
33678
33811
33776
33897
33898
33861
33925
34001
33883
33899
33861
33965
33880
33952
34017
34050
34017
33981
34060
33928
34079
34198
34041
34160
34141
34126
34273
34242
34255
34245
34297
34309
34253
34328
34356
34324
34388
34334
34352
34429
34400
34376
34422
34328
34353
34446
34376
34344
34505
34599
34411
34400
34481
34601
34482
34418
34684
34556
34535
34491
34472
34536
34448
34745
34718
34683
34682
34568
34782
34603
34665
34643
34878
34722
34647
34935
34678
34818
34776
34771
34897
34742
34706
34711
34592
34516
34639
34397
34380
34300
34033
33999
33951
33665
33693
33610
33417
33516
33286
33442
33233
33359
33136
33214
33265
33192
33093
33159
33133
33020
33005
32919
33101
33083
33000
33003
33170
32986
33045
33121
33005
33122
33136
33075
33034
33079
33116
33072
33145
33091
33340
33281
33301
33377
33435
33257
33429
33453
33415
33560
33554
33492
33603
33438
33544
33475
33445
33543
33533
33456
33631
33643
33624
33469
33658
33652
33547
33702
33664
33725
33632
33651
33726
33592
33566
33673
33792
33669
33783
33746
33851
33755
33908
33746
33838
33771
33825
33885
33847
33899
34038
33950
33812
33956
34005
33964
34012
33963
33976
34142
34093
34116
34115
34120
34035
34044
34172
34046
34129
34057
34211
34192
34328
34167
34254
34309
34397
34299
34151
34233
34407
34292
34305
34318
34275
34411
34288
34377
34472
34460
34521
34562
34566
34531
34451
34542
34573
34634
34628
34390
34548
34452
34474
34590
34658
34691
34563
34562
34537
34691
34670
34791
34652
34705
34781
34716
34783
34897
34693
34637
34816
34847
34774
34901
34791
34895
34754
34579
34711
34648
34618
34561
34399
34096
34231
33992
34030
33749
33796
33578
33573
33393
33422
33375
33297
33239
33247
33055
33049
33069
33119
33197
33105
32917
33050
32928
33114
33114
32940
33127
32989
33042
32989
33016
32951
32929
32860
33027
32972
32944
32919
32966
33156
33099
32986
33086
33064
33166
33247
33199
33359
33425
33348
33333
33380
33324
33312
33345
33494
33596
33437
33339
33559
33362
33426
33351
33559
33515
33331
33476
33321
33572
33576
33433
33624
33451
33460
33471
33465
33472
33525
33590
33545
33441
33501
33741
33554
33656
33690
33676
33745
33725
33855
33739
33650
33781
33680
33928
33849
33972
33848
33854
33932
33830
34015
34056
33813
33902
34005
33946
33988
33933
34021
34171
34068
34205
34120
34213
34120
34166
34131
34188
34206
34172
34092
34209
34234
34243
34398
34320
34343
34393
34343
34315
34268
34446
34264
34401
34437
34358
34365
34298
34362
34336
34435
34415
34420
34467
34521
34592
34466
34462
34440
34580
34648
34494
34553
34678
34552
34612
34663
34688
34716
34645
34556
34696
34650
34618
34663
34630
34807
34859
34723
34628
34716
34856
34721
34658
34511
34525
34242
34172
34174
34018
33802
33744
33707
33783
33587
33607
33374
33243
33235
33269
33241
33203
33020
33247
33048
33053
33072
32960
32989
33080
33022
32937
32990
33100
32996
32899
32999
33058
32966
33105
32970
33136
33034
33058
33080
33150
33081
33204
33197
33265
33345
33343
33414
33403
33488
33425
33300
33505
33375
33335
33505
33319
33456
33304
33452
33378
33523
33473
33495
33445
33455
33316
33572
33365
33520
33435
33464
33666
33566
33436
33610
33500
33484
33488
33711
33650
33663
33539
33764
33742
33615
33780
33680
33762
33711
33633
33741
33813
33738
33733
33809
33786
33790
33859
33800
33897
33818
33858
33881
33918
34094
34009
34099
33950
34038
34087
33991
34086
34219
34201
33938
34196
34258
34228
33992
34206
34234
34275
34255
34139
34235
34209
34240
34249
34320
34221
34262
34329
34307
34452
34429
34436
34287
34413
34317
34416
34275
34337
34390
34311
34555
34510
34457
34442
34431
34465
34580
34406
34504
34474
34591
34589
34666
34624
34548
34496
34666
34632
34531
34601
34640
34765
34688
34586
34556
34654
34565
34331
34459
34351
34071
34168
34000
33896
33636
33524
33513
33606
33386
33299
33325
33192
33297
33076
33202
33158
33159
33097
33055
33077
33037
33108
33060
32973
32928
33125
32931
32914
33033
32978
33064
32868
33020
32942
33048
32936
32997
32991
33033
33231
33100
33029
33135
33376
33284
33233
33367
33308
33295
33307
33256
33441
33463
33372
33333
33469
33361
33494
33513
33474
33473
33486
33361
33423
33442
33630
33604
33503
33598
33538
33576
33423
33460
33551
33682
33660
33559
33656
33712
33549
33654
33717
33566
33622
33826
33684
33677
33692
33666
33744
33875
33808
33698
33889
33810
33798
33953
33922
33911
34022
33890
34017
33948
34081
34085
34077
34089
33949
33940
33949
33984
34153
34003
34276
34142
34215
34184
34230
34163
34133
34329
34215
34297
34147
34315
34324
34292
34413
34325
34435
34331
34316
34318
34437
34401
34427
34352
34314
34318
34299
34389
34530
34481
34530
34351
34487
34342
34416
34522
34450
34366
34569
34650
34605
34643
34531
34479
34672
34544
34484
34645
34655
34666
34724
34679
34725
34597
34745
34510
34629
34576
34566
34464
34261
34112
34068
33822
33901
33778
33723
33412
33450
33529
33240
33205
33297
33057
33063
33218
33209
33174
33038
33074
33026
32973
32854
33048
33002
33022
32841
32979
32828
32877
32817
32921
33005
32788
32911
32829
32936
32902
32953
32847
32976
32936
33146
33024
33075
33213
33306
33281
33155
33265
33218
33377
33472
33310
33446
33398
33508
33530
33459
33423
33386
33398
33430
33469
33434
33572
33526
33405
33409
33546
33454
33445
33582
33388
33425
33434
33468
33678
33618
33395
33539
33690
33495
33513
33564
33746
33653
33599
33749
33728
33687
33791
33778
33677
33758
33812
33801
33795
33811
33788
33879
33805
33869
33964
33971
33918
33916
34005
34099
34013
34046
33985
34044
34019
34167
34083
34047
34052
34134
34270
34275
34124
34279
34145
34181
34314
34173
34165
34212
34209
34245
34334
34388
34482
34281
34436
34332
34293
34473
34326
34278
34474
34482
34326
34319
34383
34361
34361
34551
34381
34348
34589
34482
34433
34512
34645
34618
34526
34600
34498
34599
34684
34548
34559
34722
34502
34674
34588
34548
34615
34546
34577
34535
34371
34220
34215
34019
34068
34040
33815
33675
33649
33513
33535
33465
33464
33342
33264
33139
33268
33173
33188
33135
33108
33197
33157
32971
33166
33011
32874
33105
33095
32977
32980
33109
33052
33006
33104
32844
33067
33097
32906
33081
33116
33016
33213
33098
32996
33126
33287
33195
33246
33268
33386
33400
33500
33324
33436
33469
33316
33585
33486
33356
33478
33460
33488
33388
33400
33464
33570
33329
33480
33355
33508
33618
33614
33661
33669
33481
33417
33533
33677
33576
33659
33552
33581
33645
33589
33648
33639
33585
33670
33818
33721
33684
33787
33645
33824
33674
33812
33769
33946
33799
33800
33780
33859
33881
34049
34018
34085
34023
34067
33992
33974
33957
33980
33975
34142
34051
34020
34011
34289
34198
34303
34141
34196
34313
34186
34351
34262
34272
34196
34308
34386
34311
34339
34377
34290
34362
34382
34378
34437
34377
34537
34430
34460
34423
34556
34547
34379
34617
34512
34568
34493
34517
34624
34497
34626
34517
34669
34480
34572
34467
34655
34774
34601
34727
34737
34653
34735
34710
34680
34554
34513
34365
34437
34255
34137
34115
33949
33869
33717
33557
33585
33539
33452
33375
33298
33242
33103
33092
33086
32995
33195
33085
33146
32995
33015
33044
32930
33036
32823
32902
33068
32899
32889
32858
32900
33027
32861
33007
32985
33025
32937
32874
32933
32962
33082
33055
33204
33270
33235
33306
33278
33225
33308
33323
33475
33448
33545
33400
33538
33422
33472
33447
33532
33427
33315
33396
33350
33537
33564
33341
33442
33444
33410
33542
33547
33502
33467
33649
33423
33549
33645
33677
33659
33641
33640
33622
33755
33642
33600
33668
33711
33749
33812
33672
33645
33645
33815
33809
33725
33885
33812
33815
33891
33980
33896
33823
33942
33926
33931
34036
33929
34092
34055
34114
33928
33903
34170
34120
34022
34040
34169
34161
34196
34146
34189
34108
34265
34111
34285
34350
34263
34187
34340
34183
34234
34441
34342
34253
34300
34388
34364
34377
34304
34495
34404
34423
34323
34449
34410
34345
34413
34469
34577
34428
34365
34591
34636
34509
34401
34581
34532
34681
34551
34538
34479
34496
34644
34506
34561
34784
34630
34734
34604
34659
34713
34710
34681
34614
34549
34564
34506
34414
34218
34207
34158
34111
33872
33814
33839
33551
33550
33500
33312
33400
33404
33271
33109
33210
33125
33251
33065
33056
32942
33092
33048
32995
33075
33113
32879
32843
33011
32920
32909
32997
32814
32906
32820
32938
32901
32934
32948
32979
32936
33134
33078
32954
33126
33230
33097
33239
33180
33403
33224
33391
33214
33454
33375
33483
33444
33331
33445
33463
33497
33425
33434
33419
33313
33392
33410
33493
33300
33501
33405
33522
33387
33400
33528
33606
33539
33635
33530
33568
33460
33432
33544
33566
33524
33644
33643
33575
33517
33685
33566
33675
33759
33718
33639
33724
33842
33716
33684
33776
33712
33806
33762
33746
33937
33828
33820
33902
33864
34079
34074
34112
33922
33977
34156
34183
33973
33953
34039
34073
34074
34185
34207
34168
34227
34128
34075
34240
34169
34251
34191
34305
34182
34201
34433
34358
34455
34289
34393
34268
34434
34376
34488
34471
34515
34340
34419
34505
34415
34524
34426
34547
34651
34488
34564
34623
34491
34575
34471
34626
34572
34634
34586
34663
34623
34531
34675
34696
34640
34566
34751
34613
34638
34663
34811
34558
34556
34564
34592
34545
34203
34309
34181
34058
34022
33744
33875
33721
33553
33487
33524
33299
33287
33428
33134
33299
33309
33322
33239
33115
33201
33202
33187
33114
33084
33102
32942
32968
32901
33036
33007
32841
32962
32995
33116
32917
32925
33080
32956
33009
33218
33107
33221
33236
33385
33316
33246
33179
33390
33382
33419
33426
33382
33469
33533
33530
33464
33391
33496
33531
33478
33514
33610
33617
33436
33434
33500
33511
33493
33515
33533
33553
33545
33528
33474
33503
33543
33712
33635
33637
33642
33676
33607
33678
33729
33720
33724
33751
33764
33792
33816
33881
33884
33827
33815
33815
33860
33884
33952
33824
33879
33888
33901
33970
34074
33922
33992
34114
34098
34117
33959
34044
34019
34184
34144
34225
34168
34178
34219
34335
34158
34162
34169
34268
34240
34279
34281
34324
34299
34333
34347
34378
34417
34297
34445
34494
34351
34512
34505
34441
34322
34476
34575
34591
34580
34606
34501
34568
34475
34534
34459
34425
34597
34462
34495
34649
34725
34622
34606
34592
34653
34630
34724
34714
34655
34615
34526
34558
34432
34432
34227
34126
34076
33964
33835
33633
33571
33672
33375
33370
33383
33128
33386
33080
33300
33038
33055
33001
33101
33038
32942
33036
32897
33014
33145
32942
32903
32892
33015
32920
33012
32873
32994
33097
32920
33062
32992
32898
33090
33017
33104
33024
33067
33242
33209
33355
33307
33371
33465
33425
33320
33351
33491
33356
33401
33570
33456
33442
33500
33451
33560
33542
33458
33529
33405
33436
33456
33554
33497
33389
33577
33409
33546
33498
33628
33468
33539
33605
33510
33666
33680
33687
33777
33675
33616
33811
33802
33800
33701
33791
33812
33901
33786
33677
33759
33729
33913
33844
33834
34047
33931
33998
33910
34096
33978
34031
34077
33980
34161
34019
34118
33986
34110
34053
34146
34076
34019
34099
34325
34265
34331
34413
34251
34195
34230
34322
34290
34239
34332
34456
34330
34251
34408
34404
34355
34354
34387
34385
34517
34404
34290
34389
34353
34437
34498
34408
34559
34574
34517
34398
34648
34593
34473
34437
34480
34540
34470
34661
34599
34501
34492
34474
34668
34546
34556
34479
34612
34548
34517
34593
34604
34482
34407
34207
34068
33950
34000
33726
33677
33665
33386
33408
33298
33208
33216
33301
33101
33165
33047
33163
33063
33142
33044
33095
32918
33009
32835
32916
32749
32797
32964
32848
32769
32857
32899
32861
32747
32888
32950
32753
32744
32822
32834
33058
32885
32922
33006
33006
33186
33218
33148
33123
33176
33261
33264
33171
33215
33231
33438
33427
33432
33332
33295
33417
33265
33314
33466
33393
33240
33270
33299
33268
33239
33409
33291
33378
33345
33530
33402
33320
33532
33519
33552
33401
33451
33486
33462
33447
33478
33659
33726
33701
33503
33599
33778
33686
33543
33688
33857
33830
33851
33859
33887
33764
33768
33973
33850
34007
33900
34066
33998
33846
33973
34042
34005
33924
33973
34010
34129
34095
34158
34077
34183
34098
34208
34268
34006
34225
34148
34281
34205
34287
34120
34176
34234
34399
34230
34164
34318
34352
34386
34212
34271
34283
34261
34402
34276
34468
34279
34450
34459
34381
34504
34418
34435
34480
34303
34432
34343
34485
34492
34384
34568
34437
34630
34600
34604
34466
34542
34666
34652
34681
34503
34546
34508
34449
34550
34358
34442
34170
34340
34158
33905
33907
33890
33755
33433
33484
33485
33457
33362
33102
33115
33008
33192
33006
33117
32973
32932
33087
33032
33073
32922
33050
32926
32892
33007
32866
32884
32760
32914
32737
32951
32869
32933
32936
32898
32802
33031
33031
32942
32928
33080
32952
33118
33212
33058
33321
33117
33113
33258
33321
33266
33218
33199
33427
33294
33349
33232
33254
33220
33365
33328
33304
33404
33395
33443
33392
33246
33299
33440
33383
33378
33308
33468
33340
33480
33474
33454
33582
33489
33434
33416
33434
33459
33428
33665
33664
33658
33567
33709
33634
33686
33641
33656
33723
33683
33655
33715
33665
33823
33680
33880
33855
33919
33927
33811
33859
33877
33990
33831
33956
33887
33841
33957
33842
33873
34058
33945
33859
34014
34041
33947
34084
34116
34100
34216
34086
34292
34079
33938
34226
34083
34151
34159
34243
34154
34138
34265
34201
34096
34281
34181
34236
34345
34172
34142
34361
34306
34188
34359
34395
34373
34375
34487
34386
34388
34367
34313
34343
34355
34407
34331
34423
34459
34333
34467
34319
34394
34297
34188
34057
33902
33989
33733
33473
33527
33508
33256
33113
33286
33286
32946
32954
33111
32927
32841
32916
32994
32873
32943
32736
32771
32799
32791
32903
32762
32689
32639
32857
32818
32710
32719
32782
32657
32710
32640
32591
32686
32812
32644
32916
32824
32806
32935
32893
32955
32988
32966
33054
33086
33120
33235
33059
33255
33136
33258
33084
33305
33227
33125
33081
33250
33274
33224
33065
33186
33249
33246
33321
33114
33335
33111
33143
33312
33206
33411
33314
33402
33316
33204
33333
33423
33447
33234
33314
33508
33382
33304
33453
33470
33450
33482
33555
33567
33513
33509
33464
33669
33697
33552
33672
33580
33677
33752
33720
33662
33636
33880
33679
33826
33787
33857
33791
33728
33811
33766
33984
33732
33971
34010
34006
33902
33903
33977
33872
33991
33880
34025
34018
33987
33999
34132
34123
33971
34080
33939
34022
34132
34152
34188
34167
34298
34101
34245
34114
34090
34155
34260
34356
34209
34226
34120
34383
34185
34404
34395
34335
34449
34370
34280
34295
34333
34482
34471
34557
34527
34344
34390
34586
34468
34483
34666
34559
34685
34547
34498
34594
34599
34519
34399
34380
34265
34252
34094
33814
33817
33657
33616
33407
33474
33276
33189
33260
33128
33175
32951
33080
33124
33026
32824
32906
32845
32924
32780
32873
32886
32915
32700
32700
32795
32851
32920
32765
32825
32682
32860
32740
32850
32698
32840
32661
32707
32860
32938
