29198
29090
29080
29108
29116
29162
29133
29155
29174
29224
29213
29320
29174
29258
29364
29305
29293
29333
29366
29279
29331
29387
29319
29234
29213
29327
29333
29246
29292
29146
29211
29268
29143
29262
29231
29272
29266
29366
29224
29393
29256
29500
29483
29585
29376
29571
29534
29545
29446
29504
29666
29693
29641
29685
29605
29793
29796
29654
29862
29714
29977
29804
29924
29926
29821
29805
29974
29969
29921
29877
29945
29965
29843
30039
29936
30075
29976
29975
29941
30114
30067
30147
30200
30218
30321
30369
30319
30405
30403
30561
30446
30372
30466
30439
30564
30427
30466
30507
30555
30688
30625
30690
30589
30642
30664
30569
30599
30451
30576
30566
30525
30569
30482
30479
30529
30533
30506
30522
30533
30613
30548
30560
30605
30615
30626
30714
30728
30605
30708
30643
30658
30642
30759
30516
30483
30536
30616
30535
30558
30690
30580
30697
30606
30678
30660
30559
30646
30707
30629
30614
30565
30669
30646
30585
30793
30750
30821
30673
30675
30907
30810
30863
30897
30790
30958
30989
30790
30898
30844
30970
30968
30988
31072
31160
31148
31086
31194
31191
31071
31165
31052
31051
31116
31072
31114
31030
31082
31018
31104
31183
31036
31145
31251
31173
31121
31176
31060
31181
31256
31087
31134
31186
31110
31146
31177
31216
31067
31088
31313
31282
31239
31161
31243
31144
31182
31178
31192
31271
31218
31205
31176
31099
31185
31200
31199
31137
31167
31180
31216
31247
31127
31199
31037
31110
31014
31135
31112
31186
31016
31008
31004
30976
31062
31103
30991
31110
31055
31196
31206
31073
31214
31144
31196
31253
31230
31176
31367
31208
31326
31313
31341
31434
31199
31369
31232
31354
31239
31303
31314
31459
31280
31376
31340
31347
31478
31468
31523
31474
31608
31511
31584
31484
31508
31452
31647
31523
31673
31623
31570
31477
31543
31572
31482
31469
31468
31443
31464
31484
31496
31472
31500
31459
31438
31399
31434
31294
31315
31257
31268
31333
31407
31340
31205
31218
31256
31238
31264
31337
31325
31407
31311
31312
31379
31342
31314
31120
31268
31169
31070
31153
31081
31175
31257
31281
31168
31339
31236
31281
31284
31409
31495
31306
31329
31344
31382
31362
31348
31302
31324
31392
31364
31348
31412
31352
31431
31403
31463
31338
31540
31416
31436
31386
31446
31498
31612
31556
31517
31581
31539
31636
31578
31682
31715
31674
31539
31531
31651
31659
31637
31634
31668
31755
31669
31816
31698
31770
31799
31716
31777
31952
31797
31814
31878
31832
31851
31895
31862
31945
31873
31927
32006
31895
31936
31937
31961
31930
31923
31816
31984
31841
31734
31939
31966
31939
31979
32039
31862
31921
31940
31920
32050
32034
32083
31936
32001
31840
31973
32044
31968
32047
31962
31930
32114
32013
32050
31970
32067
32010
32085
32025
32128
32074
32070
32113
32074
31982
32053
32099
32047
32016
32116
32037
32163
32095
32183
31969
32154
32148
32150
31987
31997
31972
32142
32165
32158
32017
32165
32053
32118
32215
31955
32101
32079
32026
32054
32128
31976
31980
32005
31990
32022
32033
31949
31994
32067
32073
31941
31904
31891
31810
31916
31734
31780
31818
31920
31772
31698
31736
31855
31761
31694
31791
31598
31751
31711
31528
31714
31577
31672
31565
31533
31653
31658
31697
31559
31610
31572
31635
31541
31522
31569
31514
31623
31674
31639
31520
31615
31627
31518
31625
31527
31503
31735
31610
31620
31523
31665
31643
31575
31686
31493
31600
31531
31482
31536
31558
31526
31447
31493
31584
31558
31497
31538
31461
31497
31479
31472
31551
31431
31562
31528
31434
31417
31467
31587
31395
31559
31533
31465
31401
31400
31364
31550
31456
31613
31457
31537
31460
31509
31555
31547
31480
31506
31592
31504
31571
31677
31558
31633
31551
31499
31508
31641
31554
31451
31480
31415
31481
31524
31523
31393
31487
31562
31437
31491
31283
31266
31285
31248
31342
31274
31187
31196
31257
31336
31158
31268
31117
31056
31062
31118
31105
31128
31031
30877
30988
30937
30960
30889
30905
30946
30916
30868
30842
30840
30911
30820
30831
30838
30840
30862
30930
30912
30896
30856
30713
30789
30857
30892
30725
30777
30936
30800
30913
30762
30729
30931
30898
30912
30967
30977
30998
30867
31016
31005
31024
30927
30989
30938
30978
31002
30953
31017
30970
30842
30875
30874
30858
30762
30765
30714
30830
30790
30611
30614
30660
30524
30606
30502
30491
30555
30472
30419
30412
30512
30326
30382
30352
30293
30255
30357
30260
30353
30248
30253
30325
30173
30228
30201
30125
30134
30191
30153
30319
30249
30204
30219
30185
30258
30306
30212
30268
30311
30368
30157
30338
30333
30391
30456
30343
30330
30335
30464
30419
30496
30327
30464
30351
30458
30356
30404
30512
30353
30595
30313
30420
30435
30492
30354
30255
30352
30286
30315
30250
30407
30266
30271
30337
30307
30444
30424
30456
30318
30428
30490
30492
30585
30394
30425
30405
30423
30402
30532
30440
30575
30485
30442
30417
30432
30578
30437
30499
30520
30501
30601
30514
30624
30629
30638
30613
30617
30635
30673
30589
30690
30720
30687
30734
30736
30730
30759
30735
30550
30658
30594
30710
30651
30729
30655
30748
30598
30690
30619
30665
30617
30730
30722
30742
30752
30689
30712
30657
30735
30789
30793
30784
30768
30769
30841
30796
30773
30844
30740
30775
30884
30817
30880
30889
30843
30910
30914
31017
30927
31020
30985
30996
31015
30900
31054
31034
31040
31189
31160
31105
31155
31220
31190
31193
31129
31326
31218
31300
31219
31281
31263
31344
31235
31230
31270
31283
31203
31227
31335
31243
31201
31291
31211
31302
31206
31136
31179
31130
31127
31092
31087
31107
31105
31124
31002
31104
31171
31088
31140
31122
31040
31061
31070
31108
31019
31094
30978
30976
31007
31089
31060
31011
31061
30994
31088
31036
30972
31005
31078
31122
30980
31134
31037
31066
31021
31193
31098
31135
31134
31199
31280
31173
31096
31181
31190
31289
31216
31253
31159
31300
31253
31296
31286
31324
31270
31380
31335
31276
31354
31347
31343
31315
31268
31310
31299
31512
31478
31497
31390
31382
31420
31489
31457
31470
31535
31476
31566
31509
31395
31399
31609
31442
31474
31488
31538
31505
31546
31549
31698
31515
31589
31626
31594
31730
31577
31646
31781
31707
31601
31770
31722
31819
31775
31732
31909
31771
31851
31826
31840
31888
31806
31962
31954
32016
32058
32048
31938
31899
32012
31893
31902
31923
31909
32033
32033
31984
31939
31965
32015
32061
32028
31953
31926
32058
32049
31979
32107
32066
32012
32086
32151
32069
32010
32112
32117
32111
32114
32109
32122
32118
32077
32093
32036
32113
32116
32182
32121
32057
32135
32053
32139
32172
32123
32088
32158
32096
32137
32185
32227
32131
32172
32194
32155
32201
32164
32272
32247
32212
32081
32245
32181
32186
32262
32188
32292
32228
32235
32246
32227
32126
32174
32064
32090
32015
32051
32038
32061
31882
31954
31951
31832
31918
31834
31876
31905
31803
31827
31793
31781
31832
31805
31755
31791
31575
31624
31562
31741
31706
31671
31693
31635
31531
31588
31665
31558
31579
31564
31611
31474
31614
31581
31647
31516
31574
31497
31525
31566
31562
31516
31514
31567
31613
31470
31605
31397
31534
31524
31545
31551
31494
31459
31425
31451
31428
31413
31498
31462
31486
31431
31407
31397
31375
31401
31384
31385
31461
31378
31369
31404
31341
31348
31340
31330
31422
31249
31294
31436
31277
31419
31259
31379
31278
31322
31327
31204
31317
31300
31370
31329
31286
31408
31224
31286
31430
31303
31300
31430
31320
31381
31379
31371
31340
31312
31318
31257
31384
31443
31362
31437
31406
31370
31422
31399
31448
31395
31496
31399
31469
31466
31461
31409
31509
31443
31528
31405
31431
31506
31379
31551
31456
31592
31509
31477
31485
31466
31476
31673
31413
31471
31505
31604
31536
31420
31455
31465
31503
31476
31548
31387
31387
31478
31400
31498
31357
31500
31562
31491
31423
31387
31539
31481
31492
31501
31483
31467
31435
31410
31361
31484
31423
31324
31323
31298
31337
31319
31297
31206
31294
31303
31294
31289
31239
31147
31093
31112
31161
31051
31033
30949
31004
30881
30882
30863
30842
30833
30863
30895
30854
30848
30751
30751
30765
30727
30638
30780
30629
30733
30618
30720
30688
30500
30623
30551
30652
30455
30664
30512
30528
30496
30713
30571
30601
30580
30518
30610
30527
30485
30625
30601
30631
30516
30534
30525
30490
30527
30448
30548
30448
30456
30444
30535
30475
30411
30414
30384
30426
30567
30497
30490
30499
30469
30550
30505
30487
30482
30502
30452
30464
30567
30455
30463
30418
30588
30564
30544
30495
30448
30523
30475
30512
30485
30530
30468
30540
30475
30546
30514
30549
30520
30522
30534
30611
30468
30627
30594
30567
30609
30517
30594
30601
30632
30555
30622
30614
30703
30591
30610
30722
30677
30609
30690
30586
30631
30697
30694
30687
30712
30625
30790
30624
30638
30736
30814
30815
30687
30762
30735
30678
30778
30647
30746
30750
30752
30749
30748
30726
30722
30744
30688
30760
30687
30766
30810
30861
30871
30782
30675
30721
30695
30720
30644
30714
30616
30688
30793
30687
30711
30652
30809
30591
30740
30785
30714
30755
30911
30788
30813
30781
30926
30842
30751
30964
30868
30711
30727
30804
30674
30736
30753
30761
30812
30769
30610
30579
30552
30609
30549
30568
30659
30476
30457
30428
30332
30434
30285
30373
30246
30313
30283
30229
30307
30177
30279
30199
30095
30063
30118
30040
30035
30073
30055
30015
29920
30034
29971
29931
29930
30005
30023
29939
30036
30076
29895
30076
30106
29954
29983
30079
29983
29994
30084
30109
30075
30033
29965
30138
30159
29981
30082
29996
30063
30180
30074
30094
30022
30134
30245
30197
30156
30250
30319
30125
30166
30184
30163
30237
30444
30194
30375
30450
30301
30323
30328
30322
30337
30464
30381
30497
30488
30435
30394
30516
30569
30492
30563
30476
30469
30550
30504
30518
30491
30601
30639
30636
30458
30434
30471
30478
30490
30585
30627
30511
30632
30710
30649
30705
30677
30839
30691
30850
30835
30856
30819
30861
30782
30932
30782
30772
30894
30832
30796
30781
30925
30784
30968
30794
30799
30972
30850
30958
30951
30910
31015
31038
30975
31049
30950
30954
30992
30975
30949
31056
30929
30911
30932
30986
31045
31016
30986
30999
30973
31022
31132
31021
31009
31025
31053
31022
30956
30987
30914
31075
31012
31066
31014
30985
31077
30960
31081
31008
30995
31112
30977
30967
31165
31000
31001
31098
31055
31172
31020
31094
31040
31072
30986
31061
30900
31035
30907
30906
31035
30906
30798
30854
30900
30775
30781
30775
30743
30564
30646
30591
30552
30694
30539
30457
30517
30431
30377
30344
30442
30369
30432
30226
30251
30206
30198
30170
30122
30127
30153
30031
30045
30076
30102
30066
30061
29904
29867
30017
29978
29957
30014
29870
29895
29797
29836
29795
29851
29730
29847
29863
29852
29741
29767
29740
29684
29768
29796
29785
29735
29766
29784
29723
29765
29756
29832
29683
29860
29757
29745
29670
29772
29723
29739
29732
29743
29619
29734
29655
29624
29643
29723
29832
29785
29675
29815
29810
29696
29622
29616
29705
29659
29675
29673
29739
29655
29604
29741
29622
29569
29584
29557
29614
29568
29516
29441
29603
29468
29459
29563
29447
29521
29589
29496
29392
29396
29572
29569
29524
29488
29559
29529
29567
29553
29551
29525
29551
29616
29552
29597
29561
29654
29608
29736
29587
29632
29547
29708
29688
29721
29644
29691
29725
29703
29721
29668
29727
29698
29635
29722
29669
29694
29515
29582
29546
29598
29622
29685
29680
29742
29644
29716
29726
29622
29714
29654
29701
29701
29722
29763
29728
29711
29705
29743
29663
29717
29614
29676
29635
29651
29582
29730
29595
29459
29555
29520
29486
29450
29338
29328
29260
29239
29232
29268
29140
29095
29063
29001
28993
28994
28956
28990
28958
28999
29055
28913
28940
28980
28876
28960
28926
28873
28992
28942
28726
28827
28816
28686
28756
28686
28701
28644
28585
28613
28553
28583
28498
28511
28584
28521
28621
28626
28667
28707
28657
28702
28666
28708
28705
28513
28539
28571
28502
28623
28681
28662
28552
28606
28686
28638
28729
28589
28584
28569
28587
28505
28594
28552
28610
28608
28594
28557
28636
28677
28558
28574
28633
28702
28499
28525
28526
28590
28512
28678
28617
28652
28627
28705
28828
28811
28721
28871
28908
28935
28736
28858
28759
28928
29012
28902
29000
29073
29068
29143
29202
29208
29166
29190
29156
29265
29371
29394
29289
29289
29210
29242
29227
29330
29357
29277
29286
29281
29375
29234
29357
29179
29392
29277
29283
29332
29278
29205
29304
29316
29359
29209
29294
29397
29374
29413
29389
29292
29254
29442
29317
29387
29405
29421
29439
29323
29269
29304
29251
29217
29324
29298
29279
29387
29405
29318
29373
29339
29388
29285
29349
29274
29295
29327
29251
29179
29261
29268
29312
29256
29264
29238
29313
29418
29402
29475
29486
29427
29457
29418
29313
29433
29354
29340
29420
29302
29236
29292
29153
29261
29100
29118
29050
29075
28905
28798
28898
28869
28783
28721
28738
28636
28615
28556
28466
28405
28605
28524
28333
28372
28270
28339
28312
28272
28323
28133
28185
28199
28162
27992
28208
28146
28053
28087
28052
27995
28047
27936
28033
28065
28056
28102
28007
28142
28005
28115
27989
28162
28043
28220
28122
28118
28127
28260
28197
28287
28332
28399
28231
28413
28403
28421
28364
28446
28559
28380
28599
28507
28548
28489
28595
28668
28614
28688
28671
28761
28690
28620
28807
28778
28793
28699
28807
28752
28782
28819
28746
28855
28869
28894
28979
28910
28913
29035
29033
28932
28999
29040
28866
28904
28883
29019
28874
28955
28941
28880
29007
29005
28912
29060
29131
29105
28950
29169
29180
29137
29143
29115
29248
29237
29116
29236
29265
29263
29081
29212
29309
29155
29228
29245
29277
29211
29228
29266
29290
29217
29331
29234
29353
29313
29446
29445
29432
29466
29408
29479
29409
29347
29453
29421
29367
29266
29381
29368
29307
29347
29410
29467
29353
29424
29447
29352
29478
29329
29400
29397
29297
29358
29364
29373
29344
29300
29302
29341
29237
29269
29302
29265
29287
29397
29380
29457
29442
29562
29579
29532
29456
29534
29582
29531
29535
29513
29495
29560
29522
29478
29536
29447
29492
29469
29423
29469
29462
29421
29430
29460
29343
29406
29303
29399
29238
29324
29167
29163
29145
29010
29034
28960
28965
29052
28970
28957
28868
28958
28912
28883
28925
28939
28835
28849
28845
28857
28786
28847
28757
28786
28750
28670
28693
28608
28630
28585
28785
28725
28784
28654
28699
28657
28718
28746
28675
28690
28700
28816
28702
28805
28699
28637
28736
28852
28743
28844
28744
28823
28695
28782
28814
28782
28840
28799
28879
28956
28929
28928
28930
28843
28873
28719
28748
28801
28834
28751
28728
28786
28912
28808
28820
28863
28880
28806
28772
28739
28796
28894
28814
28818
28683
28839
28719
28816
28673
28640
28739
28602
28623
28682
28720
28593
28757
28722
28570
28749
28599
28605
28593
28505
28688
28540
28649
28605
28577
28529
28454
28489
28591
28530
28559
28419
28449
28463
28431
28241
28361
28289
28377
28450
28412
28276
28319
28275
28389
28263
28249
28286
28259
28205
28251
28365
28284
28268
28192
28158
28176
28182
28138
28205
28221
28237
28183
28198
28193
28006
28150
27995
28026
27999
27977
27994
28037
27998
27978
28014
27922
27980
27990
27941
27870
27873
27863
27939
27830
27925
27875
27865
27977
27828
27832
27835
27772
27772
27733
27687
27669
27614
27519
27502
27483
27372
27380
27341
27304
27318
27250
27169
27188
27313
27248
27099
27132
27194
27099
27090
27243
27244
27140
27228
27092
27209
27167
27232
27145
27232
27236
27233
27136
27183
27224
27148
27216
27172
27310
27284
27332
27355
27355
27211
27364
27495
27362
27412
27539
27389
27584
27534
27588
27635
27571
27699
27700
27723
27735
27863
27869
27971
28003
28144
28199
28208
28342
28376
28342
28395
28529
28493
28576
28713
28688
28600
28785
28783
28781
28874
28689
28818
28892
28920
28745
28820
28878
28802
28921
28908
28809
28959
28885
28886
28773
28801
28841
28833
28745
28816
28800
28741
28685
28837
28790
28725
28698
28752
28651
28831
28779
28731
28626
28672
28642
28620
28538
28451
28548
28494
28405
28408
28464
28395
28286
28388
28326
28342
28421
28348
28662
28656
28429
28641
28730
28824
28715
28819
28866
28943
28911
29039
28982
29201
29213
29329
29300
29393
29350
29264
29489
29526
29361
29405
29567
29517
29412
29374
29389
29494
29307
29482
29383
29518
29681
29612
29483
29565
29578
29606
29594
29695
29726
29771
29790
29696
29789
29722
29823
29662
29586
29529
29737
29627
29584
29434
29438
29397
29511
29419
29430
29477
29524
29343
29464
29258
29420
29231
29203
29325
29204
29162
29074
29114
29046
29122
28960
28820
28957
28941
28886
29034
28869
28926
28931
28967
28963
28996
28939
28873
28948
28963
29011
28954
28952
28974
28928
28879
28974
29033
29209
29113
29198
29216
29341
29249
29270
29245
29247
29352
29308
29280
29283
29290
29283
29182
29317
29260
29140
29047
29147
29064
29134
29194
29136
29193
29105
29138
28994
29132
29098
29212
29149
29240
29281
29262
29296
29294
29385
29271
29349
29443
29317
29394
29334
29280
29319
29379
29312
29214
29210
29290
29140
29225
29143
29213
28962
29187
29088
29071
29019
28991
28939
29124
29195
29094
28906
29088
29108
28957
28923
28913
28950
28991
28963
28797
28924
28920
28760
28681
28832
28715
28648
28787
28612
28756
28644
28790
28613
28699
28591
28706
28699
28729
28720
28807
28813
28849
28631
28874
28820
28845
28711
28825
28894
28933
28925
28994
28981
28860
29075
29167
29201
29094
29120
29165
29239
29218
29293
29183
29179
29140
29162
29202
29184
29178
29112
29251
29150
29281
29206
28992
29055
29152
29170
29144
29151
29041
29194
29226
29189
29506
29299
29176
29373
29403
29343
29383
29393
29492
29352
29455
29277
29212
29181
29283
29303
29335
29282
29396
29281
29361
29268
29357
29265
29214
29281
29211
29105
29181
29178
29127
29036
29026
29044
28846
28867
28903
28695
28560
28639
28481
28480
28378
28288
28235
28292
28176
28248
28221
28269
28331
28323
28424
28681
28608
28632
28794
28627
28772
28911
28846
28769
28735
28672
28656
28549
28489
28313
28335
28242
28100
28246
27997
28019
28063
28119
28066
28146
28183
28132
28164
28177
28247
28318
28408
28396
28625
28546
28724
28672
28821
28857
28911
28994
28976
29084
29100
29064
29039
29169
29115
29168
29282
29264
29345
29473
29356
29512
29615
29719
29791
29802
29795
30015
29946
29918
30113
29984
30000
30105
29987
30125
30157
29922
30209
30170
30060
29985
30072
30148
30051
30026
30098
30045
30066
29965
29955
29682
29676
29680
29581
29523
29444
29380
29224
29128
29098
29068
28896
28816
28789
28773
28795
28700
28623
28549
28386
28512
28274
28171
28157
28153
28318
28159
28176
28169
28088
28254
28130
28310
28264
28202
28323
28314
28450
28345
28407
28371
28571
28492
28560
28722
28838
28965
28911
29179
29118
29155
29210
29401
29497
29384
29564
29512
29543
29607
29660
29639
29478
29640
29657
29538
29519
29325
29266
29232
29237
29233
29191
29119
28943
28786
28734
28487
28517
28344
28172
27971
27914
27804
27871
27667
27508
27414
27305
27225
27083
27221
27085
27103
27132
27118
27090
27249
27339
27260
27410
27597
27505
27777
27666
27709
27933
27822
27849
27882
27844
27903
27795
27842
27857
27819
27912
27985
27983
27839
27862
27977
28027
27981
27948
27971
28029
27957
27823
27976
27911
27928
27944
27994
27960
27971
27784
27813
27800
27744
27805
27897
27772
27913
27751
27760
27847
27956
27893
27835
27914
28030
28027
28134
28184
28044
28210
28173
28297
28239
28200
28218
28282
28429
28441
28454
28372
28525
28384
28358
28488
28476
28481
28592
28549
28632
28603
28530
28660
28741
28756
28749
28834
28961
28956
28925
29024
29126
29219
29216
29181
29338
29444
29418
29359
29505
29412
29471
29551
29558
29609
29511
29715
29622
29734
29680
29825
29852
29908
29992
29852
29902
29947
29961
29953
30155
30125
30158
30229
30085
30064
30064
30179
30195
30147
30294
30443
30454
30487
30466
30477
30491
30494
30703
30621
30726
30511
30542
30730
30646
30664
30523
30423
30412
30485
30296
30337
30343
30298
30134
30353
30344
30265
30091
30267
30184
30190
30159
30132
30054
30013
30024
29928
30065
30000
29989
29794
29849
29947
29775
29784
29756
29906
29902
29794
29823
29811
29765
29794
29955
29860
29910
29753
29936
29746
29760
29781
29818
29677
29780
29705
29755
29786
29666
29674
29716
29711
29577
29757
29685
29779
29754
29823
29819
29905
29864
29902
29966
30036
30003
30151
30196
30334
30335
30280
30450
30334
30418
30361
30556
30383
30620
30651
30597
30618
30629
30668
30629
30552
30670
30630
30751
30720
30642
30767
30815
30799
30964
30833
30953
31007
30932
30976
31054
31024
31183
31092
31078
31164
31200
31110
31143
31217
31121
31254
31140
31199
31222
31152
31250
31335
31156
31297
31173
31226
31208
31295
31343
31289
31244
31308
31288
31197
31341
31323
31153
31286
31218
31314
31191
31196
31310
31220
31250
31176
31214
31115
31102
31163
31123
31118
31078
30985
30972
31137
31048
31074
31079
30993
31125
30969
31032
31162
31034
30972
31109
31111
31139
31050
30910
30969
30987
31006
30884
30907
30749
30890
30811
30847
30829
30903
30858
30882
30821
30665
30774
30788
30740
30919
30821
30774
30799
30854
30749
30812
30696
30588
30614
30641
30592
30553
30464
30471
30472
30370
30270
30303
30274
30104
30244
30156
30078
29952
30001
29988
29827
29939
29800
29701
29769
29610
29647
29632
29604
29581
29603
29618
29503
29525
29540
29475
29542
29509
29355
29390
29439
29535
29471
29450
29305
29444
29510
29545
29412
29356
29453
29490
29363
29432
29403
29524
29339
29510
29505
29469
29496
29381
29470
29448
29458
29474
29516
29370
29475
29390
29371
29429
29406
29367
29441
29427
29362
29322
29364
29278
29276
29375
29227
29366
29318
29309
29260
29356
29273
29377
29305
29283
29243
29391
29170
29314
29190
29177
29237
29235
29314
29210
29157
29241
29319
29225
29358
29305
29320
29275
29332
29340
29328
29366
29312
29408
29346
29377
29388
29508
29467
29452
29479
29591
29413
29401
29441
29397
29610
29524
29523
29629
29569
29523
29606
29480
29434
29593
29585
29606
29676
29673
29610
29564
29647
29587
29707
29541
29688
29584
29693
29611
29456
29491
29466
29458
29475
29418
29563
29546
29560
29389
29403
29417
29528
29501
29477
29468
29391
29549
29586
29526
29640
29614
29403
29664
29405
29661
29569
29565
29632
29578
29573
29423
29418
29547
29413
29527
29520
29334
29385
29479
29465
29456
29214
29221
29304
29026
29084
29039
29100
28939
28888
28945
29014
28914
28808
28902
28732
28721
28829
28702
28839
28783
28858
28697
28804
28817
28671
28772
28619
28768
28612
28681
28472
28623
28631
28575
28492
28525
28523
28568
28540
28482
28387
28560
28462
28528
28614
28530
28594
28439
28470
28551
28517
28564
28395
28469
28433
28496
28480
28606
28485
28543
28460
28575
28546
28588
28574
28578
28591
28502
28564
28478
28481
28508
28420
28539
28494
28488
28541
28453
28434
28481
28452
28479
28530
28427
28547
28570
28651
28476
28535
28502
28589
28642
28543
28607
28506
28542
28659
28721
28487
28507
28576
28579
28521
28559
28556
28598
28578
28615
28487
28499
28639
28516
28521
28603
28624
28512
28514
28508
28481
28527
28629
28602
28528
28585
28586
28691
28590
28765
28678
28777
28603
28704
28718
28765
28690
28706
28813
28690
28638
28732
28705
28664
28737
28725
28724
28604
28699
28771
28661
28692
28622
28641
28655
28581
28671
28760
28626
28699
28602
28512
28691
28528
28617
28704
28516
28481
28615
28611
28622
28625
28678
28506
28505
28576
28552
28561
28500
28561
28637
28594
28580
28596
28575
28550
28523
28546
28549
28481
28483
28567
28489
28383
28397
28392
28398
28312
28345
28328
28234
28262
28162
28270
28107
28012
28008
28143
28063
28043
27998
27967
28077
27844
27952
27932
27855
27857
27843
27815
27700
27745
27718
27674
27682
27676
27601
27640
27659
27600
27476
27528
27566
27548
27554
27568
27610
27604
27544
27565
27677
27557
27521
27671
27603
27557
27621
27627
27798
27768
27685
27776
27742
27822
27702
27797
27745
27684
27771
27876
27801
27766
27847
27836
27918
27838
27950
27812
27890
28086
27965
27942
28016
28012
27963
28088
28125
27993
28120
28021
28117
28116
28109
28043
28102
28149
28076
28071
28124
28038
28097
28121
28103
28233
28189
28149
28208
28077
28049
28051
28133
28105
28119
28213
28176
28203
28151
28176
28122
28309
28267
28254
28442
28407
28449
28443
28495
28475
28499
28450
28465
28439
28566
28627
28528
28588
28504
28538
28609
28661
28601
28635
28662
28512
28566
28503
28510
28636
28638
28698
28648
28731
28704
28781
28645
28653
28884
28716
28809
28741
28719
28782
28831
28901
28866
28846
28792
28764
28845
28819
28843
28881
28792
28790
28820
28968
28892
28972
28947
28978
28962
29052
29114
29038
29196
29102
29172
29081
29253
29292
29296
29165
29309
29308
29219
29305
29219
29287
29234
29243
29242
29292
29399
29375
29290
29388
29241
29239
29216
29235
29289
29156
29076
29119
29063
29066
29019
29050
29122
28994
29027
28887
28950
29053
28838
28847
28922
28788
28864
28867
28713
28780
28731
28742
28711
28656
28697
28623
28535
28622
28617
28440
28527
28525
28483
28526
28564
28503
28371
28469
28380
28446
28455
28459
28387
28388
28481
28440
28350
28400
28310
28376
28316
28401
28241
28302
28148
28144
28196
28127
28145
28222
28134
28087
28129
28145
28122
28069
28138
28083
27974
28060
28055
28048
28033
28009
28000
27990
28036
27905
28025
28048
27871
27971
27996
27910
27982
27974
27892
27921
27863
27971
28000
27930
27926
27835
27919
27872
27840
27753
27848
27885
27768
27834
27778
27660
27700
27651
27745
27665
27691
27764
27618
27623
27624
27709
27657
27662
27624
27677
27647
27715
27648
27620
27538
27523
27544
27610
27540
27504
27652
27618
27715
27627
27684
27618
27700
27597
27611
27587
27557
27519
27584
27437
27549
27533
27577
27537
27513
27478
27356
27531
27339
27407
27369
27452
27408
27480
27496
27459
27491
27439
27506
27455
27461
27513
27367
27562
27445
27513
27483
27628
27606
27505
27570
27551
27369
27388
27432
27480
27486
27416
27504
27345
27359
27303
27263
27143
27245
27093
27202
27286
27104
27032
27187
27079
27240
27176
27149
27034
27150
27126
27323
27175
27148
27086
27090
27070
26941
27025
26959
26904
27012
26906
26880
26932
26890
26897
26902
26955
26967
26937
27026
27051
26914
27188
27044
27200
26993
27002
27065
27055
27104
27098
27108
27050
27046
27009
27038
27031
27024
27017
27214
27181
27172
27051
26880
27159
27047
27208
27072
27128
27134
27058
27147
27139
27157
27177
27110
27226
27208
27169
27229
27301
27168
27198
27290
27188
27282
27266
27448
27255
27236
27303
27353
27271
27331
27225
27351
27304
27257
27337
27395
27389
27362
27460
27328
27421
27314
27453
27351
27374
27438
27257
27279
27183
27351
27303
27248
27330
27281
27295
27303
27356
27380
27350
27464
27418
27386
27501
27449
27394
27467
27437
27413
27474
27412
27522
27453
27425
27387
27476
27348
27450
27393
27460
27462
27402
27396
27359
27402
27553
27415
27552
27428
27529
27434
27497
27611
27510
27541
27618
27542
27567
27438
27569
27566
27491
27507
27485
27459
27471
27430
27483
27476
27475
27590
27389
27681
27676
27674
27685
27632
27679
27696
27680
27541
27642
27507
27637
27518
27628
27582
27600
27443
27538
27474
27586
27375
27392
27535
27462
27474
27339
27377
27466
27392
27446
27305
27254
27280
27329
27240
27199
27294
27231
27146
27118
27218
27151
27101
27168
27221
27208
27249
27194
27301
27088
27063
27184
27140
27045
27211
27188
27068
27170
27156
27201
27157
27117
27053
27078
27150
27201
27259
27195
27117
27225
27179
27114
27139
27201
27258
27171
27275
27216
27227
27293
27226
27320
27336
27327
27303
27364
27308
27310
27250
27338
27311
27432
27359
27330
27393
27504
27456
27510
27485
27460
27517
27566
27583
27530
27645
27584
27709
27659
27797
27648
27664
27675
27627
27673
27629
27712
27644
27700
27673
27628
27707
27710
27742
27626
27637
27732
27743
27780
27671
27836
27739
27862
27733
27910
27747
27902
27850
27709
27883
27767
27866
27927
27942
27898
27948
28000
27908
27984
28035
28068
28068
27972
28123
27990
28087
27989
28049
27916
28135
28205
28111
28187
28241
28065
28222
28155
28255
28257
28191
28221
28151
28214
28151
28302
28368
28332
28485
28301
28324
28282
28357
28350
28499
28352
28422
28456
28441
28458
28502
28621
28559
28527
28581
28651
28691
28449
28650
28651
28676
28693
28803
28727
28740
28649
28728
28737
28651
28692
28609
28627
28715
28720
28779
28561
28637
28715
28790
28721
28682
28563
28619
28627
28613
28624
28534
28452
28513
28440
28385
28346
28375
28394
28324
28277
28329
28371
28298
28241
28173
28199
28195
28189
28154
28165
28088
28157
28094
28123
28109
28090
28018
28058
28040
28030
28082
28064
27994
28064
28036
28053
28021
27907
27973
28042
28081
28016
27980
27819
27912
27964
27852
27938
27919
27852
27894
27922
27906
27968
27935
27951
27874
27987
27864
27848
27915
27940
27817
27944
27922
27966
27866
27934
27946
27820
27868
27908
27780
27787
27786
27752
27734
27671
27705
27694
27623
27568
27578
27545
27519
27481
27518
27441
27406
27423
27450
27394
27304
27317
27199
27228
27241
27175
27191
27134
27124
27017
27118
27111
27081
27018
27014
27082
26995
26972
26979
26936
27026
27007
27029
27008
27231
26975
26986
27022
26873
26975
27042
26910
27046
26940
26960
26995
26906
27072
26985
27043
26907
26948
26825
26836
26904
26895
26811
26913
26682
26720
26592
26688
26608
26477
26547
26338
26486
26381
26374
26405
26317
26428
26404
26416
26530
26434
26324
26364
26392
26489
26375
26367
26385
26391
26252
26398
26342
26220
26360
26310
26232
26294
26261
26280
26227
26277
26359
26217
26312
26337
26166
26105
26289
26168
26162
26236
26161
26378
26298
26357
26282
26340
26337
26419
26376
26463
26490
26383
26477
26461
26375
26387
26528
26470
26485
26497
26555
26515
26471
26579
26576
26611
26629
26739
26707
26846
26827
26783
26785
26837
26749
26861
26862
26891
26753
26892
26911
26940
27020
26938
26912
26931
26945
27039
26933
26931
26908
27020
26986
27058
26938
27044
27075
27026
27030
27052
27080
27058
27070
27097
27119
27110
27124
27082
27047
27097
27159
27039
27160
27170
27199
27339
27262
27250
27328
27401
27398
27240
27360
27387
27381
27474
27406
27542
27498
27505
27465
27498
27463
27433
27456
27541
27567
27539
27643
27617
27588
27572
27632
27738
27659
27838
27758
27793
27719
27891
27818
27759
27833
27780
27752
27908
27884
27902
27787
27914
27954
27959
27829
27950
27837
27938
27916
27909
27828
27868
27968
27955
27952
27890
27927
27968
27917
28033
27920
27961
27951
27982
27879
27913
27831
27870
27756
27826
27856
27746
27748
27709
27633
27707
27579
27621
27663
27612
27640
27645
27580
27567
27600
27647
27542
27577
27467
27600
27485
27407
27336
27354
27287
27302
27260
27199
27180
27088
27024
27060
26994
26988
26931
26880
26891
26935
26905
26994
27001
27036
27086
27081
27107
27083
27152
27336
27211
27238
27212
27300
27185
27282
27195
27184
27187
27218
27200
27066
27110
27037
27096
27018
26853
26985
27026
26986
26869
26832
26980
26885
26816
26876
26790
26871
26846
26923
26866
26885
26819
26881
26892
26930
26891
26950
27030
27186
27138
27110
27229
27302
27368
27449
27475
27387
27504
27438
27636
27500
27673
27680
27582
27588
27650
27670
27635
27722
27745
27737
27753
27827
27789
27894
27928
27947
28019
28004
28139
28111
28224
28332
28255
28328
28308
28332
28324
28308
28442
28501
28374
28452
28414
28552
28534
28365
28549
28520
28475
28667
28535
28558
28703
28633
28747
28765
28826
28750
28740
28810
28935
28777
28803
28906
28795
28819
28824
28966
28931
28902
28930
29090
29093
29035
29132
29147
29136
29006
29094
29276
29145
29141
29157
29225
29240
29201
29273
29287
29238
29405
29372
29305
29489
29493
29511
29532
29615
29594
29652
29748
29648
29627
29749
29743
29665
29755
29779
29791
29707
29842
29766
29674
29746
29661
29800
29739
29654
29636
29600
29693
29536
29755
29658
29539
29571
29672
29697
29577
29646
29620
29714
29537
29709
29572
29745
29760
29649
29698
29666
29753
29550
29586
29575
29583
29574
29498
29431
29434
29494
29531
29478
29520
29451
29529
29354
29441
29350
29354
29391
29329
29382
29289
29181
29172
29087
29105
28999
28973
29016
28847
29014
28798
28883
28775
28899
28752
28815
28807
28724
28710
28772
28667
28782
28712
28671
28656
28510
28674
28643
28691
28635
28597
28560
28670
28560
28569
28634
28632
28584
28500
28624
28536
28627
28722
28682
28605
28752
28697
28728
28785
28721
28758
28704
28774
28698
28787
28818
28827
28920
28882
28962
28946
28910
28802
28911
28976
28924
28809
28906
28887
28957
28984
28944
28975
28990
29027
29063
29165
29204
29209
29239
29247
29200
29168
29194
29264
29403
29268
29401
29364
29341
29306
29206
29368
29229
29249
29234
29310
29316
29256
29372
29311
29435
29279
29377
29452
29488
29375
29461
29468
29449
29511
29499
29550
29526
29512
29531
29477
29512
29510
29512
29480
29370
29483
29478
29434
29492
29444
29438
29445
29335
29398
29323
29424
29416
29273
29350
29506
29396
29419
29360
29279
29314
29262
29234
29392
29357
29332
29270
29322
29400
29285
29339
29381
29358
29252
29157
29245
29207
29320
29198
29138
29104
29186
29150
29094
28974
29040
29128
29097
29118
29019
29013
29019
29089
28935
28887
28793
28831
28857
28731
28695
28609
28613
28520
28559
28514
28403
28335
28382
28375
28165
28105
28184
28068
27990
28011
28080
27979
27933
27958
28026
27942
28083
27983
27981
28013
27959
27915
28000
27926
27919
27963
28042
27989
27891
27830
27935
27911
27924
27966
27973
28006
28002
27892
27917
27989
28024
28172
28048
28054
28119
28033
28050
28084
28086
28038
27994
28006
27909
28023
27886
27846
27777
27947
27862
27901
27952
27881
27773
27867
27950
27835
27892
27910
27930
27852
27929
27959
27887
27957
27952
27867
27928
27974
27971
27964
27941
28066
28055
27996
28131
28013
28101
28211
28176
28063
28196
28204
28194
28238
28170
28166
28240
28296
28173
28314
28245
28249
28355
28273
28410
28372
28327
28273
28266
28440
28381
28404
28336
28306
28398
28250
28409
28317
28241
28335
28236
28416
28425
28353
28248
28369
28385
28326
28359
28333
28337
28381
28329
28342
28257
28316
28302
28268
28317
28298
28267
28337
28310
28335
28327
28280
28257
28348
28312
28295
28401
28411
28453
28354
28438
28491
28320
28475
28551
28339
28452
28330
28380
28406
28375
28391
28493
28512
28380
28464
28395
28440
28443
28385
28413
28446
28522
28475
28456
28514
28549
28512
28601
28565
28574
28619
28613
28651
28686
28756
28809
28830
28821
28775
28800
28858
28839
28734
28810
28923
28842
28777
28751
28745
28742
28714
28866
28850
28721
28719
28814
28811
28752
28736
28659
28637
28722
28792
28780
28648
28689
28803
28822
28803
28685
28782
28734
28686
28811
28709
28776
28816
28921
28933
28807
28825
28865
28928
28872
28963
28936
28867
28934
28888
28883
28842
28910
28856
28814
28858
28856
28941
29001
28906
28985
28870
28982
29058
28927
28980
29034
28914
29018
28954
29130
28991
29107
28936
28954
29112
29095
29138
29123
29127
29022
29072
29140
29098
29182
29188
29220
29121
29093
29189
29318
29263
29146
29300
29244
29306
29282
29323
29336
29291
29382
29286
29348
29379
29440
29409
29318
29420
29461
29438
29425
29311
29379
29357
29430
29321
29326
29306
29447
29356
29440
29374
29352
29489
29484
29381
29481
29446
29531
29473
29439
29561
29514
29540
29477
29491
29500
29467
29541
29483
29580
29519
29590
29607
29518
29651
29535
29626
29667
29568
29659
29658
29698
29799
29715
29737
29737
29735
29799
29831
29941
29915
29881
29899
29852
29986
29896
29903
30007
29990
30042
29915
29978
29944
30051
30039
30114
30118
30162
30057
30013
30142
30167
30161
30211
30230
30198
30243
30298
30296
30231
30293
30235
30303
30379
30456
30379
30263
30307
30277
30319
30411
30320
30343
30381
30441
30381
30430
30410
30509
30461
30498
30474
30438
30410
30367
30369
30350
30364
30262
30153
30249
30113
30133
30123
30105
30064
30013
30032
29928
29931
29937
29882
29920
29844
29716
29863
29830
29836
29728
29781
29796
29604
29694
29668
29509
29557
29491
29475
29473
29482
29392
29407
29373
29413
29246
29215
29216
29302
29338
29349
29186
29323
29170
29244
29257
29266
29187
29305
29356
29210
29268
29361
29166
29177
29148
29249
29273
29079
29302
29139
29230
29077
29123
29130
29144
29133
29223
29052
29110
29188
29166
29139
29097
29016
28966
29038
28950
29024
29024
28946
29037
28971
28989
29011
28990
28919
28899
29025
29013
28994
29023
29003
28966
28915
29003
28900
29071
29055
29074
28934
28922
28984
28995
28819
28993
28851
28970
28897
29018
28999
28891
28878
28812
28951
28899
28905
28896
28806
28800
28784
28908
28872
28845
28914
28868
28806
28805
28793
28829
28853
28751
28834
28764
28805
28822
28710
28890
28784
28891
28737
28847
28765
28783
28764
28828
28786
28862
28809
28642
28820
28810
28760
28697
28682
28696
28747
28766
28682
28707
28752
28763
28597
28777
28699
28801
28841
28817
28656
28815
28662
28796
28802
28701
28709
28710
28634
28582
28622
28567
28624
28516
28639
28541
28649
28584
28557
28500
28445
28477
28395
28487
28462
28397
28450
28261
28334
28383
28266
28309
28091
28173
28104
28110
28071
28144
27989
28025
28054
27989
28011
27888
27944
27947
27890
27974
27807
27890
27922
27878
27860
27899
27900
27900
27968
27929
27968
27918
28044
27955
28022
27934
27988
27982
27899
28017
27950
27976
27978
27914
28033
28029
27929
27983
27959
27994
27833
28017
27766
27783
27908
27972
27923
27884
27903
27773
27891
27833
27951
27882
27921
27811
27957
27923
27941
27813
27993
27916
28032
27917
28063
28085
28044
27946
28079
27898
27969
27969
27978
28064
27935
27935
27895
27855
27930
27882
27990
27888
27909
27948
28090
27903
27762
27939
27821
27946
27921
27921
27949
27908
28017
27901
27924
27978
27981
27857
27818
27893
27854
27953
27991
27988
27980
28037
27918
27920
28031
28016
27961
28078
28021
28011
27957
28013
27988
28029
28107
28060
28027
28083
28054
28142
28081
28139
28068
28080
28154
28228
28150
28284
28183
28196
28236
28161
28207
28239
28371
28370
28307
28212
28290
28351
28302
28395
28330
28516
28489
28428
28400
28548
28573
28574
28491
28584
28585
28592
28551
28548
28552
28566
28524
28526
28575
28582
28529
28470
28431
28399
28358
28325
28368
28326
28236
28372
28344
28299
28209
28324
28257
28267
28283
28218
28271
28269
28239
28247
28176
28284
28144
28237
28226
28168
28118
28213
28084
28209
28166
28144
28113
28070
28190
28186
28073
28220
28059
28218
28140
28102
28104
28185
28078
28199
28129
28213
28210
28212
28183
28181
28334
28181
28194
28216
28280
28338
28346
28410
28276
28414
28312
28384
28305
28294
28323
28382
28328
28466
28415
28452
28541
28348
28500
28473
28461
28575
28521
28605
28555
28584
28560
28667
28738
28606
28594
28782
28716
28701
28790
28839
28867
28826
28841
28762
28825
28789
28904
28801
28946
28835
28933
29093
28965
28998
28971
28986
28973
29043
29083
29059
28981
29084
29134
29006
29148
29018
29073
29043
29113
29120
29107
29019
29084
29043
29103
29134
29115
28970
29086
29058
29137
29088
29156
29184
29091
29123
29141
29139
29146
29192
29024
29168
29078
29108
29080
29058
28973
28949
28932
28919
28959
29040
28986
28921
29006
28929
28935
28813
28920
28857
28925
28767
28890
28895
28855
28860
28824
28852
28772
28726
28722
28803
28703
28722
28749
28707
28711
28669
28540
28524
28564
28502
28478
28470
28371
28287
28188
28171
28076
28143
28026
28088
28012
28068
27949
27936
27885
27861
27824
27829
27705
27857
27733
27713
27748
27619
27638
27589
27591
27517
27570
27569
27569
27451
27465
27396
27434
27433
27554
27543
27455
27475
27447
27479
27464
27441
27425
27569
27461
27474
27420
27348
27366
27313
27392
27374
27362
27404
27439
27386
27332
27262
27383
27405
27319
27309
27569
27477
27435
27424
27405
27512
27465
27408
27542
27444
27404
27479
27533
27476
27506
27560
27471
27485
27493
27450
27425
27411
27412
27438
27395
27416
27436
27395
27435
27369
27458
27410
27311
27378
27458
27393
27444
27337
27481
27377
27429
27391
27408
27430
27415
27425
27326
27367
27381
27393
27376
27341
27432
27455
27424
27413
27356
27311
27323
27349
27438
27397
27474
27375
27361
27371
27300
27365
27322
27348
27265
27331
27410
27422
27392
27418
27334
27263
27356
27330
27347
27326
27357
27261
27299
27379
27375
27429
27258
27392
27301
27358
27349
27411
27410
27415
27385
27408
27440
27321
27358
27516
27465
27537
27545
27396
27365
27401
27456
27405
27292
27234
27283
27270
27234
27108
27218
27076
27166
27051
27045
27017
26989
27020
27002
26954
26947
26906
26832
26915
26784
26827
26888
26915
26793
26865
26680
26783
26768
26663
26724
26619
26722
26640
26565
26606
26593
26473
26640
26471
26481
26625
26584
26585
26592
26507
26582
26608
26547
26641
26570
26563
26647
26667
26581
26580
26640
26473
26553
26567
26586
26516
26431
26438
26491
26430
26514
26516
26463
26545
26519
26552
26565
26610
26570
26547
26600
26596
26639
26595
26610
26607
26543
26576
26581
26608
26598
26530
26443
26588
26471
26532
26618
26658
26541
26635
26677
26642
26694
26614
26686
26677
26667
26605
26650
26662
26618
26742
26679
26520
26599
26740
26618
26633
26656
26730
26666
26691
26738
26573
26660
26714
26738
26714
26786
26709
26630
26749
26688
26740
26768
26846
26756
26842
26759
26760
26832
26853
26824
26850
26934
26876
26971
26862
26894
26869
26869
26965
26871
26997
27063
27105
27085
27090
27138
27168
27190
27268
27231
27240
27264
27318
27215
27253
27335
27298
27311
27306
27326
27269
27311
27335
27334
27401
27394
27446
27473
27478
27513
27526
27550
27585
27603
27577
27643
27563
27585
27607
27665
27462
27605
27425
27419
27519
27545
27521
27491
27433
27500
27460
27386
27531
27377
27442
27498
27377
27434
27383
27252
27260
27224
27211
27272
27247
27115
27158
27225
27162
27021
27100
27054
27069
27079
26998
27084
26992
26893
26871
26851
26778
26829
26797
26857
26751
26934
26814
26946
26990
26870
27016
27100
26989
27169
27228
27108
27143
27156
27153
27232
27305
27317
27181
27266
27381
27203
27377
27345
27227
27342
27324
27251
27209
27372
27280
27313
27241
27327
27417
27403
27297
27441
27360
27399
27303
27373
27313
27315
27239
27144
27175
27235
27238
27294
27312
27247
27280
27344
27254
27169
27335
27271
27285
27241
27199
27260
27205
27314
27360
27315
27331
27381
27353
27427
27410
27412
27378
27487
27429
27474
27534
27573
27583
27552
27610
27595
27632
27652
27645
27727
27673
27710
27712
27749
27742
27734
27718
27844
27761
27786
27728
27809
27743
27800
27926
27708
27809
27787
27900
27777
27794
27912
27751
27803
27795
27856
27837
27767
27834
27774
27680
27717
27637
27662
27598
27563
27578
27524
27496
27530
27580
27433
27368
27512
27501
27481
27611
27494
27623
27456
27576
27540
27472
27493
27512
27481
27503
27496
27548
27571
27472
27349
27395
27461
27351
27406
27229
27204
27231
27246
27257
27194
27213
27107
27132
27109
27093
27094
27057
27103
27049
26900
27036
26900
26884
26762
26829
26820
26722
26704
26705
26757
26697
26667
26592
26567
26576
26494
26541
26566
26524
26601
26450
26467
26503
26571
26562
26519
26489
26589
26530
26588
26585
26448
26508
26595
26576
26706
26695
26531
26487
26671
26527
26676
26525
26619
26628
26648
26505
26605
26501
26655
26696
26517
26634
26582
26605
26701
26764
26711
26792
26666
26724
26678
26704
26691
26577
26671
26657
26637
26535
26567
26662
26513
26444
26461
26535
26563
26549
26636
26554
26644
26537
26614
26540
26509
26481
26625
26478
26525
26530
26388
26534
26488
26564
26494
26423
26474
26493
26537
26543
26500
26631
26654
26702
26578
26694
26535
26517
26560
26542
26630
26562
26583
26524
26644
26609
26592
26621
26631
26542
26647
26535
26647
26544
26662
26590
26662
26713
26594
26537
26589
26691
26554
26641
26584
26600
26610
26620
26495
26600
26517
26473
26570
26619
26455
26544
26568
26681
26719
26617
26719
26619
26640
26713
26644
26679
26634
26645
26650
26668
26782
26743
26857
26892
26945
26938
26813
27056
27049
26844
26883
27016
26998
26997
27036
26962
26882
26884
26988
26989
26964
26969
26915
26937
26874
27054
27051
27035
27005
26832
26902
26980
26911
26882
26886
26904
26903
26892
26731
26852
26961
26908
26862
26944
26876
26757
26934
26845
26778
26790
26889
26718
26815
26781
26806
26857
26722
26770
26749
26764
26721
26701
26704
26764
26744
26637
26735
26896
26802
26759
26814
26882
26891
26994
26821
26954
26991
27016
26952
26930
27006
26908
27006
26980
26985
27002
26885
26959
27002
27145
27159
27206
27067
26988
27216
27153
27149
27025
27151
27062
27084
27047
26993
27123
27124
27140
27114
27026
27105
26998
27042
26986
27041
26966
26930
26917
26766
26851
26792
26783
26759
26753
26695
26710
26689
26685
26680
26733
26696
26727
26794
26908
26809
26790
26703
26795
26904
26903
26913
27049
27024
27073
27236
27141
27307
27406
27357
27362
27427
27506
27417
27361
27423
27432
27327
27495
27471
27323
27516
27347
27379
27557
27389
27574
27409
27593
27424
27389
27524
27566
27465
27540
27487
27485
27448
27412
27415
27351
27387
27303
27197
27259
27114
27235
27254
27210
27276
27136
27189
27135
27219
27235
27152
27320
27200
27161
27295
27324
27379
27440
27396
27253
27448
27415
27370
27415
27501
27530
27432
27537
27450
27559
27593
27593
27609
27608
27778
27767
27775
27755
27736
27744
27868
27991
27970
27992
28011
28045
27989
27875
27885
27938
27820
27874
27889
27930
27807
27733
27806
27583
27624
27667
27564
27749
27562
27634
27714
27700
27756
27669
27653
27648
27542
27637
27504
27536
27633
27560
27562
27692
27570
27637
27592
27536
27599
27531
27647
27706
27680
27662
27684
27686
27668
27707
27805
27770
27757
27767
27925
27765
27784
27844
27780
27769
27779
27869
27845
27832
27933
27826
27741
27792
27733
27756
27818
27738
27765
27876
27843
27720
27864
27917
27832
27743
27767
27722
27794
27667
27696
27669
27579
27631
27574
27662
27650
27620
27706
27538
27624
27598
27573
27602
27492
27524
27544
27432
27526
27593
27581
27439
27448
27595
27460
27571
27349
27612
27509
27520
27344
27346
27337
27486
27377
27322
27320
27291
27280
27362
27362
27380
27303
27324
27306
27361
27325
27313
27478
27344
27338
27201
27359
27290
27305
27265
27321
27339
27304
27480
27378
27439
27545
27483
27418
27432
27494
27557
27587
27600
27489
27461
27400
27494
27417
27495
27346
27368
27408
27479
27470
27385
27341
27369
27359
27413
27437
27574
27388
27397
27394
27439
27386
27487
27401
27516
27441
27376
27364
27296
27319
27347
27361
27292
27189
27277
27231
27249
27077
27130
27086
27071
26946
26943
27042
27012
26932
26916
26854
26799
26809
26810
26790
26871
26757
26754
26792
26815
26796
26796
26829
26853
26920
26896
26826
26833
26733
26813
26890
26752
26914
26775
26876
26701
26833
26725
26755
26797
26775
26823
26841
26890
26889
26912
26960
26895
26811
26900
26936
26775
26989
26895
26805
26806
26871
26773
26888
26933
26926
26809
26878
26909
26815
26923
26863
26928
26882
26705
26821
26903
26851
26901
26833
26897
26880
26930
26881
26899
26934
26890
26878
26928
26939
26887
27002
27082
26952
27075
26958
26991
26954
27053
26967
27124
26990
27103
27059
27057
26974
27032
27013
26908
27007
26930
26998
26910
26980
26924
26983
26839
27011
26962
26915
27025
26944
26858
26998
26910
26970
26883
26978
26914
26916
26918
26985
26828
26964
26852
26860
26871
26842
26994
26864
26836
26885
26884
26912
27004
26985
26959
26921
26974
26934
26859
26959
26860
26861
26829
26845
26967
26785
26853
26904
26821
26781
26768
26898
26764
26852
26784
26678
26787
26718
26898
26850
26895
26800
26844
26799
26780
26812
26935
26918
26834
26905
26932
26990
27041
27024
26985
27065
27139
26996
27000
27164
27115
27132
27095
27061
27096
26984
27007
27063
27060
27070
26900
26950
26948
26881
26922
26937
26860
26791
26863
26892
26857
26751
26848
26843
26852
26942
26760
26994
26970
26846
27008
26878
26970
27014
26951
26950
27023
27017
27001
27047
27030
27099
26992
26962
27052
27069
27080
27044
27045
27109
27144
27039
27097
27064
27058
27220
27171
27244
27113
27214
27104
27152
27209
27134
27086
27231
27107
27061
27214
27213
27137
27270
27242
27290
27228
27106
27186
27275
27189
27204
27269
27280
27233
27286
27378
27322
27464
27391
27361
27411
27315
27420
27458
27444
27451
27497
27513
27584
27549
27477
27531
27469
27677
27554
27604
27603
27761
27706
27702
27659
27772
27793
27785
27697
27698
27779
27784
27835
27837
27791
27861
27821
27758
27907
27869
27836
27802
27931
27751
27900
27943
27851
28003
28008
27940
28074
27941
28048
28144
28122
28225
28186
28324
28190
28261
28239
28263
28359
28452
28378
28345
28406
28510
28394
28399
28429
28428
28445
28504
28422
28491
28436
28382
28494
28493
28366
28403
28499
28508
28458
28490
28475
28420
28519
28605
28426
28463
28410
28448
28518
28465
28488
28496
28556
28651
28562
28594
28566
28508
28548
28569
28556
28538
28531
28555
28556
28600
28599
28543
28587
28513
28569
28502
28398
28432
28464
28371
28390
28288
28165
28243
28214
28106
28230
28099
28092
28036
28052
27992
28078
27990
27886
27832
27895
27982
27864
27981
27845
27863
27917
27820
27813
27755
27851
27702
27783
27781
27692
27775
27606
27679
27813
27789
27735
27709
27661
27689
27774
27731
27704
27665
27706
27572
27609
27653
27536
27581
27521
27558
27487
27502
27505
27540
27581
27549
27578
27464
27490
27410
27558
27464
27509
27464
27301
27410
27289
27429
27248
27350
27312
27269
27327
27320
27285
27127
27291
27126
27193
27237
27154
27136
27181
27151
27116
27213
27125
27214
27145
27153
27177
27131
26964
27051
27142
27063
27098
26920
27003
27004
26923
27040
26953
26915
27006
26992
26933
26947
26970
26979
26876
26922
26975
26884
26919
26813
26941
26918
26891
26929
26877
26893
26851
26950
26894
26878
26974
26891
26947
26773
26933
26768
26734
26788
26808
26719
26786
26898
26796
26782
26802
26735
26817
26886
26886
26909
26952
26853
26821
26866
26914
26903
26885
26818
26813
26825
26857
26725
26712
26670
26630
26807
26598
26601
26696
26574
26669
26647
26565
26457
26472
26410
26405
26309
26236
26202
26127
26083
26228
26146
26149
26231
26231
26171
26204
26076
26230
26086
26050
26118
26112
26089
26003
26086
26028
26045
26041
26089
26147
25994
26080
26126
26140
26258
26221
26119
26178
26106
26201
26191
26317
26131
26130
26099
26241
26100
26244
26270
26273
26208
26179
26128
26159
26249
26173
26095
26022
26041
26141
26147
26097
26037
26074
26105
26149
26120
26191
26155
26239
26304
26240
26311
26305
26299
26310
26399
26398
26338
26409
26385
26314
26434
26287
26340
26258
26266
26335
26190
26163
26291
26190
26107
26174
26178
26109
26058
26230
26246
26128
26259
26210
26236
26280
26393
26348
26421
26260
26414
26264
26327
26438
26414
26439
26396
26313
26430
26467
26391
26251
26332
26391
26414
26378
26450
26331
26384
26381
26314
26248
26295
26264
26296
26313
26335
26198
26286
26304
26324
26179
26210
26291
26209
26222
26152
26119
26270
26187
26119
26161
26150
26122
26160
26173
26216
26226
26193
26202
26259
26211
26289
26246
26175
26272
26216
26323
26249
26366
26383
26350
26317
26348
26295
26503
26317
26398
26481
26487
26519
26555
26493
26524
26454
26486
26427
26491
26438
26389
26455
26470
26337
26445
26381
26482
26460
26499
26558
26545
26645
26600
26618
26647
26627
26651
26617
26736
26687
26544
26520
26674
26587
26677
26631
26543
26669
26569
26694
26599
26725
26775
26725
26742
26701
26741
26790
26871
26739
26889
26930
26733
26796
26854
26998
26875
26911
27037
27023
27092
27074
27145
27115
27162
27143
27129
27165
27137
27278
27263
27299
27296
27235
27214
27251
27294
27263
27348
27363
27345
27346
27302
27300
27295
27298
27464
27323
27449
27349
27438
27465
27375
27381
27480
27405
27463
27440
27448
27476
27459
27436
27470
27459
27383
27480
27343
27469
27450
27430
27493
27455
27409
27432
27481
27397
27520
27546
27449
27373
27534
27467
27547
27501
27451
27463
27501
27450
27566
27596
27507
27536
27561
27550
27583
27653
27586
27587
27559
27747
27668
27695
27878
27747
27875
27773
27909
27896
27957
27870
27878
27926
27916
27893
27889
27828
27858
27914
27817
27882
27876
27767
27877
27847
27832
27893
27874
27946
28073
27938
28007
27930
27861
27939
27910
27920
27880
27977
27874
27803
27775
27750
27758
27833
27678
27751
27728
27717
27633
27627
27578
27687
27590
27643
27602
27410
27483
27411
27396
27474
27406
27321
27464
27347
27375
27316
27254
27364
27310
27295
27384
27334
27258
27305
27305
27167
27193
27212
27216
27198
27140
27054
27163
27042
27130
27125
27174
27068
27019
27028
26980
26974
27052
26907
26971
27009
26903
27000
26964
26801
26867
26751
26853
26848
26846
26871
26807
26744
26682
26762
26779
26680
26744
26770
26675
26654
26695
26751
26677
26681
26684
26672
26688
26654
26698
26695
26660
26593
26711
26588
26677
26552
26666
26533
26515
26583
26425
26499
26424
26522
26408
26500
26408
26459
26440
26367
26425
26433
26416
26251
26318
26321
26313
26339
26375
26408
26414
26320
26243
26372
26393
26381
26388
26339
26195
26249
26220
26197
26225
26218
26255
26290
26227
26223
26284
26287
26214
26347
26337
26186
26245
26382
26250
26325
26275
26321
26275
26236
26341
26443
26366
26439
26334
26293
26371
26286
26291
26338
26267
26302
26350
26416
26328
26368
26363
26338
26371
26359
26405
26389
26423
26449
26436
26484
26446
26331
26513
26494
26384
26546
26459
26487
26390
26356
26409
26391
26293
26342
26229
26283
26318
26312
26124
26217
26217
26177
26164
26058
26050
26112
26051
25948
25953
26057
25973
25908
25940
26024
26020
25953
25976
26020
25997
25785
25871
25876
25810
25829
25719
25835
25859
25776
25734
25638
25676
25742
25728
25801
25796
25732
25761
25787
25721
25751
25770
25775
25732
25792
25730
25807
25729
25870
25769
25749
25789
25672
25661
25712
25579
25628
25581
25620
25639
25590
25788
25626
25575
25656
25744
25759
25923
25732
25646
25677
25754
25698
25614
25772
25579
25583
25708
25746
25578
25626
25751
25632
25869
25750
25732
25709
25672
25791
25847
25791
25672
25751
25751
25794
25752
25806
25830
25792
25855
25795
25800
25789
25764
25818
25805
25848
25730
25908
25827
25753
25775
25870
25707
25937
25711
25923
25903
25669
25926
25715
25737
25841
25815
25918
25922
25956
25971
26129
25987
26211
26215
26158
26073
26199
26242
26328
26398
26217
26358
26280
26439
26446
26373
26318
26459
26453
26485
26554
26532
26451
26566
26588
26550
26600
26684
26614
26568
26612
26674
26695
26630
26643
26814
26809
26846
26870
26665
26829
26740
26902
26867
26927
26848
27021
26921
26925
27082
27029
27057
27044
26923
27010
27003
27149
27068
27162
26892
27061
27087
27087
27048
26978
26993
26933
26974
26893
27007
26986
26996
27020
27054
26995
27004
27167
27074
26987
27116
26943
27066
27049
27047
27065
26894
26925
26960
27034
26881
26962
26930
27047
26892
26986
26984
26911
27077
26887
27002
26967
27136
27065
26965
26866
27064
27116
27003
27021
26955
26941
26989
26948
26949
27139
26996
27074
26954
27031
26918
27092
27035
27020
27082
27018
27110
27120
26928
27095
27026
27151
27241
27219
27059
27282
27137
27108
27178
27221
27192
27198
27310
27241
27265
27371
27443
27321
27458
27305
27302
27434
27377
27405
27266
27388
27281
27263
27186
27314
27418
27301
27285
27331
27267
27339
27429
27398
27428
27413
27381
27425
27446
27427
27489
27363
27415
27388
27408
27368
27382
27297
27361
27321
27173
27200
27296
27186
27097
27066
27231
27175
27227
27211
27318
27353
27338
27317
27185
27294
27348
27220
27308
27325
27285
27239
27127
27150
27233
27260
27142
27071
27195
27061
27141
26978
27088
27166
27118
27084
27142
26988
27186
26974
27124
27122
26970
27134
27061
27031
27179
27179
27128
27105
27100
26967
27002
26991
26839
26921
26845
26976
26826
26873
26682
26747
26693
26405
26601
26539
26498
26490
26439
26348
26301
26297
26376
26298
26194
26260
26227
26250
26194
26194
26235
26025
25990
26210
26103
26020
26084
25968
25955
25958
25840
25818
25943
25816
25865
25848
25766
25871
25875
25952
25750
25831
25903
25759
25843
25772
25675
25731
25728
25791
25825
25751
25824
25665
25602
25741
25630
25725
25757
25582
25525
25492
25591
25609
25566
25602
25531
25390
25561
25333
25534
25293
25440
25520
25448
25355
25291
25408
25515
25378
25377
25405
25281
25462
25309
25448
25446
25406
25427
25258
25261
25370
25252
25379
25438
25465
25369
25330
25383
25319
25300
25436
25299
25396
25480
25483
25467
25484
25308
25292
25395
25434
25379
25327
25433
25393
25464
25500
25261
25523
25257
25371
25520
25417
25361
25452
25331
25358
25259
25356
25352
25222
25331
25435
25375
25352
25373
25354
25305
25315
25320
25359
25382
25330
25424
25318
25281
25259
25418
25234
25226
25228
25378
25416
25222
25115
25083
25148
25123
25193
25225
25237
25296
25128
25265
25336
25310
25345
25368
25179
25260
25256
25131
25155
25099
25066
25065
24989
25016
24940
24978
24912
24791
24840
24879
24767
24724
24748
24680
24663
24646
24530
24549
24495
24511
24543
24475
24450
24435
24410
24331
24366
24410
24224
24397
24465
24353
24407
24279
24549
24274
24404
24365
24416
24535
24602
24592
24724
24743
24639
24671
24685
24635
24702
24705
24798
24653
24639
24662
24710
24571
24639
24587
24726
24468
24443
24546
24385
24430
24421
24481
24483
24449
24512
24621
24608
24704
24610
24490
24555
24514
24696
24791
24683
24620
24751
24810
24708
24855
24900
24843
25008
24960
24983
25072
24924
25122
25247
25093
25124
25197
25206
25332
25297
25140
25232
25244
25169
25368
25202
25367
25344
25186
25268
25308
25336
25311
25212
25276
25293
25337
25457
25276
25312
25334
25250
25381
25384
25412
25432
25509
25513
25540
25549
25586
25554
25663
25560
25482
25634
25548
25707
25753
25680
25836
25730
25704
25640
25925
25886
25894
25737
25778
25909
25870
25731
25800
25775
25827
25833
25886
25937
25997
25897
26104
26144
26043
25945
26134
26150
26185
26050
26120
26101
26176
26249
26156
26043
26130
26153
26121
26147
26006
26139
25993
26034
26082
25975
25965
25888
25949
25868
25918
25968
25976
26005
26020
26009
26032
25936
26038
25996
26023
26028
26065
25919
25837
25866
25897
25865
25903
25946
26118
25952
26112
25967
26118
25990
26163
26030
26148
25994
26176
26241
26234
26176
26217
26182
26257
26249
26236
26179
26233
26212
26338
26356
26351
26406
26263
26450
26459
26439
26414
26566
26485
26441
26436
26498
26687
26632
26590
26538
26641
26562
26467
26445
26464
26340
26420
26411
26387
26400
26405
26393
26495
26450
26405
26374
26408
26420
26487
26330
26272
26397
26468
26366
26306
26373
26355
26420
26372
26394
26374
26535
26448
26493
26439
26580
26417
26372
26340
26399
26334
26376
26277
26343
26301
26332
26273
26283
26335
26231
26306
26230
26195
26221
26017
26045
26124
26076
25900
26036
25981
25881
25893
25910
25916
25868
25739
25878
25798
25749
25782
25769
25800
25849
25894
25800
25772
25680
25781
25706
25792
25763
25731
25780
25714
25655
25668
25601
25719
25658
25575
25536
25502
25445
25462
25419
25380
25389
25275
25262
25249
25316
25227
25267
25208
25275
25296
25304
25375
25346
25256
25272
25344
25296
25383
25238
25218
25228
25285
25131
25197
25128
25044
25094
25003
25099
24874
25016
24897
24836
24733
24806
24727
24820
24748
24787
24750
24649
24723
24775
24694
24607
24645
24570
24681
24517
24583
24645
24673
24576
24622
24572
24452
24584
24519
24531
24586
24459
24542
24595
24511
24491
24539
24662
24558
24563
24665
24676
24633
24624
24692
24750
24662
24677
24727
24832
24653
24809
24692
24662
24729
24687
24679
24624
24622
24592
24530
24549
24643
24535
24505
24483
24630
24611
24659
24611
24621
24549
24543
24634
24642
24579
24743
24638
24679
24780
24748
24656
24593
24769
24664
24826
24790
24749
24675
24822
24772
24839
24717
24838
24779
24723
24755
24806
24893
24871
24776
24848
24934
24825
24860
24939
24801
24906
24890
24831
24873
24903
24905
24915
24890
25008
24977
24999
25011
24894
25017
24921
25042
24949
24921
24995
25044
24898
25030
24949
24871
24937
25055
25031
25028
25065
25050
25064
25081
25201
25136
25188
25116
25006
25068
25140
25126
25177
25035
25071
25060
25053
24978
25027
25034
24976
24969
25026
24910
25045
24974
25113
25153
25051
25127
25192
25219
25194
25078
25221
25248
25134
25145
25232
25121
25074
25035
24928
24946
24856
24887
24861
24795
24778
24902
24845
24805
24686
24807
24682
24684
24531
24676
24637
24559
24508
24408
24376
24446
24428
24461
24529
24459
24559
24483
24471
24457
24501
24544
24566
24506
24518
24419
24464
24387
24420
24468
24488
24483
24533
24412
24450
24634
24571
24708
24628
24743
24789
24767
24716
24769
24910
24728
24851
24954
24906
24949
25028
25124
25026
25059
25087
25231
25161
25251
25195
25194
25232
25364
25372
25341
25367
25234
25354
25433
25376
25345
25368
25397
25474
25493
25397
25355
25499
25431
25531
25613
25526
25646
25651
25674
25639
25729
25645
25765
25650
25800
25903
25822
25897
25989
25893
25942
25843
25982
25989
26021
25957
25983
26078
26012
26053
26041
26039
26132
26026
26168
26208
26083
26105
26099
26085
26194
26281
26183
26199
26332
26259
26307
26315
26204
26406
26370
26272
26270
26305
26267
26334
26309
26405
26392
26435
26393
26467
26421
26504
26465
26532
26556
26630
26601
26649
26680
26565
26720
26701
26543
26623
26616
26572
26611
26669
26570
26715
26703
26646
26640
26552
26715
26688
26771
26662
26772
26750
26907
26765
26931
26881
26786
26868
26953
26787
26872
26792
26817
26792
26893
26837
26745
26671
26721
26612
26643
26603
26739
26731
26680
26629
26802
26710
26572
26704
26602
26643
26501
26487
26590
26364
26493
26302
26349
26297
26343
26273
26435
26409
26393
26498
26543
26508
26525
26527
26561
26463
26487
26472
26608
26520
26554
26585
26704
26595
26672
26491
26498
26643
26508
26554
26453
26487
26383
26400
26337
26450
26291
26375
26417
26371
26449
26438
26336
26386
26438
26387
26308
26410
26332
26426
26373
26332
26360
26350
26200
26140
26189
26188
26192
26136
26141
26038
25952
26061
26066
26000
25933
26089
26032
26064
25962
26069
25912
25952
26118
26106
26172
26154
26009
26096
25982
25880
25911
25928
25986
25953
25821
25753
25850
25759
25720
25828
25788
25769
25879
25716
25755
25823
25629
25717
25701
25719
25804
25732
25773
25716
25613
25596
25621
25701
25724
25654
25578
25591
25522
25590
25627
25617
25533
25443
25513
25626
25525
25499
25508
25578
25542
25467
25533
25425
25370
25337
25334
25319
25275
25368
25371
25342
25156
25215
25174
25181
25037
25144
25195
25027
25095
25120
25031
25023
25142
25099
25089
25027
24948
24914
24981
24961
24872
24899
24819
24784
24749
24690
24563
24547
24633
24483
24445
24434
24400
24289
24360
24260
24340
24288
24285
24236
24315
24206
24293
24228
24283
24202
24168
24242
24100
24158
24036
24070
24118
24153
24037
24120
24035
23972
23988
23975
24092
24085
24054
24042
24126
24206
24070
24254
24216
24162
24310
24272
24254
24245
24141
24173
24136
24208
24108
24097
24050
24192
24128
24199
24225
24244
24185
24205
24182
24145
24289
24173
24109
24184
24268
24116
24077
24228
24254
24205
24145
24165
24103
24080
24193
24096
24247
24097
24219
24150
24167
24190
24299
24295
24208
24182
24338
24216
24373
24357
24315
24393
24267
24353
24251
24238
24226
24232
24300
24251
24384
24281
24407
24416
24335
24425
24440
24366
24433
24518
24425
24491
24557
24566
24475
24426
24425
24543
24462
24373
24380
24442
24440
24462
24411
24419
24512
24458
24376
24460
24384
24368
24450
24409
24303
24433
24508
24531
24538
24569
24430
24578
24486
24462
24490
24428
24469
24462
24457
24351
24429
24467
24371
24447
24450
24521
24365
24416
24418
24484
24488
24523
24514
24459
24367
24506
24335
24338
24307
24312
24497
24391
24366
24265
24347
24310
24301
24249
24296
24162
24152
24303
24146
24027
24069
23963
23962
24022
23982
23962
23868
23869
23831
23877
23930
23954
23796
23849
23868
23985
24052
23985
23995
23917
23862
24040
23867
23968
23942
23896
23826
23957
23803
23824
23830
23830
23949
23868
24009
23916
23952
24061
24155
24067
24191
24140
24304
24216
24341
24345
24268
24359
24272
24437
24537
24462
24556
24575
24556
24652
24568
24697
24620
24587
24705
24703
24807
24705
24809
24739
24860
24786
24869
24855
24939
24777
24745
24796
24808
24975
24935
24894
25050
25018
24972
25034
25210
25083
25231
25113
25273
25278
25235
25308
25336
25384
25465
25518
25345
25455
25497
25515
25412
25583
25510
25541
25590
25560
25618
25587
25703
25637
25719
25647
25611
25735
25755
25699
25723
25845
25793
25885
25872
25854
25998
26063
25961
25985
25947
26061
25966
25941
26053
25898
25955
26089
26147
26111
26189
26129
26142
26126
26164
26262
26193
26224
26291
26357
26307
26312
26263
26335
26351
26414
26278
26319
26386
26395
26605
26580
26636
26513
26657
26593
26710
26590
26698
26812
26764
26904
26851
26843
26941
26916
26883
26955
27034
26878
27048
27023
27053
27111
27147
27061
27007
27137
27092
27085
27179
27123
27104
27179
27185
27153
27258
27187
27192
27259
27140
27053
27071
27108
27133
27096
26983
27056
26954
26985
26851
26976
27029
26985
27027
26981
27015
26894
26928
26954
26957
26897
26897
26998
26905
26938
27047
27017
26986
26978
27063
27071
27059
27103
27129
27019
27057
27011
27010
26993
27107
27052
27043
27044
27081
27036
26931
26958
26960
27008
26893
26961
27076
27070
27000
27090
27131
27017
26952
26968
26959
27013
27080
27049
27024
27094
27047
27003
27078
27026
26970
26986
26875
26959
26873
26851
26898
26828
26929
26879
26805
26845
26922
26867
26860
26976
26913
26844
26897
26876
26934
26930
26808
26767
26753
26884
26799
26807
26748
26658
26622
26639
26690
26562
26706
26628
26598
26645
26741
26667
26567
26519
26650
26511
26563
26425
26414
26541
26385
26359
26466
26452
26309
26349
26312
26384
26316
26196
26271
26178
26282
26195
26271
26132
26196
26218
26111
26135
26180
26175
26115
26089
25980
25994
25924
25945
25951
25935
25979
25859
25761
25891
25932
25757
25748
25829
25875
25764
25816
25839
25859
25797
25841
25806
25690
25783
25701
25548
25568
25620
25523
25469
25421
25433
25396
25365
25352
25299
25230
25189
25110
25119
25025
24995
24942
24900
24791
24917
24811
24841
24744
24759
24800
24776
24794
24874
24802
24735
24626
24604
24739
24637
24697
24704
24662
24508
24659
24568
24524
24480
24518
24510
24556
24617
24568
24638
24714
24700
24695
24607
24595
24733
24685
24675
24667
24826
24779
24628
24689
24764
24662
24701
24678
24733
24745
24652
24670
24733
24643
24776
24682
24703
24714
24724
24769
24893
24866
24709
24782
24695
24856
24806
24824
24867
24963
24853
24821
24828
24796
24733
24786
24868
24798
24780
24886
24828
24933
24916
24868
24975
24907
24938
24975
24933
24978
24987
24844
25024
24901
24976
24948
24974
24931
25021
24913
24998
25066
25043
25039
24892
24999
24924
24992
25048
25090
25068
25081
24983
25026
25031
25090
25115
25102
25136
25121
25144
25058
25054
25032
25145
25083
25125
25051
25165
25073
25102
24949
25122
25012
25171
25074
25070
25091
25219
25081
25138
25142
25184
25089
25141
25012
25046
25123
24998
25034
25034
24978
25042
24893
24922
25014
24905
25013
24867
24969
24930
24928
24956
25011
24989
24991
24974
24956
24985
25056
25079
24933
24871
24948
24915
24931
24791
24762
24852
24756
24839
24769
24645
24609
24642
24715
24646
24676
24561
24519
24625
24577
24580
24574
24640
24507
24604
24607
24531
24643
24513
24515
24599
24569
24461
24513
24507
24503
24467
24537
24494
24489
24408
24566
24408
24435
24401
24468
24610
24526
24548
24580
24587
24668
24647
24624
24633
24577
24678
24675
24596
24532
24557
24600
24679
24609
24620
24686
24577
24775
24666
24740
24673
24634
24707
24792
24723
24838
24803
24855
24870
24892
24856
24924
24940
24848
24948
25006
24952
24922
24998
25116
24958
25106
25102
25186
25239
25263
25219
25280
25426
25347
25376
25495
25395
25580
25588
25474
25438
25641
25555
25641
25669
25694
25661
25573
25729
25649
25758
25725
25808
25845
25760
25937
25967
25824
25888
25949
25937
25936
25933
25898
25772
25865
25873
25859
25940
25903
25967
25956
26039
25943
26112
26027
26196
26173
26177
26182
26306
26399
26342
26439
26321
26337
26481
26359
26493
26622
26511
26629
26629
26529
26664
26582
26625
26702
26752
26671
26685
26761
26729
26760
26784
26778
26782
26871
26866
26901
26980
26959
26964
26870
26951
27066
27092
27001
27174
27150
27077
27277
27147
27360
27163
27212
27304
27224
27206
27199
27360
27347
27395
27287
27441
27308
27276
27293
27354
27519
27482
27385
27540
27457
27556
27512
27380
27411
27439
27534
27377
27508
27446
27454
27368
27467
27448
27549
27463
27507
27554
27520
27483
27554
27564
27589
27502
27545
27531
27559
27556
27513
27531
27563
27737
27652
27725
27680
27614
27680
27698
27798
27707
27718
27861
27830
27766
27772
27724
27770
27615
27641
27716
27813
27813
27697
27631
27750
27772
27741
27684
27799
27683
27819
27721
27723
27770
27839
27791
27837
27745
27718
27762
27706
27735
27784
27676
27652
27746
27654
27763
27779
27680
27800
27800
27677
27722
27734
27581
27705
27622
27665
27640
27534
27539
27462
27486
27491
27379
27527
27558
27425
27457
27502
27474
27610
27505
27565
27446
27367
27546
27557
27375
27380
27511
27393
27460
27422
27397
27440
27465
27343
27365
27405
27315
27328
27319
27322
27276
27348
27367
27245
27285
27256
27338
27256
27185
27270
27247
27071
27182
27065
27037
27160
27022
27127
27115
27000
27014
26927
26892
26838
26963
26816
26925
26782
26803
26790
26804
26712
26702
26670
26769
26606
26619
26559
26683
26583
26563
26544
26553
26488
26350
26331
26358
26304
26196
26161
26180
26144
26045
25997
26024
25955
25960
25892
25778
25769
25711
25767
25696
25688
25738
25806
25752
25585
25543
25574
25476
25602
25487
25371
25323
25397
25280
25314
25250
25206
25214
25297
25321
25255
25384
25349
25303
25353
25461
25339
25325
25374
25412
25376
25290
25374
25392
25349
25312
25332
25389
25287
25328
25311
25401
25380
25341
25343
25315
25230
25292
25326
25390
25215
25261
25448
25390
25316
25446
25474
25453
25430
25479
25565
25451
25407
25518
25552
25591
25627
25707
25674
25664
25592
25766
25714
25656
25806
25921
25804
25930
25922
25862
25849
25875
25942
25885
25793
25835
25769
25795
25937
25881
25815
25867
25725
25793
25866
25851
25885
25901
25978
25871
25981
26085
26039
25881
25951
26081
26051
26065
25914
25936
25876
26001
25891
25995
25986
25967
25923
26042
25976
25917
25914
26058
25860
25936
26094
26135
26147
26167
26055
26032
26087
26108
26138
26049
26067
26137
26203
26118
26099
26244
26126
26065
26230
26132
26078
26136
26241
26153
26052
26069
26078
26143
26147
26047
26051
26050
26150
26023
26113
26153
26122
26112
26091
26037
26131
26059
26110
25917
25897
26024
25898
25843
25866
25893
25920
25892
25772
25867
25812
25786
25819
25797
25776
25756
25746
25895
25772
25788
25817
25872
25910
25868
25938
25904
25776
25812
25745
25769
25718
25691
25555
25564
25582
25621
25602
25535
25511
25640
25577
25622
25542
25621
25585
25602
25605
25725
25662
25768
25764
25972
25932
25881
25971
25876
26007
26012
26015
26129
26151
26057
26217
26121
26103
26177
26314
26199
26367
26176
26376
26367
26465
26445
26520
26538
26464
26587
26768
26673
26724
26746
26759
26780
26852
26863
26878
26871
26941
26933
27094
27028
27040
27113
27106
27173
27112
27178
27134
27345
27159
27129
27134
27196
27331
27275
27273
27290
27328
27369
27348
27282
27332
27333
27355
27492
27516
27423
27497
27468
27499
27528
27548
27600
27686
27622
27703
27835
27756
27872
27785
27818
27839
27948
27847
27813
27983
27980
28008
27980
28066
28006
28073
28096
28145
28050
28113
28227
28117
28097
28112
28061
28233
28257
28135
28239
28205
28205
28198
28160
28168
28240
28123
28190
28082
28100
28046
28141
28034
28219
28195
28082
28075
28054
28088
28013
27942
27911
27875
27898
27958
27868
27932
27856
27841
27909
27860
27913
27827
27843
27905
27974
27945
27919
27934
27958
27970
27976
27902
27847
28055
28047
27921
27849
27928
27961
27846
27771
27878
27754
27787
27786
27775
27628
27642
27711
27568
27680
27598
27572
27562
27633
27513
27424
27424
27324
27312
27252
27202
27132
27057
26930
26949
26867
26910
26953
26957
26891
26907
26917
26879
27002
26917
26940
27062
26944
26888
26979
26911
26964
27003
26889
26891
26855
26882
26831
27001
26864
26950
26965
26938
26976
26928
26879
26932
26983
27079
26981
26973
26923
27042
26894
26876
26979
26851
26902
26813
26814
26924
26781
26795
26906
26808
26815
26774
26858
26831
26929
26877
26837
26864
26886
26872
26798
26861
26747
26872
26883
26838
26802
26858
26711
26710
26765
26793
26630
26778
26727
26641
26656
26689
26702
26743
26708
26813
26783
26869
26881
26893
26771
26678
26846
26786
26707
26693
26745
26738
26722
26680
26722
26724
26783
26800
26708
26682
26709
26682
26706
26668
26742
26657
26712
26716
26690
26636
26658
26603
26624
26647
26560
26700
26614
26658
26627
26538
26509
26489
26506
26431
26506
26443
26358
26239
26281
26145
26316
26192
26188
26144
26081
26286
26146
26267
26136
26177
26161
26282
26196
26315
26248
26270
26125
26218
26134
26083
26125
26067
26072
26067
25948
25997
25952
25867
25907
25850
25720
25763
25663
25682
25519
25639
25559
25625
25435
25490
25393
25436
25353
25473
25344
25434
25369
25383
25371
25222
25254
25257
25256
25213
25156
25174
25017
25081
25003
25016
25074
25005
25129
24979
24922
24971
24998
25074
24955
24994
25021
24953
25045
25015
24975
24902
25025
24928
24956
24993
24990
24883
24990
24830
24966
24947
24888
24912
24977
24912
25033
24929
24993
24972
25055
24986
24931
24924
24991
25057
25112
25125
25098
25186
25091
25015
25153
25205
25167
25226
25156
25124
25105
25012
25200
25262
25184
25114
25109
25235
25124
25139
25220
25098
25180
25168
25162
25127
25229
25256
25184
25178
25292
25275
25180
25247
25177
25220
25281
25190
25291
25258
25234
25334
25360
25303
25304
25431
25446
25322
25426
25495
25385
25490
25342
25418
25426
25463
25441
25422
25536
25438
25408
25614
25511
25585
25547
25633
25600
25576
25639
25563
25617
25672
25560
25567
25580
25558
25617
25702
25695
25514
25579
25632
25623
25575
25583
25602
25566
25574
25520
25552
25478
25521
25588
25478
25532
25431
25391
25565
25469
25551
25419
25400
25427
25462
25543
25452
25499
25423
25520
25375
25503
25398
25491
25251
25385
25351
25275
25129
25154
25118
25092
25012
24944
24943
24860
24913
24884
24915
24928
24894
24982
24945
24920
24832
24978
25051
25033
25150
25176
25296
25217
25226
25357
25277
25372
25284
25375
25314
25371
25259
25270
25236
25135
25190
25201
25135
25036
25101
25108
25156
25088
25191
25246
25291
25241
25210
25248
25273
25273
25151
25226
25198
25201
25093
25230
25216
25070
25203
25098
25150
25210
25266
25408
25405
25438
25537
25560
25628
25586
25715
25829
25779
25731
25798
25791
25994
25914
26067
25993
