25155
25323
25400
25405
25192
25332
25443
25354
25624
25503
25517
25275
25638
25321
25510
25332
25467
25359
25615
25399
25499
25612
25621
25757
25678
25602
25815
25893
25740
25854
25779
26004
25662
25824
25745
25825
25619
25878
25677
25796
25710
25749
25688
25942
25965
25936
26005
25900
25910
26198
25996
26253
26081
26169
25990
26214
25988
25970
26075
25967
25953
25969
25886
26014
26070
25957
25909
26183
26150
25955
26274
25988
26252
25965
26153
26059
26149
26019
26077
26106
26005
25843
26042
26044
26043
26049
26136
26051
26104
25930
26198
26152
26030
26046
26152
26204
26200
26199
26185
26243
26097
26224
26285
26218
26106
26167
26237
26185
26284
26277
26127
26039
26215
26112
26005
25995
25947
25648
25921
25884
25671
25727
25655
25722
25658
25296
25418
25470
25184
25245
25342
25212
25176
25355
25397
25294
25351
25091
25084
25169
25188
25308
25082
24922
25062
25022
25108
25171
25080
25026
24986
25001
25116
25097
24973
25089
25310
25188
24957
25207
25258
25222
25320
25037
25404
25064
25162
25312
25271
25111
25415
25224
25425
25387
25164
25181
25253
25393
25273
25461
25262
25369
25239
25448
25530
25325
25367
25284
25412
25367
25555
25395
25392
25362
25387
25410
25391
25431
25464
25452
25438
25337
25349
25517
25406
25556
25431
25354
25571
25377
25591
25738
25381
25365
25410
25658
25505
25449
25697
25662
25708
25690
25746
25446
25566
25665
25795
25656
25819
25650
25628
25557
25866
25519
25718
25767
25614
25550
25598
25754
25608
25528
25617
25511
25627
25681
25847
25714
25871
25696
25737
25646
25652
25855
25690
25724
25834
25643
25507
25527
25604
25653
25486
25299
25326
25194
25248
25303
25111
25274
25196
25093
25091
24791
24978
24871
25032
24978
24938
24892
24801
24793
24946
24760
24713
24893
24851
24875
24654
24880
24859
24725
24684
24744
24879
24750
24781
24739
24830
24591
24818
24712
24854
25113
24800
24968
24708
24813
24900
24951
24816
24931
24891
24942
24855
24964
25071
24894
24828
24919
25019
24874
24860
25160
25164
24967
25109
25085
25013
25205
25178
25067
25204
25058
25273
25264
25328
25104
25182
25072
25143
25493
25374
25283
25358
25468
25533
25299
25549
25261
25368
25476
25319
25499
25344
25348
25506
25328
25508
25411
25669
25802
25709
25714
25716
25818
25558
25591
25658
25831
25653
25654
25688
25727
25916
25761
25831
25759
25906
25793
25822
25839
25994
25773
25767
26031
25796
25962
25953
25918
25948
26078
25948
26007
25899
25926
26134
25999
26028
26186
26016
26113
26122
26041
25897
25982
25880
25792
25940
25765
25550
25690
25578
25577
25632
25433
25461
25477
25369
25555
25373
25225
25254
25383
25342
25285
25199
25176
25172
25135
25194
25308
25242
25087
25113
25017
25053
25213
25088
25110
25020
25206
25170
25232
25259
25319
25168
25363
25349
25419
25395
25532
25469
25605
25484
25339
25487
25425
25631
25639
25655
25801
25513
25798
25487
25766
25616
25568
25726
25591
25611
25594
25603
25777
25783
25733
25599
25705
25889
25906
25861
25714
25880
25986
25826
26111
25842
25824
26004
26112
25950
25957
25921
25975
26167
26074
26082
26101
26308
26209
26269
26181
26325
26212
26218
26326
26165
26224
26352
26443
26387
26605
26469
26530
26433
26415
26415
26470
26558
26720
26546
26581
26732
26508
26847
26625
26890
26667
26826
26671
26796
26835
26655
27009
26825
27003
26973
27119
27001
26907
27043
26873
26963
26875
27014
26781
27037
26969
26754
26595
26796
26970
26590
26768
26541
26515
26496
26457
26582
26397
26277
26091
26300
26206
26054
26165
25959
25945
26062
25793
25898
25884
25815
25772
25847
25642
25795
25936
25745
25859
25639
25988
25846
25878
25829
25624
25773
25871
25885
25774
25777
25763
25537
25810
25627
25821
25856
25690
25914
25877
25870
25875
25929
25832
25801
25791
25995
25902
25998
25904
25809
25781
26054
25801
25995
25887
25854
25906
26062
26025
25752
26054
25811
25907
26197
25932
26042
26193
25846
25978
25901
26100
26190
25971
26161
26186
26204
26320
26151
26287
26209
26427
26245
26061
26105
26284
26207
26349
26092
26095
26087
26246
26321
26179
26245
26232
26384
26265
26239
26198
26151
26298
26404
26139
26372
26263
26192
26186
26444
26409
26432
26465
26328
26420
26216
26444
26458
26505
26287
26492
26338
26355
26345
26448
26412
26339
26288
26177
26330
26242
26322
26213
25908
25984
25855
25888
25887
25692
25804
25642
25695
25635
25613
25695
25624
25382
25412
25501
25367
25424
25535
25333
25615
25235
25273
25352
25469
25268
25494
25429
25416
25225
25386
25380
25324
25147
25315
25144
25233
25127
25268
25313
25287
25105
25309
25251
25237
25316
25354
25455
25289
25455
25347
25533
25308
25358
25404
25496
25442
25433
25469
25357
25317
25391
25604
25607
25554
25386
25523
25598
25553
25401
25562
25457
25575
25530
25679
25533
25679
25527
25498
25484
25654
25519
25577
25488
25801
25731
25478
25737
25684
25630
25634
25735
25767
25797
25912
25604
25671
25636
25910
25868
25733
25896
25666
25779
25799
25736
25801
25614
25866
25712
25747
25805
25670
25707
25953
25799
25620
25824
25703
25832
25719
25844
25754
25779
25917
25830
26055
25870
25895
25842
26116
25834
25932
26073
26090
26050
25970
25889
26024
25835
25865
25682
25662
25689
25534
25710
25491
25583
25652
25434
25371
25409
25372
25284
25177
25090
25197
25060
25179
25281
24916
25045
25050
25063
24946
24841
25027
24831
25060
25277
24956
25041
25207
24921
25049
25011
24943
25129
25126
25081
25208
25031
25148
25090
25128
25375
25282
25123
25116
25149
25080
25212
25222
25422
25306
25361
25311
25160
25166
25513
25376
25273
25236
25406
25318
25345
25536
25327
25427
25438
25235
25507
25640
25501
25552
25617
25704
25489
25394
25512
25514
25501
25786
25853
25689
25774
25705
25445
25750
25869
25790
25888
25826
25924
25835
25906
25921
25848
25645
25845
25881
25706
25932
25738
25956
25762
25936
25970
25949
25938
25743
25837
25951
25821
25737
25847
25989
26037
25947
25778
25961
26123
25972
25971
26116
26143
25930
25995
26175
26006
25894
26071
26023
26014
26078
26038
26230
25984
25953
26158
26217
25924
25940
26084
25850
25854
26061
25787
25900
25744
25710
25722
25562
25593
25712
25449
25548
25420
25422
25467
25366
25313
25369
25276
25217
25188
25406
25251
25195
25231
25233
25184
25215
25237
25105
25105
25095
25114
25117
25043
25081
24993
25109
24983
25123
25256
25179
24985
25196
25146
25316
25141
25104
25159
25298
25180
25225
25245
25145
25360
25393
25235
25408
25287
25396
25331
25448
25336
25458
25527
25448
25338
25409
25290
25333
25506
25438
25580
25353
25435
25418
25494
25493
25574
25572
25545
25689
25653
25722
25688
25753
25783
25726
25690
25814
25761
25860
25950
25978
25874
25837
25856
25750
25785
25777
26002
25995
25667
25880
26091
25884
25962
25760
25802
26061
25921
25813
25849
25872
25850
25911
25934
25876
25902
26176
26003
25880
26201
26118
26060
26149
25950
26083
26141
26225
26166
26224
26124
26232
26218
26127
26045
26153
26291
26223
26289
26000
26092
26239
26133
26016
26163
26135
26135
26077
25907
26056
25727
25646
25745
25720
25736
25672
25415
25701
25475
25330
25531
25327
25430
25461
25166
25368
25413
25383
25315
25325
25317
25546
25347
25136
25333
25280
25416
25493
25254
25299
25476
25346
25555
25434
25367
25475
25614
25503
25574
25532
25640
25528
25484
25552
25697
25687
25746
25714
25676
25716
25755
25602
25785
25717
25874
25786
25950
26026
25793
25751
25923
25890
25886
25870
25991
26133
25933
25934
26039
26228
25986
26062
25999
26277
25993
26323
26242
26275
26448
26407
26426
26341
26551
26692
26609
26557
26691
26802
26769
26794
26544
26604
26614
26675
26696
26717
26641
26694
26651
26717
26929
26742
26627
26690
26541
26774
26916
26687
26790
26601
26730
26916
26678
26865
26711
26749
26762
26703
26649
26969
26787
26795
26622
26880
26899
26653
26836
26717
26759
26786
26679
26685
26442
26671
26436
26378
26594
26354
26326
26222
26225
26112
26053
26016
25976
25938
25801
25568
25677
25622
25481
25473
25396
25542
25296
25413
25194
25273
25135
25333
25240
25309
25336
25304
25017
25277
25158
25263
24908
25237
25031
24942
25023
24971
24972
24959
24930
24751
25033
24773
24881
25054
24926
25036
24952
24916
24964
24927
24624
24717
24935
24842
24747
24768
24968
24829
24673
24820
24862
24792
24578
24810
24957
24730
24724
24628
24796
24658
24883
24730
24748
24749
24878
25093
24812
24922
25079
24995
24767
25064
25033
25012
24971
25043
25140
25120
25038
25119
24876
24988
24934
25276
24869
24961
25019
25052
25226
25319
25211
25385
25209
24979
25223
25177
25056
25300
24977
25210
24997
24965
24917
25082
25098
25122
24920
25187
24921
25105
25157
25214
25030
25191
25008
24978
25274
24970
25128
25148
25148
25281
25177
25019
25246
25142
25123
24957
25150
25041
25115
24816
24698
24757
24783
24547
24774
24633
24306
24450
24668
24496
24329
24342
24146
24260
24543
24155
24344
24321
24371
24295
24273
23986
24229
24356
24045
23986
24230
23961
24189
24172
24032
24135
24102
24092
23887
24156
24271
24211
24352
24130
24009
24265
24282
24180
24305
24026
24480
24225
24349
24249
24172
24301
24105
24213
24114
24215
24107
24296
24163
24291
24366
24265
24129
24319
24367
24278
24233
24319
24543
24414
24519
24493
24390
24517
24651
24468
24593
24480
24547
24712
24645
24677
24625
24622
24603
24447
24519
24621
24679
24638
24737
24683
24606
24585
24863
24791
24789
24677
24842
24613
24520
24727
24595
24863
24981
24877
24953
24989
24749
24757
24955
25040
25042
24766
24990
25108
24863
25036
24944
25094
24948
24969
24933
25047
24904
24982
24834
24954
24909
24901
24925
24981
25205
24991
25042
24863
25069
24999
24987
25128
24877
24952
24916
24654
24803
24609
24544
24642
24579
24514
24252
24260
24263
24476
24110
24123
24021
24179
24185
23935
23890
24057
23975
23910
23983
24046
24123
23856
23664
23815
23861
23898
23871
23763
23758
23633
23686
23529
23606
23570
23725
23705
23870
23834
23921
23695
23977
23814
23777
23795
23704
23799
23647
23987
24078
23804
23752
23930
24034
23868
23893
24067
23843
24133
24092
24111
23908
24180
23924
23906
24104
23949
24153
23975
23913
24014
23973
24196
23969
24246
24235
24096
24255
24318
24365
24055
24314
24194
24460
24121
24166
24275
24319
24456
24284
24493
24271
24273
24191
24389
24397
24538
24480
24212
24508
24265
24507
24308
24213
24369
24471
24342
24577
24411
24223
24512
24311
24504
24593
24363
24459
24275
24339
24583
24380
24402
24437
24406
24628
24608
24369
24346
24408
24317
24534
24505
24575
24581
24379
24574
24306
24506
24622
24563
24533
24304
24412
24394
24269
24250
24285
24002
24027
24285
24007
23827
23831
23972
23674
23900
23819
23633
23757
23602
23475
23310
23435
23457
23407
23535
23451
23295
23257
23433
23525
23182
23101
23290
23046
23083
23118
23081
23125
23194
23164
23041
23200
23338
23273
23249
23202
23328
23173
23461
23346
23424
23390
23352
23301
23299
23456
23312
23443
23400
23176
23283
23601
23480
23573
23315
23232
23309
23231
23527
23566
23350
23458
23663
23561
23697
23620
23694
23750
23689
23782
23863
23832
23797
23703
23887
23628
23518
23724
23699
23660
23857
23636
23849
23725
23873
23808
23705
23626
23918
23924
23766
23898
24083
23924
24122
23864
23808
23876
23924
24130
24216
24158
23958
24293
24261
24247
24169
24224
24321
24060
24292
24546
24381
24242
24462
24429
24408
24653
24590
24650
24436
24526
24586
24613
24552
24636
24706
24729
24574
24761
24495
24788
24650
24634
24637
24586
24506
24793
24602
24782
24536
24620
24594
24321
24283
24649
24437
24245
24329
24484
24109
24243
24337
24161
24063
24157
24171
24161
23819
24146
23899
23980
23941
24072
23921
24202
23885
24074
24095
23957
23918
24117
24162
24077
24132
23999
23998
23954
24055
24371
24075
24184
24162
24084
24372
24312
24115
24177
24043
24297
24316
24270
24361
24383
24119
24210
24420
24343
24302
24349
24322
24437
24299
24417
24315
24541
24311
24504
24468
24446
24479
24356
24455
24361
24499
24460
24206
24412
24541
24427
24414
24496
24609
24271
24372
24328
24222
24307
24212
24270
24501
24462
24204
24432
24234
24231
24320
24440
24170
24152
24138
24186
24336
24223
24356
24440
24120
24291
24532
24344
24526
24410
24506
24498
24343
24543
24229
24294
24223
24479
24687
24417
24502
24701
24632
24489
24723
24842
24813
24886
24995
24731
24956
24909
25044
25173
25107
25130
25215
24956
25242
24977
24796
24864
24791
24885
24846
24589
24654
24510
24521
24350
24273
24233
24312
24413
24233
24160
23933
23806
23988
23971
24001
23922
23938
23637
23857
23760
23568
23784
23885
23755
23792
23609
23345
23599
23407
23497
23425
23503
23550
23358
23413
23430
23742
23783
23686
23621
23799
23585
23679
23822
23635
23654
24010
23786
24074
23834
23807
23938
24073
24186
24259
24059
24162
24329
24013
24181
24471
24399
24270
24450
24462
24461
24391
24438
24417
24360
24397
24209
24473
24479
24470
24551
24453
24538
24552
24425
24606
24542
24578
24540
24348
24495
24364
24482
24502
24621
24678
24332
24610
24357
24293
24361
24365
24346
24533
24339
24612
24601
24653
24635
24620
24569
24560
24703
24519
24631
24694
24750
24867
24807
24536
24777
24884
24772
24734
24769
24662
24924
24661
24969
24756
25083
24692
24817
24782
25115
24867
24951
24959
25022
25213
25113
24998
25107
24965
25193
25021
24962
25140
25179
24858
25038
24798
24693
24743
24635
24725
24741
24748
24573
24605
24405
24322
24262
24275
24515
24449
24216
24248
24268
24159
24065
24148
24231
24139
24004
23950
23850
23956
24023
23928
23923
23854
23922
24132
23880
23977
24007
23947
24029
24237
24276
24342
24428
24389
24192
24421
24472
24116
24400
24353
24369
24518
24235
24309
24359
24525
24572
24484
24536
24571
24623
24460
24610
24473
24623
24529
24684
24595
24761
24667
24891
24669
24906
24721
24778
24763
24782
24912
25094
25015
25019
24981
24891
24820
24989
24928
25271
25044
25211
25157
25128
25193
25105
25202
25192
24891
25221
25051
25023
24985
25219
25112
25055
25074
25087
25289
25097
25064
24868
25037
25107
25051
25170
24983
24872
24902
24934
25055
24946
25037
24797
25013
25027
25091
24777
25035
24903
24918
25137
24985
24944
24932
25117
25255
24955
25054
25140
25219
24958
24947
25154
25027
24904
24935
25074
24933
24655
24651
24550
24555
24599
24385
24473
24236
24274
24041
24159
24104
24066
23950
23955
24140
23751
23716
23915
23788
23583
23729
23528
23693
23623
23495
23495
23357
23502
23247
23014
23130
23089
23019
23041
23155
22931
22899
22978
23293
23135
22985
23125
23178
23037
22891
23129
23030
23026
23068
22992
23050
23197
23203
22899
23145
22970
23120
23213
23181
23394
23176
23348
23273
23376
23208
23556
23341
23249
23417
23313
23384
23487
23678
23537
23540
23492
23655
23473
23419
23493
23671
23766
23666
23520
23501
23877
23667
23912
23820
23494
23700
23641
23708
23743
23908
23699
23621
23891
23816
23836
23746
23716
23739
23706
23465
23623
23933
23746
23608
23710
23562
23895
23542
23896
23888
23750
23704
23923
23640
23587
23658
23876
23887
23824
23666
23654
23593
23929
23728
23822
23755
23731
23730
23811
23648
23798
23644
23830
24073
23797
24125
23980
23999
23941
24033
24012
23725
23937
23615
23592
23560
23607
23417
23452
23385
23396
23199
23453
23485
23105
23101
23227
23238
23126
23107
23292
23106
23283
22991
23222
23068
22953
23374
23137
23125
23180
23115
23294
23222
22977
23050
22997
23276
23133
23252
22972
23189
23137
23451
23454
23157
23275
23369
23325
23529
23302
23127
23413
23160
23235
23265
23285
23256
23374
23493
23545
23404
23578
23510
23662
23565
23379
23503
23267
23578
23448
23730
23398
23574
23356
23692
23701
23799
23952
23760
23682
23709
23661
23726
23872
23816
23814
23706
23884
23781
23770
23771
23956
23863
23996
23869
23852
23869
24046
23898
24038
23947
23896
23917
23908
23883
23779
24044
23937
23683
23917
24023
23796
23895
23951
23869
24012
23932
23839
24168
23817
23958
23857
24136
23901
24004
23724
24053
23894
23894
23938
23876
24124
23807
23908
24083
24143
23914
24081
23839
23977
24150
24039
23776
23889
23707
23847
23851
23738
23529
23663
23786
23590
23606
23493
23280
23346
23225
23082
23063
23310
23109
23169
23075
23037
23083
23063
23054
22845
22908
23205
22855
22852
22840
22967
23082
22911
23173
22945
22770
22986
22904
22932
22978
23057
23074
23113
23086
23031
23103
23176
23160
23041
23233
23020
23147
23013
23274
23219
23392
23097
23155
23237
23412
23385
23260
23364
23286
23405
23319
23492
23191
23364
23408
23400
23285
23497
23587
23561
23270
23292
23578
23496
23608
23459
23513
23768
23542
23556
23590
23555
23642
23579
23600
23501
23549
23583
23527
23555
23668
23558
23407
23645
23573
23422
23518
23417
23592
23465
23641
23756
23676
23596
23595
23742
23413
23454
23483
23426
23557
23441
23674
23547
23509
23601
23705
23826
23556
23544
23761
23565
23877
23834
23919
23869
23503
23874
23983
23745
23660
23740
23671
23718
23796
23433
23815
24050
23651
23619
23716
23699
23663
23748
23712
23727
23714
23388
23631
23500
23543
23362
23182
23286
23034
23110
23095
22979
23293
23107
23158
23214
23077
23026
22931
23050
22877
23104
22940
22875
22826
22789
22981
22784
22889
22860
22963
22828
22958
22913
22704
22915
23067
22880
23081
22906
23129
22833
22831
22959
22930
23067
23031
22892
23013
22850
22922
22765
23037
22815
22960
22774
22945
22727
22788
22797
22941
22889
22696
22785
22591
22718
22755
22633
22957
22669
22796
22578
22564
22551
22871
22538
22535
22698
22534
22459
22652
22607
22689
22400
22655
22585
22434
22700
22414
22444
22710
22556
22532
22579
22659
22460
22656
22668
22425
22386
22597
22402
22670
22595
22486
22475
22517
22778
22519
22443
22739
22459
22585
22810
22657
22807
22673
22528
22655
22755
22667
22757
22732
22696
22656
22756
22815
22734
22624
22770
22580
22809
22977
22665
22757
22701
22882
22703
22669
22991
22821
22796
22964
22993
23021
22730
23069
22853
22939
22769
22596
22659
22744
22710
22526
22444
22397
22358
22214
22334
22099
22122
21966
22314
21908
22245
21884
22125
22116
22098
21979
21937
21915
22094
21881
21705
21871
22081
21931
22080
21639
21900
21974
21567
21739
21756
21636
21955
21706
21812
22101
22104
22161
22061
22194
22140
21830
21885
21961
22071
22057
22240
22090
21929
22166
22282
22071
22284
22311
22438
22139
22246
22142
22352
22199
22342
22513
22367
22296
22393
22453
22464
22638
22624
22179
22477
22477
22382
22414
22386
22539
22334
22571
22621
22485
22846
22488
22685
22630
22479
22719
22702
22584
22857
22749
22669
22903
22764
22834
22694
22762
22743
22659
22854
22908
22734
22800
22729
23111
22895
22890
22829
22915
22929
22817
22840
23030
22765
22841
23088
22949
22796
23042
23124
22900
23046
22836
22982
23082
23061
22898
23086
22902
23106
23079
23213
23189
23257
23047
23084
23292
23041
23141
23029
23293
23264
23132
23007
23156
22969
23011
23241
22958
22864
22757
22888
22597
22826
22530
22524
22494
22618
22434
22634
22800
22699
22786
22647
22513
22508
22528
22406
22409
22451
22383
22655
22481
22327
22478
22362
22470
22362
22406
22545
22532
22556
22394
22557
22424
22491
22365
22578
22724
22583
22688
22565
22447
22527
22563
22472
22921
22563
22431
22785
22827
22580
22912
22774
22848
22631
22853
22831
22792
22709
22774
23164
23083
22891
23090
23139
22932
23160
23117
22849
23037
23029
23257
23097
22968
23233
22970
23080
23010
23094
23336
23468
23178
23020
23230
23469
23294
23323
23207
23232
23444
23504
23427
23491
23462
23297
23656
23397
23484
23530
23395
23420
23256
23499
23318
23585
23438
23598
23394
23468
23895
23598
23579
23834
23697
23893
23800
23920
23909
23879
23890
24063
23938
23756
24063
23750
24042
23880
23859
24014
24147
24071
24193
24151
24058
24148
24112
24204
23988
24202
23865
24077
24082
23673
23620
23901
23598
23740
23596
23420
23507
23172
23324
23053
23265
23411
23144
23292
23217
23149
23313
23093
23323
23050
23151
23082
22979
22961
23160
23080
22785
22827
23130
22951
22802
22718
22776
22926
23007
22893
23072
22996
22942
23041
22924
22956
22923
22865
22932
23213
22872
23136
22922
23104
23198
23158
23048
23193
23051
23179
23250
23242
23277
23321
23374
23329
23310
23560
23392
23458
23570
23556
23617
23605
23694
23481
23436
23529
23518
23382
23776
23799
23614
23646
23423
23544
23621
23553
23469
23577
23728
23634
23889
23710
23698
23775
23857
23682
23782
23769
23875
23898
23873
23979
23798
24069
23957
24086
24086
24149
23818
23827
24169
24100
23847
23864
24038
23974
24091
23989
24070
23975
23929
23763
23962
23696
23899
23829
23911
23695
23880
23681
23736
23922
23618
23866
23533
23775
23721
23802
23699
23567
23463
23584
23776
23627
23604
23394
23284
23327
23332
23250
23141
23066
23216
22970
22965
23098
22919
22892
22900
22656
22757
22710
22773
22939
22795
22540
22672
22967
22629
22654
22656
22544
22406
22524
22626
22421
22739
22383
22637
22492
22353
22423
22617
22667
22252
22567
22809
22531
22725
22684
22728
22851
22611
22691
22613
22800
22466
22590
22674
22693
22474
22546
22879
22579
22865
22831
22528
22738
22867
22819
22599
22877
22961
22916
22787
22991
22967
22934
22999
23281
23152
22951
23194
22919
23052
23472
23082
23401
23032
23181
23160
23074
23187
23208
23268
23133
23092
23398
23172
23450
23097
23447
23149
23362
23255
23408
23365
23318
23418
23566
23526
23367
23440
23471
23511
23343
23591
23542
23470
23354
23484
23406
23457
23365
23356
23424
23298
23475
23534
23625
23472
23448
23565
23422
23390
23416
23537
23622
23633
23652
23806
23519
23652
23578
23594
23580
23678
23786
23397
23258
23233
23297
23143
23240
23324
23016
22826
23066
23017
22910
22918
22859
22708
22859
22655
22658
22677
22694
22851
22598
22635
22637
22664
22700
22742
22660
22576
22720
22550
22853
22490
22670
22551
22349
22709
22587
22812
22501
22350
22644
22584
22616
22558
22803
22457
22596
22535
22687
22529
22659
22939
22817
22982
22965
22845
23124
22901
22829
22945
22881
23103
23081
23067
23106
23036
23043
23089
23460
23005
23261
23030
23240
23287
23229
23057
23377
23067
23063
23130
23355
23371
23221
23440
23140
23346
23235
23405
23131
23352
23187
23424
23377
23490
23538
23454
23397
23369
23372
23401
23608
23304
23443
23457
23667
23394
23472
23588
23774
23400
23555
23920
23662
23648
23598
23824
23913
23865
23699
23709
23703
23716
23786
23661
23459
23808
23864
23921
23909
23888
24043
24021
23655
23901
23922
23779
24036
23664
23767
23812
23953
23927
23909
23836
23694
23761
23448
23566
23503
23480
23501
23394
23341
23200
23023
23170
23140
22891
22907
22799
23103
23065
22818
23072
22869
22945
22691
22790
22753
22851
22598
22687
22641
22603
22783
22577
22684
22659
22446
22663
22815
22761
22817
22833
22688
22780
22766
22677
22713
22888
22824
22934
22790
22592
22900
22951
22817
22887
22704
22902
22878
22679
22713
22635
22869
22894
22925
22849
22722
22867
23139
22961
22797
23084
23179
22868
22809
22991
23112
22982
22902
23234
22928
23076
23109
23177
23127
23217
23091
23144
23312
23077
23193
23249
23275
23497
23485
23335
23564
23405
23337
23355
23588
23410
23671
23541
23467
23509
23471
23665
23667
23491
23478
23738
23560
23349
23636
23840
23748
23458
23628
23913
23597
23677
23898
23755
23708
23539
23630
23607
23700
23957
24026
23938
23630
23935
24037
23795
23939
24024
23860
24074
23793
24005
23814
24101
24084
24125
24098
24049
23809
23884
23739
23793
23623
23713
23546
23689
23426
23570
23587
23501
23544
23297
23212
23286
23328
23443
23223
23408
23238
23168
23304
23191
23116
23218
23215
23155
23167
23103
23116
23075
23080
23175
23078
22974
22945
23181
23177
23230
23317
23182
23101
23249
23204
23312
23333
23361
23379
23400
23545
23434
23504
23410
23460
23510
23512
23512
23568
23558
23577
23641
23658
23759
23767
24024
23927
23885
23802
23910
23929
23916
23918
24026
23960
24098
24047
24077
24109
24179
24238
24221
24187
24157
24339
24321
24454
24164
24378
24477
24397
24525
24400
24176
24333
24610
24368
24579
24278
24348
24269
24577
24395
24445
24527
24417
24504
24443
24552
24478
24336
24532
24545
24393
24524
24451
24554
24733
24479
24724
24636
24757
24729
24820
24752
24734
24804
24912
24647
24742
24732
25017
25081
25042
24800
25026
25200
25164
25112
24961
25240
24994
25059
25203
25078
25133
25258
25153
25038
25158
24938
24662
24813
24785
24616
24483
24546
24234
24423
24181
24354
24506
24298
24202
24127
24121
24058
24068
24203
24086
24192
24032
24012
24137
24180
23906
24155
23803
23862
24042
23883
23910
23942
23790
23904
23766
23967
23719
23805
24125
23778
23882
24051
24057
23915
23878
24098
23932
24089
23913
23721
23923
24049
23930
23975
23942
23872
24145
23945
24149
24215
23965
24241
24165
24049
24175
24062
24219
23991
23838
24187
24322
24209
24083
24166
24189
24196
24135
24361
24265
24333
24225
24192
24123
24247
24318
24166
24098
24422
24249
24334
24227
24342
24184
24261
24102
24239
24068
24380
24192
24449
24099
24131
24256
24414
24084
24292
24660
24404
24055
24393
24453
24396
24500
24331
24308
24429
24450
24365
24247
24262
24572
24389
24577
24477
24420
24525
24638
24409
24479
24564
24276
24523
24515
24526
24527
24360
24504
24395
24124
24220
24077
24152
24060
23869
23925
24089
23938
23928
23838
23627
23825
23396
23540
23507
23672
23498
23526
23467
23321
23407
23475
23498
23191
23412
23315
23325
23311
23192
23255
23128
23319
23488
23314
23203
23234
23235
23267
23615
23610
23241
23558
23554
23413
23521
23669
23353
23720
23499
23742
23522
23432
23515
23517
23790
23496
23774
23551
23638
23603
23636
23794
23664
23653
23897
23764
23810
23812
24140
23966
23615
24009
23709
24008
24036
23776
24051
24177
24007
23891
23970
24151
23974
24306
24097
24232
24146
24102
24263
24260
24097
24082
24089
24381
24151
24321
24453
24394
24258
24391
24357
24287
24485
24548
24417
24513
24358
24555
24536
24615
24450
24404
24533
24421
24565
24441
24676
24807
24626
24557
24729
24698
24544
24579
24523
24612
24482
24667
24633
24571
24435
24681
24887
24655
24827
24843
24844
24851
24669
24945
24752
24914
24686
24449
24584
24316
24515
24375
24311
24310
24243
24171
24282
24249
24020
23805
24103
24052
23793
23658
23894
23815
23523
23604
23720
23443
23494
23320
23639
23183
23448
23394
23414
23477
23185
23017
23282
23173
23302
23227
23286
23212
23397
23354
23411
23332
23048
23349
23462
23266
23337
23340
23164
23341
23652
23260
23324
23388
23331
23582
23445
23648
23508
23695
23417
23597
23565
23521
23674
23397
23531
23624
23769
23339
23793
23669
23510
23413
23711
23561
23594
23743
23651
23897
23672
23853
23901
23821
23821
23885
23717
24121
24081
23995
24059
24133
24054
23918
24059
24110
24155
24055
24083
24119
24223
24089
24008
24148
24375
24236
24411
24319
24297
24162
24034
24267
24344
24307
24124
24208
24189
24394
24444
24247
24225
24261
24372
24269
24208
24160
24432
24290
24433
24188
24474
24512
24338
24456
24364
24488
24403
24481
24429
24555
24508
24550
24694
24497
24650
24593
24457
24305
24463
24457
24328
24488
24324
24160
23972
24042
24011
23850
23936
23780
23738
23958
23508
23706
23408
23686
23733
23488
23631
23434
23362
23392
23330
23321
23396
23315
23297
23280
23280
23231
23204
23303
23236
23014
23237
23135
23218
22995
23191
23069
23147
23077
23322
23222
23367
23413
23330
23252
23316
23289
23573
23562
23469
23288
23359
23600
23644
23615
23420
23629
23343
23497
23676
23567
23674
23863
23709
23489
23523
23558
23662
23569
23830
23581
23729
23618
23878
23823
23730
23695
23742
23822
23822
23912
24043
23929
23883
23758
23736
23793
23869
24155
23837
24245
23964
24109
23969
24042
24223
24336
24038
24270
24140
24336
24138
24371
24195
24196
24263
24242
24293
24247
24434
24161
24458
24181
24423
24497
24159
24396
24185
24333
24488
24561
24399
24377
24409
24422
24401
24413
24519
24151
24489
24218
24481
24608
24299
24556
24234
24251
24412
24444
24347
24385
24248
24352
24285
24133
23840
24048
23867
23853
23698
23798
23604
23390
23570
23631
23501
23672
23400
23657
23332
23215
23374
23408
23259
23318
23119
23147
23263
23251
22972
23098
23084
23061
22988
23066
23256
23250
23066
23145
23293
23134
23131
23268
22984
23340
23312
23084
23039
23153
23069
23165
23233
22902
23266
23469
23218
23098
22998
23238
23410
23226
23057
23230
23111
23259
23284
23216
23370
23276
23345
23434
23421
23291
23407
23304
23442
23634
23650
23529
23673
23688
23767
23870
23653
23981
23539
23606
23572
23820
24006
23750
23973
23808
23920
24147
24057
24196
24363
24207
24172
24395
24193
24234
24127
24295
24351
24357
24579
24815
24628
24884
24761
25026
24815
24762
24818
24735
24779
24710
24551
24775
24620
24700
24669
24764
24874
24673
24695
24632
24548
24521
24410
24585
24508
24474
24516
24441
24542
24383
24673
24647
24688
24444
24517
24312
24374
24340
24491
24161
24130
24219
24426
24279
24005
24145
23882
23964
23915
23916
23719
23753
23834
23567
23581
23372
23420
23348
23462
23647
23428
23199
23490
23604
23589
23599
23387
23625
23447
23572
23195
23198
23346
23226
23347
23389
23607
23494
23453
23246
23290
23492
23396
23467
23419
23582
23364
23305
23687
23343
23390
23495
23435
23743
23645
23296
23667
23221
23647
23363
23459
23675
23401
23500
23344
23587
23780
23610
23436
23480
23616
23621
23497
23701
23398
23673
23414
23558
23270
23600
23560
23723
23724
23417
23777
23674
23496
23729
23786
23881
23646
23871
23513
23637
23624
23648
23557
23664
23687
23567
23380
23507
23475
23429
23474
23327
23430
23429
23399
23346
23567
23344
23595
23421
23612
23832
23449
23686
23557
23737
23674
23430
23493
23424
23446
23526
23600
23652
23736
23674
23917
23406
23740
23480
23548
23383
23527
23321
23295
23286
23309
23326
23288
23288
23054
23175
22965
23136
22953
23140
22844
22809
22605
22511
22401
22503
22678
22509
22463
22451
22384
22433
22549
22227
22556
22208
22485
22343
22523
22323
22393
22381
22279
22090
22336
22281
22235
22164
22368
22048
22321
21838
22075
22182
22032
22252
22227
22297
22389
22209
22110
22331
22362
22485
22679
22272
22625
22334
22558
22563
22414
22323
22552
22831
22614
22362
22777
22617
22926
22728
22692
22624
22948
23175
22734
23101
22761
22647
23066
22772
23119
22922
22684
22962
22841
23002
22867
22841
22681
22719
22792
22688
22752
22658
22932
22624
22881
23028
22786
22531
22794
22981
22616
22845
22876
23059
22919
22997
22893
22839
22839
22876
22997
22704
22612
22787
22628
22669
23037
22751
22909
22904
22789
22889
22777
23031
22855
22763
22934
22830
22923
22683
22798
22778
22905
22894
22888
22808
22961
22919
23035
22807
23025
23191
22828
22962
22938
23112
23161
22901
22907
22923
22811
22863
22777
22780
22718
22594
22612
22656
22470
22254
22445
22373
22277
22446
22225
22192
22379
22195
21985
22216
22047
22115
22088
21934
21842
21934
21774
21810
22146
21715
21691
21851
21778
21642
21966
21949
21602
21759
21978
21997
21824
21822
21847
22097
21889
22054
21997
21939
22095
21975
22143
22000
22117
22019
22268
21957
22250
21927
22192
22006
22031
22148
22177
22114
22111
21902
22072
22230
22188
22246
22272
21956
22166
22150
22197
21932
22286
22441
22054
22365
22164
22159
22096
22167
22365
22378
22483
22266
22030
22365
22124
22483
22255
22345
22450
22417
22468
22271
22348
22266
22347
22433
22535
22247
22468
22219
22428
22412
22323
22259
22388
22597
22580
22625
22417
22467
22590
22689
22342
22436
22578
22516
22580
22754
22760
22637
22615
22642
22572
22525
22727
22604
22674
22692
22736
22639
22770
22851
22746
22868
22686
22693
22719
22610
22649
22691
22458
22465
22392
22420
22398
22283
22304
22269
22238
22156
22171
22276
22223
22266
22122
22301
22073
22197
22145
22223
22156
22021
22164
22058
22060
22199
22152
22205
22387
22173
22179
22246
22115
22299
22332
22365
22174
22499
22081
22206
22461
22292
22103
22464
22349
22180
22428
22478
22190
22380
22342
22622
22248
22687
22275
22221
22462
22447
22447
22653
22758
22515
22670
22558
22646
22409
22814
22564
22651
22622
22632
22471
22658
22353
22525
22568
22437
22705
22596
22491
22720
22668
22488
22806
22570
22571
22667
22440
22468
22404
22616
22713
22624
22761
22614
22895
22656
23007
23017
22756
23077
22691
22988
22942
22810
22790
22945
22898
23011
23027
22947
23255
23136
23303
23178
23057
23208
23207
23212
23325
23028
23044
23168
22959
23324
23057
23209
22989
23041
23245
23148
22979
23221
23321
23109
23055
23261
23080
22947
22719
22941
22961
22790
22665
22753
22764
22705
22629
22634
22382
22420
22384
22250
22313
22390
22226
22337
22198
22160
22148
22050
22120
21925
21889
22248
22144
22018
22235
21981
22191
22016
22262
21938
22184
22214
21864
22007
22080
22311
22497
22239
22471
22202
22316
22351
22248
22469
22314
22286
22202
22403
22442
22390
22256
22310
22528
22261
22595
22379
22466
22502
22652
22438
22654
22537
22785
22597
22501
22409
22274
22553
22435
22429
22604
22584
22635
22837
22806
22708
22999
23102
23104
22861
23017
23360
23440
23179
23273
23389
23610
23642
23596
23618
23702
23890
23827
23812
24095
24123
23821
23905
24160
24341
24069
23972
24237
24413
24381
24247
24318
24452
24394
24378
24497
24385
24620
24604
24868
24800
24633
24817
25093
24993
25266
24999
25169
25096
25090
25425
25372
25282
25546
25516
25529
25428
25535
25235
25422
25475
25482
25557
25298
25465
25366
25187
25301
25038
25261
25293
24778
24748
24741
24956
24647
24916
24664
24889
24711
24875
24683
24836
24597
24594
24671
24721
24362
24328
24434
24441
24328
24308
24479
24132
24207
24468
24263
24234
24183
24251
24045
24306
24069
24002
23995
24019
24170
24027
24044
24292
24151
24179
24199
24104
24233
24382
24304
24385
24278
24288
24242
24513
24491
24197
24526
24629
24548
24536
24354
24691
24591
24443
24519
24556
24681
24553
24522
24562
24497
24541
24757
24772
24859
24592
24840
24631
24645
24857
24876
24778
24809
24831
25033
24996
24853
24970
24919
24779
24959
24796
24845
24988
24968
25002
24766
24973
24871
25038
25173
24923
25084
25027
24889
24954
24913
24844
24806
24946
25053
25091
25043
24920
24931
24818
24967
25210
24943
24867
25178
24884
25238
25150
25405
25227
25136
25335
25464
25340
25453
25328
25152
25297
25205
25359
25137
25180
25377
25073
25382
25237
25238
24849
24855
24904
24778
24998
24636
24674
24697
24575
24649
24679
24523
24341
24402
24206
24577
24326
24514
24561
24393
24542
24279
24444
24114
24249
24445
24211
24194
24380
24429
24573
24407
24191
24324
24060
24414
24296
24413
24348
24475
24437
24540
24363
24503
24474
24572
24346
24399
24448
24273
24463
24331
24246
24174
24197
24547
24430
24475
24291
24464
24205
24226
24257
24172
24424
24221
24319
24379
24465
24443
24159
24361
24517
24284
24432
24273
24297
24197
24323
24391
24368
24391
24355
24444
24251
24343
24387
24526
24323
24473
24562
24367
24210
24459
24194
24464
24540
24577
24437
24566
24716
24397
24291
24601
24260
24557
24360
24611
24352
24575
24523
24709
24608
24720
24403
24460
24605
24423
24435
24461
24687
24584
24737
24499
24762
24628
24619
24665
24419
24538
24894
24589
24653
24742
24674
24841
24644
24644
24793
24691
24738
24554
24734
24600
24864
25024
24812
24521
24649
24599
24662
24212
24468
24485
24358
24193
24333
24290
24102
24153
24127
23989
23950
24025
24022
23833
24008
23816
24043
23790
23830
23588
23804
23828
23822
23674
23743
23822
23710
23658
23727
23787
23755
23718
23786
23770
23915
23790
23932
23693
23896
23702
23698
23562
23808
23698
23855
23709
23794
23504
23643
23839
23657
23799
23709
23603
23683
23521
23895
23556
23872
23663
23791
23724
23877
23833
23614
23936
23691
23871
23650
23874
23899
23852
23838
24038
24163
24038
24176
23844
24083
24220
24096
23999
24145
24043
24243
23994
24225
24148
24197
24569
24249
24107
24271
24527
24355
24519
24650
24593
24532
24648
24585
24545
24749
24525
24749
24421
24409
24595
24649
24384
24514
24891
24657
24617
24754
24790
24786
25004
24792
24716
24640
24623
24640
24756
24874
24779
24679
24787
24859
24781
24957
24795
24569
24657
24655
24436
24446
24313
24653
24245
24276
24071
24205
24231
24054
23781
23786
23549
23894
23657
23735
23364
23671
23465
23552
23274
23286
23437
23192
23398
23412
23265
23371
23007
23298
22935
22840
23207
23010
23282
23180
23371
23220
22975
23183
23053
23278
23220
23304
23369
23387
23397
23233
23405
23524
23381
23208
23368
23663
23521
23561
23537
23696
23340
23414
23419
23738
23697
23721
23455
23626
23416
23523
23550
23603
23735
23771
23777
23597
23474
23822
23542
23706
23783
23698
23790
23742
23833
23756
23827
23961
23997
23799
24077
23914
23823
23589
23806
23844
23861
24163
23813
23893
23918
23970
24343
23999
24331
24318
24386
24113
24037
24369
23966
24229
24315
24122
24172
24319
24561
24562
24239
24233
24224
24424
24299
24398
24398
24488
24227
24194
24322
24376
24386
24257
24187
24378
24201
24276
24271
24299
24075
24380
24356
24158
24571
24125
24201
24080
24303
23970
24209
23987
24132
24140
24045
23855
23705
23515
23814
23479
23621
23407
23729
23599
23259
23446
23539
23420
23282
23278
23531
23283
23080
23164
23247
23352
23001
23042
23015
23221
23140
22894
23090
23021
23058
23075
23090
22977
23075
23092
23164
22801
23035
22943
22916
22830
23042
23119
23019
23064
23003
22822
23065
23077
22967
23006
22780
22872
22951
22856
22687
22970
22885
23097
22895
22934
22933
22682
22961
22840
22843
22830
22822
22911
22818
22907
23144
22905
23101
23017
23250
22888
23090
23092
23152
23143
23132
22958
22874
22981
23174
23203
23146
23274
23148
23343
23177
23281
23129
23026
23384
23114
23297
23196
23414
23120
23238
23360
23308
23465
23573
23326
23657
23591
23271
23337
23245
23409
23281
23581
23470
23300
23439
23550
23487
23566
23555
23501
23344
23661
23340
23378
23575
23519
23383
23532
23260
23445
23652
23502
23292
23354
23295
23445
23381
23275
23144
23237
23138
23178
23012
22832
22857
22688
22802
22804
22702
22793
22589
22615
22616
22699
22483
22466
22507
22283
22344
22289
22543
22385
22161
22269
22100
22449
22300
22162
22374
22267
22046
22206
22352
22442
22153
22396
22329
22351
22267
22263
22373
22507
22370
22329
22304
22427
22412
22350
22496
22262
22301
22308
22534
22372
22594
22520
22458
22363
22633
22439
22634
22439
22580
22614
22531
22398
22650
22529
22581
22379
22538
22535
22692
22522
22694
22596
22609
22750
22614
22787
22609
22803
22596
22787
22847
22842
22831
22830
22809
22989
23150
22797
22660
22996
22871
23134
23092
22811
22834
22887
22933
23272
23049
23252
23026
22897
23203
22891
22970
23193
23181
23250
23373
23185
23098
23063
22948
23042
23014
23014
22911
23001
23126
23241
23116
23016
23144
23140
23229
23137
23054
23013
23065
23180
23022
22952
23021
23022
23198
23247
23021
23148
22890
23069
23207
23110
22945
23029
22690
23004
22651
22683
22668
22727
22479
22525
22368
22508
22235
22482
22342
22416
22309
22140
22332
22100
22308
22270
22258
21882
22196
22000
22224
22062
22167
21958
22068
22088
22222
22075
22275
22036
22002
22091
22102
22224
22066
22375
22115
22041
22183
22278
22285
22244
22458
22229
22444
22217
22425
22221
22382
22531
22513
22532
22761
22570
22422
22785
22625
22842
22871
22753
22572
22851
23021
22734
22847
22733
22975
22761
22871
22785
23029
23201
23021
23309
22978
23336
23095
22854
22924
22940
23081
23400
23325
23394
23200
23134
23312
23253
23495
23483
23499
23549
23396
23282
23220
23488
23522
23361
23433
23497
23514
23652
23609
23586
23555
23610
23554
23533
23562
23630
23710
23733
23556
23724
23455
23609
23962
23722
23712
23703
23763
23857
24055
23870
23630
23765
23740
23768
23774
23777
23783
23795
23976
23835
24011
24100
24041
23994
24063
23762
23951
23978
23943
23645
23753
23810
23661
23600
23723
23501
23548
23508
23412
23184
23050
23191
23494
23325
23387
23131
23119
23264
23221
23250
23102
22978
22991
23080
23237
22985
22946
23049
23180
23181
23234
22963
23055
22954
23035
23210
23129
23195
23419
23160
23260
23387
23260
23348
23475
23447
23513
23232
23520
23306
23486
23597
23535
23680
23502
23251
23473
23482
23498
23721
23520
23637
23891
23790
23869
23899
23818
23730
23807
23880
23692
23837
23778
23974
23871
23799
23935
23806
23963
23894
24052
24119
24008
23719
23992
24064
24107
23976
24063
23912
23922
23891
24166
23822
24203
23926
23850
24085
23839
23999
24159
24058
24035
24167
23983
24029
23754
23932
24194
24144
24236
24317
23991
24086
24175
24132
24197
24144
24155
24275
24062
24334
24114
24079
24177
24211
23939
24074
24045
24193
24037
23976
23938
24042
23873
24273
24332
24002
24098
24357
24191
23886
24101
23785
24062
24052
23920
23905
23548
23425
23596
23386
23291
23572
23163
23359
23325
23169
23357
23213
23049
23119
22890
22950
23289
22914
22906
23074
23156
22868
22646
22744
22895
22770
22990
22772
22934
22941
22631
22569
22624
22619
22712
23048
22658
22839
22659
22867
23053
22932
22950
22880
22947
22849
22898
23093
23252
22843
22810
23189
22915
22798
23062
22891
23024
23108
23020
23117
23017
23056
22986
23068
23197
22929
22918
23067
22921
23287
23149
22977
23023
23275
23333
23051
23240
23088
23121
23138
23055
23375
23286
23217
23214
23395
23276
23216
23358
23241
23237
23568
23466
23189
23314
23376
23440
23498
23631
23594
23281
23481
23738
23585
23364
23547
23334
23557
23647
23549
23606
23449
23627
23772
23584
23731
23524
23414
23627
23474
23620
23668
23661
23655
23587
23789
23607
23480
23612
23481
23776
23627
23808
23907
23938
23703
23875
23778
23900
23668
23780
23566
23707
23580
23705
23678
23446
23177
23321
23082
23217
23305
23275
22807
22935
23144
23018
23185
23112
22813
23012
22972
22982
23001
22819
22743
23033
22874
22877
22874
22664
22873
22501
22815
22802
22853
22805
22743
22705
22612
22701
22576
22701
22639
22766
22651
22800
22981
22914
22868
22822
22911
23070
22936
22991
22966
22710
23035
23001
22918
22883
22844
22892
22963
22869
23195
23129
22971
23038
22942
22947
22902
23188
23281
23294
23408
23056
23106
23054
23172
23442
23173
23439
23364
23429
23396
23219
23436
23575
23587
23485
23337
23624
23570
23389
23487
23403
23489
23542
23721
23401
23730
23622
23758
23608
23506
23657
23691
23739
23531
23599
23476
23822
23610
23569
23703
23637
23652
23572
23610
23563
23678
23812
23538
23941
23682
23608
23931
23651
23926
23839
23872
23923
23678
23743
23680
23963
24041
23703
23636
23858
23994
23663
23580
23539
23818
23713
23544
23457
23421
23591
23347
23028
23179
23320
23250
23152
23004
22992
23181
22935
22739
22916
23048
22906
22862
22982
22753
22679
22713
22655
22561
22797
22442
22539
22572
22690
22646
22883
22593
22930
22510
22736
22608
22427
22543
22660
22766
22719
22540
22797
22797
22686
22913
22808
22843
22868
22533
22655
22775
22915
22657
22933
22913
22645
22672
22690
22754
22838
22811
22848
22904
23199
22867
22773
22882
23197
22821
22998
22813
22865
23083
23023
23223
23023
23111
23083
23009
23125
23223
23162
22941
23027
23189
23326
23012
23234
23324
23103
23284
23279
23314
23159
23263
23014
23384
23272
23393
23533
23182
23411
23103
23284
23174
23189
23594
23414
23182
23383
23621
23214
23259
23529
23506
23442
23487
23428
23329
23590
23532
23351
23518
23315
23411
23384
23489
23196
23415
23426
23537
23411
23574
23485
23206
23380
23547
23499
23500
23482
23428
23425
23710
23461
23581
23534
23369
23440
23174
23124
23214
23098
23024
23253
23100
23186
22973
22988
22849
22973
22833
22662
22762
22763
22634
22729
22654
22630
22758
22527
22658
22675
22652
22619
22671
22633
22624
22696
22646
22690
22652
22697
22727
22747
22720
22625
22676
22664
22782
22864
22938
22848
22828
22622
22810
22842
22872
22860
22885
22998
22936
22881
22816
22934
23048
22753
22830
22963
22885
22824
22925
23011
23021
23052
22992
23017
23061
23013
23054
23103
23093
23069
23065
23118
23014
23137
23009
23168
23182
23131
23302
23104
23319
23332
23340
23439
23295
23488
23122
23455
23455
23563
23435
23469
23462
23461
23289
23522
23441
23324
23397
23338
23507
23487
23413
23422
23482
23504
23634
23586
23702
23604
23443
23741
23448
23766
23441
23522
23850
23777
23743
23827
23651
23377
23566
23405
23714
23584
23608
23797
23802
23835
23677
23832
23767
23700
23492
23425
23233
23278
23550
23258
22985
23119
23071
22873
23045
22768
22805
22874
22865
22836
22634
22733
22436
22574
22408
22390
22388
22203
22502
22261
22356
22420
22120
22231
22441
22231
22139
22161
22341
22137
22310
22192
22244
22103
22182
22117
22054
22109
22155
22371
22220
21963
22286
22313
22210
22048
22001
22085
22188
22165
22040
22101
22197
22100
22147
22152
22281
22254
22267
22394
22268
22375
22264
22231
22334
22155
22218
22203
22386
22236
22291
22484
22341
22153
22391
22346
22490
22432
22281
22241
22460
22626
22480
22398
22556
22507
22289
22530
22239
22434
22578
22385
22650
22531
22210
22420
22311
22379
22322
22498
22521
22562
22651
22497
22596
22364
22696
22746
22611
22638
22450
22528
22555
22558
22533
22508
22579
22622
22703
22712
22545
22562
22483
22723
22695
22757
22779
22552
22582
22595
22781
22871
22651
22686
22630
22626
22548
22386
22478
22239
22232
22192
22216
22329
22079
22012
22148
22275
22108
21940
21846
21807
22117
21922
21965
21994
22057
21732
21684
21808
21909
21703
21674
21698
21803
21919
21915
21711
21790
21837
21776
21618
21745
21523
21762
21793
21757
21875
21833
21849
22078
21892
22041
21759
22066
21830
21856
22043
22055
21859
21885
22071
21883
22144
21888
21847
22077
22248
21990
22133
22189
22052
21939
22087
22081
22195
22072
22220
22004
22055
22333
22108
22134
22079
22311
22155
22031
22334
22512
22176
22377
22423
22369
22121
22482
22386
22437
22401
22311
22645
22532
22309
22553
22168
22528
22324
22569
22300
22580
22150
22596
22268
22367
22513
22544
22542
22743
22618
22563
22635
22755
22410
22520
22662
22616
22656
22578
22648
22601
22795
22590
22492
22569
22465
22671
22792
22571
22805
22604
22626
22753
22532
22849
22855
22671
22886
22874
22896
22698
22851
22855
22750
22475
22413
22298
22540
22506
22140
22240
22201
22183
21952
22093
22091
22020
22056
22018
21885
21873
21913
21749
21851
21991
21838
21964
21703
22110
21932
21702
21702
21725
21889
22064
21811
21881
21806
21707
21855
21783
21862
21709
21888
21908
22059
21748
22099
22036
22162
22014
21945
21869
22002
22096
21992
21967
22083
22155
22136
22138
22100
22123
22197
22327
22165
22114
22067
22124
22382
22358
22285
22331
22175
22487
22320
22138
22552
22521
22002
22347
22497
22471
22587
22294
22274
22448
22496
22379
22624
22489
22411
22402
22389
22415
22565
22424
22593
22717
22687
22655
22819
22719
22854
22640
22447
22767
22930
22771
22577
22708
22601
22784
22707
22818
22585
22629
22731
22712
22790
22574
22815
22577
22871
22790
22798
22622
22857
22948
22909
22802
22854
22801
22825
22846
23067
22830
22947
23002
22973
22899
22805
22831
23078
23062
22988
22720
22699
22633
22827
22864
22877
22767
22702
22563
22556
22347
22390
22543
22211
22483
22162
22064
22164
22087
22275
22033
22059
22030
21991
22036
21994
22004
22108
22023
22070
21953
21950
21941
21941
21762
21854
21830
21846
21761
21795
21662
21721
22022
21948
21774
21894
22017
22008
21965
21992
22050
21994
22032
22067
22141
22096
22083
21991
22008
22265
22270
22195
22093
22199
22195
22094
22363
22178
22317
22264
22221
22227
22318
22419
22235
22482
22349
22482
22392
22313
22410
22357
22360
22555
22523
22458
22459
22304
22598
22769
22511
22669
22787
22571
22657
22542
22572
22717
22893
22822
22644
22597
22591
22816
22758
22723
22661
22664
22748
22602
22728
22927
22722
22768
22746
22709
22868
22843
22695
22734
22697
22729
22696
22876
23005
22775
23091
22918
22771
22790
22947
23006
22807
22864
23069
23038
23154
23200
22836
23240
22917
23013
23045
23056
23089
23231
22894
22699
22823
22738
22827
22802
22769
22631
22637
22380
22313
22336
22260
22227
22141
22167
22421
22071
22349
22205
22235
21961
22070
22301
22073
22083
22011
21787
22047
22251
22075
21839
22014
22036
22116
22073
22168
21979
21925
22021
22195
22037
21792
22103
22006
22100
21974
22246
21908
22180
22101
22077
22067
22022
22295
22342
22313
22094
22093
22128
22365
22112
22117
22496
22360
22479
22261
22229
22424
22443
22336
22349
22725
22467
22509
22638
22709
22564
22733
22566
22713
22790
22675
22826
22588
22926
22849
22694
22657
22995
22859
22910
22969
23061
22742
22759
23010
22707
22972
23088
22980
22953
23163
22873
23011
22922
22711
23035
23091
22822
22811
22855
22980
23147
23037
22824
23124
22916
23044
22915
23071
23034
22996
23162
23109
23085
23074
23153
23254
23104
23035
23008
23329
23193
23276
23176
23019
23035
23341
23254
23299
23176
22901
22998
23121
22934
23195
23218
23135
23012
22978
22988
22900
23068
22752
22903
22585
22562
22362
22566
22675
22411
22401
22380
22405
22196
22354
22217
22471
22331
22437
22052
22165
22034
22355
22283
22333
22110
21998
22108
22005
22339
22215
22475
22339
21970
22092
22054
22216
22010
22461
22115
22521
22270
22202
22205
22436
22248
22261
22320
22469
22261
22396
22317
22250
22220
22416
22560
22336
22496
22463
22562
22587
22565
22648
22254
22673
22397
22652
22430
22383
22408
22603
22537
22586
22804
22707
22556
22842
22774
22692
22691
22636
22811
22801
22545
22622
22768
22857
22952
22841
22887
22660
22621
22633
22719
22856
22962
22640
22791
22919
22754
22626
22884
23006
22794
22860
22740
23007
22833
22858
22759
23085
22920
23070
22775
22807
22933
22859
22952
22992
23076
23019
23060
22848
22776
22932
22901
22919
23067
22973
23076
23213
22999
23307
23077
23216
23036
22919
22943
22916
22792
22753
22664
22567
22467
22500
22264
22451
22330
22223
22174
22200
22351
22368
22246
22252
22274
22207
22388
22354
22512
22218
22535
22445
22348
22286
22389
22253
22454
22633
22310
22218
22260
22449
22291
22502
22363
22514
22377
22578
22426
22611
22642
22655
22829
22678
22806
22793
22834
22719
22628
22742
22814
22859
22845
23084
22804
22826
23006
22766
22797
23224
23068
22791
23045
23246
23093
22833
23069
23121
23231
23017
22974
22925
23211
23250
23028
23124
23396
23003
23290
23138
23023
23447
23331
23235
23467
23683
23380
23574
23474
23627
23287
23621
23484
23543
23278
23529
23364
23433
23301
23530
23296
23587
23357
23641
23390
23620
23390
23559
23297
23754
23669
23746
23545
23374
23494
23650
23451
23509
23712
23862
23763
23546
23701
23612
23703
23745
23881
23487
23653
23814
23753
23693
23834
23641
23973
23582
23410
23574
23742
23724
23385
23287
23610
23579
23385
23429
23164
23201
23268
23284
23237
22926
23116
22934
22872
23087
22877
22937
23139
22896
22854
22941
22807
22884
22991
22968
23020
22699
22885
22888
22871
22870
22714
22955
22882
22897
22886
22664
22925
22725
22752
22863
22994
22886
22863
22857
22872
22965
23138
23063
22850
23032
22799
23020
23276
23069
23013
23070
23129
23040
23028
23242
23054
23085
23151
23262
23194
23236
23357
23459
23250
23155
23234
23337
23158
23398
23258
23338
23327
23186
23095
23050
23236
23351
23361
23375
23269
23154
23368
23296
23382
23345
23489
23251
23249
23107
23286
23431
23316
23170
23333
23434
23341
23327
23343
23314
23445
23420
23450
23319
23340
23385
23494
23411
23517
23333
23277
23560
23610
23602
23533
23507
23496
23431
23227
23486
23428
23425
23669
23447
23549
23362
23662
23692
23405
23773
23720
23458
23643
23620
23541
23596
23597
23611
23681
23525
23462
23605
23524
23296
23499
23129
23040
23337
23097
23064
23061
23204
22997
22689
22822
22677
22952
22916
22720
22860
22806
22659
22562
22734
22652
22817
22904
22764
22882
22846
22733
22642
22656
22815
22925
22629
22517
22610
22822
22718
22641
22612
22747
22576
22667
22694
22698
22768
22683
22623
22919
23011
22753
23044
22779
22941
22660
22871
22892
22910
22741
23026
23165
23028
22918
22836
23038
23051
22890
22836
23029
22858
22997
23232
22978
23323
23278
23223
23304
23354
23173
23246
23415
23118
23103
23304
23399
23162
23285
23362
23424
23428
23554
23231
23086
23195
23051
23220
23548
23345
23231
23189
23525
23498
23520
23242
23303
23304
23577
23242
23579
23514
23481
23238
23300
23399
23583
23544
23702
23429
23316
23603
23602
23498
23791
23689
23466
23703
23657
23818
23550
23764
23616
23847
23512
23485
23752
23930
23614
23542
23772
23487
23832
23682
23827
23757
23761
23572
23806
23629
23593
23447
23382
23371
23216
23175
23007
23307
23366
22979
22858
22852
23085
22829
22888
22721
22804
22725
22762
23174
22742
22980
22938
22700
22863
22830
22580
22732
22507
22835
22981
22759
22907
22831
22745
22655
22494
22979
22935
22823
23049
22729
23043
22909
23032
23136
23090
22960
22989
23170
23074
23302
23227
23356
23148
23100
22983
23006
22999
23205
23475
23276
23093
23335
23209
23428
23262
23636
23335
23584
23398
23339
23568
23518
23565
23507
23609
23650
23872
23757
23863
23964
23873
23851
23972
23622
23710
24008
23764
23999
23912
24064
23760
24147
24223
24047
24319
24097
24046
24179
24187
24260
24250
24310
24263
24310
24302
24126
24491
24269
24344
24241
24462
24571
24339
24703
24500
24751
24712
24653
24597
24620
24642
24590
24682
24737
24754
24868
24840
24678
24828
24628
24697
25036
24990
24726
24839
24981
25009
25111
25046
24659
25087
24905
24906
24740
24935
24607
24665
24763
24530
24522
24721
24365
24630
24267
24405
24168
24404
24285
24321
23983
24328
23950
24063
24202
24059
23928
24039
23822
23935
23997
23808
23806
24020
24061
23783
23782
23949
23861
23934
24132
23965
24049
23855
24187
24286
24285
24291
24279
24162
24289
24110
24196
24182
24219
24200
24342
24267
24416
24303
24345
24311
24090
24384
24410
24370
24343
24656
24524
24554
24546
24440
24580
24522
24610
24485
24462
24506
24643
24579
24584
24419
24609
24744
24617
24706
24660
24564
24745
24635
24808
24788
24912
24655
24809
24755
24689
24753
24778
24915
24711
24840
24649
24599
24630
24666
24716
24817
24689
24723
24714
24709
24722
24695
24822
24679
24657
24708
24607
24735
24525
24701
24883
24824
24704
24766
24661
24729
24798
24685
24698
24763
24608
24632
24626
24863
24747
24841
24893
24999
24873
24612
24874
24862
24978
24756
24788
24734
24486
24697
24533
24448
24373
24316
24494
24470
24221
24261
24068
24059
24158
24052
23924
23910
23909
23760
23991
23860
23906
23817
23646
23793
23651
23560
23541
23638
23457
23514
23454
23463
23448
23454
23371
23384
23326
23327
23226
23335
23600
23309
23426
23451
23337
23429
23398
23379
23428
23462
23447
23585
23384
23404
23372
23387
23679
23476
23452
23545
23534
23445
23520
23501
23465
23476
23555
23513
23626
23568
23430
23454
23522
23567
23782
23672
23721
23632
23704
23730
23721
23674
23785
23802
23830
23656
23906
24051
23672
23942
23811
23905
24061
23940
23866
24006
23999
23949
24069
24026
23990
23986
24039
24088
24091
24037
24089
24035
23999
24215
23980
24245
24010
24123
24200
24096
24130
24181
24145
24211
24124
24230
24152
24230
23881
24199
24180
24102
23922
24076
24344
24103
24205
24015
24071
24305
24173
24347
24217
24058
24156
24264
24274
24066
24196
24159
24106
23947
23970
23775
23881
23737
23914
23613
23713
23495
23376
23488
23381
23390
23272
23282
23276
23240
23144
23127
23121
23064
23079
22882
23059
23042
22851
22970
23061
23093
22864
22792
22891
22763
22795
22848
22853
22761
22774
22708
22912
22852
22972
22788
22764
22860
22848
22952
22952
22821
22796
22971
22895
22911
22889
22927
22893
22960
23059
22887
23075
23037
23128
22967
23101
23229
23172
23114
23163
23048
23146
23329
23041
23171
23170
23334
23380
23274
23268
23344
23427
23473
23463
23410
23395
23527
23422
23290
23364
23333
23400
23494
23535
23677
23566
23613
23594
23511
23687
23525
23677
23590
23521
23532
23800
23569
23782
23796
23740
23856
23807
23781
23800
23828
23714
23905
23894
23624
23781
23936
23835
23758
23777
23616
23731
23719
23705
23865
23913
23797
23736
23886
24042
23956
24183
23863
24151
23984
23921
24265
24138
23894
24202
24070
24162
24188
23995
24079
23962
23920
24122
23916
23762
23881
24003
23717
23615
23662
23412
23558
23369
23348
23402
23241
23281
23320
23044
23295
23161
23229
23236
23050
23128
23101
23049
22945
22788
22784
23014
22770
22922
22844
22722
22818
22825
22691
22712
22782
22863
22731
22847
22718
22761
22736
22847
22730
22899
22753
22819
22692
22826
22657
22880
22749
22802
22629
22821
23085
22828
22701
22851
22783
22948
22822
22778
22866
22799
22773
22880
22977
22892
23062
22906
22868
23038
23170
23080
23132
23105
22969
23215
23342
23292
23367
23230
23292
23154
23388
23094
23177
23407
23344
23246
23335
23310
23387
23376
23319
23365
23305
23417
23326
23478
23379
23459
23523
23403
23489
23359
23406
23395
23437
23449
23408
23475
23390
23495
23491
23542
23422
23562
23510
23538
23440
23572
23438
23605
23550
23739
23648
23464
23518
23563
23535
23458
23731
23615
23619
23685
23610
23576
23669
23505
23618
23650
23490
23532
23472
23454
23243
23399
23326
23145
23180
23149
22923
23051
22969
23117
22929
23019
22831
22631
22759
22880
22664
22677
22642
22649
22694
22674
22598
22624
22527
22637
22389
22617
22844
22665
22566
22482
22518
22548
22573
22468
22659
22503
22491
22778
22579
22481
22624
22809
22496
22617
22509
22584
22790
22707
22677
22840
22676
22558
22681
22851
22708
22929
22683
22907
22920
22993
22903
22893
22820
22892
23074
22949
23028
22990
23009
22961
23062
23198
23067
22960
23068
23353
23104
23251
23057
23198
23340
23086
23335
23285
23436
23344
23484
23315
23401
23563
23360
23395
23530
23593
23719
23565
23281
23616
23503
23654
23534
23584
23510
23370
23542
23412
23528
23644
23514
23587
23676
23458
23569
23609
23456
23631
23542
23572
23748
23676
23628
23746
23816
23761
23614
23714
23539
23492
23600
23686
23691
23745
23664
23841
23890
23886
23785
23813
23818
23481
23517
23425
23405
23611
23307
23368
23306
23377
23225
23195
23184
23159
23277
23122
23130
23070
23055
23207
23103
23145
23130
23247
23015
23230
22947
23037
23133
23133
22906
23078
23072
22912
22810
23118
22991
22901
22900
23099
23093
22885
23106
22885
23077
22899
23139
23143
23071
22896
22967
23012
23018
22937
22997
23039
22828
23084
22926
22756
22826
23071
22913
23017
23002
22935
23001
23131
23019
23126
23146
23192
23189
22976
23360
23035
22930
23187
22919
23081
23154
23201
23203
23411
23216
23324
23234
23382
23226
23158
23191
23350
23189
23227
23357
23288
23291
23324
23262
23243
23182
23204
23188
23369
23292
23390
23375
23331
23338
23376
23376
23338
23468
23371
23326
23403
23476
23456
23465
23434
23324
23421
23398
23411
23404
23402
23413
23426
23325
23428
23497
23353
23352
23430
23437
23391
23433
23366
23621
23316
23343
23226
23120
23197
23081
22957
22989
23032
22742
22811
22635
22709
22513
22713
22698
22636
22410
22599
22251
22555
22447
22353
22478
22300
22275
22317
22122
22397
22251
22075
22062
22073
22364
22251
22256
22003
22253
22074
22241
22023
22290
22232
22166
22072
22078
22225
22415
22269
22387
22373
22122
22225
22348
22422
22144
22261
22533
22468
22287
22618
22624
22468
22519
22653
22578
22536
22506
22507
22507
22418
22507
22692
22475
22368
22588
22721
22502
22533
22489
22543
22684
22759
22734
22625
22540
22641
22693
22862
22862
22634
22650
22678
22689
22864
22651
23016
22813
22961
22825
22687
22848
22639
22828
22764
22838
22702
22738
22647
22857
22822
22776
22961
23043
23082
22822
22820
22952
22947
22853
22896
23246
22995
22982
23034
22922
22888
22963
23048
23001
23159
23126
23046
22891
23126
22976
23273
23084
22939
22942
23117
22895
23086
23127
23051
22850
22954
23046
22918
22854
22725
22654
22762
22471
22483
22489
22309
22260
22274
22393
22365
22311
22200
22345
21946
22093
21918
22199
22205
22212
22054
21859
22074
22165
21996
21900
21972
21791
21947
21745
21820
21981
21843
22023
21675
21833
22087
21847
22074
21924
22087
21936
21945
22132
21975
21973
21956
22177
22099
22064
22200
22278
22147
22027
22042
22348
22109
22259
22323
22213
22132
22158
22384
22260
22237
22106
22413
22188
22151
22281
22263
22223
22273
22510
22187
22351
22272
22566
22631
22474
22267
22593
22320
22384
22613
22534
22658
22642
22601
22754
22523
22619
22622
22679
22635
22538
22598
22629
22790
22614
22841
22705
22470
22602
22644
22766
22712
22717
22686
22725
22898
22932
22742
22652
22753
22919
22838
22628
22959
22776
22979
22890
22994
22930
22969
22747
22832
23080
22837
22924
22878
23056
22910
22873
22741
22890
23039
23076
22874
22930
22979
22877
22868
22792
22554
22651
22740
22405
22659
22565
22493
22451
22398
22365
22350
22328
22337
22199
22224
22222
22147
22178
22156
22160
22272
22144
22302
22033
22046
22291
21977
21947
22008
21989
22254
22129
22181
21986
22150
21802
21999
21923
22013
21821
22141
21909
22219
22080
21958
22086
22048
22271
22375
22407
22480
22205
22502
22451
22308
22244
22393
22593
22246
22534
22421
22638
22485
22336
22501
22472
22648
22517
22586
22581
22629
22652
22659
22644
22853
22727
22483
22666
22663
22761
22814
22792
22720
22870
22986
22879
22954
22811
22971
22903
22876
22807
22966
22943
23009
22989
22922
22725
22778
22820
23046
22923
22838
22963
22734
22926
23136
23012
22984
22781
22774
22883
22971
22873
22866
22852
23036
22983
23030
22772
22801
22815
22960
22783
23069
23034
23072
23134
23076
23082
23113
23180
23116
23088
23115
23078
23305
23253
23090
23074
23126
23276
23329
23034
23045
23073
23075
23012
23143
22910
22876
22779
22956
22839
22658
22776
22598
22512
22598
22598
22597
22296
22409
22404
22377
22469
22278
22446
22239
22359
22318
22337
22399
22278
22217
22316
22281
22182
22251
22274
22311
22068
22314
22293
22202
22152
22295
22181
22194
22242
22248
22213
22332
22482
22404
22493
22399
22435
22377
22338
22463
22395
22575
22496
22674
22455
22470
22544
22632
22538
22651
22798
22629
22531
22616
22758
22653
22600
22642
22572
22744
22753
22675
22858
22670
22999
22874
22742
22810
22899
22807
22821
22831
22981
22744
22964
22966
23041
22873
22966
23117
23049
22782
22751
23015
23032
22879
22790
23013
22834
22888
22686
22877
22956
22864
22968
23152
23082
23160
22952
23136
23059
23195
23026
23085
23005
23318
23133
23041
23126
23175
23187
22982
23282
23176
23312
23040
23363
23043
23225
23201
23375
23236
23365
23375
23409
23338
23250
23390
23222
23331
23185
23234
23126
22942
23015
23062
22948
22765
22952
22987
22845
22744
22689
22821
22818
22671
22882
22700
22802
22678
22388
22608
22790
22662
22477
22700
22588
22344
22570
22644
22436
22359
22535
22301
22392
22643
22340
22402
22567
22375
22617
22535
22535
22540
22456
22557
22748
22607
22760
22555
22695
22816
22594
22597
22774
22751
22927
22820
22650
22681
22673
22945
22922
22862
22888
23028
22823
23029
22979
23044
23039
23143
23040
22846
22876
22974
23024
22939
22810
23009
22978
23016
23092
23122
23015
23073
22956
23256
23116
22904
23148
22900
23265
23350
23015
23352
23085
23255
23150
22904
23012
23078
23250
23138
22968
23305
23372
23156
23102
23206
23325
23234
23377
23271
23421
23382
22980
23242
23204
23110
23348
23131
23282
23436
23338
23450
23426
23377
23348
23293
23262
23594
23461
23568
23333
23445
23516
23425
23534
23677
23590
23680
23608
23597
23219
23554
23389
23373
23486
23280
23291
23253
23308
23074
23268
23015
23110
23066
22939
22837
22867
22858
22779
23000
22719
22862
22768
22778
22794
22800
22761
22701
22676
22720
22689
22691
22595
22583
22655
22654
22604
22808
22741
22525
22683
22828
22682
22994
22922
22666
22997
22956
22721
23020
22925
22864
22781
22849
23117
22944
23114
23020
22813
23060
22886
22909
23104
22944
23040
23320
23042
23199
23279
23444
23302
23159
23196
23091
23268
23357
23462
23307
23470
23140
23369
23124
23394
23289
23187
23307
23184
23457
23585
23419
23462
23536
23601
23468
23426
23601
23463
23516
23438
23584
23512
23471
23662
23685
23423
23711
23665
23658
23543
23764
23628
23472
23399
23647
23524
23590
23634
23653
23779
23617
23716
23616
23658
23676
23551
23727
23640
23743
23577
23770
23866
23775
23766
23763
23976
23826
23933
23975
24018
23933
24046
24072
24032
24092
24117
24083
23924
24059
24137
24054
24222
23943
23834
23946
23923
24026
23652
23618
23762
23543
23602
23560
23500
23425
23461
23496
23599
23323
23283
23178
23415
23172
23299
23296
23286
23109
23369
23302
22930
23267
23160
23203
23220
22976
23127
22983
23157
22996
23080
23169
23062
22873
23150
22847
23200
23241
22999
22901
22954
23020
23184
22955
23086
23047
23029
23069
23047
23073
23023
23083
23275
23121
23002
23087
23304
23253
22997
23246
23170
23460
23341
23172
23449
23354
23313
23516
23440
23252
23280
23202
23544
23291
23291
23521
23335
23499
23291
23466
23397
23443
23640
23367
23446
23684
23605
23521
23555
23453
23516
23738
23572
23591
23422
23519
23587
23661
23638
23463
23489
23327
23659
23774
23621
23426
23558
23656
23440
23542
23413
23466
23661
23626
23559
23713
23555
23478
23678
23465
23617
23583
23670
23767
23670
23627
23723
23813
23733
23717
23697
23765
23739
23735
23737
23654
23857
23580
23763
23656
23286
23389
23470
23327
23348
23426
23137
23292
23270
23149
22995
22980
23170
22961
23076
23082
22837
23065
23015
23167
22754
22614
22988
22768
22843
22771
22949
22776
22722
22722
22603
22705
22587
22689
22811
22741
22588
22581
22928
22542
22788
22930
22847
22596
22789
23030
22687
22921
22858
23047
22790
23026
22775
23024
23029
22805
22906
22977
22850
22896
22911
22891
23061
23043
22743
22960
23131
23018
22815
23047
22936
23153
23071
22885
22996
23011
23173
23289
23005
23032
23277
23028
23329
23386
23364
23101
23326
23276
23252
23325
23086
23246
23368
23209
23523
23230
23315
23444
23542
23442
23312
23440
23403
23559
23372
23287
23393
23611
23503
23625
23514
23298
23531
23411
23381
23271
23378
23579
23467
23364
23302
23369
23333
23589
23268
23373
23343
23494
23541
23369
23335
23393
23521
23335
23501
23476
23532
23323
23642
23352
23496
23403
23535
23406
23585
23477
23516
23343
23255
23445
23306
23269
23302
23244
23294
23192
22867
22852
22965
22835
22881
22915
22968
22888
22860
22599
22863
23013
22839
22669
22756
22794
22741
22662
22468
22627
22491
22776
22721
22570
22417
22675
22686
22613
22732
22601
22625
22462
22585
22558
22879
22608
22603
22498
22599
22682
22600
22636
22637
22958
22695
22645
22728
22547
22953
22854
22907
23010
22676
22942
22712
22930
22866
22913
23092
22984
23173
22909
22993
23123
22785
23108
22918
23172
22916
23030
23113
23165
23187
23324
23046
23399
23077
23121
23139
23523
23426
23157
23429
23470
23268
23443
23538
23314
23480
23372
23440
23523
23417
23418
23471
23496
23572
23256
23543
23319
23500
23361
23525
23571
23599
23474
23664
23543
23695
23843
23831
23764
23564
23756
23621
23913
23928
23927
23781
23946
23935
23690
24057
23917
23706
23860
23950
23841
23898
23971
23879
24039
24037
23927
23912
24034
23825
23988
23895
23929
23942
24011
23819
23852
23869
23771
23659
23748
23751
23675
23515
23512
23529
23410
23666
23368
23158
23282
23190
23206
23281
23350
23139
23239
23204
23245
23055
23165
23128
23038
23308
23249
23304
23056
23103
23033
23343
23082
23004
23190
22954
23190
23120
23067
23372
23387
23402
23491
23295
23405
23309
23480
23432
23311
23400
23480
23357
23599
23371
23349
23375
23372
23538
23675
23397
23604
23817
23615
23597
23720
23508
23516
23583
23703
23479
23735
23459
23545
23703
23612
23786
23699
23717
23710
23718
23819
23672
23615
23683
23849
23794
23864
23739
23741
23842
23841
23846
23875
23775
23858
23891
23879
23906
23891
23828
23910
23717
23948
23920
23874
23975
24067
23871
23940
23924
23947
23947
23830
23957
23948
23938
23928
23985
23967
23945
23908
23855
23970
24007
24002
23999
23966
23950
23891
24058
23829
23683
23900
24143
24090
23961
24008
23982
24029
23987
24010
24080
24095
24118
24067
24062
24048
24055
24151
24022
23948
23920
24006
23915
23964
23742
23852
23499
23784
23653
23621
23549
23531
23430
23490
23439
23424
23378
23210
23308
23218
23281
23316
23427
23144
23289
23075
23148
23318
23235
23285
23265
23269
23261
23245
23232
23241
23308
23178
23357
23265
23339
23353
23376
23289
23307
23365
23383
23476
23421
23369
23435
23473
23418
23443
23451
23445
23424
23627
23583
23614
23703
23613
23476
23692
23496
23594
23861
23575
23577
23674
23459
23781
23838
23846
23598
23763
23643
23675
23791
23663
23743
24064
23787
23833
23904
23958
24050
23916
24019
24018
24110
24010
24036
23825
24134
23904
24131
24000
24027
23977
23971
24084
24056
23828
24053
23790
24017
23954
24052
24205
24025
23978
24119
23850
23922
23947
23940
23859
24190
24167
24286
24081
24064
24033
24015
23948
24168
24085
24206
24210
23958
24097
24080
24270
23949
24106
24301
24475
24289
24335
24296
24027
24346
24099
24193
24357
24212
24122
24192
24278
24334
24271
24003
24282
24018
24158
24256
24030
24038
23983
23863
23989
24008
23849
23841
23987
23802
23900
23709
23702
23724
23617
23821
23531
23598
23300
23500
23760
23633
23449
23465
23361
23455
23568
23524
23351
23215
23609
23209
23552
23606
23468
23318
23402
23488
23315
23590
23308
23497
23609
23529
23679
23616
23683
23489
23361
23512
23475
23601
23540
23729
23521
23684
23635
23707
23613
23558
23718
23634
23565
23823
23675
23657
23840
23668
23674
23618
23592
23781
23658
23735
23673
23801
23477
23561
23601
23762
23881
23739
23613
23582
23539
23826
23830
24021
23843
23878
23774
23582
23761
23646
23734
23985
23748
23823
23835
23949
23710
23913
23724
23961
23897
23943
24096
24075
23992
23948
23903
24158
23869
24119
24163
24136
24039
24129
24145
24103
24109
24049
24155
24224
24201
23987
24017
24300
23930
24032
23934
24194
24218
24199
24092
24220
24135
24263
24179
24291
24189
24221
24342
24173
24190
24372
24286
24149
24152
23965
24175
24217
24066
24086
23834
23949
23857
23827
23581
23894
23838
23537
23682
23451
23476
23499
23607
23324
23201
23464
23433
23249
23344
23396
23213
23195
23389
23404
23228
23443
23272
23354
23185
23370
23389
23281
23236
23451
23248
23372
23317
23272
23154
23356
23318
23437
23345
23335
23300
23468
23388
23537
23589
23421
23446
23595
23211
23313
23347
23400
23411
23593
23582
23334
23619
23424
23538
23601
23594
23512
23674
23533
23288
23627
23770
23561
23405
23481
23834
23493
23545
23486
23500
23485
23788
23649
23532
23429
23607
23720
23609
23836
23468
23440
23480
23455
23519
23718
23593
23707
23442
23794
23823
23681
23629
23587
23844
23615
23627
23775
23710
23637
23830
23640
23845
23759
23727
23906
23727
23682
23803
23826
23907
23723
23827
23990
23860
23858
24026
24059
24014
23956
23737
23906
24200
23857
24113
23887
24056
24161
23770
24121
24138
23956
24137
23846
24018
23898
23840
23838
23862
23751
23582
23492
23448
23426
23431
23321
23409
23217
23302
23271
23478
23244
23248
23260
23337
23208
23390
23233
22996
23122
23180
23153
23203
23235
23005
23031
22962
22892
23164
22958
22996
23146
23209
22898
23178
23141
23251
23384
23222
23031
23018
23243
23159
23088
23229
23229
23179
23157
23110
23202
23249
23391
23297
23435
23198
23342
23391
23311
23369
23256
23416
23298
23379
23339
23414
23577
23444
23472
23395
23514
23710
23542
23701
23543
23645
23662
23363
23485
23427
23535
23582
23637
23501
23606
23783
23671
23488
23656
23703
23659
23565
23780
23542
23570
23560
23886
23535
23866
23756
23607
23572
23673
23620
23735
23781
23740
23727
23754
23906
23746
23749
23775
23783
23718
23803
23819
23853
23651
23870
23721
23864
24050
23970
24000
23712
23649
23816
24146
23887
24205
23852
24173
24003
23975
23797
23911
24061
24062
23967
23960
24125
23912
24107
23963
24156
24035
23979
23844
23994
24039
23841
23965
23810
23449
23564
23486
23630
23459
23562
23529
23565
23315
23173
23370
23421
23381
23424
23212
23141
23255
23385
23272
23265
23287
23075
23177
23134
23237
23175
23231
23170
23075
23293
23232
23348
23211
23376
23323
23203
23360
23272
23356
23544
23316
23377
23215
23333
23326
23417
23292
23285
23542
23525
23582
23410
23613
23471
23732
23565
23546
23523
23441
23595
23666
23630
23716
23438
23546
23675
23758
23580
23694
23626
23724
23847
23763
23543
23844
23492
23606
23943
23799
23611
23815
23892
23674
23666
23816
23681
23817
23738
23860
23883
23922
23857
23891
23838
23793
23818
23816
23737
23817
23876
23836
23690
23827
23868
23911
24107
23932
24052
23916
24009
24152
24148
24024
24304
24136
23991
24227
24095
24077
24237
24258
24118
24300
24285
24219
24414
24091
24443
24067
24426
24268
24469
24375
24312
24447
24262
24256
24179
24188
24327
24143
24315
24256
24225
24320
24230
24273
24082
24173
23990
24017
23904
23911
23843
23882
23826
23737
23725
23730
23598
23724
23927
23720
23959
23838
23984
23803
23693
23831
23956
24026
23789
24035
23983
23700
23720
23800
23932
23857
23995
23954
23994
23922
24094
23793
24186
24048
24237
24278
24096
24359
24221
24278
24219
24277
24424
24363
24263
24328
24323
24431
24392
24379
24381
24466
24545
24469
24478
24354
24465
24506
24515
24550
24426
24487
24487
24557
24592
24342
24607
24515
24454
24429
24511
24535
24805
24602
24625
24426
24352
24336
24524
24390
24737
24612
24423
24649
24458
24350
24431
24826
24541
24313
24732
24408
24676
24808
24424
24541
24612
24609
24767
24513
24416
24752
24803
24619
24851
24608
24457
24648
24857
24800
24811
24822
24737
24674
24863
24967
24734
24797
24674
24648
24897
25001
24749
24791
24718
25117
24743
24793
24812
25094
25021
24896
24709
24985
24744
24915
24973
25024
25025
24878
24953
24948
24820
24634
24795
24547
24707
24496
24672
24437
24633
24439
24596
24613
24569
24485
24345
24438
24536
24383
24388
24316
24227
24316
24343
24372
24737
24357
24409
24586
24257
24564
24620
24351
24528
24274
24316
24262
24335
24535
24292
24722
24552
24539
24315
24641
24528
24561
24598
24594
24715
24720
24452
24670
24731
24757
24566
24555
24518
24456
24742
24512
24799
24562
24523
24494
24592
24771
24551
24778
24597
24682
24537
24909
24803
24527
24668
24876
24478
24594
24492
24705
24495
24741
24944
24733
24652
24886
24969
24807
25007
24715
24605
24834
24851
24940
24796
24832
24940
24891
24843
24794
24916
25130
25044
24903
25027
25121
24966
24740
24829
24883
24874
24946
24800
24784
24743
25054
24878
24861
24787
24790
24907
24717
24902
24756
24959
24846
24920
24765
24855
24859
24986
24808
24993
24955
24969
25039
24749
24944
24869
24916
25110
25028
24974
24912
24805
24938
24982
24954
24954
24634
24852
24600
24751
24613
24622
24536
24452
24439
24392
24405
24368
24413
24273
24362
24147
24151
24361
24382
24248
24226
24205
24226
24189
24183
24305
24190
24137
24177
24129
24203
24123
24261
24181
24047
24170
24178
24120
24282
24120
23987
24302
24075
24255
23975
24035
24360
24206
24241
24270
24193
24208
24249
24295
