32692
32710
32729
32761
32745
32766
32780
32787
32801
32809
32836
32855
32857
32887
32898
32915
32927
32952
32971
32952
32991
32996
33041
33051
33076
33089
33099
33119
33136
33128
33191
33188
33234
33260
33278
33299
33322
33339
33298
33320
33374
33380
33371
33383
33388
33376
33383
33354
33364
33370
33370
33362
33332
33354
33341
33351
33362
33337
33339
33357
33332
33347
33364
33300
33314
33307
33310
33295
33309
33326
33301
33322
33301
33298
33276
33286
33238
33265
33276
33258
33262
33275
33252
33251
33254
33246
33205
33229
33210
33181
33232
33194
33192
33172
33212
33213
33191
33164
33186
33177
33192
33144
33190
33153
33143
33156
33127
33138
33132
33110
33119
33103
33098
33096
33133
33095
33082
33101
33075
33051
33027
33053
33049
33049
33038
33022
33063
33066
33060
33033
33028
33048
33025
33023
33034
33027
33047
33043
33047
33014
33010
33055
33025
32999
33045
33013
33016
33019
33019
33014
32993
33021
33028
33025
32995
33007
32989
33016
33016
33018
32999
33034
33018
33037
33045
33065
33062
33101
33115
33119
33135
33142
33106
33164
33148
33188
33175
33207
33235
33221
33212
33249
33259
33287
33307
33316
33332
33364
33358
33377
33399
33410
33435
33448
33462
33475
33496
33512
33488
33483
33517
33495
33465
33483
33478
33484
33466
33498
33461
33454
33453
33451
33455
33457
33431
33428
33448
33427
33410
33432
33429
33424
33429
33404
33407
33414
33422
33414
33418
33411
33403
33406
33389
33369
33370
33387
33349
33373
33380
33362
33336
33357
33320
33302
33330
33301
33315
33284
33294
33305
33293
33293
33293
33264
33285
33286
33276
33252
33314
33268
33295
33252
33262
33250
33245
33252
33247
33243
33246
33271
33242
33245
33229
33253
33249
33275
33242
33281
33227
33221
33251
33222
33220
33207
33210
33217
33227
33225
33221
33218
33256
33215
33227
33200
33232
33213
33222
33208
33236
33195
33220
33222
33211
33226
33208
33196
33183
33195
33201
33223
33187
33191
33190
33206
33221
33222
33236
33229
33239
33249
33246
33260
33272
33319
33285
33311
33327
33337
33355
33343
33339
33373
33393
33383
33388
33431
33434
33419
33458
33450
33517
33513
33493
33542
33558
33582
33575
33579
33600
33591
33623
33606
33626
33603
33596
33600
33594
33629
33609
33600
33581
33584
33543
33561
33560
33554
33544
33549
33550
33535
33535
33529
33517
33545
33516
33497
33527
33499
33494
33537
33509
33523
33522
33512
33495
33493
33495
33496
33491
33475
33501
33471
33468
33500
33481
33488
33463
33430
33444
33447
33440
33425
33463
33446
33423
33431
33415
33411
33426
33442
33411
33401
33405
33405
33396
33363
33334
33382
33354
33362
33358
33350
33349
33361
33341
33319
33315
33311
33308
33312
33314
33268
33323
33315
33312
33310
33294
33306
33253
33264
33269
33291
33264
33268
33273
33250
33255
33280
33272
33230
33249
33246
33253
33258
33231
33249
33236
33226
33225
33238
33235
33242
33212
33203
33217
33210
33229
33205
33220
33225
33219
33205
33193
33226
33218
33222
33240
33245
33221
33247
33255
33276
33294
33318
33289
33317
33290
33333
33315
33337
33320
33353
33357
33396
33348
33381
33411
33420
33436
33450
33469
33498
33511
33507
33538
33518
33552
33587
33570
33572
33600
33571
33593
33582
33601
33590
33579
33554
33583
33574
33574
33538
33530
33521
33538
33536
33546
33537
33521
33484
33511
33499
33480
33505
33455
33485
33478
33456
33454
33445
33448
33442
33436
33439
33427
33438
33409
33414
33426
33446
33447
33437
33427
33416
33428
33416
33396
33412
33413
33412
33417
33374
33409
33400
33389
33372
33372
33385
33358
33350
33351
33348
33342
33339
33330
33317
33318
33311
33304
33311
33310
33298
33287
33289
33290
33257
33264
33273
33244
33258
33258
33219
33208
33249
33242
33195
33212
33227
33213
33226
33204
33187
33204
33168
33170
33206
33199
33205
33199
33199
33168
33177
33180
33190
33176
33169
33166
33165
33177
33177
33155
33163
33162
33168
33157
33169
33167
33127
33162
33158
33132
33188
33154
33153
33168
33177
33179
33178
33199
33163
33204
33213
33223
33230
33224
33266
33256
33238
33288
33297
33336
33330
33339
33361
33367
33346
33386
33416
33430
33454
33418
33456
33480
33522
33529
33538
33560
33585
33596
33628
33633
33651
33625
33660
33627
33660
33651
33653
33656
33647
33665
33630
33628
33615
33647
33615
33622
33607
33641
33595
33605
33598
33626
33620
33589
33603
33602
33594
33593
33588
33569
33581
33586
33570
33563
33591
33586
33572
33588
33559
33569
33566
33607
33550
33543
33572
33552
33548
33520
33539
33538
33514
33545
33492
33524
33505
33562
33536
33506
33497
33512
33510
33503
33490
33509
33474
33480
33478
33469
33452
33455
33461
33429
33430
33436
33434
33403
33432
33437
33418
33441
33401
33407
33368
33379
33406
33391
33390
33371
33365
33370
33345
33344
33379
33364
33358
33346
33368
33353
33354
33325
33361
33367
33357
33326
33330
33344
33336
33312
33323
33328
33318
33317
33299
33315
33306
33291
33343
33317
33277
33302
33289
33309
33325
33343
33312
33302
33328
33325
33337
33344
33349
33356
33357
33381
33389
33413
33383
33444
33407
33426
33440
33437
33441
33477
33497
33508
33506
33527
33567
33570
33585
33609
33597
33638
33634
33665
33699
33695
33670
33688
33691
33682
33714
33691
33733
33731
33706
33703
33706
33675
33670
33693
33666
33672
33702
33686
33660
33653
33644
33616
33621
33656
33640
33624
33609
33590
33619
33623
33597
33574
33609
33613
33587
33603
33584
33564
33586
33569
33575
33562
33543
33575
33565
33551
33564
33562
33547
33552
33553
33496
33518
33535
33546
33505
33522
33498
33493
33502
33500
33484
33448
33497
33457
33465
33477
33457
33456
33463
33451
33435
33448
33425
33449
33421
33440
33421
33432
33431
33401
33389
33404
33450
33416
33420
33401
33384
33394
33402
33395
33400
33404
33391
33368
33399
33410
33362
33382
33406
33395
33360
33379
33370
33371
33342
33347
33356
33334
33346
33342
33339
33341
33363
33365
33324
33332
33338
33369
33336
33351
33361
33391
33374
33370
33368
33375
33392
33390
33418
33416
33433
33431
33450
33468
33498
33499
33481
33504
33505
33531
33539
33544
33580
33610
33623
33608
33627
33631
33668
33686
33682
33722
33691
33710
33773
33735
33734
33726
33736
33703
33733
33708
33696
33692
33702
33717
33686
33676
33673
33680
33655
33656
33698
33644
33672
33674
33652
33651
33654
33644
33648
33624
33616
33608
33610
33592
33595
33615
33597
33596
33591
33573
33547
33576
33582
33535
33566
33541
33556
33539
33538
33529
33548
33524
33557
33538
33563
33557
33511
33540
33526
33503
33518
33517
33520
33511
33522
33512
33468
33483
33462
33458
33489
33469
33467
33462
33460
33419
33423
33418
33411
33393
33394
33401
33382
33388
33398
33379
33408
33345
33372
33389
33359
33359
33359
33360
33356
33359
33330
33337
33344
33337
33343
33339
33333
33295
33336
33301
33293
33307
33299
33288
33298
33291
33298
33256
33299
33279
33308
33270
33291
33321
33287
33262
33267
33287
33296
33288
33326
33307
33315
33322
33313
33364
33353
33363
33376
33394
33406
33421
33412
33421
33453
33485
33448
33449
33480
33476
33517
33519
33508
33532
33549
33569
33578
33600
33613
33645
33668
33658
33700
33673
33668
33707
33703
33713
33693
33689
33695
33679
33667
33692
33677
33652
33663
33658
33628
33667
33651
33643
33634
33647
33600
33636
33609
33585
33589
33617
33578
33601
33593
33559
33575
33569
33565
33539
33539
33550
33571
33555
33556
33518
33524
33525
33532
33515
33522
33485
33519
33507
33504
33492
33495
33482
33498
33466
33461
33488
33468
33440
33429
33415
33416
33406
33414
33419
33380
33375
33376
33385
33391
33348
33369
33341
33335
33324
33326
33336
33296
33328
33305
33325
33321
33291
33274
33291
33306
33303
33309
33275
33260
33273
33259
33257
33302
33281
33262
33288
33252
33283
33242
33245
33267
33267
33248
33214
33260
33228
33215
33220
33251
33218
33210
33232
33219
33237
33207
33210
33218
33210
33207
33186
33203
33220
33231
33219
33222
33237
33219
33253
33243
33277
33257
33268
33308
33316
33332
33361
33327
33344
33368
33358
33394
33422
33422
33436
33430
33444
33493
33475
33545
33543
33540
33589
33583
33571
33646
33626
33622
33666
33668
33675
33704
33730
33717
33724
33705
33715
33733
33707
33712
33680
33711
33681
33680
33691
33686
33691
33667
33649
33663
33656
33655
33626
33653
33672
33613
33627
33628
33609
33637
33604
33583
33584
33573
33603
33577
33594
33569
33582
33551
33572
33564
33542
33576
33533
33528
33532
33510
33515
33532
33500
33498
33480
33445
33474
33448
33472
33449
33437
33425
33395
33418
33442
33397
33406
33392
33396
33393
33358
33354
33355
33327
33350
33319
33314
33299
33293
33317
33312
33288
33268
33249
33261
33262
33230
33259
33248
33261
33239
33227
33237
33217
33216
33200
33236
33199
33202
33200
33202
33223
33192
33218
33197
33203
33214
33182
33187
33174
33208
33189
33201
33169
33149
33171
33196
33189
33186
33167
33187
33196
33153
33178
33158
33163
33172
33168
33209
33214
33180
33218
33232
33225
33231
33230
33290
33255
33295
33296
33275
33333
33328
33337
33362
33401
33368
33379
33407
33413
33427
33453
33508
33502
33496
33514
33561
33571
33578
33612
33649
33620
33653
33672
33659
33685
33704
33702
33698
33704
33709
33680
33692
33691
33679
33685
33663
33666
33652
33645
33645
33659
33666
33631
33630
33630
33642
33630
33626
33628
33638
33644
33612
33621
33602
33603
33592
33590
33572
33556
33576
33582
33570
33595
33577
33557
33558
33577
33549
33544
33564
33518
33544
33516
33542
33499
33508
33512
33479
33490
33506
33475
33470
33455
33447
33446
33466
33424
33438
33477
33444
33421
33412
33433
33442
33451
33412
33418
33439
33436
33403
33383
33380
33386
33390
33398
33363
33409
33375
33347
33337
33358
33339
33365
33360
33345
33330
33316
33379
33344
33349
33319
33329
33359
33350
33314
33324
33335
33315
33349
33329
33335
33347
33310
33306
33305
33320
33308
33329
33299
33344
33310
33285
33335
33337
33350
33387
33355
33353
33347
33365
33386
33427
33406
33404
33410
33453
33458
33476
33490
33487
33529
33520
33537
33575
33587
33593
33612
33597
33654
33652
33650
33679
33715
33692
33731
33728
33763
33791
33771
33774
33800
33785
33795
33770
33786
33797
33760
33764
33757
33751
33765
33757
33745
33755
33752
33715
33699
33713
33702
33676
33680
33717
33700
33710
33694
33694
33667
33634
33660
33633
33639
33615
33652
33611
33639
33623
33612
33623
33631
33606
33611
33598
33584
33584
33600
33570
33554
33582
33584
33548
33563
33547
33527
33506
33509
33523
33508
33491
33491
33511
33480
33509
33501
33492
33457
33454
33467
33462
33454
33430
33419
33418
33437
33422
33403
33375
33372
33386
33387
33392
33403
33370
33348
33360
33346
33351
33323
33341
33314
33353
33319
33345
33313
33304
33288
33291
33298
33294
33313
33284
33282
33243
33283
33295
33290
33270
33239
33261
33272
33260
33292
33237
33257
33254
33243
33237
33232
33212
33254
33240
33253
33253
33243
33214
33243
33212
33244
33225
33240
33227
33238
33248
33256
33268
33279
33286
33304
33296
33303
33292
33309
33326
33343
33367
33362
33403
33391
33398
33413
33401
33434
33448
33475
33490
33474
33539
33531
33559
33544
33573
33572
33604
33626
33638
33643
33659
33659
33676
33674
33690
33689
33722
33697
33698
33692
33661
33696
33658
33671
33649
33667
33641
33654
33645
33601
33632
33599
33639
33637
33621
33607
33605
33585
33587
33560
33548
33549
33565
33554
33568
33572
33561
33541
33551
33549
33524
33536
33546
33511
33508
33497
33495
33514
33498
33515
33500
33441
33449
33443
33456
33452
33443
33448
33429
33426
33425
33435
33424
33407
33397
33409
33409
33398
33377
33388
33376
33361
33381
33378
33338
33347
33355
33336
33314
33331
33338
33351
33333
33342
33314
33349
33294
33297
33320
33294
33289
33284
33294
33270
33296
33293
33277
33284
33324
33282
33279
33280
33280
33247
33255
33271
33258
33242
33236
33251
33245
33238
33241
33227
33206
33223
33248
33210
33212
33242
33224
33212
33231
33240
33285
33236
33229
33283
33262
33264
33305
33287
33313
33306
33334
33330
33317
33325
33366
33377
33366
33392
33380
33408
33426
33443
33465
33480
33455
33475
33493
33495
33521
33554
33572
33563
33591
33604
33608
33623
33642
33656
33643
33667
33639
33636
33691
33642
33632
33651
33647
33619
33613
33629
33606
33613
33602
33613
33609
33611
33607
33574
33599
33578
33591
33572
33563
33558
33539
33547
33558
33562
33540
33542
33521
33504
33522
33558
33520
33506
33511
33517
33510
33508
33515
33504
33506
33480
33492
33455
33465
33443
33450
33464
33437
33436
33403
33413
33414
33398
33420
33425
33406
33426
33395
33402
33381
33389
33346
33351
33394
33376
33361
33334
33347
33347
33344
33311
33328
33306
33331
33340
33328
33323
33323
33327
33335
33312
33281
33287
33304
33275
33273
33258
33294
33261
33272
33264
33258
33284
33246
33273
33259
33262
33266
33255
33246
33289
33250
33239
33258
33257
33268
33236
33224
33273
33228
33234
33248
33230
33248
33263
33218
33281
33279
33297
33312
33330
33313
33324
33302
33322
33350
33357
33376
33395
33411
33391
33406
33443
33458
33474
33451
33482
33523
33507
33543
33571
33568
33567
33581
33604
33605
33625
33650
33651
33709
33696
33689
33727
33695
33731
33729
33738
33717
33720
33717
33743
33705
33687
33711
33687
33672
33656
33694
33691
33681
33677
33664
33662
33645
33657
33640
33635
33640
33603
33620
33590
33600
33618
33576
33607
33576
33568
33590
33586
33584
33566
33576
33563
33577
33567
33561
33554
33542
33560
33552
33545
33543
33525
33508
33526
33500
33506
33517
33480
33488
33500
33500
33513
33487
33482
33478
33480
33470
33458
33464
33483
33483
33441
33463
33483
33455
33458
33444
33426
33442
33414
33443
33424
33413
33407
33412
33441
33418
33417
33406
33414
33400
33427
33407
33410
33387
33419
33382
33395
33391
33395
33379
33395
33376
33390
33380
33389
33412
33392
33402
33378
33363
33365
33363
33357
33403
33380
33382
33364
33364
33394
33385
33377
33402
33417
33397
33429
33447
33412
33428
33468
33424
33453
33469
33500
33490
33522
33479
33556
33533
33529
33575
33585
33568
33608
33605
33618
33647
33656
33670
33670
33723
33705
33719
33733
33744
33788
33798
33778
33799
33791
33809
33826
33839
33848
33835
33843
33819
33805
33800
33793
33832
33794
33774
33809
33789
33764
33773
33751
33763
33739
33767
33727
33740
33772
33724
33719
33724
33718
33717
33720
33708
33742
33720
33736
33694
33706
33728
33672
33670
33706
33660
33655
33694
33700
33671
33676
33629
33634
33672
33645
33641
33624
33657
33630
33661
33635
33623
33609
33628
33611
33596
33590
33598
33594
33573
33583
33556
33556
33560
33577
33525
33556
33561
33538
33518
33556
33536
33525
33523
33497
33533
33515
33503
33525
33508
33492
33494
33481
33485
33489
33467
33468
33463
33483
33489
33519
33457
33495
33503
33488
33453
33466
33475
33481
33454
33424
33459
33474
33444
33449
33428
33449
33429
33426
33456
33470
33412
33410
33459
33444
33448
33483
33491
33468
33452
33492
33505
33476
33505
33514
33508
33525
33524
33542
33566
33572
33581
33584
33600
33622
33608
33638
33673
33685
33689
33718
33728
33770
33740
33776
33798
33825
33789
33857
33819
33821
33836
33822
33851
33816
33799
33835
33814
33805
33842
33808
33803
33803
33793
33789
33796
33770
33785
33767
33776
33744
33731
33782
33781
33755
33768
33737
33730
33738
33729
33735
33750
33745
33732
33738
33725
33719
33710
33702
33745
33739
33698
33720
33706
33717
33684
33672
33678
33674
33650
33672
33684
33675
33673
33669
33660
33654
33664
33634
33644
33631
33638
33652
33656
33655
33608
33611
33621
33625
33647
33631
33613
33622
33601
33603
33604
33599
33586
33578
33584
33575
33595
33606
33583
33565
33575
33570
33571
33566
33523
33557
33530
33538
33560
33572
33546
33532
33535
33550
33547
33510
33537
33566
33511
33575
33550
33549
33530
33516
33509
33520
33525
33484
33501
33514
33505
33515
33478
33519
33494
33550
33509
33519
33513
33528
33498
33538
33540
33556
33561
33604
33570
33572
33638
33608
33600
33604
33637
33623
33659
33667
33680
33707
33715
33734
33728
33773
33782
33789
33785
33791
33799
33845
33833
33863
33862
33879
33879
33894
33912
33931
33928
33931
33887
33893
33908
33900
33896
33901
33887
33869
33906
33885
33885
33886
33868
33879
33854
33851
33845
33821
33824
33840
33819
33816
33821
33856
33775
33810
33825
33811
33781
33801
33795
33811
33790
33794
33783
33779
33742
33767
33787
33784
33764
33776
33780
33758
33756
33744
33760
33725
33726
33718
33726
33739
33733
33724
33717
33725
33725
33720
33696
33702
33693
33705
33711
33659
33685
33686
33684
33670
33645
33671
33651
33653
33663
33651
33642
33639
33628
33603
33642
33632
33631
33622
33617
33631
33616
33635
33638
33642
33597
33632
33606
33589
33620
33616
33596
33606
33597
33615
33577
33576
33595
33602
33569
33589
33583
33584
33557
33555
33561
33571
33580
33589
33560
33582
33567
33579
33584
33585
33580
33568
33580
33614
33612
33596
33618
33645
33635
33669
33640
33671
33678
33663
33717
33696
33710
33733
33738
33750
33766
33743
33755
33797
33802
33794
33828
33853
33859
33880
33879
33914
33920
33961
33932
33942
33943
33935
33937
33926
33946
33931
33922
33941
33918
33907
33903
33920
33918
33886
33906
33906
33871
33870
33881
33871
33851
33873
33862
33837
33880
33873
33862
33852
33819
33815
33837
33833
33869
33834
33819
33834
33804
33832
33840
33827
33802
33824
33782
33787
33786
33804
33804
33754
33769
33773
33766
33745
33751
33762
33740
33743
33750
33744
33719
33746
33734
33718
33714
33748
33719
33719
33691
33703
33682
33677
33664
33672
33684
33653
33688
33663
33656
33643
33671
33656
33636
33658
33646
33606
33594
33655
33621
33637
33629
33619
33597
33584
33626
33619
33612
33616
33619
33634
33635
33594
33599
33570
33614
33609
33598
33596
33549
33574
33575
33584
33573
33578
33573
33569
33596
33575
33572
33553
33555
33568
33569
33593
33616
33591
33576
33611
33598
33640
33616
33645
33658
33662
33651
33639
33675
33674
33676
33699
33716
33690
33709
33726
33727
33739
33747
33745
33764
33828
33811
33831
33833
33839
33862
33887
33893
33901
33906
33896
33909
33909
33896
33877
33879
33915
33903
33890
33877
33872
33897
33876
33876
33865
33885
33848
33862
33858
33844
33877
33837
33834
33852
33838
33801
33824
33827
33836
33829
33829
33815
33806
33779
33779
33810
33787
33786
33791
33796
33780
33749
33782
33767
33737
33758
33762
33774
33745
33770
33790
33752
33740
33790
33770
33749
33733
33774
33730
33728
33732
33746
33702
33686
33733
33725
33679
33713
33709
33697
33714
33674
33687
33648
33656
33682
33667
33674
33618
33640
33666
33635
33618
33651
33609
33622
33610
33635
33623
33622
33596
33598
33601
33620
33624
33595
33627
33639
33611
33614
33604
33618
33591
33606
33618
33587
33595
33593
33589
33577
33576
33579
33597
33594
33541
33575
33546
33545
33521
33554
33537
33599
33554
33522
33546
33569
33588
33556
33517
33560
33591
33603
33623
33599
33618
33634
33638
33654
33622
33654
33668
33662
33665
33666
33703
33686
33725
33742
33705
33741
33772
33765
33784
33797
33796
33807
33842
33845
33843
33830
33855
33847
33863
33867
33868
33862
33860
33849
33854
33843
33853
33865
33828
33847
33864
33842
33797
33815
33798
33774
33818
33797
33777
33766
33811
33775
33773
33775
33774
33771
33755
33747
33748
33754
33745
33741
33708
33726
33735
33715
33728
33693
33702
33688
33706
33699
33708
33678
33674
33700
33679
33671
33687
33662
33666
33659
33663
33660
33637
33645
33630
33643
33649
33595
33600
33622
33618
33573
33567
33564
33541
33579
33559
33535
33570
33548
33542
33534
33524
33530
33520
33508
33506
33492
33514
33482
33471
33458
33447
33482
33454
33473
33460
33497
33501
33461
33485
33468
33462
33466
33481
33460
33483
33448
33479
33466
33440
33418
33444
33433
33429
33429
33410
33404
33422
33388
33386
33418
33408
33420
33400
33389
33387
33411
33419
33414
33453
33433
33415
33392
33445
33436
33422
33462
33470
33465
33470
33472
33480
33490
33463
33502
33522
33518
33538
33552
33539
33568
33564
33552
33607
33627
33623
33623
33608
33655
33643
33674
33684
33687
33712
33711
33705
33725
33693
33675
33721
33702
33724
33677
33689
33660
33651
33656
33663
33662
33655
33650
33671
33641
33672
33618
33616
33639
33621
33614
33642
33588
33586
33581
33599
33591
33603
33580
33585
33591
33578
33551
33548
33537
33557
33553
33544
33523
33510
33530
33524
33517
33505
33465
33479
33514
33513
33496
33475
33468
33466
33469
33447
33458
33447
33433
33411
33408
33397
33394
33422
33384
33395
33384
33387
33394
33379
33395
33372
33361
33350
33338
33347
33322
33323
33345
33335
33316
33314
33330
33296
33303
33290
33300
33284
33286
33292
33277
33273
33268
33278
33278
33267
33243
33240
33270
33252
33261
33239
33245
33205
33245
33247
33245
33199
33211
33214
33215
33215
33202
33220
33193
33186
33215
33176
33183
33212
33192
33194
33213
33195
33198
33205
33208
33207
33221
33223
33239
33248
33233
33263
33276
33272
33267
33287
33283
33293
33301
33347
33326
33363
33377
33390
33393
33400
33431
33440
33443
33472
33453
33502
33492
33517
33525
33538
33525
33556
33576
33574
33538
33528
33519
33531
33522
33505
33478
33470
33505
33497
33463
33485
33468
33441
33480
33444
33412
33428
33456
33430
33418
33430
33416
33427
33416
33424
33390
33417
33395
33417
33361
33407
33362
33379
33363
33386
33373
33363
33369
33345
33345
33334
33322
33340
33337
33340
33317
33303
33316
33274
33310
33310
33313
33274
33266
33216
33276
33258
33245
33233
33235
33237
33230
33218
33228
33211
33191
33231
33219
33192
33211
33191
33203
33139
33175
33154
33144
33161
33144
33179
33137
33117
33155
33142
33150
33118
33134
33111
33128
33082
33086
33070
33072
33047
33060
33070
33054
33077
33057
33065
33079
33073
33053
33071
33042
33039
33032
32998
32996
32998
33011
32999
32982
32992
32972
32989
32975
32992
32963
32949
32969
32968
32972
32978
32986
33008
32990
33004
32998
33005
33033
33039
33042
33058
33049
33065
33108
33124
33112
33121
33121
33159
33173
33190
33200
33198
33224
33231
33233
33244
33339
33314
33285
33331
33352
33358
33367
33383
33401
33417
33418
33427
33403
33395
33417
33390
33406
33367
33373
33386
33386
33378
33342
33375
33340
33347
33357
33329
33306
33311
33301
33309
33303
33305
33286
33282
33288
33266
33278
33261
33263
33265
33224
33202
33237
33224
33231
33193
33184
33200
33183
33165
33171
33174
33155
33151
33175
33129
33172
33184
33169
33124
33156
33123
33145
33127
33104
33103
33098
33087
33083
33073
33078
33120
33073
33075
33065
33080
33072
33063
33049
33051
33046
33048
33049
33034
33049
33057
33037
33049
33013
32990
33033
33009
33030
33013
33018
33040
33002
33016
33035
33001
33002
33007
32991
33026
32988
33008
32999
33016
32962
32991
32980
32984
32974
32953
32975
32973
33003
32985
32978
32988
32974
32942
32975
32994
32970
32979
32968
32996
32976
32997
33020
32996
33013
33005
33034
33022
33070
33045
33064
33078
33071
33106
33089
33101
33124
33155
33113
33122
33123
33164
33159
33184
33219
33221
33251
33273
33285
33277
33324
33329
33386
33366
33363
33409
33379
33442
33445
33452
33476
33484
33501
33485
33499
33517
33494
33485
33493
33509
33486
33457
33487
33460
33476
33465
33481
33473
33471
33466
33475
33449
33475
33455
33439
33430
33448
33433
33444
33417
33445
33414
33408
33432
33423
33400
33419
33385
33407
33419
33401
33412
33415
33417
33394
33405
33426
33397
33384
33378
33376
33394
33381
33399
33385
33380
33390
33385
33373
33379
33412
33373
33367
33388
33387
33356
33358
33349
33363
33319
33353
33343
33357
33320
33322
33339
33314
33336
33313
33319
33313
33325
33310
33325
33328
33307
33323
33344
33329
33351
33318
33314
33299
33343
33320
33317
33289
33318
33321
33297
33303
33295
33277
33310
33308
33291
33299
33301
33285
33311
33272
33280
33271
33286
33290
33262
33292
33276
33279
33275
33312
33277
33296
33319
33334
33334
33356
33357
33328
33356
33352
33378
33387
33415
33416
33388
33417
33428
33476
33485
33495
33494
33539
33527
33511
33547
33593
33598
33589
33614
33660
33651
33625
33691
33685
33710
33725
33685
33705
33704
33710
33689
33716
33690
33675
33669
33684
33671
33693
33710
33673
33665
33675
33665
33660
33653
33647
33663
33638
33612
33652
33640
33639
33607
33631
33627
33607
33598
33619
33614
33593
33586
33570
33593
33559
33565
33569
33566
33556
33537
33510
33545
33524
33513
33508
33542
33489
33521
33510
33499
33504
33501
33474
33480
33469
33467
33475
33480
33480
33461
33472
33452
33427
33426
33441
33401
33426
33432
33404
33407
33402
33396
33403
33380
33394
33409
33346
33359
33383
33352
33323
33366
33368
33343
33372
33358
33336
33313
33340
33343
33297
33311
33312
33354
33315
33314
33327
33299
33323
33334
33318
33298
33297
33303
33301
33313
33347
33306
33316
33302
33290
33298
33288
33294
33307
33294
33318
33315
33311
33342
33300
33330
33334
33341
33344
33352
33382
33391
33380
33404
33388
33404
33453
33428
33441
33458
33458
33506
33504
33469
33505
33520
33541
33551
33566
33603
33608
33621
33639
33666
33644
33703
33663
33692
33699
33688
33712
33729
33715
33709
33716
33681
33702
33694
33702
33671
33704
33663
33687
33671
33671
33661
33674
33610
33634
33611
33617
33632
33598
33614
33601
33606
33578
33602
33592
33630
33622
33575
33600
33587
33566
33585
33556
33549
33549
33553
33563
33541
33563
33542
33561
33527
33540
33531
33523
33528
33510
33523
33494
33488
33497
33498
33489
33486
33480
33451
33496
33481
33465
33450
33458
33428
33463
33444
33454
33438
33427
33434
33406
33402
33417
33405
33412
33420
33400
33394
33398
33407
33400
33377
33330
33352
33358
33353
33331
33355
33349
33351
33366
33333
33369
33351
33338
33315
33342
33327
33335
33317
33354
33331
33355
33351
33337
33308
33312
33357
33327
33309
33338
33319
33304
33324
33316
33308
33306
33333
33333
33338
33347
33358
33361
33387
33374
33366
33388
33415
33419
33427
33437
33437
33451
33463
33477
33487
33487
33514
33526
33534
33544
33571
33578
33586
33590
33616
33653
33647
33631
33656
33716
33715
33720
33727
33748
33745
33769
33757
33755
33743
33750
33734
33714
33755
33738
33742
33733
33750
33753
33731
33725
33719
33710
33682
33729
33692
33698
33674
33700
33659
33681
33666
33688
33660
33673
33668
33640
33669
33647
33658
33607
33600
33611
33598
33627
33586
33597
33589
33567
33599
33581
33559
33556
33538
33557
33546
33541
33539
33567
33527
33556
33552
33529
33513
33516
33501
33507
33481
33525
33482
33505
33478
33482
33459
33456
33451
33450
33472
33430
33464
33448
33433
33424
33431
33448
33435
33459
33417
33419
33438
33417
33399
33403
33417
33373
33422
33390
33421
33430
33423
33427
33389
33395
33414
33372
33384
33402
33379
33366
33369
33359
33348
33346
33335
33302
33336
33299
33311
33322
33307
33293
33330
33304
33338
33352
33299
33325
33328
33354
33347
33356
33366
33387
33393
33389
33397
33430
33444
33452
33459
33491
33479
33487
33543
33519
33541
33514
33567
33577
33572
33603
33633
33622
33642
33668
33667
33687
33704
33716
33747
33735
33751
33798
33780
33822
33825
33811
33816
33859
33833
33834
33838
33832
33807
33811
33790
33782
33790
33808
33758
33735
33751
33711
33730
33697
33683
33693
33679
33669
33667
33694
33691
33686
33670
33658
33664
33670
33661
33671
33645
33661
33652
33664
33626
33633
33654
33663
33647
33616
33627
33617
33626
33643
33635
33610
33640
33600
33574
33608
33587
33584
33620
33588
33587
33591
33586
33588
33572
33545
33552
33561
33557
33569
33543
33567
33553
33537
33556
33549
33542
33525
33519
33519
33509
33488
33490
33485
33479
33458
33488
33474
33462
33474
33477
33461
33470
33450
33438
33438
33467
33466
33452
33454
33456
33455
33456
33439
33436
33432
33435
33464
33422
33450
33435
33410
33427
33403
33427
33405
33416
33424
33405
33394
33399
33416
33417
33396
33426
33406
33419
33451
33422
33408
33440
33448
33456
33460
33469
33490
33471
33493
33484
33494
33521
33514
33558
33528
33552
33566
33569
33587
33612
33627
33651
33640
33652
33698
33721
33685
33720
33759
33764
33811
33784
33804
33818
33791
33796
33784
33798
33800
33774
33790
33772
33775
33806
33747
33742
33752
33740
33718
33731
33735
33744
33715
33715
33710
33714
33697
33714
33706
33642
33702
33695
33665
33685
33668
33658
33678
33688
33678
33651
33633
33645
33646
33638
33625
33612
33646
33620
33614
33612
33556
33643
33611
33603
33561
33555
33558
33548
33535
33540
33537
33547
33531
33512
33523
33512
33518
33514
33499
33504
33503
33497
33475
33492
33485
33467
33481
33448
33498
33448
33471
33447
33452
33448
33445
33410
33434
33433
33406
33442
33442
33435
33415
33431
33403
33417
33406
33392
33393
33414
33396
33405
33392
33393
33401
33403
33394
33368
33419
33372
33351
33356
33334
33388
33335
33360
33366
33362
33388
33370
33367
33387
33380
33360
33391
33383
33363
33410
33397
33405
33399
33416
33448
33442
33464
33482
33496
33496
33524
33527
33550
33548
33562
33590
33597
33609
33588
33619
33647
33643
33654
33690
33719
33719
33730
33745
33770
33757
33770
33771
33837
33791
33819
33794
33814
33808
33810
33787
33772
33794
33772
33770
33780
33758
33775
33745
33718
33780
33762
33735
33743
33727
33724
33732
33730
33723
33710
33722
33718
33699
33703
33699
33671
33673
33688
33648
33670
33684
33649
33663
33635
33648
33638
33650
33637
33637
33640
33638
33624
33625
33632
33587
33599
33598
33625
33608
33606
33603
33593
33588
33559
33569
33575
33584
33583
33615
33571
33561
33560
33554
33546
33547
33535
33540
33532
33504
33531
33524
33490
33523
33495
33484
33502
33469
33483
33465
33466
33484
33459
33483
33480
33494
33467
33454
33469
33472
33464
33473
33488
33471
33482
33465
33471
33454
33425
33437
33449
33427
33448
33453
33453
33425
33416
33445
33418
33415
33408
33453
33441
33428
33415
33469
33454
33441
33459
33456
33471
33495
33471
33496
33514
33518
33516
33545
33550
33539
33558
33593
33592
33616
33627
33653
33662
33703
33672
33697
33731
33727
33709
33736
33772
33771
33775
33790
33821
33834
33836
33895
33866
33868
33877
33885
33877
33866
33843
33838
33848
33846
33842
33824
33789
33815
33808
33771
33789
33803
33782
33781
33794
33805
33783
33785
33758
33746
33774
33765
33755
33760
33738
33745
33748
33730
33719
33726
33733
33731
33723
33718
33707
33714
33709
33694
33701
33701
33691
33670
33705
33672
33655
33656
33660
33652
33683
33648
33635
33657
33617
33614
33634
33606
33608
33608
33628
33585
33576
33575
33567
33587
33577
33537
33575
33554
33559
33529
33548
33546
33531
33548
33523
33528
33582
33531
33508
33526
33518
33534
33505
33495
33494
33506
33505
33479
33478
33502
33498
33511
33493
33501
33499
33478
33488
33513
33485
33477
33451
33476
33465
33474
33468
33470
33492
33479
33491
33465
33492
33457
33492
33487
33506
33511
33525
33545
33528
33542
33551
33555
33562
33590
33591
33598
33600
33614
33632
33654
33655
33694
33686
33688
33705
33728
33729
33742
33720
33760
33803
33777
33847
33858
33840
33880
33892
33886
33920
33896
33916
33894
33904
33881
33937
33874
33873
33896
33863
33861
33878
33859
33853
33857
33856
33832
33825
33818
33820
33824
33824
33801
33803
33812
33809
33795
33779
33787
33792
33765
33799
33760
33780
33741
33784
33748
33755
33769
33732
33757
33728
33756
33762
33759
33767
33725
33720
33748
33730
33756
33697
33715
33691
33698
33710
33700
33689
33739
33685
33686
33680
33699
33673
33660
33651
33648
33648
33617
33645
33633
33626
33628
33674
33617
33617
33614
33607
33658
33626
33609
33586
33620
33624
33586
33581
33598
33587
33598
33601
33585
33592
33584
33591
33566
33581
33592
33583
33571
33599
33573
33573
33572
33577
33549
33548
33536
33519
33547
33527
33520
33544
33556
33531
33548
33556
33523
33566
33583
33562
33595
33596
33606
33606
33649
33632
33615
33644
33669
33668
33690
33690
33701
33715
33735
33750
33749
33776
33796
33787
33809
33815
33849
33866
33884
33895
33891
33959
33919
33925
33955
33980
34007
34001
33992
34022
34058
34016
34001
34022
34018
34003
33999
33987
34002
34011
33993
33992
33998
33985
33990
33985
33972
33961
33956
33964
33960
33968
33963
33934
33942
33949
33914
33933
33916
33912
33918
33875
33911
33916
33889
33872
33876
33850
33890
33862
33875
33857
33851
33823
33857
33849
33813
33840
33828
33814
33823
33815
33790
33828
33827
33785
33794
33769
33791
33778
33783
33758
33760
33750
33762
33739
33760
33717
33720
33763
33723
33704
33722
33716
33689
33705
33722
33676
33693
33669
33676
33669
33717
33684
33701
33686
33657
33646
33640
33645
33667
33646
33667
33646
33647
33627
33648
33627
33668
33640
33640
33625
33656
33651
33659
33610
33649
33643
33637
33618
33596
33640
33591
33608
33575
33583
33596
33579
33575
33614
33583
33576
33587
33582
33576
33575
33574
33590
33576
33573
33574
33605
33600
33617
33612
33668
33657
33641
33672
33684
33688
33683
33707
33704
33752
33731
33760
33782
33794
33798
33829
33830
33845
33876
33859
33896
33880
33890
33880
33897
33855
33835
33858
33875
33834
33845
33808
33815
33807
33779
33769
33787
33764
33772
33746
33783
33769
33748
33733
33762
33751
33724
33743
33727
33716
33730
33688
33708
33701
33685
33684
33663
33685
33677
33674
33664
33638
33666
33636
33629
33649
33596
33607
33619
33611
33632
33601
33595
33605
33573
33598
33582
33581
33600
33588
33569
33588
33595
33595
33605
33616
33579
33631
33572
33592
33610
33570
33596
33586
33578
33598
33593
33549
33578
33585
33558
33576
33551
33558
33564
33555
33586
33573
33584
33584
33578
33564
33548
33556
33568
33534
33570
33574
33520
33552
33555
33550
33518
33543
33540
33518
33549
33566
33538
33542
33555
33543
33538
33565
33542
33539
33543
33560
33561
33559
33555
33581
33576
33585
33570
33614
33622
33608
33617
33648
33647
33641
33661
33684
33707
33723
33748
33761
33745
33788
33790
33800
33837
33824
33858
33880
33899
33925
33908
33944
33954
33930
33955
33941
33960
33921
33932
33936
33911
33939
33923
33940
33938
33909
33904
33895
33924
33922
33922
33886
33901
33913
33878
33865
33861
33880
33832
33867
33843
33864
33845
33856
33894
33862
33833
33834
33838
33841
33824
33817
33818
33825
33772
33782
33795
33789
33769
33755
33768
33742
33783
33779
33752
33773
33763
33733
33743
33767
33740
33750
33731
33711
33740
33696
33711
33729
33716
33691
33672
33689
33643
33680
33673
33661
33645
33651
33653
33655
33642
33650
33627
33617
33638
33629
33617
33601
33596
33612
33611
33598
33619
33594
33591
33593
33597
33592
33595
33565
33582
33617
33596
33596
33584
33571
33584
33572
33587
33568
33551
33572
33572
33563
33546
33529
33514
33548
33539
33529
33555
33548
33526
33529
33552
33542
33557
33574
33579
33564
33546
33608
33598
33612
33582
33624
33649
33633
33663
33673
33691
33695
33683
33708
33717
33702
33731
33767
33789
33758
33778
33801
33794
33838
33857
33876
33860
33902
33900
33898
33891
33871
33909
33876
33878
33883
33897
33880
33866
33864
33871
33851
33847
33863
33843
33833
33846
33846
33812
33810
33815
33824
33822
33790
33805
33772
33783
33799
33781
33782
33759
33746
33766
33793
33752
33743
33777
33747
33745
33757
33729
33749
33735
33721
33718
33732
33697
33724
33715
33735
33727
33720
33667
33691
33679
33649
33656
33667
33670
33640
33632
33626
33646
33623
33604
33632
33609
33606
33630
33603
33603
33611
33627
33619
33592
33585
33589
33576
33589
33563
33582
33542
33552
33551
33557
33574
33538
33534
33535
33554
33553
33518
33545
33559
33512
33515
33516
33515
33525
33534
33514
33521
33489
33510
33501
33458
33501
33486
33441
33469
33460
33468
33442
33467
33460
33490
33453
33485
33474
33473
33494
33489
33500
33475
33479
33500
33507
33497
33523
33520
33542
33575
33567
33574
33607
33604
33596
33637
33627
33639
33628
33678
33675
33702
33705
33735
33728
33748
33780
33768
33785
33804
33809
33826
33818
33857
33838
33831
33820
33834
33816
33805
33824
33784
33794
33784
33748
33728
33767
33747
33757
33754
33762
33725
33745
33728
33733
33721
33723
33739
33708
33733
33699
33680
33690
33698
33648
33695
33648
33643
33646
33630
33645
33633
33638
33615
33648
33627
33615
33644
33632
33610
33613
33600
33582
33602
33570
33594
33547
33563
33574
33565
33533
33560
33552
33550
33509
33537
33519
33503
33487
33495
33505
33480
33468
33474
33452
33474
33459
33472
33473
33465
33478
33457
33440
33411
33433
33439
33429
33419
33408
33388
33394
33427
33399
33387
33414
33419
33380
33405
33394
33397
33404
33380
33379
33358
33362
33366
33364
33364
33349
33332
33329
33335
33332
33331
33305
33310
33318
33334
33313
33355
33368
33303
33333
33360
33360
33366
33369
33385
33390
33408
33416
33422
33414
33433
33443
33495
33489
33495
33494
33511
33539
33514
33549
33581
33603
33573
33603
33629
33658
33634
33686
33692
33702
33750
33743
33762
33745
33767
33774
33794
33816
33784
33777
33795
33786
33759
33801
33776
33766
33796
33777
33771
33764
33762
33750
33729
33741
33728
33754
33740
33726
33728
33705
33697
33707
33719
33726
33709
33669
33685
33670
33635
33666
33678
33654
33663
33632
33628
33647
33611
33620
33600
33575
33580
33595
33603
33585
33593
33569
33548
33548
33557
33539
33564
33550
33523
33521
33519
33526
33485
33500
33513
33507
33501
33508
33483
33503
33517
33506
33516
33472
33502
33479
33480
33469
33480
33461
33485
33468
33452
33454
33484
33492
33433
33484
33464
33453
33458
33480
33451
33442
33449
33477
33452
33445
33434
33460
33449
33462
33451
33433
33448
33468
33448
33424
33441
33450
33399
33472
33431
33442
33446
33428
33428
33441
33462
33450
33473
33494
33468
33497
33515
33522
33529
33522
33570
33551
33572
33576
33605
33601
33608
33637
33629
33652
33662
33669
33681
33710
33722
33719
33763
33772
33776
33820
33832
33797
33823
33826
33837
33853
33856
33848
33841
33819
33837
33810
33820
33799
33808
33806
33785
33789
33788
33752
33785
33761
33739
33771
33782
33759
33749
33760
33761
33757
33741
33749
33732
33729
33729
33769
33742
33717
33713
33718
33711
33701
33702
33696
33727
33695
33698
33660
33700
33698
33686
33645
33662
33668
33630
33693
33656
33669
33688
33647
33661
33637
33648
33607
33626
33626
33623
33633
33616
33641
33616
33614
33612
33592
33634
33597
33604
33618
33596
33575
33583
33601
33565
33614
33598
33605
33623
33596
33573
33584
33574
33585
33560
33555
33578
33558
33555
33575
33556
33596
33582
33591
33560
33587
33566
33556
33562
33547
33526
33553
33529
33542
33552
33549
33541
33544
33553
33566
33551
33552
33569
33592
33575
33573
33582
33593
33632
33606
33619
33615
33630
33624
33657
33668
33653
33698
33695
33695
33736
33746
33764
33778
33792
33774
33824
33810
33799
33825
33872
33873
33876
33918
33910
33930
33956
33961
33958
33956
33955
33960
33963
33925
33953
33943
33953
33955
33936
33927
33917
33902
33921
33907
33907
33899
33914
33881
33909
33878
33885
33884
33876
33887
33863
33876
33841
33901
33848
33856
33853
33845
33849
33871
33834
33869
33826
33808
33800
33820
33815
33792
33795
33817
33790
33778
33792
33801
33751
33765
33765
33786
33738
33749
33728
33735
33743
33759
33731
33724
33730
33721
33728
33712
33713
33709
33718
33696
33692
33709
33660
33673
33691
33671
33659
33676
33663
33653
33671
33648
33624
33665
33659
33634
33641
33657
33644
33651
33670
33654
33653
33651
33650
33662
33627
33668
33625
33626
33632
33642
33582
33597
33638
33615
33576
33626
33571
33584
33586
33585
33644
33632
33603
33615
33612
33595
33639
33603
33613
33675
33642
33656
33636
33652
33667
33679
33670
33700
33673
33696
33741
33712
33736
33735
33729
33771
33776
33772
33784
33823
33813
33843
33840
33870
33883
33884
33892
33923
33916
33952
33916
33934
33952
33925
33932
33928
33914
33934
33916
33888
33909
33946
33899
33900
33901
33900
33865
33856
33868
33867
33872
33854
33818
33831
33837
33832
33856
33849
33816
33832
33819
33801
33798
33796
33805
33797
33806
33790
33771
33796
33764
33761
33781
33774
33760
33748
33767
33753
33755
33729
33723
33728
33738
33693
33727
33709
33703
33686
33731
33686
33701
33715
33671
33677
33700
33677
33671
33638
33624
33625
33648
33631
33614
33627
33606
33607
33648
33599
33614
33569
33599
33582
33596
33596
33582
33567
33571
33568
33562
33558
33539
33581
33540
33566
33528
33561
33552
33512
33529
33535
33515
33539
33512
33524
33473
33501
33481
33477
33481
33502
33495
33472
33454
33464
33473
33458
33470
33479
33455
33438
33430
33485
33475
33473
33466
33512
33482
33488
33490
33500
33523
33514
33512
33533
33525
33530
33581
33583
33567
33610
33594
33611
33627
33627
33638
33670
33685
33690
33713
33704
33690
33738
33756
33783
33786
33826
33817
33826
33816
33829
33843
33812
33848
33827
33832
33816
33817
33832
33798
33810
33782
33808
33796
33787
33764
33766
33737
33762
33770
33742
33740
33751
33720
33738
33723
33715
33701
33728
33716
33699
33700
33696
33677
33677
33669
33656
33668
33633
33697
33657
33662
33623
33642
33634
33622
33636
33618
33610
33615
33609
33610
33574
33579
33585
33588
33597
33581
33587
33586
33563
33595
33557
33547
33568
33559
33539
33535
33548
33522
33514
33536
33496
33490
33482
33490
33507
33491
33449
33444
33469
33449
33458
33460
33465
33459
33461
33465
33462
33453
33457
33449
33420
33463
33440
33438
33443
33438
33451
33441
33420
33447
33416
33395
33416
33394
33383
33422
33390
33391
33401
33378
33406
33391
33405
33423
33389
33379
33387
33376
33374
33390
33356
33398
33404
33414
33405
33426
33435
33406
33446
33480
33464
33489
33509
33497
33502
33548
33534
33547
33541
33584
33548
33603
33608
33612
33648
33626
33655
33661
33718
33718
33722
33743
33764
33765
33779
33775
33778
33802
33828
33792
33804
33797
33765
33783
33757
33732
33756
33750
33712
33784
33723
33733
33753
33751
33725
33744
33725
33709
33707
33719
33710
33682
33672
33685
33711
33688
33684
33684
33692
33654
33669
33641
33632
33635
33623
33628
33584
33596
33590
33621
33585
33586
33541
33556
33544
33558
33549
33517
33524
33559
33508
33519
33514
33525
33473
33490
33481
33461
33474
33463
33452
33444
33450
33453
33442
33426
33426
33409
33401
33378
33387
33388
33395
33395
33374
33361
33349
33362
33374
33354
33344
33353
33347
33324
33319
33304
33323
33325
33314
33293
33338
33284
33307
33304
33292
33320
33307
33276
33292
33266
33267
33261
33290
33263
33251
33253
33235
33244
33235
33247
33230
33240
33228
33246
33223
33254
33205
33263
33259
33246
33272
33270
33296
33286
33279
33322
33324
33334
33348
33352
33350
33371
33401
33412
33410
33424
33471
33470
33471
33492
33490
33514
33528
33541
33543
33591
33588
33618
33605
33648
33649
33687
33710
33713
33716
33719
33759
33755
33765
33750
33754
33788
33764
33752
33746
33728
33730
33740
33736
33719
33737
33724
33708
33695
33707
33687
33676
33705
33691
33714
33680
33667
33650
33705
33637
33665
33670
33645
33666
33640
33656
33632
33617
33647
33637
33634
33603
33610
33616
33616
33585
33591
33614
33584
33578
33600
33587
33545
33548
33555
33549
33518
33537
33521
33516
33518
33525
33533
33495
33526
33532
33501
33504
33505
33524
33531
33514
33510
33503
33508
33484
33487
33485
33496
33471
33468
33472
33500
33495
33470
33474
33471
33462
33480
33452
33473
33463
33453
33456
33469
33468
33452
33460
33495
33482
33479
33455
33442
33463
33470
33468
33475
33452
33435
33424
33450
33466
33449
33415
33455
33449
33438
33439
33425
33411
33433
33440
33444
33411
33462
33472
33453
33463
33492
33477
33483
33534
33526
33541
33571
33581
33576
33605
33612
33635
33634
33660
33673
33679
33671
33727
33732
33738
33757
33784
33785
33807
33800
33830
33834
33842
33877
33889
33872
33889
33889
33950
33920
33887
33876
33930
33902
33915
33915
33877
33879
33875
33914
33878
33857
33845
33883
33876
33815
33839
33845
33818
33842
33818
33817
33820
33790
33798
33789
33784
33772
33773
33766
33766
33754
33755
33743
33754
33770
33754
33746
33727
33731
33720
33735
33709
33711
33700
33704
33706
33663
33693
33688
33678
33681
33678
33674
33701
33664
33665
33656
33630
33648
33650
33630
33627
33646
33595
33612
33598
33574
33596
33568
33581
33578
33598
33589
33572
33589
33581
33584
33584
33603
33585
33558
33581
33574
33549
33538
33571
33567
33587
33587
33571
33565
33523
33556
33583
33542
33555
33546
33555
33540
33529
33564
33531
33499
33529
33522
33553
33534
33560
33540
33558
33523
33545
33586
33578
33569
33578
33603
33591
33598
33638
33604
33635
33644
33635
33660
33681
33696
33695
33697
33716
33731
33752
33741
33761
33797
33814
33807
33824
33842
33872
33900
33923
33905
33914
33907
33951
33956
33969
33960
33964
33987
33965
33972
33937
33943
33972
33939
33961
33964
33904
33925
33934
33929
33922
33935
33907
33913
33884
33886
33880
33895
33857
33890
33854
33875
33899
33839
33828
33850
33855
33845
33829
33851
33819
33805
33817
33804
33804
33811
33808
33783
33789
33783
33792
33772
33756
33764
33759
33767
33778
33738
33736
33726
33736
33719
33734
33718
33732
33731
33727
33725
33707
33705
33717
33692
33673
33671
33688
33663
33705
33656
33636
33652
33652
33658
33667
33682
33665
33695
33644
33659
33667
33665
33646
33623
33616
33648
33635
33631
33648
33646
33666
33641
33648
33643
33637
33628
33632
33648
33639
33656
33643
33632
33626
33615
33621
33617
33618
33638
33644
33637
33622
33629
33607
33625
33626
33639
33645
33665
33648
33671
33628
33688
33691
33652
33683
33746
33717
33737
33758
33757
33743
33750
33765
33803
33786
33824
33825
33842
33851
33841
33870
33913
33903
33930
33958
33995
33996
34005
33990
34023
34017
34021
34043
34066
34058
34036
34063
34009
34046
34027
34028
34053
34041
34025
34027
34016
34000
34026
33975
34020
34027
33970
34013
33984
33993
33947
33976
33978
33961
33972
33986
33930
33981
33951
33931
33948
33933
33943
33915
33927
33932
33905
33884
33910
33893
33869
33867
33905
33874
33888
33862
33848
33833
33860
33858
33863
33863
33856
33818
33851
33834
33795
33846
33805
33808
33766
33777
33797
33760
33800
33771
33774
33763
33764
33779
33781
33762
33774
33734
33736
33752
33754
33757
33754
33748
33736
33698
33701
33717
33724
33715
33742
33722
33729
33734
33743
33706
33693
33724
33695
33715
33708
33705
33681
33695
33668
33677
33679
33688
33676
33704
33666
33688
33673
33676
33649
33660
33645
33650
33657
33644
33676
33655
33668
33628
33685
33693
33659
33681
33705
33701
33715
33724
33759
33763
33780
33770
33772
33798
33824
33808
33779
33810
33842
33833
33821
33864
33873
33899
33906
33893
33927
33932
33919
33979
33951
33982
33994
33984
34002
34015
34013
34049
34022
34023
34009
33988
33980
33986
33987
33951
33966
33964
33980
33967
33968
33964
33968
33940
33986
33949
33944
33927
33946
33925
33928
33915
33910
33914
33931
33881
33892
33927
33897
33906
33910
33884
33903
33882
33873
33880
33862
33862
33857
33856
33870
33846
33860
33848
33850
33819
33793
33808
33815
33763
33802
33791
33768
33781
33793
33765
33775
33770
33759
33745
33764
33750
33741
33728
33739
33733
33726
33716
33734
33723
33700
33718
33678
33682
33704
33670
33681
33680
33693
33695
33674
33684
33653
33664
33643
33654
33645
33655
33654
33618
33623
33649
33624
33641
33645
33621
33627
33629
33616
33622
33619
33611
33627
33598
33610
33588
33618
33591
33630
33604
33629
33608
33620
33644
33632
33651
33634
33668
33650
33700
33675
33688
33696
33687
33719
33727
33706
33748
33767
33734
33761
33778
33775
33814
33843
33830
33823
33859
33872
33864
33877
33900
33936
33925
33913
33947
33958
33961
33948
33983
33997
33996
33963
33947
33976
33969
33948
33929
33902
33920
33928
33907
33933
33932
33909
33900
33900
33856
33891
33872
33861
33858
33886
33865
33835
33846
33857
33845
33828
33839
33840
33819
33815
33813
33816
33793
33808
33813
33789
33790
33811
33805
33790
33795
33753
33773
33766
33779
33775
33764
33757
33733
33716
33758
33755
33714
33716
33770
33727
33709
33719
33703
33688
33675
33683
33695
33668
33654
33679
33670
33676
33681
33683
33661
33681
33675
33692
33652
33642
33666
33655
33681
33647
33650
33630
33642
33627
33616
33644
33620
33664
33614
33626
33605
33588
33601
33598
33622
33598
33586
33598
33603
33581
33572
33582
33568
33557
33558
33548
33563
33566
33595
33557
33569
33578
33590
33581
33577
33577
33575
33596
33591
33610
33593
33614
33631
33627
33611
33671
33683
33681
33681
33704
33697
33716
33727
33724
33760
33781
33797
33784
33809
33813
33859
33812
33850
33889
33875
33915
33926
33924
33925
33973
33962
33950
33980
33976
33961
33955
33967
33948
33942
33937
33932
33966
33934
33914
33948
33942
33927
33903
33925
33907
33912
33885
33901
33907
33900
33893
33888
33896
33889
33872
33872
33845
33856
33855
33848
33844
33839
33815
33846
33840
33818
33811
33791
33808
33803
33822
33810
33797
33795
33783
33787
33776
33769
33789
33741
33759
33740
33756
33749
33722
33719
33720
33727
33719
33729
33722
33733
33763
33762
33713
33712
33683
33697
33689
33685
33661
33652
33695
33688
33674
33663
33675
33640
33651
33647
33630
33638
33608
33626
33645
33609
33650
33623
33587
33604
33619
33578
33590
33608
33606
33592
33588
33605
33581
33617
33587
33589
33583
33586
33608
33583
33603
33569
33586
33587
33580
33543
33579
33615
33601
33600
33579
33636
33626
33624
33642
33614
33637
33675
33667
33669
33694
33696
33682
33693
33723
33719
33723
33765
33733
33766
33774
33781
33782
33776
33785
33813
33861
33856
33891
33883
33871
33880
33895
33894
33905
33927
33936
33910
33949
33925
33906
33908
33875
33938
33901
33891
33911
33875
33873
33869
33851
33866
33853
33856
33824
33852
33862
33818
33806
33836
33825
33817
33833
33843
33832
33819
33817
33838
33807
33802
33823
33797
33781
33785
33799
33764
33800
33775
33775
33757
33759
33730
33770
33736
33715
33732
33723
33752
33717
33730
33718
33704
33694
33687
33694
33672
33682
33708
33654
33631
33703
33681
33668
33673
33664
33615
33630
33610
33625
33647
33641
33655
33610
33639
33614
33647
33618
33602
33616
33598
33616
33588
33582
33603
33626
33596
33603
33625
33611
33589
33605
33589
33578
33595
33585
33552
33550
33547
33557
33552
33540
33544
33552
33520
33539
33558
33544
33544
33590
33555
33569
33556
33584
33572
33602
33622
33599
33605
33646
33630
33620
33635
33648
33651
33671
33674
33680
33669
33686
33711
33708
33705
33751
33725
33769
33762
33798
33796
33818
33804
33815
33833
33852
33842
33844
33842
33851
33839
33845
33846
33857
33837
33820
33839
33844
33824
33812
33827
33817
33810
33823
33798
33793
33772
33779
33788
33771
33778
33771
33758
33770
33765
33756
33708
33767
33740
33723
33742
33750
33722
33732
33731
33758
33715
33742
33728
33726
33740
33730
33726
33721
33718
33727
33733
33676
33736
33683
33700
33684
33714
33720
33695
33689
33688
33674
33688
33658
33695
33627
33678
33674
33646
33676
33654
33644
33661
33645
33619
33625
33655
33645
33613
33629
33605
33608
33622
33642
33605
33618
33570
33590
33590
33580
33605
33587
33606
33616
33585
33593
33589
33580
33591
33558
33551
33605
33599
33603
33569
33590
33562
33566
33575
33563
33548
33608
33585
33585
33581
33589
33592
33580
33605
33594
33590
33614
33604
33647
33624
33648
33626
33659
33668
33681
33663
33687
33723
33678
33693
33743
33771
33762
33761
33763
33802
33779
33807
33821
33808
33837
33862
33875
33862
33890
33898
33926
33893
33928
33968
33966
33955
33959
33970
33971
33976
33987
33941
33950
33965
33944
33917
33903
33942
33941
33915
33915
33933
33922
33898
33893
33899
33896
33886
33882
33877
33880
33862
33879
33853
33855
33824
33853
33833
33820
33829
33838
33819
33819
33822
33784
33806
33806
33806
33794
33804
33796
33798
33794
33786
33755
33773
33741
33754
33785
33760
33741
33742
33732
33739
33726
33723
33708
33700
33685
33684
33688
33678
33679
33690
33661
33661
33657
33649
33642
33633
33651
33626
33661
33627
33637
33619
33613
33621
33621
33599
33588
33634
33596
33601
33575
33602
33631
33606
33627
33613
33620
33600
33591
33613
33595
33599
33618
33588
33591
33596
33588
33574
33603
33597
33583
33565
33575
33600
33603
33585
33607
33623
33586
33618
33625
33632
33651
33651
33676
33690
33703
33652
33727
33679
33720
33719
33715
33717
33758
33782
33766
33780
33797
33796
33795
33797
33842
33823
33834
33874
33894
33907
33912
33926
33923
33921
33930
33933
33952
33947
33955
33955
33925
33927
33940
33928
33934
33944
33930
33932
33917
33896
33881
33901
33896
33878
33917
33920
33889
33887
33867
33860
33854
33878
33866
33861
33852
33853
33867
33846
33832
33876
33826
33832
33812
33828
33814
33826
33799
33797
33816
33795
33776
33769
33763
33769
33772
33758
33743
33716
33718
33726
33742
33729
33749
33726
33732
33714
33691
33723
33697
33680
33703
33671
33670
33703
33701
33657
33674
33674
33645
33644
33644
33666
33619
33658
33658
33630
33636
33621
33635
33649
33627
33600
33635
33618
33618
33622
33639
33649
33611
33602
33637
33609
33603
33582
33622
33602
33598
33640
33610
33601
33635
33629
33617
33603
33626
33604
33611
33603
33617
33612
33647
33634
33640
33649
33650
33654
33627
33640
33676
33683
33693
33704
33730
33714
33752
33723
33730
33758
33751
33788
33773
33761
33783
33776
33839
33864
33860
33879
33870
33883
33889
33912
33921
33920
33934
33934
33965
33962
33958
33978
33988
33993
33998
33993
33992
33979
33964
33968
33921
33947
33940
33941
33917
33924
33903
33917
33881
33930
33860
33895
33881
33866
33870
33857
33857
33831
33818
33849
33866
33827
33806
33817
33841
33818
33830
33820
33773
33808
33790
33787
33788
33817
33799
33751
33812
33779
33733
33763
33789
33768
33748
33739
33739
33712
33732
33712
33713
33719
33730
33717
33725
33703
33733
33684
33715
33697
33698
33679
33679
33684
33718
33691
33672
33660
33640
33661
33651
33662
33671
33652
33627
33640
33660
33641
33652
33650
33608
33608
33601
33615
33618
33619
33642
33595
33608
33621
33616
33597
33617
33637
33601
33567
33566
33596
33571
33571
33599
33581
33600
33569
33590
33575
33600
33584
33582
33590
33586
33580
33612
33618
33653
33610
33620
33617
33637
33662
33688
33687
33726
33696
33704
33732
33732
33737
33741
33757
33762
33791
33793
33784
33846
33823
33817
33848
33868
33865
33854
33879
33871
33894
33913
33936
33927
33959
33940
33965
33974
33953
33937
33962
33954
33924
33925
33934
33914
33908
33942
33916
33879
33892
33920
33894
33878
33856
33893
33878
33880
33839
33851
33837
33837
33847
33847
33830
33793
33826
33813
33811
33804
33814
33808
33787
33777
33766
33779
33786
33751
33778
33759
33774
33746
33767
33740
33744
33725
33723
33721
33722
33731
33746
33726
33710
33698
33680
33687
33722
33709
33687
33660
33661
33666
33699
33651
33638
33662
33667
33636
33617
33636
33659
33643
33596
33643
33633
33629
33641
33636
33622
33608
33607
33608
33615
33610
33594
33584
33612
33633
33598
33607
33642
33615
33611
33592
33606
33615
33582
33589
33604
33592
33575
33589
33576
33576
33600
33583
33574
33567
33627
33646
33620
33599
33637
33607
33622
33627
33654
33670
33634
33675
33666
33673
33683
33698
33716
33716
33703
33737
33758
33765
33748
33776
33799
33783
33820
33834
33840
33850
33857
33837
33858
33907
33889
33923
33936
33949
33956
33943
33954
33969
33937
33945
33932
33939
33912
33949
33928
33899
33908
33896
33912
33891
33880
33896
33883
33884
33875
33879
33863
33862
33880
33840
33853
33843
33835
33859
33834
33816
33834
33837
33808
33829
33813
33780
33797
33777
33789
33802
33794
33777
33746
33742
33774
33771
33723
33751
33738
33714
33735
33707
33712
33718
33681
33719
33691
33630
33641
33683
33692
33680
33672
33642
33625
33652
33664
33638
33634
33609
33653
33611
33612
33601
33599
33600
33616
33600
33596
33577
33571
33572
33566
33568
33558
33552
33565
33544
33518
33539
33527
33523
33523
33540
33546
33514
33550
33518
33490
33498
33517
33512
33541
33493
33498
33507
33515
33503
33514
33528
33518
33514
33534
33514
33532
33517
33543
33517
33560
33563
33558
33564
33570
33587
33559
33607
33602
33605
33642
33614
33660
33650
33631
33689
33699
33698
33706
33715
33735
33732
33732
33790
33785
33798
33802
33833
33868
33841
33842
33871
33890
33900
33897
33928
33897
33912
33947
33954
33933
33942
33900
33936
33912
33926
33897
33930
33855
33883
33896
33877
33881
33868
33868
33854
33843
33860
33852
33839
33842
33820
33847
33856
33845
33835
33808
33823
33787
33795
33806
33825
33814
33819
33766
33779
33790
33772
33785
33775
33744
33758
33766
33705
33727
33755
33704
33727
33726
33711
33703
33724
33686
33694
33688
33673
33694
33643
33641
33652
33652
33637
33630
33646
33621
33612
33621
33575
33621
33561
33618
33568
33575
33570
33566
33574
33560
33563
33563
33554
33543
33553
33542
33528
33549
33519
33532
33532
33534
33521
33495
33506
33530
33517
33476
33481
33495
33479
33494
33477
33499
33456
33443
33456
33469
33449
33464
33440
33477
33451
33456
33450
33432
33450
33433
33459
33470
33470
33490
33466
33480
33488
33530
33511
33516
33557
33536
33572
33557
33585
33620
33601
33626
33614
33636
33659
33672
33673
33701
33679
33706
33741
33758
33746
33784
33767
33809
33844
33862
33844
33868
33864
33888
33873
33883
33869
33872
33881
33891
33889
33898
33880
33860
33853
33864
33866
33837
33827
33839
33847
33814
33821
33817
33794
33778
33784
33795
33796
33789
33784
33798
33795
33776
33783
33768
33759
33737
33753
33729
33740
33736
33734
33734
33702
33734
33712
33700
33698
33699
33643
33666
33697
33650
33656
33660
33675
33648
33631
33650
33626
33646
33620
33635
33619
33619
33598
33558
33580
33562
33550
33547
33559
33554
33562
33558
33527
33524
33505
33480
33532
33508
33507
33499
33493
33467
33474
33473
33452
33483
33483
33435
33481
33476
33438
33474
33456
33441
33453
33455
33455
33444
33463
33443
33429
33460
33442
33426
33448
33441
33432
33398
33430
33436
33449
33408
33416
33415
33449
33432
33440
33460
33450
33437
33475
33477
33497
33501
33501
33524
33497
33532
33523
33546
33557
33570
33583
33611
33596
33631
33625
33638
33633
33647
33684
33691
33724
33698
33719
33748
33762
33758
33781
33783
33796
33802
33826
33793
33832
33847
33803
33803
33809
33793
33812
33790
33783
33775
33757
33761
33789
33760
33743
33754
33760
33738
33732
33747
33728
33717
33726
33707
33715
33690
33703
33700
33674
33717
33677
33654
33723
33666
33661
33645
33659
33666
33624
33608
33635
33644
33636
33597
33613
33602
33605
33603
33583
33602
33573
33554
33557
33590
33564
33540
33576
33550
33538
33554
33536
33556
33549
33511
33530
33517
33535
33504
33529
33482
33475
33474
33473
33462
33458
33459
33464
33449
33422
33419
33394
33387
33428
33405
33424
33425
33415
33421
33400
33388
33408
33428
33403
33434
33424
33403
33399
33430
33412
33419
33410
33410
33394
33372
33430
33412
33405
33398
33397
33394
33410
33385
33434
33380
33395
33425
33381
33428
33438
33434
33472
33425
33445
33479
33461
33512
33493
33522
33511
33505
33575
33563
33555
33604
33612
33606
33620
33650
33645
33678
33699
33692
33690
33723
33759
33760
33756
33808
33794
33823
33845
33840
33850
33822
33861
33846
33851
33844
33831
33831
33822
33792
33825
33853
33806
33795
33805
33801
33811
33826
33829
33788
33824
33793
33790
33789
33813
33783
33753
33780
33754
33739
33751
33757
33736
33744
33762
33715
33693
33715
33708
33720
33708
33691
33690
33693
33687
33701
33675
33656
33658
33664
33686
33662
33643
33654
33633
33654
33629
33626
33632
33666
33614
33624
33615
33596
33613
33576
33575
33596
33617
33602
33572
33560
33579
33581
33586
33607
33567
33580
33549
33561
33573
33547
33548
33553
33564
33553
33522
33554
33512
33539
33507
33537
33518
33534
33575
33524
33532
33507
33554
33510
33529
33530
33496
33525
33501
33510
33481
33505
33501
33518
33505
33490
33505
33503
33503
33500
33490
33540
33519
33536
33548
33545
33559
33581
33580
33598
33625
33615
33633
33630
33629
33647
33665
33656
33688
33701
33706
33732
33725
33719
33764
33782
33769
33807
33828
33838
33833
33816
33876
33901
33908
33900
33942
33919
33938
33966
33906
33934
33918
33890
33906
33898
33903
33885
33881
33884
33900
33887
33833
33857
33880
33833
33844
33827
33834
33852
33838
33825
33805
33820
33828
33833
33789
33783
33797
33782
33804
33808
33795
33789
33761
33786
33789
33752
33758
33737
33756
33731
33752
33751
33742
33760
33700
33725
33709
33711
33725
33716
33717
33743
33701
33702
33661
33703
33676
33681
33680
33659
33658
33665
33673
33684
33663
33657
33625
33673
33664
33658
33648
33631
33642
33630
33583
33643
33609
33602
33614
33627
33593
33617
33625
33609
33625
33661
33618
33636
33607
33624
33622
33618
33610
33624
33607
33615
33618
33601
33617
33620
33630
33627
33608
33620
33636
33632
33621
33658
33632
33642
33648
33645
33670
33665
33640
33684
33681
33691
33717
33690
33688
33675
33710
33725
33702
33743
33778
33760
33765
33779
33770
33773
33810
33775
33834
33840
33840
33891
33893
33901
33916
33952
33937
33942
33948
33940
33929
33921
33945
33943
33913
33945
33928
33952
33936
33939
33941
33920
33911
33910
33934
33931
33906
33942
33912
33891
33894
33862
33907
33860
33858
33878
33868
33863
33848
33874
33867
33842
33852
33809
33806
33825
33797
33810
33820
33790
33806
33808
33773
33779
33779
33775
33768
33754
33740
33762
33752
33739
33751
33733
33718
33706
33719
33706
33696
33703
33716
33685
33678
33688
33692
33665
33666
33647
33649
33652
33658
33673
33632
33653
33629
33610
33617
33639
33615
33656
33629
33621
33631
33596
33606
33617
33640
33593
33636
33609
33616
33627
33608
33625
33585
33601
33603
33596
33599
33582
33593
33605
33608
33617
33607
33589
33588
33597
33590
33595
33592
33585
33618
33599
33616
33596
33644
33645
33661
33651
33672
33666
33669
33674
33668
33714
33698
33709
33750
33732
33738
33764
33757
33792
33787
33796
33810
33810
33800
33837
33860
33844
33873
33890
33899
33902
33925
33946
33950
33951
33986
33984
33963
33971
33999
33990
34006
33986
33967
33989
33974
33981
33959
33972
33972
33954
33942
33959
33960
33917
33937
33926
33930
33918
33957
33901
33938
33904
33903
33892
33905
33890
33912
33895
33869
33856
33868
33876
33872
33881
33841
33858
33859
33832
33839
33844
33844
33819
33812
33835
33806
33801
33819
33812
33788
33788
33793
33746
33768
33779
33785
33737
33772
33763
33777
33737
33720
33737
33715
33723
33732
33698
33710
33695
33730
33720
33709
33704
33675
33690
33679
33700
33684
33675
33681
33694
33665
33672
33644
33680
33659
33646
33696
33700
33657
33667
33651
33651
33650
33648
33654
33633
33624
33669
33651
33625
33643
33641
33640
33614
33633
33639
33610
33610
33610
33612
33609
33623
33613
33629
33632
33632
33648
33672
33679
33678
33663
33695
33679
33722
33717
33691
33751
33742
33732
33759
33771
33790
33777
33799
33771
33826
33815
33828
33868
33866
33878
33896
33889
33906
33896
33914
33959
33936
34012
33955
33992
33995
34002
33999
34029
34022
33993
33987
34016
34000
33976
33997
33978
33985
33975
33995
33959
33935
33959
33992
33983
33937
33936
33927
33895
33902
33915
33937
33910
33916
33881
33891
33895
33879
33915
33875
33884
33861
33848
33839
33846
33818
33868
33805
33832
33845
33845
33829
33825
33835
33827
33830
33805
33805
33816
33803
33781
33803
33794
33786
33760
33754
33765
33764
33747
33782
33756
33723
33736
33758
33773
33764
33716
33729
33740
33719
33730
33729
33716
33704
33685
33657
33692
33693
33664
33668
33650
33657
33682
33669
33665
33669
33686
33673
33640
33634
33668
33659
33631
33652
33633
33655
33624
33621
33627
33588
33615
33637
33624
33617
33626
33611
33599
33584
33629
33633
33612
33606
33641
33612
33663
33647
33693
33650
33660
33668
33690
33646
33673
33699
33669
33700
33720
33753
33726
33723
33772
33755
33781
33756
33794
33821
33835
33855
33845
33839
33832
33859
33881
33876
33880
33921
33895
33925
33952
33937
33930
33951
33946
33949
33957
33927
33949
33926
33923
33927
33927
33922
33907
33878
33903
33900
33892
33901
33881
33869
33886
33850
33886
33851
33837
33840
33849
33852
33841
33838
33827
33825
33825
33811
33839
33811
33813
33802
33804
33812
33828
33791
33800
33792
33758
33772
33778
33763
33750
33753
33742
33762
33743
33733
33725
33760
33741
33729
33732
33692
33698
33696
33709
33720
33681
33724
33704
33679
33684
33668
33708
33669
33652
33660
33673
33645
33648
33633
33635
33633
33650
33642
33644
33601
33602
33658
33628
33631
33644
33624
33628
33645
33635
33640
33626
33605
33606
33588
33598
33585
33608
33594
33598
33588
33596
33567
33583
33593
33595
33582
33583
33586
33571
33595
33577
33585
33560
33592
33607
33600
33622
33640
33623
33656
33666
33644
33649
33682
33665
33682
33715
33709
33741
33718
33750
33748
33731
33765
33800
33761
33807
33849
33821
33819
33838
33849
33867
33875
33891
33907
33925
33904
33923
33951
33923
33923
33951
33953
33949
33932
33908
33912
33903
33932
33907
33925
33907
33892
33889
33916
33896
33874
33877
33871
33877
33873
33846
33870
33873
33841
33860
33847
33847
33884
33839
33824
33825
33805
33832
33798
33806
33810
33838
33796
33780
33791
33785
33769
33807
33768
33768
33774
33760
33750
33760
33723
33740
33708
33723
33726
33718
33694
33725
33698
33713
33704
33689
33686
33688
33703
33697
33661
33674
33657
33687
33662
33643
33649
33637
33634
33643
33639
33651
33632
33659
33628
33612
33615
33618
33581
33583
33606
33603
33578
33589
33589
33569
33601
33585
33592
33595
33576
33588
33561
33568
33571
33545
33597
33570
33574
33556
33580
33559
33567
33557
33553
33544
33576
33578
33576
33585
33588
33589
33575
33562
33584
33630
33609
33630
33633
33660
33656
33623
33694
33670
33675
33700
33723
33695
33717
33703
33745
33732
33750
33753
33788
33802
33793
33821
33823
33820
33854
33873
33876
33874
33857
33880
33913
33930
33905
33918
33912
33917
33914
33923
33900
33895
33856
33875
33865
33890
33871
33867
33817
33841
33888
33875
33838
33803
33803
33829
33838
33811
33809
33802
33799
33804
33783
33812
33816
33792
33772
33809
33774
33768
33780
33763
33764
33733
33759
33770
33739
33727
33717
33718
33725
33735
33742
33700
33713
33655
33686
33691
33700
33693
33682
33686
33690
33665
33651
33670
33678
33641
33633
33621
33657
33639
33645
33636
33633
33604
33588
33587
33599
33588
33584
33593
33579
33559
33567
33561
33560
33558
33560
33550
33554
33551
33544
33537
33548
33539
33552
33527
33560
33528
33539
33534
33544
33542
33518
33545
33543
33520
33502
33521
33523
33521
33521
33532
33542
33544
33525
33553
33552
33566
33546
33589
33559
33578
33566
33577
33611
33591
33646
33625
33635
33645
33677
33694
33661
33672
33682
33696
33717
33743
33749
33742
33731
33774
33789
33788
33804
33823
33790
33824
33832
33858
33838
33846
33831
33841
33831
33821
33802
33820
33786
33784
33808
33801
33776
33805
33762
33773
33733
33767
33752
33762
33749
33760
33740
33734
33720
33710
33687
33730
33733
33710
33713
33720
33673
33680
33664
33682
33686
33672
33678
33664
33677
33662
33646
33674
33648
33648
33624
33597
33634
33605
33593
33634
33595
33600
33595
33615
33607
33587
33609
33573
33586
33565
33573
33575
33554
33567
33529
33523
33549
33558
33518
33520
33495
33529
33537
33509
33516
33463
33478
33507
33490
33495
33496
33502
33471
33476
33530
33483
33471
33473
33465
33477
33472
33462
33455
33469
33467
33456
33466
33439
33476
33449
33443
33441
33441
33431
33451
33451
33446
33419
33427
33442
33445
33440
33460
33474
33441
33467
33457
33479
33463
33498
33518
33518
33530
33535
33527
33569
33554
33579
33622
33602
33573
33614
33621
33619
33611
33630
33649
33664
33657
33691
33726
33713
33790
33724
33753
33801
33809
33784
33800
33830
33828
33803
33821
33841
33848
33804
33841
33821
33808
33798
33827
33804
33764
33795
33785
33780
33785
33782
33746
33729
33757
33784
33746
33770
33732
33724
33726
33699
33732
33752
33737
33695
33735
33709
33701
33719
33699
33706
33708
33712
33699
33690
33654
33692
33682
33648
33667
33672
33631
33633
33654
33626
33654
33624
33647
33595
33636
33588
33600
33585
33607
33596
33596
33556
33563
33583
33574
33587
33548
33541
33526
33553
33525
33530
33540
33535
33518
33555
33522
33501
33518
33530
33527
33514
33512
33510
33520
33486
33500
33486
33506
33496
33505
33469
33486
33493
33489
33500
33505
33488
33462
33490
33484
33494
33465
33467
33472
33485
33470
33458
33477
33485
33497
33509
33493
33507
33500
33511
33529
33534
33546
33531
33530
33554
33571
33578
33582
33597
33600
33600
33613
33611
33640
33659
33639
33689
33681
33706
33712
33708
33715
33716
33755
33754
33768
33771
33810
33822
33828
33804
33849
33845
33834
33847
33810
33795
33817
33810
33787
33798
33806
33791
33795
33828
33775
33767
33791
33783
33758
33728
33758
33770
33728
33700
33734
33709
33724
33722
33704
33708
33728
33695
33679
33667
33722
33666
33668
33677
33699
33689
33684
33647
33656
33644
33651
33634
33627
33632
33628
33647
33613
33619
33595
33596
33555
33607
33579
33595
33577
33550
33580
33559
33569
33543
33546
33563
33531
33527
33576
33531
33523
33507
33505
33516
33487
33516
33529
33494
33476
33455
33497
33498
33468
33486
33474
33466
33489
33457
33475
33479
33450
33473
33465
33447
33441
33443
33451
33444
33448
33445
33429
33452
33447
33449
33459
33444
33458
33454
33477
33451
33457
33474
33485
33485
33468
33509
33493
33519
33542
33535
33526
33560
33566
33547
33554
33592
33573
33576
33576
33631
33598
33583
33605
33639
33630
33647
33651
33657
33689
33684
33687
33695
33687
33738
33708
33757
33732
33768
33754
33778
33766
33751
33747
33724
33684
33740
33697
33710
33705
33710
33672
33665
33682
33665
33674
33676
33643
33683
33653
33658
33637
33638
33644
33638
33630
33620
33598
33612
33613
33605
33603
33600
33614
33617
33597
33588
33582
33558
33586
33553
33550
33545
33540
33561
33569
33545
33535
33547
33496
33523
33541
33524
33508
33489
33488
33481
33464
33469
33460
33438
33438
33437
33463
33440
33409
33427
33408
33437
33387
33383
33392
33377
33377
33394
33371
33366
33369
33362
33343
33338
33339
33329
33336
33328
33335
33305
33336
33335
33326
33330
33321
33317
33337
33283
33313
33328
33291
33289
33310
33294
33298
33264
33272
33275
33288
33242
33305
33286
33271
33278
33316
33321
33326
33329
33321
33333
33363
33336
33336
33360
33363
33388
33361
33414
33408
33421
33432
33466
33460
33479
33470
33479
33483
33494
33498
33527
33556
33571
33576
33584
33567
33625
33605
33628
33645
33659
33644
33678
33671
33677
33692
33681
33697
33661
33650
33652
33659
33641
33671
33639
33644
33665
33633
33642
33604
33631
33617
33633
33615
33597
33614
33613
33598
33591
33582
33570
33558
33529
33571
33566
33572
33534
33534
33534
33533
33521
33546
33526
33532
33523
33536
33494
33485
33483
33482
33500
33484
33481
33468
33443
33462
33451
33451
33452
33461
33427
33426
33429
33417
33426
33413
33383
33404
33406
33405
33360
33372
33355
33335
33373
33369
33361
33341
33347
33349
33344
33354
33305
33324
33306
33286
33309
33300
33301
33299
33317
33292
33333
33282
33308
33276
33275
33302
33278
33293
33265
33279
33256
33265
33279
33256
33242
33252
33237
33246
33232
33236
33254
33245
33245
33267
33255
33251
33279
33276
33298
33272
33305
33318
33308
33328
33331
33335
33355
33338
33374
33408
33384
33408
33405
33428
33458
33429
33444
33449
33481
33474
33509
33510
33512
33520
33576
33578
33588
33600
33584
33588
33636
33632
33622
33622
33648
33649
33617
33650
33635
33645
33635
33658
33650
33596
33605
33592
33601
33587
33593
33601
33595
33554
33565
33572
33536
33547
33556
33531
33557
33561
33526
33543
33547
33515
33540
33557
33477
33553
33504
33490
33531
33519
33481
33464
33495
33442
33475
33445
33454
33456
33467
33450
33429
33427
33421
33415
33404
33397
33409
33439
33412
33416
33386
33382
33386
33363
33358
33373
33358
33354
33352
33332
33336
33341
33338
33324
33314
33306
33303
33307
33297
33292
33286
33284
33297
33276
33296
33265
33252
33283
33273
33247
33243
33274
33273
33258
33233
33251
33248
33237
33244
33242
33233
33208
33238
33227
33214
33198
33212
33238
33194
33213
33238
33246
33245
33245
33282
33251
33258
33290
33288
33284
33305
33319
33328
33333
33330
33333
33370
33344
33360
33369
33413
33425
33397
33419
33458
33464
33425
33440
33486
33503
33486
33509
33548
33567
33531
33566
33599
33565
33602
33628
33619
33601
33597
33591
33606
33569
33591
33587
33537
33576
33576
33556
33541
33572
33557
33545
33510
33538
33524
33540
33506
33535
33526
33511
33483
33492
33494
33492
33456
33496
33461
33483
33461
33463
33458
33433
33467
33453
33455
33396
33439
33411
33443
33401
33395
33382
33378
33390
33407
33386
33382
33384
33371
33356
33370
33372
33358
33326
33349
33340
33308
33310
33300
33303
33308
33300
33298
33265
33297
33261
33243
33266
33275
33257
33263
33244
33230
33235
33235
33210
33201
33240
33249
33239
33208
33238
33228
33222
33216
33239
33200
33226
33206
33184
33179
33199
33197
33165
33172
33206
33163
33159
33166
33161
33171
33187
33199
33165
33180
33169
33191
33159
33200
33189
33216
33212
33259
33245
33250
33257
33293
33281
33269
33300
33314
33338
33318
33344
33313
33342
33373
33377
33393
33407
33455
33461
33453
33498
33510
33474
33513
33521
33511
33528
33548
33591
33593
33612
33623
33622
33637
33643
33625
33593
33624
33621
33623
33605
33623
33606
33595
33580
33581
33595
33582
33550
33579
33565
33577
33564
33546
33552
33521
33516
33552
33540
33532
33548
33525
33542
33496
33505
33498
33504
33507
33522
33505
33483
33474
33466
33461
33465
33456
33431
33442
33462
33420
33419
33426
33427
33431
33457
33415
33399
33414
33360
33376
33393
33369
33384
33366
33361
33363
33345
33344
33354
33339
33350
33323
33315
33295
33316
33301
33290
33284
33296
33289
33307
33269
33269
33265
33262
33273
33291
33261
33267
33259
33259
33234
33236
33235
33223
33215
33260
33212
33229
33270
33226
33236
33225
33207
33219
33220
33188
33194
33210
33205
33189
33215
33196
33203
33202
33199
33210
33225
33267
33247
33263
33250
33274
33305
33283
33287
33306
33311
33321
33314
33345
33342
33384
33375
33391
33402
33380
33408
33406
33451
33447
33470
33490
33504
33509
33532
33546
33538
33584
33603
33592
33590
33624
33624
33624
33618
33597
33575
33594
33607
33573
33571
33596
33553
33587
33589
33568
33566
33549
33526
33554
33523
33513
33499
33536
33511
33543
33523
33499
33499
33489
33490
33487
33496
33511
33484
33478
33474
33475
33445
33439
33446
33448
33451
33415
33438
33431
33436
33422
33424
33399
33397
33419
33399
33377
33356
33375
33366
33380
33387
33382
33349
33360
33359
33357
33348
33323
33346
33310
33300
33336
33309
33309
33321
33289
33300
33297
33306
33309
33295
33282
33251
33258
33270
33289
33264
33262
33281
33282
33274
33258
33255
33308
33268
33255
33294
33242
33250
33257
33261
33252
33259
33240
33241
33220
33227
33226
33229
33242
33233
33245
33251
33259
33254
33275
33291
33278
33267
33284
33301
33314
33347
33317
33343
33338
33354
33371
33381
33387
33415
33414
33443
33425
33434
33451
