21925
21960
21982
21992
22007
22018
22021
22080
22083
22111
22153
22171
22207
22236
22285
22326
22364
22426
22460
22493
22568
22575
22643
22652
22711
22755
22761
22792
22839
22847
22882
22929
22964
22983
23003
23009
23029
23037
23027
23046
23073
23046
23053
23028
23041
22994
22993
22976
22963
22980
22945
22949
22956
22916
22918
22920
22891
22888
22883
22858
22839
22853
22838
22836
22839
22834
22794
22772
22797
22773
22778
22780
22750
22762
22737
22755
22738
22730
22736
22699
22690
22678
22707
22707
22669
22676
22660
22671
22685
22656
22632
22653
22653
22616
22587
22637
22561
22564
22547
22552
22513
22508
22494
22474
22455
22468
22451
22443
22435
22455
22426
22448
22448
22466
22423
22424
22417
22411
22413
22401
22417
22416
22439
22493
22493
22493
22518
22552
22590
22604
22603
22626
22645
22618
22663
22694
22707
22719
22750
22815
22799
22848
22857
22891
22930
22961
22972
23002
23028
23059
23088
23115
23116
23125
23127
23136
23134
23125
23131
23078
23070
23042
23028
22984
23008
22978
22920
22919
22874
22873
22846
22799
22765
22770
22734
22723
22671
22651
22641
22625
22616
22589
22525
22529
22527
22501
22458
22460
22454
22447
22446
22433
22408
22390
22396
22409
22396
22383
22387
22352
22389
22375
22350
22360
22360
22358
22356
22317
22324
22323
22297
22267
22288
22278
22275
22279
22296
22272
22259
22282
22266
22248
22233
22223
22255
22233
22200
22186
22211
22237
22201
22163
22195
22166
22199
22163
22139
22146
22119
22145
22129
22098
22124
22125
22129
22141
22137
22108
22138
22121
22112
22153
22121
22115
22144
22159
22211
22178
22191
22183
22234
22233
22244
22254
22224
22289
22264
22270
22322
22295
22325
22349
22343
22331
22346
22373
22353
22372
22352
22377
22348
22374
22332
22319
22330
22311
22305
22312
22275
22255
22255
22276
22251
22225
22233
22229
22223
22227
22205
22207
22209
22199
22215
22191
22205
22183
22157
22173
22177
22116
22139
22117
22091
22073
22092
22076
22082
22041
22069
22034
22070
22030
22040
22039
22000
22005
21965
21957
21957
21953
21944
21889
21903
21920
21900
21893
21895
21885
21884
21898
21891
21890
21909
21869
21897
21904
21896
21896
21891
21905
21889
21897
21895
21906
21938
21897
21901
21920
21935
21942
21910
21917
21928
21920
21905
21893
21907
21921
21876
21878
21846
21867
21862
21844
21842
21803
21796
21816
21795
21799
21779
21760
21801
21762
21784
21825
21832
21853
21870
21871
21897
21883
21921
21933
21943
21926
21938
21959
21991
21999
21963
21989
21984
22007
21966
21964
21962
21958
21938
21944
21915
21906
21913
21903
21888
21886
21866
21851
21826
21825
21867
21838
21814
21820
21826
21825
21795
21816
21786
21789
21799
21772
21785
21770
21756
21771
21745
21739
21772
21745
21737
21708
21721
21731
21689
21675
21706
21696
21700
21714
21695
21700
21658
21699
21662
21650
21658
21677
21689
21655
21648
21655
21677
21631
21660
21631
21642
21619
21661
21652
21624
21596
21635
21603
21601
21614
21626
21632
21606
21610
21592
21604
21575
21599
21595
21574
21565
21567
21595
21559
21563
21584
21559
21565
21576
21600
21565
21576
21572
21608
21603
21618
21659
21653
21674
21672
21686
21715
21719
21752
21742
21739
21790
21782
21809
21812
21850
21843
21863
21896
21892
21899
21887
21899
21926
21906
21921
21921
21925
21918
21889
21880
21915
21876
21883
21858
21859
21852
21837
21836
21803
21783
21778
21791
21774
21752
21743
21751
21726
21709
21728
21727
21689
21699
21674
21648
21668
21644
21647
21634
21644
21610
21606
21571
21557
21576
21545
21544
21522
21505
21505
21514
21511
21476
21457
21453
21467
21459
21445
21432
21429
21427
21406
21392
21376
21408
21376
21352
21329
21344
21327
21315
21308
21284
21289
21281
21274
21268
21264
21211
21243
21229
21215
21214
21215
21213
21191
21181
21184
21173
21148
21164
21178
21175
21141
21158
21178
21136
21157
21150
21153
21160
21189
21180
21158
21175
21175
21198
21220
21210
21208
21232
21247
21266
21253
21287
21312
21331
21310
21320
21369
21353
21381
21406
21389
21424
21440
21453
21449
21464
21458
21476
21489
21493
21455
21479
21465
21448
21453
21453
21458
21444
21432
21454
21444
21419
21414
21424
21430
21409
21395
21386
21395
21380
21346
21357
21352
21354
21323
21361
21344
21333
21311
21347
21330
21309
21290
21309
21325
21291
21305
21277
21305
21288
21292
21262
21255
21247
21256
21261
21204
21231
21242
21230
21232
21217
21221
21197
21198
21206
21190
21164
21222
21193
21190
21173
21170
21158
21146
21123
21152
21138
21118
21159
21126
21132
21092
21100
21104
21087
21123
21097
21101
21125
21099
21121
21083
21104
21096
21112
21102
21098
21117
21114
21099
21141
21141
21145
21150
21179
21175
21169
21190
21225
21222
21220
21234
21274
21301
21310
21300
21331
21342
21340
21381
21385
21368
21416
21429
21448
21466
21454
21472
21459
21476
21493
21503
21500
21530
21497
21531
21501
21471
21489
21472
21476
21474
21465
21460
21449
21458
21441
21419
21409
21407
21394
21390
21386
21382
21356
21384
21355
21366
21357
21352
21367
21351
21367
21321
21307
21308
21296
21285
21279
21297
21306
21296
21283
21293
21261
21271
21305
21273
21262
21241
21281
21287
21243
21258
21262
21274
21250
21243
21220
21231
21217
21218
21219
21211
21224
21220
21187
21196
21188
21178
21200
21201
21185
21185
21182
21157
21162
21143
21128
21157
21181
21123
21125
21124
21112
21113
21095
21124
21119
21131
21115
21130
21143
21158
21132
21186
21191
21183
21213
21225
21233
21252
21259
21269
21279
21310
21312
21349
21360
21353
21370
21409
21416
21398
21451
21479
21475
21484
21508
21553
21517
21530
21547
21556
21588
21598
21583
21580
21596
21605
21602
21623
21589
21583
21589
21583
21568
21548
21566
21563
21539
21532
21539
21534
21508
21508
21526
21477
21490
21464
21469
21485
21483
21449
21454
21437
21459
21428
21457
21419
21422
21408
21391
21403
21378
21374
21372
21355
21340
21355
21358
21341
21343
21315
21344
21319
21316
21323
21320
21301
21292
21299
21291
21277
21301
21247
21273
21275
21220
21244
21213
21250
21194
21198
21206
21182
21162
21130
21173
21138
21129
21124
21073
21062
21060
21098
21062
21072
21057
21046
21070
21041
21064
21034
21026
21050
21053
21040
21070
21031
21076
21086
21087
21090
21102
21121
21120
21139
21121
21160
21174
21171
21210
21212
21222
21219
21233
21283
21293
21327
21351
21372
21379
21398
21421
21423
21413
21473
21452
21476
21514
21491
21481
21485
21491
21513
21481
21455
21488
21466
21464
21470
21453
21413
21433
21437
21422
21434
21443
21413
21403
21400
21391
21388
21383
21378
21414
21379
21370
21364
21358
21303
21331
21303
21315
21308
21331
21276
21263
21309
21276
21280
21294
21265
21292
21291
21252
21250
21243
21263
21239
21225
21257
21256
21235
21229
21265
21227
21251
21225
21233
21243
21207
21242
21244
21242
21235
21219
21228
21214
21232
21232
21228
21201
21197
21168
21171
21179
21212
21206
21177
21187
21168
21174
21176
21170
21192
21228
21173
21168
21215
21193
21191
21195
21189
21187
21214
21254
21229
21240
21244
21275
21272
21295
21291
21310
21344
21339
21371
21376
21411
21384
21436
21444
21482
21489
21507
21514
21529
21565
21555
21597
21609
21610
21616
21637
21645
21674
21650
21664
21650
21662
21673
21672
21667
21644
21636
21669
21681
21686
21681
21661
21634
21632
21640
21632
21643
21604
21604
21643
21648
21610
21616
21603
21584
21597
21578
21540
21558
21544
21541
21570
21568
21526
21499
21521
21498
21509
21503
21480
21512
21485
21446
21466
21468
21459
21447
21425
21425
21422
21427
21430
21427
21400
21403
21421
21408
21397
21427
21397
21403
21392
21368
21372
21379
21388
21376
21388
21401
21402
21388
21341
21382
21369
21379
21413
21343
21372
21356
21365
21352
21344
21331
21348
21325
21329
21323
21332
21347
21322
21327
21349
21350
21343
21333
21372
21377
21365
21400
21389
21407
21418
21432
21429
21436
21441
21471
21498
21507
21556
21536
21556
21561
21561
21592
21608
21625
21622
21627
21656
21656
21683
21693
21686
21697
21677
21703
21676
21695
21709
21700
21684
21674
21678
21679
21661
21663
21628
21648
21665
21643
21630
21625
21623
21615
21614
21581
21583
21578
21575
21579
21557
21555
21564
21563
21554
21545
21534
21500
21494
21501
21495
21480
21477
21469
21458
21459
21450
21441
21426
21429
21414
21423
21406
21382
21392
21398
21372
21361
21377
21363
21337
21356
21358
21357
21336
21333
21335
21335
21313
21332
21277
21309
21302
21281
21277
21261
21288
21284
21282
21265
21248
21258
21242
21273
21253
21238
21244
21216
21228
21213
21193
21197
21211
21228
21205
21209
21213
21232
21222
21197
21217
21220
21244
21254
21268
21267
21281
21285
21296
21321
21349
21336
21357
21367
21363
21405
21418
21443
21440
21455
21494
21488
21503
21519
21529
21552
21565
21553
21595
21588
21574
21599
21563
21588
21571
21564
21582
21579
21576
21570
21583
21577
21531
21528
21534
21516
21516
21511
21492
21504
21481
21468
21474
21430
21435
21427
21433
21442
21404
21417
21431
21419
21397
21403
21389
21395
21381
21371
21350
21355
21362
21336
21355
21332
21322
21330
21306
21321
21306
21344
21320
21334
21304
21304
21304
21259
21247
21254
21268
21271
21296
21273
21262
21241
21244
21239
21229
21247
21222
21233
21239
21222
21212
21218
21220
21186
21187
21198
21181
21170
21160
21177
21178
21156
21125
21165
21158
21168
21168
21154
21157
21166
21161
21183
21184
21182
21189
21217
21207
21232
21245
21267
21267
21259
21320
21283
21335
21341
21357
21386
21376
21392
21409
21450
21432
21487
21483
21491
21505
21549
21544
21561
21567
21584
21589
21602
21593
21636
21616
21627
21631
21608
21591
21587
21626
21574
21589
21587
21571
21555
21547
21547
21543
21537
21526
21513
21512
21517
21483
21542
21494
21514
21500
21491
21487
21474
21479
21463
21465
21429
21443
21446
21444
21433
21412
21424
21437
21424
21402
21389
21382
21392
21375
21400
21364
21394
21369
21399
21353
21356
21346
21355
21344
21335
21332
21332
21357
21327
21332
21296
21339
21343
21315
21296
21318
21336
21284
21282
21264
21300
21264
21312
21276
21282
21267
21275
21267
21238
21284
21265
21236
21231
21249
21251
21228
21230
21250
21256
21268
21289
21300
21277
21270
21293
21307
21285
21317
21335
21334
21336
21356
21387
21379
21410
21399
21447
21458
21464
21490
21499
21527
21550
21556
21560
21585
21593
21634
21653
21652
21654
21692
21692
21690
21717
21701
21721
21734
21722
21744
21712
21699
21702
21702
21679
21721
21679
21692
21678
21669
21685
21659
21669
21686
21654
21651
21639
21641
21648
21603
21636
21612
21633
21618
21623
21581
21565
21602
21572
21573
21591
21572
21550
21531
21556
21535
21532
21562
21532
21502
21505
21511
21497
21479
21502
21508
21488
21486
21491
21462
21507
21486
21495
21462
21471
21422
21474
21447
21469
21478
21441
21464
21461
21411
21445
21439
21446
21420
21431
21422
21408
21433
21384
21393
21394
21384
21373
21401
21400
21381
21391
21402
21379
21384
21398
21398
21395
21421
21398
21439
21460
21432
21436
21486
21451
21472
21470
21445
21483
21512
21522
21538
21583
21572
21561
21598
21608
21644
21655
21671
21693
21709
21731
21736
21740
21784
21794
21788
21820
21828
21864
21867
21836
21837
21862
21882
21883
21888
21908
21889
21893
21846
21886
21856
21878
21851
21844
21841
21831
21847
21821
21799
21831
21811
21801
21826
21784
21812
21807
21782
21795
21767
21748
21760
21757
21762
21772
21743
21744
21737
21757
21733
21736
21746
21713
21717
21678
21686
21683
21679
21678
21702
21697
21674
21670
21687
21665
21673
21662
21648
21651
21633
21631
21660
21647
21635
21621
21613
21606
21600
21618
21600
21623
21627
21611
21611
21630
21622
21595
21593
21622
21605
21611
21635
21620
21597
21591
21605
21600
21611
21573
21595
21611
21580
21576
21601
21575
21596
21607
21587
21591
21593
21596
21617
21626
21662
21632
21653
21642
21668
21684
21717
21716
21748
21743
21776
21814
21834
21866
21850
21897
21869
21883
21915
21937
21968
21963
21959
22013
22011
22022
22033
22025
22051
22069
22059
22067
22046
22086
22080
22055
22048
22058
22023
22035
22031
22010
21974
22034
21970
21996
21966
22003
21971
21965
21990
21968
21964
21968
21965
21951
21941
21954
21952
21928
21893
21926
21883
21889
21892
21887
21889
21866
21872
21877
21875
21835
21856
21866
21873
21830
21845
21805
21802
21787
21803
21795
21797
21839
21801
21822
21793
21787
21783
21791
21783
21743
21749
21759
21770
21756
21739
21724
21712
21759
21725
21738
21723
21710
21711
21706
21690
21673
21649
21642
21670
21632
21630
21626
21607
21626
21603
21606
21588
21610
21599
21601
21567
21581
21574
21595
21570
21600
21577
21614
21612
21599
21611
21601
21621
21646
21652
21680
21698
21711
21724
21726
21763
21752
21791
21801
21874
21845
21857
21875
21873
21926
21899
21918
21932
21983
21973
21959
21972
21994
21994
22004
22017
22021
22023
21995
21997
21992
21990
22011
21949
21962
21988
21962
21965
21907
21924
21909
21903
21902
21891
21895
21868
21896
21857
21899
21852
21845
21836
21862
21824
21817
21791
21774
21770
21776
21746
21763
21727
21726
21688
21710
21728
21715
21692
21686
21663
21682
21663
21655
21669
21661
21647
21654
21621
21632
21617
21601
21609
21600
21594
21570
21553
21579
21568
21561
21557
21563
21560
21571
21545
21556
21552
21551
21541
21516
21529
21519
21516
21509
21482
21485
21511
21513
21480
21492
21464
21479
21486
21467
21490
21499
21481
21527
21529
21524
21546
21545
21567
21571
21573
21570
21618
21632
21632
21663
21682
21700
21696
21728
21744
21771
21769
21796
21831
21844
21850
21896
21893
21930
21919
21912
21936
21968
21973
21978
21993
22013
22003
22034
22039
21993
22019
22000
22021
21998
21994
21996
21974
21971
21951
21949
21953
21950
21954
21954
21938
21920
21919
21922
21908
21896
21890
21911
21894
21865
21902
21882
21888
21907
21874
21872
21842
21853
21863
21872
21814
21826
21807
21807
21822
21809
21807
21792
21819
21783
21758
21786
21781
21762
21782
21760
21750
21763
21757
21770
21747
21752
21747
21741
21729
21724
21735
21720
21731
21696
21698
21692
21712
21693
21681
21679
21694
21695
21668
21656
21686
21647
21670
21643
21690
21673
21670
21690
21642
21663
21670
21683
21691
21699
21704
21725
21703
21703
21753
21747
21740
21759
21768
21782
21807
21825
21877
21860
21881
21908
21895
21928
21923
21966
21992
22012
22042
22077
22065
22084
22089
22118
22133
22136
22155
22147
22173
22161
22186
22163
22161
22169
22165
22151
22149
22163
22150
22121
22132
22139
22125
22110
22128
22097
22084
22078
22073
22058
22095
22080
22043
22038
22054
22030
22020
22048
22004
22018
22039
22036
21998
22026
22015
21982
21981
21968
21978
21955
21972
21954
21956
21952
21989
21963
21941
21940
21934
21913
21948
21937
21931
21959
21924
21944
21926
21940
21928
21889
21910
21911
21929
21918
21911
21888
21871
21899
21887
21873
21902
21871
21854
21853
21829
21865
21865
21852
21838
21841
21845
21832
21851
21834
21826
21810
21839
21827
21832
21859
21867
21863
21852
21879
21891
21890
21905
21889
21924
21930
21964
21971
21972
21969
21997
22017
22029
22060
22065
22089
22109
22120
22139
22171
22181
22181
22212
22223
22225
22237
22257
22229
22286
22261
22270
22292
22299
22319
22287
22308
22305
22307
22326
22286
22274
22290
22258
22252
22264
22274
22276
22249
22258
22255
22241
22239
22211
22243
22218
22190
22208
22177
22180
22184
22179
22183
22174
22155
22140
22148
22172
22164
22147
22126
22127
22120
22122
22132
22136
22093
22120
22112
22080
22089
22104
22105
22074
22065
22054
22084
22075
22047
22086
22037
22055
22064
22053
22064
22022
22037
22030
22042
22021
22029
21988
22028
22005
21992
21991
21969
21971
21984
21979
21963
21985
22001
21991
21982
21959
21968
21971
21996
21965
21971
21968
21934
21989
22005
22000
22049
22036
22035
22043
22060
22068
22075
22103
22099
22104
22150
22162
22157
22201
22184
22211
22256
22244
22275
22306
22326
22345
22351
22363
22385
22391
22389
22404
22422
22417
22428
22472
22456
22450
22448
22439
22463
22442
22411
22420
22445
22419
22414
22414
22392
22394
22391
22394
22398
22391
22351
22396
22373
22355
22383
22359
22329
22351
22355
22363
22344
22300
22342
22316
22330
22361
22309
22335
22301
22317
22303
22274
22307
22277
22299
22295
22274
22272
22319
22285
22283
22295
22252
22263
22238
22237
22256
22231
22238
22209
22213
22191
22212
22188
22195
22189
22160
22192
22177
22187
22166
22177
22175
22178
22171
22138
22151
22133
22134
22123
22127
22103
22099
22137
22126
22092
22083
22087
22107
22089
22099
22073
22087
22104
22075
22096
22092
22104
22108
22114
22126
22143
22150
22174
22188
22170
22207
22221
22218
22236
22235
22276
22278
22308
22311
22343
22331
22353
22376
22391
22401
22417
22404
22429
22472
22429
22469
22481
22479
22466
22491
22480
22482
22484
22472
22470
22473
22444
22419
22435
22440
22439
22416
22407
22391
22385
22398
22388
22372
22361
22385
22383
22345
22333
22316
22331
22339
22313
22291
22299
22294
22239
22290
22257
22239
22249
22227
22227
22199
22190
22200
22179
22155
22149
22167
22165
22138
22125
22127
22144
22114
22093
22103
22126
22096
22091
22080
22079
22081
22069
22071
22054
22067
22057
22042
22019
22040
22029
22028
22006
22016
21998
21999
21968
21997
21966
21975
21965
21959
21945
21929
21958
21949
21924
21920
21923
21902
21904
21908
21918
21910
21909
21886
21912
21907
21920
21908
21918
21916
21936
21934
21936
21952
21963
21964
21983
21977
22011
22015
22009
22040
22058
22073
22093
22076
22125
22114
22145
22152
22189
22171
22204
22214
22252
22206
22247
22250
22247
22270
22250
22245
22210
22243
22226
22239
22259
22223
22214
22195
22209
22198
22138
22172
22157
22154
22165
22147
22135
22125
22129
22121
22125
22128
22125
22115
22116
22123
22111
22107
22116
22095
22066
22085
22077
22047
22053
22055
22047
22033
22042
22038
22041
22020
22039
22028
22030
22011
22031
22019
22017
21999
21991
21997
21976
21969
22009
21972
21962
21989
21989
21982
21988
21985
21983
21972
21950
21936
21948
21929
21919
21948
21939
21932
21923
21926
21928
21922
21903
21886
21888
21880
21879
21890
21873
21866
21924
21916
21914
21881
21889
21922
21918
21901
21948
21928
21960
21973
21984
21964
21991
22006
22017
22000
22036
22056
22075
22068
22106
22111
22134
22157
22152
22169
22176
22230
22204
22219
22259
22225
22277
22286
22281
22275
22294
22293
22272
22289
22297
22277
22274
22257
22259
22246
22275
22247
22234
22256
22231
22204
22209
22203
22224
22236
22198
22190
22192
22174
22144
22160
22169
22162
22138
22129
22124
22115
22107
22109
22097
22073
22078
22087
22075
22074
22073
22047
22078
22051
22060
22053
22033
22038
22046
22028
22019
21994
22003
21992
22005
21984
21992
21990
21978
21962
21949
21963
21946
21943
21953
21953
21921
21918
21918
21908
21900
21896
21912
21903
21873
21891
21887
21887
21867
21881
21853
21861
21866
21867
21868
21877
21878
21876
21883
21864
21897
21892
21900
21905
21909
21914
21908
21923
21950
21963
21953
21945
21962
21988
21991
22012
22019
22027
22082
22106
22104
22124
22107
22125
22171
22150
22207
22212
22229
22237
22223
22231
22218
22254
22261
22242
22243
22230
22254
22250
22250
22234
22223
22215
22237
22218
22199
22172
22192
22173
22168
22158
22164
22176
22166
22127
22154
22132
22125
22111
22146
22135
22110
22092
22113
22085
22079
22073
22069
22054
22058
22047
22078
22049
22062
22058
22050
22052
22054
22040
22019
22029
22011
22022
21989
22013
21993
22001
21988
21978
21973
21963
21974
21977
21977
21979
21983
21975
21965
21975
21964
21969
21962
21951
21942
21979
21931
21930
21937
21892
21939
21913
21913
21907
21903
21910
21919
21896
21910
21889
21915
21925
21925
21902
21922
21933
21970
21978
21962
22000
22011
21993
21999
22031
22055
22054
22076
22105
22091
22146
22121
22163
22183
22211
22208
22244
22255
22282
22313
22317
22323
22336
22344
22368
22377
22361
22362
22369
22389
22383
22400
22396
22403
22418
22387
22366
22362
22365
22379
22345
22366
22356
22364
22350
22318
22316
22319
22322
22275
22290
22292
22274
22297
22278
22284
22257
22248
22278
22233
22269
22240
22220
22234
22227
22214
22236
22211
22204
22200
22203
22189
22200
22168
22177
22170
22150
22143
22154
22163
22132
22123
22156
22111
22114
22100
22127
22101
22130
22102
22090
22116
22090
22102
22074
22081
22059
22067
22053
22057
22048
22043
22031
21998
22014
22014
22002
21998
21995
22000
21977
21982
21990
21978
21962
21960
21966
21955
21978
21975
22009
22004
21995
22001
22005
22014
22022
22024
22008
22035
22039
22053
22071
22079
22088
22100
22118
22179
22189
22174
22179
22227
22219
22236
22246
22291
22292
22306
22342
22338
22363
22371
22361
22364
22366
22370
22397
22374
22358
22377
22365
22370
22371
22354
22354
22353
22363
22306
22324
22353
22341
22330
22317
22330
22292
22291
22306
22287
22313
22255
22269
22236
22275
22254
22226
22260
22229
22209
22205
22216
22195
22191
22209
22209
22183
22162
22191
22142
22136
22156
22148
22126
22144
22154
22127
22086
22118
22120
22102
22082
22084
22067
22101
22073
22069
22054
22053
22049
22043
22037
22020
22010
22010
22013
22028
22009
22010
21987
21974
22002
21975
21961
21991
21956
21944
21921
21935
21932
21941
21940
21949
21931
21911
21941
21915
21909
21939
21951
21924
21951
21924
21948
21929
21988
21975
22006
21979
21997
22006
22041
22029
22058
22046
22074
22079
22097
22098
22106
22130
22112
22119
22141
22140
22168
22166
22146
22171
22211
22204
22189
22191
22206
22172
22177
22170
22220
22165
22161
22133
22113
22126
22116
22138
22104
22090
22092
22081
22067
22063
22038
22030
22031
22018
22023
22005
22054
22023
22018
22004
21970
21992
22000
21964
21990
21984
21944
21936
21937
21925
21918
21905
21918
21910
21885
21889
21872
21882
21899
21843
21884
21883
21856
21876
21843
21809
21836
21844
21835
21793
21817
21812
21806
21830
21817
21834
21814
21797
21799
21816
21801
21790
21784
21780
21763
21782
21765
21759
21741
21742
21740
21735
21752
21747
21746
21740
21734
21731
21751
21738
21743
21717
21720
21735
21718
21744
21712
21713
21725
21707
21727
21751
21752
21789
21760
21771
21821
21817
21822
21831
21837
21847
21862
21876
21899
21916
21936
21964
21999
21981
22001
22044
22021
22054
22073
22071
22079
22076
22091
22107
22105
22134
22081
22083
22087
22082
22089
22097
22066
22038
22053
22053
22038
22051
22041
22050
22036
22011
21986
21970
22009
22006
21984
21988
21996
21981
21967
21993
21979
21978
21958
21938
21938
21925
21940
21908
21925
21885
21928
21912
21885
21902
21906
21886
21902
21880
21877
21866
21864
21867
21871
21828
21846
21824
21835
21804
21804
21808
21807
21797
21835
21771
21776
21805
21784
21788
21780
21753
21777
21773
21760
21766
21754
21761
21739
21746
21740
21725
21712
21719
21741
21729
21735
21740
21723
21749
21724
21695
21711
21711
21728
21726
21728
21752
21747
21732
21767
21792
21791
21828
21821
21818
21823
21815
21841
21870
21864
21896
21901
21962
21910
21941
21988
21968
22009
22015
22057
22064
22045
22103
22075
22081
22103
22099
22131
22136
22154
22126
22158
22161
22150
22144
22137
22137
22134
22142
22101
22100
22111
22069
22094
22098
22082
22085
22078
22089
22036
22046
22037
22030
22015
22061
22036
22022
21986
22006
21994
22000
21980
21980
21937
21921
21947
21923
21938
21909
21919
21907
21923
21897
21879
21903
21898
21874
21889
21872
21849
21835
21857
21812
21818
21857
21844
21811
21808
21812
21807
21814
21796
21768
21796
21811
21763
21760
21752
21755
21772
21739
21735
21745
21757
21747
21715
21705
21723
21754
21727
21744
21749
21732
21730
21737
21739
21728
21745
21769
21781
21785
21790
21800
21826
21812
21816
21840
21874
21870
21892
21906
21908
21945
21934
21982
21963
21987
22001
22044
22033
22060
22091
22071
22104
22121
22147
22119
22189
22163
22184
22222
22232
22211
22204
22228
22241
22198
22202
22226
22202
22218
22194
22195
22191
22208
22206
22180
22179
22185
22195
22174
22131
22155
22135
22118
22129
22147
22118
22111
22113
22117
22107
22070
22068
22073
22067
22058
22079
22028
22037
22031
22045
22040
22018
22001
21997
22019
22024
21991
22000
21972
22012
21991
21996
21989
21993
21978
21990
21999
21988
21996
21978
21967
21997
21952
22002
21948
21952
21943
21963
21964
21950
21937
21956
21957
21929
21930
21950
21930
21968
21931
21949
21909
21940
21935
21954
21943
21933
21919
21969
21937
21973
21963
21995
22039
22014
22035
22039
22050
22053
22069
22096
22126
22127
22143
22165
22172
22217
22209
22225
22249
22268
22290
22298
22331
22368
22349
22389
22397
22430
22413
22438
22481
22442
22520
22506
22525
22504
22516
22508
22497
22514
22510
22490
22517
22508
22467
22483
22498
22483
22457
22482
22472
22493
22483
22443
22433
22443
22440
22414
22468
22484
22452
22437
22415
22441
22418
22439
22448
22445
22458
22439
22415
22428
22430
22433
22398
22432
22445
22398
22413
22377
22414
22424
22408
22409
22396
22402
22432
22405
22422
22408
22421
22428
22420
22426
22421
22409
22394
22412
22434
22374
22404
22423
22407
22408
22393
22363
22397
22397
22374
22375
22394
22364
22361
22389
22351
22375
22372
22378
22366
22379
22381
22374
22377
22397
22433
22420
22438
22446
22431
22448
22462
22474
22484
22499
22535
22541
22556
22567
22568
22629
22626
22646
22674
22692
22687
22740
22732
22760
22740
22782
22804
22796
22794
22793
22823
22839
22826
22812
22816
22803
22835
22836
22833
22803
22815
22800
22782
22782
22793
22794
22790
22776
22733
22780
22769
22731
22743
22754
22714
22730
22725
22727
22709
22719
22694
22717
22726
22709
22703
22669
22678
22672
22670
22656
22677
22666
22643
22621
22627
22634
22588
22610
22588
22608
22604
22597
22588
22581
22588
22600
22578
22571
22556
22608
22553
22555
22557
22554
22570
22570
22547
22557
22557
22515
22541
22538
22526
22543
22518
22513
22526
22510
22519
22524
22523
22497
22488
22502
22479
22473
22530
22498
22500
22484
22500
22500
22509
22522
22525
22511
22530
22526
22543
22515
22553
22560
22577
22612
22620
22637
22612
22633
22672
22666
22696
22688
22715
22725
22726
22751
22740
22727
22763
22758
22775
22774
22799
22807
22786
22804
22778
22796
22781
22781
22765
22800
22765
22774
22745
22737
22721
22708
22699
22706
22702
22660
22672
22668
22672
22628
22655
22607
22622
22644
22604
22588
22577
22571
22577
22529
22535
22545
22527
22550
22522
22500
22488
22480
22472
22444
22480
22459
22450
22450
22435
22438
22439
22387
22417
22401
22410
22385
22386
22381
22363
22330
22379
22327
22343
22317
22335
22344
22315
22290
22262
22290
22282
22270
22229
22258
22245
22227
22229
22253
22208
22202
22225
22191
22197
22184
22168
22164
22173
22166
22159
22169
22154
22165
22158
22174
22192
22162
22183
22179
22172
22235
22194
22214
22228
22262
22286
22252
22306
22284
22291
22317
22354
22325
22384
22390
22413
22410
22453
22425
22441
22449
22469
22475
22477
22499
22519
22546
22551
22544
22526
22541
22548
22537
22514
22525
22516
22536
22528
22496
22517
22489
22512
22482
22449
22479
22450
22413
22424
22414
22404
22402
22401
22403
22385
22382
22384
22362
22385
22360
22340
22326
22361
22336
22337
22357
22335
22337
22303
22297
22317
22312
22322
22310
22303
22298
22295
22311
22293
22278
22292
22265
22273
22272
22273
22241
22263
22281
22242
22236
22221
22237
22223
22209
22234
22198
22193
22202
22194
22192
22205
22174
22186
22165
22176
22182
22164
22190
22178
22158
22168
22158
22148
22152
22183
22142
22170
22151
22146
22190
22153
22168
22153
22185
22196
22186
22217
22229
22251
22235
22271
22276
22294
22304
22281
22337
22353
22369
22371
22415
22390
22433
22450
22446
22487
22491
22478
22526
22539
22539
22525
22557
22574
22563
22550
22573
22565
22590
22551
22577
22574
22558
22545
22532
22530
22530
22539
22510
22517
22513
22491
22497
22519
22479
22475
22454
22463
22457
22455
22429
22421
22429
22451
22435
22444
22423
22434
22409
22403
22407
22405
22425
22394
22401
22391
22394
22392
22367
22365
22383
22347
22371
22363
22350
22345
22351
22340
22343
22359
22344
22365
22346
22315
22316
22341
22324
22312
22315
22304
22303
22296
22296
22291
22308
22261
22287
22247
22256
22262
22253
22253
22228
22241
22281
22237
22249
22260
22247
22274
22244
22273
22275
22281
22275
22287
22307
22314
22309
22324
22313
22321
22346
22334
22341
22386
22356
22385
22415
22447
22432
22452
22479
22535
22512
22521
22561
22568
22542
22581
22586
22580
22617
22638
22639
22640
22650
22682
22671
22660
22680
22675
22683
22680
22678
22675
22665
22668
22657
22620
22633
22619
22632
22614
22634
22572
22603
22616
22623
22599
22573
22574
22561
22578
22554
22576
22557
22564
22510
22526
22532
22539
22507
22538
22525
22523
22522
22513
22508
22495
22483
22462
22444
22448
22450
22447
22437
22420
22426
22397
22405
22390
22380
22378
22356
22362
22368
22364
22323
22339
22378
22367
22332
22334
22327
22319
22283
22293
22315
22289
22299
22279
22250
22267
22239
22257
22246
22237
22235
22246
22257
22251
22256
22277
22267
22256
22235
22244
22264
22262
22297
22284
22285
22295
22301
22314
22332
22340
22383
22399
22367
22392
22398
22440
22448
22477
22474
22496
22507
22554
22594
22569
22579
22607
22652
22643
22698
22700
22715
22715
22722
22705
22761
22760
22792
22780
22777
22788
22805
22779
22792
22791
22766
22771
22791
22767
22758
22756
22740
22736
22729
22725
22706
22711
22704
22703
22703
22708
22712
22716
22686
22716
22683
22684
22672
22687
22647
22664
22681
22651
22666
22625
22660
22605
22639
22623
22624
22615
22615
22647
22635
22627
22603
22597
22569
22601
22618
22607
22603
22591
22628
22615
22617
22581
22619
22608
22646
22599
22580
22588
22611
22604
22600
22607
22597
22598
22604
22590
22596
22585
22581
22588
22588
22587
22619
22584
22571
22579
22595
22586
22570
22563
22565
22560
22571
22581
22579
22604
22571
22606
22609
22621
22618
22615
22621
22651
22635
22647
22683
22693
22679
22709
22696
22723
22730
22746
22753
22756
22794
22792
22821
22834
22848
22861
22898
22875
22918
22912
22919
22924
22919
22957
22952
22951
22959
22965
22960
22953
22953
22958
22936
22948
22926
22952
22914
22920
22931
22920
22897
22899
22897
22904
22883
22894
22872
22878
22872
22857
22858
22821
22840
22841
22830
22812
22791
22775
22766
22795
22757
22751
22749
22737
22739
22741
22728
22731
22695
22705
22683
22680
22671
22667
22662
22677
22664
22647
22636
22619
22601
22621
22594
22611
22578
22597
22578
22553
22563
22555
22561
22519
22534
22534
22548
22555
22501
22525
22529
22524
22495
22457
22502
22451
22489
22481
22444
22473
22467
22427
22407
22411
22395
22425
22407
22397
22421
22431
22439
22393
22445
22444
22471
22459
22441
22437
22510
22482
22502
22481
22524
22514
22525
22552
22588
22588
22597
22611
22621
22645
22692
22683
22720
22711
22742
22729
22757
22752
22768
22800
22781
22809
22787
22820
22823
22781
22801
22821
22797
22774
22754
22772
22747
22747
22753
22747
22738
22723
22720
22710
22685
22696
22679
22657
22633
22652
22658
22657
22649
22620
22613
22600
22605
22618
22591
22603
22574
22560
22609
22569
22569
22581
22548
22562
22589
22553
22529
22532
22503
22541
22514
22514
22496
22496
22505
22508
22496
22457
22477
22473
22476
22496
22481
22467
22475
22444
22497
22470
22482
22475
22459
22462
22470
22450
22487
22456
22450
22435
22444
22432
22422
22387
22387
22412
22420
22389
22424
22391
22399
22403
22420
22415
22375
22429
22426
22415
22434
22431
22438
22449
22451
22454
22455
22489
22477
22511
22548
22536
22541
22554
22560
22594
22595
22632
22640
22671
22656
22670
22688
22685
22732
22730
22766
22783
22767
22767
22827
22799
22836
22830
22839
22828
22864
22857
22831
22848
22828
22840
22832
22826
22824
22813
22798
22790
22799
22792
22804
22773
22774
22755
22765
22795
22750
22749
22762
22726
22733
22727
22729
22742
22720
22728
22709
22706
22688
22680
22703
22693
22711
22663
22654
22658
22655
22647
22657
22633
22645
22643
22621
22636
22643
22624
22603
22568
22598
22594
22564
22575
22581
22567
22549
22534
22556
22519
22533
22515
22551
22498
22521
22529
22508
22509
22488
22498
22509
22466
22450
22460
22438
22448
22445
22452
22468
22435
22445
22415
22420
22424
22423
22438
22402
22429
22452
22459
22466
22449
22453
22455
22482
22480
22504
22515
22519
22534
22570
22552
22597
22579
22602
22607
22641
22646
22662
22665
22696
22709
22690
22722
22735
22759
22773
22794
22822
22806
22838
22845
22848
22858
22890
22853
22856
22890
22846
22873
22860
22882
22865
22849
22843
22844
22846
22840
22820
22816
22778
22817
22784
22822
22789
22758
22748
22759
22765
22738
22751
22763
22748
22746
22708
22719
22697
22701
22685
22728
22690
22678
22688
22671
22671
22677
22675
22681
22643
22639
22646
22647
22591
22597
22629
22599
22599
22608
22609
22616
22627
22579
22604
22590
22590
22585
22557
22567
22549
22539
22532
22540
22551
22553
22522
22531
22520
22515
22499
22499
22517
22488
22491
22479
22448
22453
22434
22485
22440
22455
22449
22449
22455
22476
22426
22474
22466
22436
22478
22454
22546
22505
22506
22522
22556
22577
22558
22608
22588
22608
22624
22652
22644
22668
22696
22707
22714
22712
22771
22745
22776
22799
22800
22814
22830
22861
22875
22871
22885
22886
22900
22905
22907
22922
22918
22935
22940
22905
22902
22918
22909
22932
22924
22886
22905
22881
22898
22879
22863
22884
22849
22880
22869
22829
22817
22839
22821
22832
22814
22821
22817
22795
22792
22794
22782
22793
22793
22791
22781
22779
22784
22745
22750
22732
22734
22766
22739
22749
22736
22733
22729
22721
22747
22730
22746
22712
22702
22706
22711
22734
22687
22712
22686
22712
22696
22679
22677
22683
22695
22681
22682
22672
22659
22665
22666
22638
22649
22628
22657
22647
22662
22654
22632
22642
22599
22635
22631
22645
22628
22613
22614
22601
22618
22622
22625
22648
22662
22649
22661
22659
22670
22685
22719
22690
22721
22737
22764
22760
22787
22812
22827
22852
22838
22867
22907
22913
22933
22915
22972
22959
23015
23009
23054
23039
23059
23050
23073
23134
23120
23103
23109
23148
23173
23146
23162
23149
23156
23167
23171
23136
23115
23131
23168
23129
23123
23113
23123
23098
23106
23088
23108
23102
23079
23089
23104
23085
23098
23042
23056
23051
23078
23084
23060
23074
23034
23034
23042
23035
23041
23015
22989
23015
22995
22975
23008
22982
22995
22989
22942
22971
22957
22952
22964
22949
22947
22949
22945
22940
22920
22909
22933
22931
22898
22932
22917
22920
22931
22889
22894
22893
22920
22881
22915
22876
22899
22869
22884
22861
22873
22878
22876
22863
22872
22877
22859
22854
22853
22823
22866
22829
22869
22859
22860
22864
22863
22891
22870
22888
22908
22923
22933
22937
22934
22958
22941
22963
22988
22999
23006
23019
23020
23055
23077
23095
23099
23119
23115
23120
23136
23146
23171
23201
23212
23206
23203
23198
23202
23200
23213
23213
23211
23202
23182
23188
23206
23155
23169
23158
23145
23141
23126
23100
23117
23086
23080
23067
23095
23072
23055
23052
23017
23022
23017
22999
22983
22967
22957
22966
22948
22971
22900
22928
22954
22936
22927
22916
22914
22903
22889
22871
22880
22860
22860
22821
22846
22854
22813
22830
22845
22836
22815
22789
22807
22787
22827
22791
22784
22800
22789
22769
22785
22730
22743
22768
22740
22720
22743
22720
22732
22694
22745
22714
22700
22674
22673
22688
22680
22646
22652
22676
22676
22689
22670
22641
22651
22672
22644
22660
22671
22682
22661
22651
22687
22711
22666
22715
22718
22714
22734
22733
22766
22773
22808
22810
22805
22813
22848
22882
22870
22895
22908
22921
22936
22972
22957
22997
22987
23015
23020
23044
23036
23044
23060
23062
23063
23061
23107
23076
23043
23076
23084
23048
23046
23044
23040
23015
23005
23009
23025
22993
22991
22989
22966
22987
22970
22970
22977
22949
22959
22942
22941
22939
22954
22934
22920
22900
22934
22912
22872
22915
22894
22870
22882
22889
22884
22851
22864
22830
22829
22821
22814
22817
22807
22810
22811
22796
22797
22790
22802
22781
22789
22774
22781
22785
22768
22767
22769
22758
22749
22764
22774
22764
22739
22741
22752
22734
22737
22693
22713
22708
22694
22699
22698
22695
22696
22698
22690
22697
22695
22695
22691
22683
22679
22717
22683
22703
22723
22734
22730
22731
22729
22735
22747
22782
22788
22779
22802
22822
22838
22855
22873
22884
22890
22937
22933
23010
22964
22993
23019
23050
23065
23076
23072
23081
23100
23095
23141
23149
23161
23140
23157
23132
23171
23123
23140
23149
23120
23135
23097
23097
23101
23102
23097
23080
23107
23107
23065
23047
23058
23033
23041
23044
23022
23027
23023
22996
23009
23001
22991
22993
23019
22982
22999
22984
22971
22961
22929
22954
22928
22927
22924
22937
22904
22932
22909
22910
22878
22928
22887
22850
22880
22883
22886
22869
22867
22858
22863
22869
22838
22873
22868
22843
22823
22860
22824
22832
22824
22817
22810
22814
22801
22795
22805
22791
22786
22789
22778
22776
22780
22767
22768
22752
22743
22767
22744
22737
22766
22756
22755
22756
22781
22793
22793
22807
22835
22844
22826
22823
22858
22888
22896
22877
22926
22945
22967
22974
23000
23006
22999
23057
23074
23106
23080
23112
23142
23143
23164
23184
23178
23199
23237
23220
23256
23225
23226
23254
23236
23285
23255
23256
23256
23227
23239
23226
23220
23216
23215
23203
23223
23188
23178
23171
23166
23142
23130
23139
23136
23118
23148
23150
23144
23123
23101
23107
23094
23099
23108
23059
23068
23066
23050
23062
23063
23057
23080
23033
23046
23031
23028
23029
23029
23006
23020
23001
22987
23003
23018
23007
22988
22981
22988
22984
22973
22993
22985
22973
22970
22982
22965
22957
22945
22957
22962
22992
22931
22944
22962
22926
22915
22942
22923
22939
22944
22943
22956
22917
22932
22935
22933
22927
22927
22946
22936
22956
22962
22951
22977
23001
22984
23011
23018
23029
23034
23052
23087
23112
23119
23140
23138
23153
23186
23178
23213
23235
23262
23262
23300
23286
23314
23297
23347
23338
23380
23400
23400
23381
23410
23387
23413
23397
23408
23417
23435
23450
23458
23418
23406
23391
23416
23391
23373
23365
23362
23358
23341
23325
23330
23314
23332
23311
23315
23312
23321
23277
23277
23306
23275
23273
23270
23274
23269
23242
23242
23261
23226
23195
23195
23214
23232
23240
23191
23192
23193
23214
23197
23188
23169
23158
23168
23153
23165
23165
23172
23165
23169
23169
23185
23174
23147
23161
23121
23167
23146
23150
23128
23144
23145
23134
23125
23138
23108
23146
23097
23112
23122
23116
23098
23109
23088
23105
23110
23089
23134
23090
23102
23094
23144
23117
23102
23108
23146
23135
23143
23137
23167
23187
23215
23195
23202
23214
23238
23274
23262
23253
23278
23295
23301
23351
23327
23376
23383
23399
23429
23449
23457
23483
23472
23507
23512
23550
23552
23565
23561
23563
23577
23572
23618
23603
23576
23590
23602
23615
23604
23619
23609
23577
23581
23590
23563
23570
23553
23545
23542
23550
23574
23528
23550
23547
23540
23557
23489
23525
23513
23500
23489
23517
23485
23481
23467
23461
23455
23458
23449
23455
23443
23470
23458
23461
23458
23403
23423
23437
23387
23399
23377
23383
23393
23404
23365
23363
23344
23337
23381
23370
23349
23366
23331
23310
23316
23318
23323
23308
23334
23292
23299
23303
23265
23277
23319
23291
23250
23268
23278
23272
23246
23267
23271
23250
23271
23275
23287
23249
23246
23269
23259
23261
23284
23274
23309
23279
23328
23325
23340
23341
23371
23388
23375
23394
23450
23449
23493
23509
23490
23519
23565
23547
23589
23592
23595
23618
23639
23634
23662
23668
23667
23660
23699
23703
23716
23730
23716
23732
23746
23696
23743
23708
23734
23741
23708
23723
23690
23699
23696
23676
23707
23664
23677
23657
23644
23662
23653
23664
23635
23630
23608
23618
23615
23617
23591
23601
23574
23582
23546
23566
23532
23545
23529
23536
23518
23548
23525
23480
23490
23493
23474
23482
23471
23465
23444
23454
23451
23443
23446
23417
23428
23414
23400
23398
23392
23387
23382
23404
23378
23378
23361
23364
23361
23351
23318
23353
23332
23347
23309
23311
23340
23314
23305
23299
23294
23303
23307
23273
23290
23261
23290
23300
23276
23271
23244
23281
23250
23291
23277
23284
23304
23310
23298
23327
23342
23340
23357
23399
23402
23404
23403
23423
23442
23437
23482
23478
23511
23532
23518
23533
23550
23533
23569
23599
23628
23630
23624
23646
23647
23643
23673
23651
23665
23709
23699
23706
23699
23697
23714
23718
23711
23700
23683
23673
23667
23662
23644
23658
23644
23627
23655
23628
23641
23611
23608
23613
23620
23597
23589
23590
23548
23558
23569
23590
23568
23542
23585
23556
23525
23551
23509
23522
23527
23513
23496
23493
23541
23493
23516
23510
23490
23515
23519
23477
23491
23474
23474
23475
23476
23485
23460
23474
23482
23475
23445
23433
23473
23398
23413
23453
23432
23434
23435
23411
23437
23391
23405
23422
23435
23391
23421
23412
23396
23408
23401
23383
23435
23401
23368
23361
23396
23392
23396
23398
23397
23402
23423
23437
23455
23435
23446
23471
23445
23488
23509
23502
23530
23556
23568
23567
23594
23622
23624
23639
23659
23677
23671
23699
23708
23704
23751
23779
23767
23776
23803
23802
23836
23828
23840
23835
23856
23872
23878
23876
23830
23880
23848
23833
23868
23846
23828
23828
23827
23810
23810
23822
23795
23805
23805
23779
23757
23768
23775
23783
23761
23776
23781
23771
23735
23756
23743
23741
23733
23716
23725
23725
23716
23731
23714
23737
23705
23724
23696
23709
23701
23685
23663
23689
23672
23677
23674
23666
23671
23650
23678
23645
23656
23640
23642
23623
23616
23625
23640
23622
23630
23616
23658
23611
23615
23594
23629
23592
23616
23617
23627
23580
23576
23572
23599
23574
23567
23592
23582
23591
23591
23576
23601
23567
23578
23613
23614
23591
23600
23628
23634
23648
23658
23654
23653
23688
23715
23731
23723
23765
23745
23756
23806
23783
23833
23827
23844
23890
23870
23931
23920
23952
23945
23966
23960
23976
23991
23999
24047
24055
24035
24092
24088
24071
24114
24091
24112
24132
24078
24100
24102
24086
24085
24081
24084
24102
24085
24090
24089
24097
24067
24068
24071
24057
24078
24055
24050
24013
24043
24022
24030
24034
23999
24036
24012
24009
23994
23984
23978
23973
23954
23953
23971
23952
23966
23936
23962
23912
23926
23947
23913
23922
23891
23889
23918
23884
23873
23909
23873
23885
23883
23884
23870
23865
23876
23857
23837
23835
23844
23857
23874
23872
23855
23853
23862
23844
23856
23843
23834
23884
23841
23831
23845
23838
23832
23842
23842
23812
23843
23826
23821
23838
23859
23853
23878
23856
23856
23893
23902
23899
23880
23925
23936
23941
23921
23947
23974
23978
23996
23991
24017
24042
24073
24088
24107
24100
24114
24143
24165
24192
24181
24219
24203
24233
24256
24248
24265
24256
24273
24301
24306
24303
24310
24305
24318
24314
24290
24312
24288
24284
24307
24297
24289
24328
24304
24294
24307
24271
24249
24268
24271
24283
24255
24259
24265
24238
24234
24240
24225
24219
24231
24209
24205
24179
24186
24202
24193
24176
24187
24184
24143
24132
24178
24157
24170
24168
24142
24148
24111
24141
24132
24125
24098
24125
24109
24104
24104
24126
24100
24106
24092
24094
24110
24082
24115
24105
24107
24091
24100
24120
24134
24093
24096
24115
24104
24111
24103
24087
24100
24109
24105
24108
24102
24074
24102
24103
24118
24106
24134
24149
24168
24127
24150
24139
24175
24200
24192
24216
24191
24233
24220
24247
24262
24292
24294
24292
24316
24313
24350
24346
24360
24389
24401
24404
24432
24437
24452
24451
24500
24511
24490
24504
24476
24503
24522
24531
24558
24560
24580
24553
24575
24581
24592
24572
24595
24586
24568
24559
24554
24588
24551
24549
24528
24550
24516
24536
24549
24489
24472
24463
24466
24474
24466
24483
24464
24455
24451
24451
24476
24415
24433
24440
24441
24449
24438
24431
24416
24402
24413
24412
24405
24380
24404
24364
24378
24380
24371
24373
24367
24387
24374
24373
24363
24358
24359
24364
24373
24352
24335
24348
24332
24327
24291
24320
24328
24333
24320
24318
24330
24306
24287
24289
24306
24290
24274
24234
24298
24245
24261
24240
24245
24242
24233
24226
24260
24255
24230
24204
24229
24254
24223
24248
24275
24265
24254
24273
24238
24277
24269
24281
24271
24339
24327
24346
24356
24363
24353
24370
24387
24388
24423
24415
24435
24455
24425
24458
24469
24469
24499
24492
24491
24521
24525
24525
24568
24559
24569
24567
24558
24571
24567
24559
24581
24557
24546
24541
24527
24534
24498
24486
24518
24496
24491
24499
24499
24473
24444
24417
24426
24425
24425
24399
24379
24403
24388
24373
24351
24371
24338
24343
24332
24347
24347
24320
24334
24329
24309
24297
24275
24287
24252
24287
24270
24264
24278
24274
24262
24257
24229
24254
24240
24225
24215
24229
24214
24216
24210
24185
24180
24167
24182
24181
24155
24202
24179
24176
24163
24187
24142
24148
24158
24140
24131
24147
24120
24130
24128
24109
24113
24156
24139
24130
24127
24140
24160
24141
24159
24147
24151
24173
24190
24150
24169
24201
24214
24217
24229
24225
24254
24275
24278
24300
24318
24314
24338
24341
24373
24361
24388
24407
24427
24448
24456
24483
24475
24461
24543
24542
24566
24547
24543
24568
24572
24613
24610
24617
24628
24617
24635
24628
24621
24628
24618
24618
24582
24587
24572
24605
24570
24599
24566
24569
24569
24559
24552
24523
24533
24522
24514
24535
24537
24547
24501
24520
24509
24526
24519
24471
24490
24468
24471
24467
24463
24471
24444
24455
24464
24442
24448
24450
24405
24435
24441
24415
24414
24414
24422
24400
24423
24424
24428
24413
24437
24421
24431
24431
24404
24420
24445
24421
24411
24378
24398
24389
24407
24389
24389
24398
24386
24387
24415
24382
24414
24382
24364
24398
24346
24406
24391
24402
24403
24379
24407
24406
24408
24421
24425
24410
24462
24467
24460
24457
24495
24491
24516
24539
24525
24564
24585
24597
24613
24608
24624
24663
24694
24675
24689
24720
24743
24746
24777
24804
24812
24802
24841
24864
24850
24884
24868
24882
24915
24958
24952
24973
24970
24949
24988
24978
25004
24967
24988
24965
24973
24960
24930
24929
24946
24923
24923
24913
24877
24889
24870
24889
24845
24870
24845
24849
24817
24821
24813
24829
24830
24809
24803
24782
24794
24774
24766
24742
24753
24744
24731
24753
24747
24725
24713
24685
24674
24677
24696
24680
24636
24654
24659
24652
24639
24636
24651
24611
24627
24610
24614
24626
24622
24626
24619
24640
24629
24645
24631
24645
24634
24638
24654
24661
24663
24668
24696
24685
24705
24715
24734
24751
24751
24789
24779
24775
24828
24831
24832
24827
24871
24890
24899
24925
24917
24945
24929
24967
24996
25010
25028
25034
25063
25041
25059
25082
25093
25113
25114
25111
25137
25186
25153
25198
25213
25202
25227
25243
25248
25274
25271
25284
25309
25314
25347
25374
25377
25386
25406
25445
25405
25440
25440
25438
25452
25458
25431
25469
25444
25442
25446
25439
25442
25426
25409
25429
25413
25416
25376
25370
25416
25367
25373
25343
25355
25362
25334
25323
25322
25316
25331
25314
25284
25292
25308
25277
25253
25243
25238
25256
25228
25198
25232
25195
25191
25150
25201
25179
25165
25150
25144
25128
25161
25133
25108
25117
25141
25124
25125
25110
25121
25081
25099
25072
25081
25073
25075
25061
25074
25079
25077
25047
25050
25060
25041
25035
25038
25036
25052
25046
25051
25044
25033
25080
25057
25055
25058
25076
25077
25106
25129
25136
25135
25168
25180
25195
25219
25220
25232
25221
25267
25262
25278
25282
25273
25300
25325
25302
25320
25339
25331
25345
25365
25380
25400
25389
25371
25402
25385
25429
25452
25424
25438
25457
25463
25440
25458
25447
25435
25423
25428
25416
25366
25403
25373
25344
25371
25373
25341
25321
25315
25293
25257
25277
25260
25219
25208
25224
25223
25195
25195
25159
25140
25160
25130
25125
25109
25136
25106
25079
25072
25068
25044
25043
25033
25065
25034
25056
25048
25035
25031
25051
25028
25026
25014
24987
25013
25030
25029
25029
24992
25014
25009
25016
25002
24999
25015
24979
24997
25014
25020
24977
25003
24975
25008
24994
25000
24998
24972
25026
24995
24998
24987
24967
25009
24991
25010
25008
25007
24999
25000
25012
25029
25042
25031
25057
25055
25050
25071
25072
25090
25143
25092
25133
25131
25173
25147
25175
25173
25179
25209
25241
25215
25197
25205
25241
25197
25216
25219
25261
25226
25240
25238
25236
25268
25253
25243
25270
25246
25231
25236
25242
25218
25226
25232
25197
25175
25182
25210
25159
25165
25156
25156
25163
25123
25130
25112
25113
25077
25099
25079
25068
25104
25089
25061
25073
25060
25068
25026
25008
25015
24996
25013
24994
24982
24975
24976
24973
24974
24969
24964
24957
24948
24949
24923
24922
24897
24919
24899
24907
24914
24911
24887
24861
24854
24834
24835
24820
24798
24766
24762
24755
24782
24785
24763
24742
24752
24778
24773
24752
24741
24746
24722
24762
24711
24731
24735
24712
24739
24692
24699
24667
24677
24691
24666
24610
24621
24645
24623
24608
24616
24630
24638
24622
24636
24646
24638
24627
24629
24604
24663
24615
24649
24630
24620
24620
24625
24610
24628
24643
24627
24616
24619
24613
24636
24607
24586
24586
24586
24540
24531
24559
24544
24549
24539
24520
24505
24498
24466
24453
24443
24435
24414
24360
24375
24366
24325
24333
24320
24317
24285
24291
24272
24263
24261
24242
24247
24215
24218
24227
24196
24188
24188
24187
24160
24129
24163
24155
24146
24145
24157
24153
24110
24110
24085
24134
24091
24092
24101
24085
24073
24120
24078
24097
24078
24069
24054
24054
24041
24048
24037
24043
23998
23970
23991
23990
23976
23971
23973
23956
23952
23950
23920
23883
23901
23860
23851
23865
23847
23834
23826
23780
23787
23770
23747
23721
23764
23733
23760
23735
23729
23723
23709
23710
23709
23699
23720
23732
23743
23754
23746
23748
23754
23740
23787
23790
23811
23788
23859
23835
23882
23882
23902
23931
23896
23954
23976
23985
23991
24032
24001
24027
24017
24025
24058
24036
24030
24026
24010
24009
23999
23982
23982
23953
23938
23931
23920
23895
23909
23918
23887
23888
23851
23853
23833
23824
23819
23808
23813
23808
23759
23770
23757
23734
23727
23718
23711
23688
23683
23681
23636
23638
23627
23631
23622
23603
23581
23604
23605
23598
23580
23573
23584
23550
23562
23560
23530
23499
23509
23503
23480
23482
23482
23435
23455
23451
23455
23436
23426
23416
23405
23391
23407
23402
23394
23382
23380
23373
23341
23350
23333
23340
23307
23309
23296
23308
23317
23283
23292
23274
23283
23292
23297
23321
23298
23334
23290
23336
23334
23329
23379
23334
23357
23364
23390
23399
23426
23433
23444
23467
23482
23480
23493
23506
23545
23530
23584
23572
23611
23620
23666
23637
23639
23696
23712
23700
23711
23719
23725
23744
23746
23742
23753
23767
23750
23726
23724
23749
23712
23733
23724
23707
23688
23683
23648
23690
23669
23675
23646
23647
23657
23631
23630
23624
23615
23603
23593
23598
23579
23597
23588
23573
23558
23547
23562
23522
23543
23527
23511
23517
23496
23493
23472
23472
23478
23444
23456
23435
23462
23436
23429
23427
23437
23432
23408
23397
23428
23425
23409
23409
23407
23379
23395
23414
23384
23370
23367
23392
23357
23372
23385
23379
23359
23349
23355
23360
23354
23325
23360
23335
23324
23315
23341
23312
23316
23323
23358
23340
23322
23324
23324
23316
23335
23327
23371
23355
23352
23388
23377
23409
23390
23452
23432
23437
23465
23479
23508
23513
23526
23537
23526
23592
23571
23622
23629
23615
23673
23650
23698
23704
23735
23751
23765
23779
23782
23779
23798
23790
23810
23786
23806
23770
23798
23781
23796
23777
23773
23793
23761
23746
23743
23770
23769
23745
23731
23739
23750
23724
23741
23746
23719
23693
23718
23716
23713
23686
23700
23675
23664
23651
23658
23659
23649
23624
23635
23655
23628
23621
23605
23630
23613
23614
23595
23601
23577
23617
23569
23584
23579
23577
23600
23576
23590
23590
23568
23592
23554
23569
23556
23541
23556
23560
23532
23549
23544
23524
23525
23533
23547
23544
23511
23521
23506
23496
23495
23500
23489
23474
23500
23496
23450
23484
23472
23471
23451
23490
23471
23490
23481
23490
23486
23527
23496
23487
23517
23513
23525
23551
23565
23585
23583
23607
23634
23619
23667
23688
23706
23718
23798
23779
23796
23806
23834
23842
23879
23903
23936
23932
23926
23926
23964
23970
23953
23958
23987
24003
23979
23969
23999
23997
23952
23965
23982
23941
23965
23926
23941
23928
23919
23943
23907
23889
23892
23906
23894
23891
23862
23876
23877
23837
23834
23861
23829
23848
23853
23849
23813
23830
23805
23822
23814
23758
23783
23794
23777
23754
23769
23755
23740
23755
23752
23766
23759
23729
23745
23737
23721
23708
23711
23721
23678
23673
23691
23670
23671
23687
23670
23648
23665
23678
23658
23642
23660
23643
23628
23612
23618
23595
23618
23585
23597
23606
23591
23556
23585
23587
23567
23576
23554
23558
23551
23547
23548
23545
23558
23533
23571
23527
23564
23554
23573
23566
23589
23611
23631
23636
23668
23671
23656
23694
23689
23707
23739
23752
23736
23779
23818
23827
23823
23845
23850
23865
23871
23878
23901
23930
23935
23926
23929
23952
23935
23953
23937
23928
23935
23936
23936
23882
23894
23899
23874
23872
23869
23850
23845
23847
23812
23814
23788
23803
23812
23797
23778
23775
23778
23786
23752
23765
23756
23739
23761
23737
23700
23703
23721
23692
23688
23690
23674
23713
23654
23655
23652
23652
23638
23645
23623
23630
23624
23596
23620
23615
23596
23614
23610
23585
23546
23540
23554
23552
23570
23539
23542
23544
23546
23512
23538
23499
23490
23489
23482
23454
23481
23456
23447
23448
23460
23458
23434
23419
23430
23434
23418
23395
23404
23404
23414
23388
23398
23388
23400
23382
23439
23421
23407
23443
23450
23457
23453
23451
23500
23467
23490
23508
23521
23543
23555
23565
23540
23604
23602
23635
23656
23672
23665
23688
23714
23729
23745
23751
23758
23792
23819
23841
23833
23844
23826
23843
23834
23834
23844
23812
23835
23840
23824
23823
23827
23792
23773
23785
23788
23758
23759
23745
23722
23743
23742
23723
23708
23734
23702
23713
23710
23693
23700
23666
23659
23658
23648
23641
23641
23617
23616
23633
23609
23611
23586
23579
23591
23572
23599
23566
23561
23576
23566
23535
23561
23512
23534
23518
23507
23536
23496
23503
23498
23504
23474
23473
23483
23454
23449
23458
23439
23455
23418
23399
23413
23397
23423
23375
23393
23393
23377
23389
23360
23388
23380
23351
23338
23368
23349
23355
23363
23357
23354
23355
23398
23377
23399
23396
23386
23396
23406
23413
23456
23418
23436
23454
23467
23446
23472
23521
23538
23543
23547
23554
23601
23576
23625
23601
23639
23649
23685
23688
23719
23707
23740
23750
23745
23741
23759
23787
23742
23758
23756
23749
23730
23743
23731
23747
23713
23722
23726
23725
23707
23726
23728
23708
23686
23688
23669
23670
23687
23668
23684
23676
23674
23664
23643
23653
23640
23602
23630
23597
23632
23596
23595
23603
23596
23586
23574
23551
23584
23557
23550
23557
23520
23534
23524
23538
23513
23543
23539
23488
23510
23521
23509
23514
23493
23501
23488
23485
23508
23504
23466
23504
23481
23466
23485
23476
23490
23469
23449
23461
23452
23445
23417
23437
23445
23445
23460
23449
23444
23411
23426
23400
23443
23440
23438
23433
23453
23442
23458
23458
23462
23432
23459
23462
23459
23510
23538
23504
23530
23567
23556
23581
23596
23635
23624
23663
23644
23687
23721
23713
23743
23782
23771
23792
23797
23822
23856
23838
23894
23873
23865
23894
23889
23900
23916
23878
23880
23884
23861
23873
23872
23865
23874
23866
23886
23853
23846
23849
23852
23826
23846
23814
23828
23810
23819
23814
23790
23795
23783
23753
23751
23774
23762
23739
23760
23751
23712
23722
23735
23732
23686
23704
23690
23704
23705
23707
23702
23713
23700
23688
23681
23670
23657
23680
23661
23668
23686
23665
23664
23646
23664
23657
23661
23641
23622
23645
23637
23637
23629
23657
23635
23589
23597
23626
23652
23607
23599
23607
23587
23605
23590
23575
23595
23573
23603
23557
23590
23609
23567
23564
23573
23590
23598
23608
23624
23609
23635
23655
23660
23665
23704
23678
23706
23715
23723
23739
23771
23759
23736
23794
23828
23824
23840
23864
23910
23920
23944
23916
23972
23971
23964
24006
24031
24021
24050
24076
24065
24081
24097
24069
24092
24081
24104
24071
24059
24118
24081
24048
24057
24026
24062
24039
24048
24029
24025
24022
24023
24010
24018
24030
24009
24013
23994
23998
23997
24016
23998
23957
23960
23982
23962
23960
23960
23958
23921
23921
23905
23904
23917
23900
23900
23892
23881
23902
23894
23862
23883
23876
23845
23867
23860
23841
23878
23861
23870
23867
23838
23856
23859
23859
23828
23851
23789
23839
23803
23800
23813
23803
23807
23804
23792
23796
23797
23763
23762
23764
23743
23778
23757
23740
23751
23721
23755
23728
23719
23726
23745
23743
23713
23749
23743
23758
23751
23781
23783
23787
23810
23815
23835
23873
23844
23880
23918
23909
23908
23953
23960
23995
23985
24005
24049
24080
24078
24067
24124
24104
24129
24161
24159
24181
24192
24186
24191
24192
24157
24179
24187
24202
24192
24207
24214
24175
24186
24185
24181
24167
24176
24128
24152
24140
24137
24147
24120
24102
24099
24097
24090
24091
24094
24092
24082
24072
24076
24059
24054
24026
24016
24035
24028
24029
24019
24012
23998
24007
23955
23973
23998
23966
23938
23947
23953
23946
23950
23920
23940
23917
23936
23935
23911
23903
23916
23888
23905
23934
23904
23882
23884
23908
23872
23870
23868
23867
23871
23841
23866
23841
23848
23846
23828
23825
23823
23828
23823
23808
23809
23801
23791
23779
23779
23785
23765
23737
23734
23750
23733
23766
23746
23747
23724
23708
23725
23785
23757
23772
23750
23760
23789
23814
23775
23795
23826
23841
23860
23862
23839
23911
23909
23906
23932
23942
23963
23981
23989
23998
24001
24054
24046
24061
24092
24098
24101
24136
24133
24124
24139
24152
24144
24124
24137
24124
24136
24134
24110
24105
24115
24085
24063
24091
24084
24066
24069
24038
24046
24034
24023
24035
24015
24021
24026
24014
24025
24007
23987
24001
23993
23995
23967
23964
23941
23961
23971
23945
23950
23928
23928
23942
23913
23916
23919
23872
23922
23897
23901
23883
23851
23884
23871
23863
23858
23831
23834
23825
23813
23821
23816
23832
23806
23783
23796
23790
23793
23763
23773
23772
23747
23780
23766
23764
23754
23755
23730
23734
23752
23695
23686
23690
23711
23676
23692
23682
23674
23653
23654
23672
23649
23631
23640
23633
23649
23624
23635
23617
23652
23668
23634
23659
23644
23672
23678
23692
23684
23669
23686
23718
23763
23763
23768
23792
23791
23781
23816
23842
23865
23886
23913
23921
23954
23971
23965
23991
24025
24030
24026
24045
24037
24085
24077
24079
24091
24079
24078
24083
24095
24062
24040
24050
24056
24045
24056
24076
24041
24027
24029
24022
23986
23994
24006
24017
23992
23988
23973
23975
23967
23943
23954
23942
23904
23908
23922
23913
23893
23890
23877
23908
23901
23883
23864
23879
23854
23867
23838
23865
23827
23870
23829
23815
23816
23779
23812
23805
23771
23805
23772
23777
23784
23766
23735
23725
23721
23734
23736
23721
23738
23749
23720
23711
23709
23677
23698
23669
23685
23695
23693
23655
23652
23685
23694
23661
23642
23644
23614
23647
23656
23632
23637
23630
23606
23616
23617
23607
23581
23562
23574
23589
23588
23559
23567
23606
23575
23586
23577
23574
23565
23577
23621
23606
23600
23594
23639
23659
23654
23667
23688
23677
23676
23726
23730
23748
23761
23780
23805
23808
23839
23858
23854
23870
23897
23918
23937
23972
23969
23981
23983
23981
24013
23995
24017
24003
24031
24012
24038
24015
23998
24013
24001
23992
23980
24007
23994
23980
23973
23969
23957
23956
23973
23942
23943
23946
23969
23962
23916
23928
23916
23884
23911
23891
23868
23871
23887
23871
23883
23858
23830
23861
23839
23841
23828
23837
23825
23799
23805
23784
23782
23812
23771
23780
23776
23779
23770
23782
23783
23771
23766
23736
23726
23728
23729
23731
23708
23705
23695
23730
23695
23725
23689
23684
23712
23669
23705
23651
23684
23684
23676
23618
23640
23634
23650
23606
23620
23639
23603
23602
23596
23571
23583
23593
23572
23570
23567
23597
23581
23573
23598
23593
23570
23572
23575
23567
23596
23586
23613
23592
23599
23613
23630
23643
23641
23698
23680
23689
23711
23717
23720
23725
23759
23769
23812
23823
23831
23855
23857
23860
23899
23875
23901
23895
23918
23933
23931
23963
23952
23957
23963
23932
23938
23917
23930
23913
23928
23946
23928
23906
23888
23889
23898
23884
23866
23851
23863
23855
23868
23843
23831
23829
23823
23797
23800
23809
23809
23811
23782
23749
23747
23779
23767
23730
23716
23710
23725
23711
23724
23696
23695
23677
23705
23668
23670
23630
23640
23668
23644
23637
23631
23651
23632
23592
23606
23636
23609
23624
23629
23621
23607
23639
23587
23603
23627
23579
23613
23622
23601
23585
23579
23568
23582
23569
23551
23557
23562
23550
23533
23558
23541
23552
23531
23535
23562
23521
23533
23543
23524
23549
23537
23560
23563
23546
23525
23550
23574
23568
23594
23584
23616
23598
23616
23655
23651
23651
23664
23672
23723
23721
23724
23784
23768
23775
23817
23821
23836
23877
23848
23867
23920
23904
23910
23949
23933
23948
23934
23959
23955
23975
23951
23963
23956
23954
23955
23949
23955
23968
23944
23928
23934
23937
23921
23888
23884
23885
23864
23865
23889
23885
23840
23844
23836
23858
23843
23825
23815
23818
23811
23847
23823
23809
23791
23786
23792
23778
23787
23771
23789
23730
23734
23717
23722
23723
23721
23740
23707
23721
23728
23705
23739
23717
23709
23737
23727
23674
23720
23699
23729
23693
23690
23695
23673
23682
23665
23687
23671
23692
23654
23656
23663
23670
23679
23636
23636
23668
23680
23634
23633
23662
23658
23667
23654
23609
23631
23631
23633
23626
23634
23624
23614
23608
23630
23632
23630
23630
23669
23635
23678
23664
23679
23711
23704
23720
23742
23800
23753
23762
23817
23809
23873
23883
23859
23897
23943
23929
23969
23979
23980
24000
24034
24023
24084
24044
24085
24066
24098
24102
24125
24099
24090
24090
24095
24106
24113
24081
24077
24071
24037
24051
24063
24062
24061
24061
24041
24024
24045
24018
24025
24052
24014
24006
24033
24011
23986
23999
23999
23962
23972
23956
23965
23903
23921
23934
23947
23921
23921
23906
23913
23902
23883
23888
23845
23870
23836
23850
23831
23819
23841
23804
23777
23780
23794
23775
23783
23767
23748
23760
23763
23753
23744
23705
23715
23716
23719
23711
23712
23675
23689
23712
23662
23683
23663
23666
23674
23633
23644
23634
23625
23639
23618
23589
23612
23624
23617
23618
23610
23594
23605
23602
23639
23616
23610
23627
23600
23618
23627
23618
23649
23638
23641
23655
23659
23676
23667
23700
23726
23722
23718
23765
23777
23782
23831
23804
23842
23823
23872
23921
23876
23927
23931
23913
23961
23949
23965
23949
23934
23963
23940
23953
23961
23936
23931
23947
23915
23913
23918
23890
23922
23862
23904
23906
23877
23872
23869
23859
23874
23841
23832
23811
23830
23806
23795
23804
23834
23820
23768
23788
23756
23777
23759
23775
23754
23717
23728
23736
23749
23706
23698
23708
23722
23705
23693
23679
23676
23710
23693
23691
23671
23676
23667
23668
23652
23660
23641
23651
23648
23634
23635
23613
23611
23629
23636
23631
23603
23560
23585
23568
23589
23569
23558
23568
23551
23518
23504
23512
23521
23500
23509
23525
23496
23499
23499
23494
23471
23502
23520
23521
23517
23512
23560
23535
23552
23551
23566
23579
23586
23604
23617
23620
23628
23662
23658
23676
23695
23687
23717
23752
23754
23737
23762
23815
23807
23841
23838
23838
23863
23870
23882
23886
23870
23888
23900
23891
23889
23869
23897
23860
23845
23866
23868
23857
23827
23850
23831
23846
23816
23814
23829
23827
23801
23801
23793
23809
23782
23765
23780
23773
23772
23759
23741
23749
23761
23726
23738
23736
23699
23737
23713
23677
23702
23685
23699
23711
23712
23678
23661
23645
23646
23660
23647
23654
23653
23615
23635
23629
23623
23604
23629
23580
23599
23591
23595
23561
23596
23577
23581
23572
23575
23569
23558
23534
23547
23531
23524
23526
23465
23532
23531
23493
23499
23497
23519
23498
23501
23498
23512
23517
23519
23525
23532
23554
23548
23570
23567
23571
23587
23608
23612
23613
23645
23645
23693
23668
23686
23691
23741
23750
23761
23790
23800
23804
23833
23846
23890
23899
23886
23915
23934
23922
23918
23929
23929
23923
23931
23916
23928
23935
23918
23908
23921
23880
23849
23861
23878
23877
23860
23860
23840
23860
23827
23855
23800
23826
23820
23795
23751
23807
23765
23805
23783
23764
23764
23733
23749
23762
23744
23770
23754
23752
23731
23723
23702
23707
23713
23703
23690
23683
23642
23680
23664
23663
23659
23651
23664
23648
23681
23622
23649
23615
23614
23637
23599
23617
23616
23587
23614
23590
23570
23554
23566
23553
23543
23548
23528
23503
23527
23508
23505
23515
23522
23489
23515
23512
23501
23514
23515
23551
23493
23568
23526
23565
23559
23580
23609
23596
23607
23613
23643
23635
23650
23659
23712
23718
23745
23737
23783
23787
23817
23828
23834
23853
23845
23891
23908
23907
23916
23936
23944
23951
23936
23948
23969
23943
23950
23927
23952
23916
23908
23903
23899
23870
23882
23874
23893
23880
23876
23861
23863
23834
23825
23826
23822
23819
23797
23809
23800
23781
23802
23762
23772
23802
23774
23779
23761
23762
23744
23750
23708
23717
23748
23705
23693
23690
23709
23693
23714
23687
23679
23687
23690
23716
23696
23675
23658
23679
23688
23714
23665
23661
23672
23673
23635
23647
23640
23649
23658
23611
23639
23624
23606
23598
23634
23571
23604
23599
23592
23569
23597
23570
23559
23612
23585
23583
23589
23610
23628
23640
23635
23652
23654
23659
23655
23696
23693
23720
23717
23720
23747
23755
23808
23789
23780
23781
23834
23833
23857
23897
23935
23918
23935
23986
23992
23963
23979
23984
23980
23985
24003
23989
23987
24002
23989
23959
23971
23988
23972
23959
23949
23935
23944
23956
23920
23924
23911
23908
23925
23888
23907
23892
23876
23869
23899
23905
23879
23883
23868
23863
23896
23852
23867
23887
23835
23842
23833
23851
23843
23852
23852
23846
23850
23843
23828
23842
23835
23825
23821
23827
23833
23824
23821
23808
23803
23804
23794
23781
23782
23771
23769
23786
23775
23787
23782
23784
23754
23744
23740
23772
23728
23723
23728
23728
23742
23725
23675
23732
23729
23739
23749
23736
23723
23738
23725
23762
23772
23768
23789
23806
23817
23842
23806
23832
23854
23837
23879
23911
23877
23903
23936
23925
23953
24000
23984
24015
24011
24031
24024
24096
24066
24094
24094
24103
24084
24151
24101
24100
24110
24108
24085
24110
24110
24093
24089
24057
24065
24047
24067
24067
24051
24042
24050
24028
24025
24033
24033
23979
23966
23999
23979
23969
23972
23948
23949
23923
23929
23918
23902
23903
23915
23926
23925
23918
23910
23904
23898
23897
23869
23871
23869
23894
23875
23890
23871
23880
23841
23836
23870
23887
23862
23829
23832
23825
23854
23819
23839
23848
23813
23808
23800
23811
23790
23793
23782
23783
23789
23775
23763
23756
23759
23742
23738
23730
23725
23735
23711
23769
23738
23723
23705
23712
23688
23726
23729
23717
23751
23747
23771
23754
23777
23795
23810
23822
23793
23841
23844
23865
23874
23905
23926
23944
23952
23979
23978
24018
23992
24001
24042
24075
24080
24096
24129
24143
24130
24158
24123
24173
24163
24172
24177
24162
24171
24150
24159
24181
24165
24130
24120
24135
24117
24120
24107
24091
24091
24082
24082
24065
24058
24062
24040
24058
24041
24023
24002
23990
24008
24003
23995
23991
23971
23970
23949
23945
23966
23951
23950
23965
23948
23927
23949
23948
23931
23934
23934
23886
23907
23910
23916
23904
23907
23881
23909
23913
23894
23910
23912
23903
23877
23895
23897
23886
23892
23895
23887
23888
23906
23876
23853
23883
23894
23880
23861
23874
23865
23867
23849
23856
23865
23869
23865
23851
23839
23855
23843
23832
23866
23848
23856
23848
23875
23892
23860
23866
23867
23872
23904
23929
23900
23948
23912
23978
23976
23979
24013
24035
24071
24088
24064
24123
24119
24151
24172
24190
24202
24240
24218
24221
24232
24272
24269
24282
24292
24306
24274
24285
24286
24317
24265
24289
24251
24276
24261
24229
24231
24191
24230
24213
24231
24191
24207
24190
24195
24180
24175
24143
24149
24128
24109
24130
24114
24079
24124
24095
24119
24091
24085
24079
24048
24074
24061
24052
24061
24061
24037
24024
24026
24030
24021
23994
23979
24024
23984
23981
23978
23976
23968
23952
23954
23977
23967
23946
23945
23960
23949
23959
23961
23930
23928
23919
23921
23922
23921
23941
23925
23885
23890
23914
23902
23908
23894
23885
23890
23878
23848
23865
23848
23853
23812
23845
23827
23831
23848
23858
23827
23820
23827
23823
23824
23846
23859
23851
23848
23838
23890
23894
23922
23919
23934
23932
23951
24007
24019
24038
24043
24081
24091
24127
24128
24145
24170
24191
24208
24231
24230
24253
24242
24287
24286
24285
24287
24283
24290
24331
24286
24296
24297
24277
24295
24275
24257
24263
24239
24221
24238
24206
24222
24190
24222
24227
24179
24161
24200
24172
24174
24142
24157
24123
24130
24127
24129
24123
24114
24113
24108
24097
24061
24076
24076
24070
24051
24073
24047
24029
24063
24081
24027
24028
24033
24031
24022
24017
24000
24038
24012
24007
23996
24014
23987
23995
24006
23999
23972
23984
23972
23966
23934
23942
23938
23935
23924
23930
23926
23904
23891
23889
23871
23897
23875
23866
23835
23852
23870
23837
23820
23820
23815
23800
23802
23813
23813
23809
23773
23791
23800
23794
23808
23809
23860
23834
23808
23829
23846
23881
23904
23891
23906
23892
23934
23955
23970
23970
24006
24034
24043
24067
24059
24091
24146
24120
24158
24144
24173
24203
24220
24213
24198
24200
24211
24214
24197
24214
24212
24208
24214
24198
24185
24170
24173
24165
24147
24141
24145
24128
24145
24114
24110
24109
24107
24086
24080
24077
24060
24075
24069
24077
24051
24062
24051
24038
24065
23999
24012
24011
24012
24003
24025
23983
24005
23964
23946
23977
23960
23967
23963
23944
23922
23927
23942
23937
23935
23958
23939
23915
23946
23933
23929
23901
23882
23918
23896
23904
23893
23903
23867
23868
23851
23878
23852
23870
23878
23833
23825
23861
23857
23819
23839
23826
23822
23797
23811
23821
23798
23813
23809
23791
23795
23800
23817
23799
23851
23857
23825
23848
23855
23852
23865
23873
23866
23911
23924
23921
23959
23963
23968
23988
24035
24024
24014
24048
24094
24105
24113
24114
24147
24184
24177
24177
24197
24212
24171
24189
24182
24239
24213
24194
24238
24197
24166
24208
24193
24149
24176
24167
24198
24145
24133
24136
24164
24127
24144
24131
24142
24118
24114
24111
24154
24079
24095
24090
24080
24076
24084
24070
24076
24064
24047
24038
24063
24063
24061
24035
24013
24050
24049
24019
24015
24011
24002
24023
24007
24007
24005
23995
23996
23986
23975
23971
23958
23972
23962
23979
23965
23945
23953
23924
23947
23950
23958
23916
23921
23907
23914
23905
23905
23891
23918
23890
23901
23875
23884
23856
23864
23838
23865
23862
23874
23876
23857
23878
23883
23888
23931
23899
23920
23895
23951
23954
23956
23982
23986
23989
24005
24014
24033
24047
24061
24095
24102
24151
24158
24167
24150
24186
24225
24230
24235
24274
24308
24288
24294
24318
24338
24325
24358
24331
24344
24351
24337
24327
24352
24340
24347
24323
24301
24314
24306
24284
24311
24290
24287
24287
24260
24256
24243
24248
24251
24211
24253
24239
24199
24230
24211
24236
24198
24208
24192
24197
24217
24174
24157
24184
24162
24146
24160
24148
24140
24143
24123
24133
24119
24135
24128
24132
24159
24159
24137
24131
24141
24125
24124
24115
24142
24138
24104
24104
24091
24111
24094
24114
24092
24074
24109
24117
24044
24071
24040
24044
24067
24027
24040
24016
24037
24026
24045
24035
24017
24044
24022
24042
24062
24045
24056
24088
24070
24068
24088
24116
24117
24095
24144
24134
24137
24207
24190
24183
24219
24232
24246
24270
24278
24300
24299
24310
24342
24347
24368
24365
24392
24404
24393
24403
24444
24436
24446
24457
24438
24416
24422
24432
24415
24402
24411
24392
24386
24369
24364
24377
24393
24370
24359
24354
24352
24327
24345
24322
24315
24306
24301
24303
24295
24303
24297
24311
24270
24254
24270
24250
24230
24260
24253
24261
24253
24234
24273
24206
24254
24243
24220
24210
24210
24222
24224
24166
24184
24196
24177
24179
24214
24194
24200
24177
24176
24171
24166
24164
24156
24157
24152
24147
24159
24174
24164
24109
24127
24144
24121
24155
24100
24123
24106
24112
24093
24116
24101
24117
24098
24114
24112
24102
24121
24151
24137
24118
24170
24148
24189
24182
24167
24180
24211
24210
24240
24246
24270
24236
24262
24289
24321
24333
24350
24370
24393
24422
24414
24441
24440
24459
24487
24476
24469
24499
24519
24510
24511
24501
24507
24503
24477
24523
24496
24483
24534
24506
24476
24490
24504
24481
24506
24482
24495
24476
24475
24472
24472
24475
24456
24443
24444
24435
24446
24444
24454
24435
24441
24444
24454
24437
24425
24409
24430
24414
24409
24414
24377
24405
24422
24408
24399
24402
24399
24420
24417
24389
24380
24392
24394
24362
24384
24375
24384
24379
24378
24370
24342
24340
24367
24346
24361
24337
24328
24341
24334
24359
24319
24342
24297
24323
24329
24314
24312
24314
24320
24303
24320
24341
24317
24320
24338
24360
24353
24368
24395
24379
24412
24403
24427
24447
24443
24471
24501
24513
24522
24540
24589
24558
24603
24637
24655
24665
24665
24670
24715
24731
24759
24766
24772
24787
24776
24818
24811
24789
24811
24806
24828
24800
24802
24815
24794
24795
24796
24758
24788
24792
24773
24765
24766
24752
24759
24718
24757
24732
24730
24706
24745
24728
24726
24719
24707
24715
24713
24713
24713
24689
24684
24695
24677
24688
24679
24682
24661
24672
24681
24660
24671
24668
24651
24653
24665
24645
24639
24646
24664
24650
24637
24669
24634
24612
24614
24622
24611
24621
24623
24619
24580
24584
24585
24601
24575
24583
24587
24577
24584
24567
24589
24549
24551
24562
24539
24529
24511
24528
24541
24519
24531
24521
24515
24506
24500
24504
24516
24526
24522
24510
24534
24524
24538
24544
24554
24560
24577
24587
24613
24603
24619
24641
24639
24659
24667
24697
24714
24725
24754
24761
24775
24803
24777
24827
24842
24817
24859
24842
24861
24862
24878
24886
24865
24882
24847
24873
24873
24836
24829
24810
24838
24805
24834
24809
24780
24795
24748
24801
24761
24760
24741
24757
24742
24708
24726
24715
24695
24678
24681
24689
24684
24653
24662
24647
24653
24647
24624
24654
24598
24616
24613
24614
24602
24604
24599
24609
24582
24569
24577
24603
24564
24543
24527
24561
24562
24544
24553
24553
24514
24528
24533
24506
24508
24512
24518
24470
24496
24497
24510
24504
24467
24452
24433
24477
24473
24454
24456
24463
24422
24439
24469
24416
24423
24420
24430
24412
24394
24414
24413
24436
24425
24444
24422
24431
24448
24476
24460
24482
24516
24495
24504
24542
24537
24558
24558
24601
24598
24616
24669
24657
24658
24694
24691
24744
24735
24775
24761
24795
24790
24815
24825
24856
24819
24825
24821
24837
24837
24842
24802
24826
24792
24797
24794
24776
24801
24751
24764
24751
24746
24753
24738
24754
24745
24704
