30073
30100
30119
30132
30136
30130
30115
30092
30064
30028
29988
29944
29896
29844
29787
29726
29661
29591
29522
29450
29372
29294
29217
29142
29069
28998
28928
28861
28798
28739
28683
28629
28573
28517
28461
28404
28349
28296
28244
28192
28145
28100
28053
28003
27951
27901
27858
27821
27785
27748
27711
27676
27646
27619
27593
27569
27542
27509
27474
27442
27409
27372
27328
27284
27246
27212
27181
27155
27130
27105
27078
27048
27018
26990
26962
26933
26906
26882
26862
26845
26826
26802
26775
26747
26721
26697
26674
26649
26620
26590
26558
26523
26485
26447
26410
26375
26342
26309
26277
26244
26211
26179
26145
26109
26070
26029
25987
25946
25905
25861
25815
25770
25730
25692
25652
25609
25567
25525
25483
25443
25404
25365
25328
25297
25269
25241
25213
25187
25157
25124
25089
25052
25008
24958
24903
24846
24787
24729
24673
24617
24559
24504
24453
24407
24367
24331
24304
24290
24294
24319
24373
24458
24578
24736
24934
25175
25455
25768
26112
26481
26866
27257
27648
28033
28412
28779
29130
29457
29754
30019
30251
30449
30613
30744
30842
30910
30953
30976
30981
30972
30949
30916
30876
30832
30785
30735
30687
30639
30593
30553
30516
30480
30444
30410
30382
30359
30337
30315
30290
30259
30225
30186
30143
30093
30034
29969
29898
29825
29754
29685
29618
29558
29503
29455
29412
29376
29350
29335
29327
29328
29340
29361
29387
29415
29445
29476
29509
29539
29567
29592
29612
29625
29632
29631
29623
29611
29595
29575
29548
29516
29478
29434
29383
29327
29265
29200
29134
29069
29006
28944
28884
28823
28763
28703
28645
28590
28538
28486
28432
28377
28320
28261
28202
28138
28072
28004
27937
27875
27818
27762
27705
27649
27597
27549
27503
27463
27426
27391
27362
27335
27309
27282
27255
27229
27204
27181
27161
27142
27119
27090
27059
27028
26998
26968
26943
26922
26905
26888
26871
26850
26826
26799
26774
26750
26728
26705
26680
26651
26619
26588
26561
26536
26510
26481
26449
26415
26379
26343
26307
26272
26236
26197
26157
26116
26072
26025
25980
25936
25892
25847
25804
25765
25727
25689
25647
25600
25555
25513
25476
25441
25409
25377
25343
25307
25273
25240
25211
25185
25154
25121
25087
25052
25015
24977
24936
24893
24849
24803
24754
24701
24649
24599
24550
24502
24458
24418
24379
24336
24293
24254
24217
24179
24146
24122
24110
24115
24142
24197
24286
24410
24574
24779
25021
25298
25611
25953
26311
26678
27053
27428
27795
28150
28485
28796
29079
29335
29566
29768
29940
30079
30188
30269
30323
30357
30373
30374
30362
30337
30301
30254
30197
30134
30067
30001
29937
29871
29806
29744
29686
29635
29586
29538
29491
29446
29405
29364
29321
29274
29220
29157
29084
29001
28911
28818
28723
28630
28540
28457
28385
28325
28278
28245
28223
28213
28215
28227
28246
28268
28289
28310
28332
28354
28378
28404
28434
28466
28498
28524
28543
28556
28563
28562
28555
28540
28516
28481
28437
28385
28327
28265
28200
28132
28061
27992
27925
27858
27790
27725
27660
27596
27531
27467
27403
27339
27273
27207
27143
27083
27024
26964
26902
26841
26784
26731
26678
26625
26567
26509
26451
26395
26343
26295
26248
26203
26163
26128
26095
26064
26038
26017
25998
25978
25956
25936
25917
25898
25879
25860
25840
25819
25795
25770
25744
25717
25687
25658
25631
25606
25584
25566
25549
25533
25516
25493
25465
25434
25403
25373
25347
25324
25301
25279
25256
25229
25199
25167
25134
25101
25072
25045
25013
24978
24940
24893
24841
24785
24727
24664
24596
24528
24464
24407
24359
24318
24280
24246
24220
24201
24187
24173
24158
24145
24132
24114
24091
24063
24034
24005
23975
23952
23944
23957
23993
24057
24151
24281
24452
24661
24902
25169
25459
25769
26095
26430
26766
27100
27427
27740
28034
28304
28545
28756
28936
29086
29210
29305
29375
29421
29445
29450
29440
29417
29385
29346
29303
29253
29200
29144
29087
29032
28977
28920
28861
28805
28749
28692
28634
28577
28517
28454
28388
28320
28247
28167
28082
27993
27905
27820
27739
27665
27598
27539
27489
27450
27418
27399
27393
27398
27413
27437
27468
27505
27545
27591
27643
27700
27755
27805
27853
27897
27934
27964
27988
28003
28007
27999
27982
27954
27918
27876
27834
27792
27751
27708
27661
27604
27540
27472
27407
27345
27285
27229
27177
27127
27076
27022
26971
26927
26885
26842
26797
26749
26698
26645
26586
26523
26458
26396
26338
26282
26228
26173
26117
26059
26004
25956
25916
25881
25848
25818
25788
25756
25724
25692
25659
25630
25603
25578
25554
25532
25511
25492
25476
25464
25455
25443
25425
25402
25377
25350
25325
25299
25276
25257
25240
25222
25205
25187
25165
25136
25105
25073
25046
25022
24996
24968
24940
24914
24892
24870
24843
24811
24777
24742
24706
24667
24625
24579
24529
24478
24428
24379
24327
24276
24229
24186
24148
24113
24082
24051
24018
23986
23958
23937
23928
23935
23963
24022
24117
24249
24420
24629
24872
25142
25436
25745
26059
26376
26693
27006
27313
27612
27894
28152
28382
28589
28774
28935
29074
29192
29289
29363
29415
29446
29458
29454
29439
29413
29376
29332
29282
29228
29174
29125
29077
29026
28975
28929
28887
28848
28813
28782
28753
28724
28695
28665
28635
28602
28563
28517
28466
28412
28354
28293
28234
28178
28124
28074
28030
27993
27961
27938
27925
27920
27920
27925
27937
27955
27974
27997
28026
28061
28098
28133
28165
28196
28225
28248
28266
28275
28275
28264
28245
28217
28179
28134
28085
28034
27982
27932
27884
27834
27783
27735
27685
27632
27578
27525
27471
27416
27359
27298
27234
27167
27099
27029
26959
26893
26832
26781
26735
26694
26656
26618
26577
26534
26490
26445
26404
26367
26333
26300
26266
26234
26202
26169
26137
26104
26073
26046
26022
25998
25975
25951
25928
25906
25881
25852
25822
25795
25769
25742
25714
25685
25657
25631
25606
25581
25558
25540
25526
25515
25501
25483
25460
25435
25406
25369
25328
25288
25251
25216
25183
25152
25122
25095
25071
25044
25012
24976
24939
24904
24869
24832
24796
24757
24712
24663
24611
24558
24507
24459
24413
24370
24330
24291
24253
24217
24181
24148
24114
24075
24033
23989
23943
23900
23862
23829
23801
23772
23738
23703
23666
23626
23585
23544
23502
23460
23422
23387
23351
23318
23284
23252
23222
23196
23170
23143
23118
23093
23068
23044
23017
22984
22947
22908
22871
22833
22794
22756
22721
22685
22650
22622
22603
22600
22621
22676
22773
22912
23092
23309
23557
23834
24134
24453
24782
25116
25450
25779
26098
26402
26690
26962
27217
27447
27651
27827
27976
28102
28203
28280
28336
28372
28390
28391
28378
28354
28320
28279
28229
28169
28105
28043
27982
27921
27868
27824
27784
27748
27715
27687
27660
27634
27613
27598
27583
27559
27527
27490
27444
27391
27331
27266
27204
27149
27099
27057
27019
26985
26958
26940
26931
26932
26942
26958
26979
27008
27040
27075
27107
27137
27162
27183
27203
27222
27236
27244
27249
27247
27238
27223
27206
27187
27166
27143
27113
27075
27029
26978
26924
26863
26795
26722
26649
26579
26510
26442
26376
26314
26255
26198
26145
26093
26040
25984
25928
25872
25815
25757
25700
25642
25580
25515
25450
25387
25328
25274
25228
25189
25153
25120
25088
25060
25036
25016
24998
24980
24960
24935
24908
24881
24858
24838
24823
24811
24799
24786
24773
24758
24741
24723
24705
24687
24671
24654
24634
24611
24587
24562
24539
24521
24503
24478
24450
24425
24401
24374
24347
24317
24288
24261
24235
24207
24179
24148
24113
24075
24033
23991
23948
23900
23853
23807
23763
23723
23684
23644
23601
23557
23514
23475
23438
23403
23374
23347
23317
23285
23253
23222
23187
23147
23105
23064
23022
22981
22939
22894
22843
22792
22743
22696
22650
22607
22569
22535
22505
22477
22452
22429
22405
22379
22351
22324
22295
22265
22236
22212
22194
22186
22194
22223
22274
22352
22462
22605
22780
22985
23214
23459
23716
23984
24261
24541
24817
25083
25337
25577
25801
26007
26191
26354
26493
26605
26694
26764
26817
26854
26874
26878
26869
26849
26820
26781
26731
26674
26612
26546
26477
26409
26344
26280
26220
26166
26121
26079
26037
25992
25942
25888
25831
25772
25710
25644
25579
25518
25461
25409
25366
25329
25296
25267
25243
25220
25199
25183
25174
25172
25178
25190
25214
25247
25284
25324
25368
25411
25451
25487
25522
25555
25582
25600
25609
25608
25600
25584
25562
25536
25503
25468
25431
25391
25344
25294
25243
25195
25142
25084
25023
24962
24900
24838
24777
24721
24668
24618
24567
24516
24466
24419
24374
24327
24277
24224
24171
24123
24081
24043
24005
23959
23906
23851
23797
23742
23688
23641
23602
23573
23551
23534
23518
23501
23486
23470
23452
23434
23416
23397
23374
23349
23323
23297
23267
23230
23193
23158
23127
23099
23078
23060
23043
23027
23016
23006
22997
22987
22977
22965
22949
22933
22917
22899
22878
22856
22835
22816
22797
22779
22762
22742
22719
22695
22669
22640
22608
22574
22541
22502
22458
22412
22368
22321
22273
22223
22173
22124
22076
22032
21992
21957
21924
21894
21866
21838
21812
21790
21776
21768
21770
21782
21810
21860
21942
22058
22207
22387
22599
22841
23106
23384
23669
23957
24242
24522
24792
25056
25309
25544
25758
25946
26108
26246
26357
26441
26499
26537
26556
26558
26544
26518
26486
26453
26416
26377
26336
26294
26254
26216
26183
26151
26118
26083
26049
26018
25990
25964
25935
25903
25866
25822
25771
25718
25662
25605
25547
25484
25419
25355
25294
25237
25187
25142
25100
25059
25026
25004
24989
24977
24970
24969
24975
24989
25012
25042
25077
25112
25144
25172
25199
25222
25240
25251
25255
25251
25242
25227
25204
25175
25140
25100
25053
24998
24941
24883
24823
24764
24703
24642
24581
24520
24459
24401
24346
24295
24243
24191
24139
24087
24037
23987
23934
23882
23832
23783
23736
23690
23642
23594
23547
23502
23461
23423
23384
23345
23312
23286
23262
23238
23213
23186
23157
23128
23100
23072
23045
23016
22984
22953
22927
22906
22887
22870
22856
22845
22831
22813
22788
22761
22735
22710
22688
22669
22651
22629
22602
22572
22537
22500
22467
22441
22422
22405
22388
22370
22349
22319
22283
22247
22214
22182
22150
22118
22088
22062
22033
22003
21973
21945
21917
21890
21862
21830
21794
21756
21719
21684
21649
21612
21571
21529
21488
21449
21409
21368
21330
21297
21265
21236
21211
21188
21167
21145
21124
21105
21089
21075
21066
21066
21080
21115
21172
21255
21368
21510
21679
21876
22100
22349
22624
22922
23232
23546
23860
24171
24475
24768
25045
25302
25533
25735
25908
26048
26160
26246
26308
26348
26366
26366
26351
26325
26291
26253
26213
26169
26123
26078
26035
25996
25960
25925
25892
25861
25833
25807
25780
25749
25717
25685
25647
25601
25552
25502
25449
25392
25332
25269
25212
25160
25115
25077
25043
25010
24985
24973
24968
24971
24979
24990
24999
25007
25016
25029
25046
25066
25088
25111
25133
25152
25170
25187
25200
25207
25209
25207
25199
25185
25164
25138
25108
25072
25033
24987
24934
24884
24839
24797
24755
24712
24666
24619
24573
24524
24471
24415
24358
24300
24240
24183
24130
24078
24022
23967
23913
23863
23818
23776
23734
23690
23643
23595
23546
23498
23453
23410
23369
23330
23290
23250
23210
23172
23136
23104
23077
23055
23038
23022
23005
22985
22963
22938
22912
22891
22873
22857
22841
22821
22798
22778
22762
22749
22730
22707
22683
22659
22633
22606
22580
22554
22529
22505
22481
22455
22427
22400
22375
22350
22323
22295
22267
22235
22197
22157
22120
22083
22044
22005
21966
21929
21898
21873
21851
21830
21809
21788
21767
21746
21724
21698
21668
21633
21596
21559
21525
21491
21456
21416
21373
21328
21285
21244
21202
21160
21122
21085
21048
21010
20972
20936
20901
20868
20839
20814
20787
20758
20734
20722
20726
20750
20796
20867
20968
21104
21276
21480
21712
21968
22240
22526
22823
23126
23434
23741
24042
24332
24608
24865
25101
25313
25501
25665
25803
25913
25997
26056
26094
26115
26123
26119
26103
26079
26049
26012
25969
25921
25874
25830
25787
25747
25709
25673
25639
25606
25575
25545
25517
25488
25459
25429
25398
25365
25326
25283
25237
25189
25141
25090
25038
24986
24935
24890
24851
24819
24793
24772
24758
24757
24766
24779
24796
24819
24846
24873
24897
24920
24943
24965
24987
25008
25027
25043
25052
25055
25054
25052
25049
25041
25030
25016
24996
24966
24930
24887
24838
24782
24724
24665
24609
24554
24497
24434
24370
24310
24253
24200
24151
24104
24059
24015
23974
23936
23899
23860
23817
23770
23722
23676
23635
23594
23551
23507
23465
23425
23386
23351
23319
23286
23252
23218
23183
23150
23121
23098
23077
23058
23040
23024
23009
22997
22986
22976
22963
22943
22921
22898
22872
22843
22812
22777
22743
22708
22671
22633
22593
22554
22521
22493
22469
22447
22428
22409
22388
22366
22342
22314
22286
22258
22236
22217
22196
22173
22150
22125
22098
22073
22050
22024
21990
21948
21902
21856
21810
21766
21724
21682
21639
21602
21572
21546
21520
21497
21479
21463
21445
21427
21413
21396
21372
21346
21322
21304
21293
21293
21308
21344
21406
21497
21620
21774
21960
22178
22420
22679
22951
23233
23523
23817
24112
24405
24690
24963
25216
25442
25637
25803
25944
26062
26157
26231
26287
26324
26344
26342
26324
26296
26260
26213
26159
26101
26042
25983
25926
25871
25821
25773
25728
25688
25652
25618
25589
25561
25530
25492
25446
25390
25325
25254
25180
25104
25030
24964
24907
24858
24817
24788
24770
24764
24769
24782
24802
24826
24855
24890
24930
24971
25014
25058
25104
25149
25189
25221
25245
25261
25271
25277
25275
25265
25248
25224
25192
25154
25112
25067
25020
24974
24929
24882
24833
24780
24726
24672
24619
24566
24515
24464
24411
24357
24302
24249
24198
24151
24105
24060
24016
23969
23918
23865
23813
23765
23719
23672
23624
23576
23531
23491
23458
23427
23397
23370
23345
23321
23296
23271
23246
23221
23194
23169
23142
23116
23092
23073
23058
23047
23038
23030
23024
23018
23011
23003
22991
22977
22965
22952
22936
22915
22896
22883
22873
22861
22850
22841
22833
22822
22804
22777
22748
22718
22689
22659
22627
22592
22552
22511
22471
22431
22390
22349
22308
22271
22239
22210
22183
22157
22130
22100
22070
22047
22031
22024
22033
22061
22113
22191
22299
22440
22614
22816
23048
23307
23586
23878
24175
24473
24768
25057
25337
25606
25856
26086
26289
26463
26608
26725
26817
26885
26932
26963
26983
26993
26992
26980
26958
26926
26884
26835
26786
26737
26685
26629
26574
26525
26480
26442
26409
26380
26355
26328
26299
26268
26235
26195
26143
26084
26021
25955
25886
25813
25740
25674
25618
25571
25530
25496
25472
25458
25452
25455
25468
25491
25521
25555
25589
25622
25656
25690
25723
25755
25786
25811
25828
25837
25837
25830
25816
25800
25778
25751
25721
25686
25646
25602
25558
25512
25467
25420
25373
25322
25268
25210
25151
25092
25034
24976
24916
24855
24796
24741
24694
24647
24598
24548
24498
24447
24398
24352
24306
24262
24219
24176
24129
24081
24035
23992
23951
23914
23881
23857
23840
23823
23807
23793
23782
23770
23755
23740
23721
23696
23669
23642
23618
23595
23574
23558
23543
23529
23514
23499
23485
23475
23462
23446
23431
23418
23406
23391
23372
23353
23334
23312
23291
23270
23246
23216
23181
23149
23119
23089
23060
23031
23001
22972
22943
22913
22883
22850
22817
22783
22751
22720
22689
22657
22620
22581
22547
22518
22492
22466
22441
22415
22388
22360
22333
22305
22272
22236
22199
22165
22129
22088
22043
22000
21962
21927
21895
21866
21837
21810
21787
21770
21758
21753
21754
21766
21795
21844
21917
22016
22145
22306
22500
22726
22982
23260
23558
23870
24191
24517
24843
25160
25463
25749
26016
26261
26487
26690
26865
27010
27128
27220
27289
27335
27358
27361
27350
27330
27300
27264
27224
27183
27139
27095
27052
27007
26966
26931
26900
26868
26835
26806
26784
26763
26736
26705
26673
26637
26594
26549
26502
26452
26399
26344
26283
26220
26158
26102
26051
26006
25969
25938
25912
25891
25874
25863
25861
25866
25875
25891
25913
25937
25962
25988
26013
26031
26045
26057
26064
26065
26062
26053
26041
26026
26005
25975
25939
25902
25861
25815
25763
25709
25651
25590
25527
25465
25408
25357
25308
25257
25208
25161
25115
25070
25028
24985
24943
24904
24866
24828
24790
24747
24700
24651
24600
24551
24502
24452
24404
24363
24327
24292
24258
24227
24201
24178
24155
24136
24117
24095
24067
24042
24020
24000
23982
23965
23947
23927
23909
23892
23873
23850
23825
23801
23777
23752
23726
23696
23662
23628
23596
23568
23540
23515
23491
23467
23443
23422
23405
23388
23365
23339
23315
23293
23268
23240
23207
23168
23124
23078
23034
22990
22947
22910
22880
22852
22825
22802
22778
22747
22710
22670
22629
22588
22549
22509
22475
22447
22421
22395
22370
22342
22309
22275
22243
22209
22175
22139
22100
22058
22014
21974
21936
21899
21861
21821
21783
21747
21713
21680
21651
21627
21611
21595
21577
21556
21532
21506
21479
21449
21418
21390
21367
21354
21352
21372
21419
21499
21616
21772
21965
22193
22450
22733
23036
23351
23671
23989
24302
24605
24892
25158
25401
25616
25804
25963
26094
26198
26278
26337
26377
26400
26408
26407
26396
26378
26347
26303
26252
26203
26154
26106
26057
26010
25963
25918
25875
25832
25788
25743
25700
25658
25616
25575
25537
25501
25471
25441
25405
25363
25318
25272
25228
25185
25141
25096
25050
25007
24969
24936
24908
24885
24867
24855
24853
24868
24892
24914
24936
24959
24982
24999
25014
25031
25046
25056
25061
25062
25058
25050
25037
25019
24995
24964
24927
24886
24838
24786
24731
24679
24628
24572
24513
24456
24403
24352
24301
24248
24191
24131
24074
24022
23973
23926
23880
23833
23782
23725
23667
23610
23556
23502
23449
23397
23347
23300
23256
23214
23174
23136
23105
23076
23047
23018
22991
22963
22932
22902
22874
22848
22824
22802
22780
22757
22734
22710
22681
22648
22615
22587
22565
22545
22527
22515
22504
22493
22478
22464
22449
22431
22407
22379
22348
22313
22274
22236
22202
22171
22140
22110
22083
22058
22035
22013
21992
21969
21943
21917
21893
21872
21853
21831
21804
21773
21744
21720
21698
21674
21646
21616
21585
21552
21516
21476
21432
21387
21341
21292
21242
21195
21154
21118
21088
21060
21033
21005
20979
20954
20936
20924
20915
20905
20891
20871
20846
20817
20787
20758
20735
20719
20714
20723
20744
20783
20848
20942
21067
21223
21410
21624
21865
22131
22412
22699
22984
23264
23536
23796
24041
24270
24481
24668
24828
24963
25079
25175
25250
25303
25334
25348
25348
25334
25309
25274
25231
25182
25128
25068
25002
24933
24865
24801
24744
24691
24644
24604
24567
24528
24485
24442
24401
24358
24307
24250
24191
24131
24069
24005
23944
23887
23831
23779
23734
23698
23670
23650
23639
23637
23642
23653
23671
23700
23739
23781
23825
23868
23909
23948
23985
24018
24045
24066
24083
24094
24098
24095
24085
24068
24047
24020
23989
23955
23918
23878
23835
23789
23742
23699
23661
23623
23582
23539
23493
23445
23396
23345
23293
23241
23184
23127
23075
23023
22969
22916
22867
22823
22780
22735
22686
22635
22584
22537
22494
22455
22421
22395
22372
22347
22323
22300
22279
22261
22245
22227
22208
22188
22161
22128
22093
22063
22035
22006
21976
21948
21922
21895
21874
21860
21852
21848
21845
21839
21829
21820
21814
21810
21801
21785
21766
21747
21729
21706
21677
21644
21612
21583
21552
21517
21481
21449
21422
21396
21370
21344
21317
21289
21258
21226
21194
21162
21129
21097
21069
21045
21023
20999
20975
20954
20937
20932
20948
20989
21059
21161
21295
21460
21651
21865
22096
22340
22592
22847
23100
23352
23600
23841
24070
24284
24482
24663
24819
24948
25055
25142
25212
25266
25304
25328
25337
25336
25322
25301
25276
25245
25207
25163
25115
25064
25011
24957
24905
24854
24805
24760
24721
24681
24638
24591
24538
24483
24426
24372
24320
24268
24212
24149
24082
24013
23946
23888
23841
23805
23777
23756
23743
23738
23741
23751
23767
23785
23807
23833
23864
23899
23939
23980
24017
24049
24081
24111
24133
24144
24146
24141
24125
24100
24070
24037
24002
23968
23933
23895
23850
23800
23750
23701
23653
23605
23559
23516
23476
23439
23405
23372
23337
23299
23256
23210
23163
23114
23059
22998
22934
22873
22815
22763
22719
22678
22638
22598
22559
22523
22491
22458
22423
22387
22351
22313
22277
22249
22227
22207
22186
22166
22148
22128
22104
22079
22056
22034
22015
22000
21986
21970
21954
21937
21916
21893
21868
21845
21824
21801
21777
21754
21732
21708
21682
21656
21632
21611
21592
21576
21560
21540
21518
21496
21476
21454
21429
21402
21374
21345
21319
21294
21267
21242
21220
21198
21174
21147
21118
21088
21056
21025
20997
20969
20939
20907
20873
20837
20800
20763
20726
20687
20653
20627
20609
20602
20610
20640
20702
20798
20925
21083
21277
21508
21770
22050
22347
22659
22977
23295
23608
23910
24201
24479
24740
24980
25201
25402
25579
25727
25846
25937
26001
26041
26066
26077
26076
26064
26043
26013
25974
25925
25874
25827
25783
25743
25709
25679
25655
25636
25620
25602
25581
25556
25528
25497
25458
25411
25359
25304
25244
25178
25110
25042
24979
24918
24856
24795
24736
24680
24632
24595
24570
24558
24558
24565
24576
24591
24611
24633
24658
24686
24717
24747
24777
24804
24823
24834
24841
24843
24840
24832
24821
24803
24782
24759
24731
24699
24663
24625
24582
24532
24478
24421
24363
24304
24247
24193
24139
24087
24037
23987
23935
23879
23821
23762
23702
23642
23583
23524
23464
23405
23349
23293
23235
23180
23126
23072
23021
22979
22942
22905
22865
22823
22781
22741
22705
22670
22640
22613
22589
22566
22540
22512
22485
22461
22442
22425
22407
22387
22362
22333
22301
22270
22242
22215
22190
22169
22148
22122
22093
22066
22043
22017
21986
21949
21911
21876
21843
21812
21784
21758
21732
21702
21667
21633
21605
21581
21553
21526
21500
21472
21440
21405
21370
21338
21306
21275
21247
21221
21197
21173
21149
21121
21090
21058
21026
20992
20954
20914
20873
20831
20789
20747
20706
20663
20617
20574
20537
20504
20472
20442
20415
20387
20360
20338
20315
20290
20262
20232
20197
20160
20126
20094
20064
20035
20009
19985
19964
19945
19926
19905
19883
19865
19856
19864
19895
19952
20043
20171
20339
20543
20781
21051
21351
21682
22033
22391
22753
23113
23465
23805
24130
24436
24719
24976
25204
25400
25562
25696
25803
25885
25943
25982
26004
26007
25995
25968
25926
25875
25817
25752
25683
25619
25560
25506
25454
25408
25369
25333
25297
25261
25226
25191
25151
25104
25053
25001
24948
24893
24837
24777
24714
24648
24579
24506
24436
24374
24320
24274
24235
24202
24175
24158
24153
24157
24168
24182
24201
24226
24256
24290
24324
24357
24391
24424
24456
24481
24497
24502
24498
24488
24472
24454
24435
24414
24387
24350
24307
24257
24202
24147
24094
24038
23977
23914
23852
23792
23732
23674
23618
23563
23506
23447
23388
23326
23258
23188
23119
23051
22984
22920
22857
22795
22733
22672
22609
22544
22476
22409
22348
22291
22240
22197
22158
22121
22088
22058
22027
21994
21965
21939
21911
21882
21854
21829
21805
21781
21757
21729
21700
21672
21644
21615
21585
21555
21527
21501
21474
21443
21410
21378
21347
21317
21288
21259
21232
21210
21191
21175
21161
21148
21136
21120
21101
21079
21054
21024
20990
20957
20922
20882
20842
20802
20762
20721
20680
20641
20601
20560
20519
20478
20439
20400
20365
20333
20301
20267
20232
20196
20163
20134
20108
20085
20062
20035
20003
19964
19921
19877
19833
19786
19737
19689
19646
19606
19569
19533
19500
19470
19445
19420
19394
19367
19342
19317
19294
19273
19255
19248
19259
19294
19360
19461
19602
19783
19999
20245
20516
20811
21127
21456
21793
22138
22488
22834
23169
23486
23779
24044
24280
24489
24671
24824
24946
25035
25096
25135
25157
25161
25148
25122
25081
25032
24979
24923
24863
24800
24737
24676
24620
24566
24512
24456
24400
24341
24278
24216
24160
24110
24055
23993
23926
23855
23783
23711
23640
23570
23502
23440
23385
23332
23284
23244
23215
23196
23187
23187
23195
23210
23230
23258
23295
23338
23380
23419
23455
23492
23529
23566
23600
23630
23654
23668
23676
23678
23676
23668
23652
23626
23596
23563
23527
23488
23445
23401
23356
23311
23265
23217
23165
23112
23060
23008
22950
22886
22821
22755
22686
22617
22547
22476
22402
22326
22258
22195
22135
22078
22025
21978
21936
21899
21865
21834
21804
21774
21743
21714
21684
21655
21625
21596
21566
21532
21499
21470
21442
21417
21398
21382
21367
21356
21352
21352
21351
21346
21338
21330
21323
21315
21306
21295
21280
21265
21250
21232
21214
21197
21180
21165
21149
21131
21109
21084
21056
21028
20997
20963
20925
20888
20854
20821
20785
20745
20705
20667
20633
20604
20577
20551
20526
20501
20476
20451
20425
20394
20358
20321
20293
20282
20287
20311
20359
20435
20542
20684
20862
21072
21307
21562
21836
22124
22423
22733
23045
23355
23657
23945
24212
24456
24675
24864
25025
25153
25248
25313
25354
25371
25367
25346
25314
25275
25228
25168
25102
25032
24956
24881
24811
24741
24671
24601
24530
24460
24390
24316
24237
24158
24081
24001
23913
23821
23728
23633
23536
23441
23352
23273
23203
23141
23085
23038
23006
22987
22980
22984
22994
23010
23036
23069
23105
23142
23182
23225
23270
23315
23356
23395
23432
23465
23490
23510
23521
23520
23512
23499
23484
23463
23434
23398
23361
23320
23276
23230
23183
23133
23080
23024
22967
22907
22840
22772
22707
22643
22580
22518
22454
22390
22331
22277
22228
22183
22140
22095
22045
21992
21943
21891
21834
21776
21722
21673
21628
21588
21552
21519
21488
21459
21430
21402
21380
21364
21347
21328
21308
21292
21281
21271
21258
21243
21227
21207
21185
21167
21149
21127
21103
21083
21069
21055
21037
21020
21004
20989
20979
20973
20971
20968
20965
20958
20950
20941
20936
20936
20945
20965
21005
21071
21167
21293
21448
21632
21841
22077
22338
22619
22911
23208
23508
23806
24099
24380
24647
24900
25136
25346
25523
25669
25787
25877
25942
25987
26011
26015
26005
25985
25955
25916
25864
25803
25736
25664
25587
25508
25430
25359
25297
25244
25196
25145
25087
25018
24943
24864
24785
24701
24613
24524
24435
24343
24249
24156
24068
23992
23923
23861
23810
23767
23734
23711
23696
23688
23689
23699
23715
23737
23762
23788
23815
23845
23876
23906
23937
23968
23996
24017
24031
24040
24046
24046
24037
24017
23993
23965
23932
23897
23857
23813
23770
23724
23673
23619
23556
23489
23422
23358
23296
23235
23175
23118
23065
23012
22958
22902
22845
22789
22737
22682
22623
22565
22510
22456
22402
22351
22299
22249
22202
22158
22115
22073
22036
22005
21983
21965
21947
21926
21901
21871
21836
21800
21766
21735
21703
21672
21641
21614
21591
21574
21558
21541
21525
21516
21512
21506
21500
21492
21483
21470
21458
21446
21429
21409
21389
21368
21347
21326
21306
21289
21274
21256
21237
21218
21196
21169
21141
21111
21080
21049
21019
20991
20962
20930
20897
20861
20824
20792
20767
20746
20731
20728
20747
20793
20873
20989
21144
21337
21565
21825
22115
22433
22772
23121
23474
23825
24173
24512
24833
25132
25408
25661
25886
26084
26252
26385
26490
26573
26633
26670
26689
26693
26686
26669
26644
26609
26566
26517
26465
26413
26359
26306
26255
26204
26157
26116
26085
26062
26045
26029
26012
25996
25976
25945
25905
25858
25804
25742
25676
25606
25536
25472
25413
25359
25310
25264
25222
25184
25148
25119
25100
25091
25093
25104
25121
25140
25161
25182
25204
25230
25259
25285
25305
25321
25332
25337
25334
25326
25312
25287
25255
25220
25181
25136
25088
25041
24993
24942
24885
24825
24769
24716
24662
24605
24547
24491
24435
24379
24325
24272
24215
24155
24093
24027
23958
23891
23826
23758
23688
23617
23551
23495
23446
23399
23356
23316
23281
23250
23225
23202
23181
23160
23139
23119
23097
23072
23044
23014
22984
22958
22939
22922
22901
22872
22837
22800
22761
22724
22689
22654
22619
22583
22550
22520
22493
22471
22452
22438
22427
22418
22408
22395
22386
22375
22355
22331
22308
22284
22255
22221
22188
22157
22127
22097
22067
22038
22005
21970
21935
21902
21871
21841
21810
21777
21747
21723
21702
21679
21652
21624
21594
21564
21532
21497
21462
21427
21392
21354
21313
21269
21224
21181
21142
21108
21087
21081
21088
21109
21151
21225
21339
21490
21677
21901
22161
22452
22770
23114
23474
23841
24207
24567
24916
25252
25573
25873
26146
26391
26605
26784
26930
27045
27132
27196
27242
27270
27282
27278
27257
27225
27185
27138
27085
27029
26975
26928
26889
26855
26823
26790
26757
26725
26695
26663
26629
26593
26554
26514
26470
26420
26363
26299
26228
26154
26081
26012
25944
25875
25811
25754
25704
25662
25630
25608
25595
25591
25595
25603
25611
25626
25646
25671
25702
25734
25762
25786
25804
25814
25820
25821
25818
25815
25811
25803
25785
25759
25732
25704
25674
25642
25603
25558
25508
25455
25399
25343
25290
25241
25190
25135
25079
25023
24967
24909
24850
24788
24723
24653
24580
24507
24432
24359
24295
24241
24191
24141
24091
24043
23998
23959
23920
23878
23839
23806
23774
23739
23704
23670
23637
23603
23570
23534
23498
23467
23440
23414
23391
23373
23357
23340
23323
23303
23281
23254
23225
23195
23164
23137
23113
23088
23064
23041
23016
22989
22959
22927
22891
22856
22824
22794
22767
22740
22710
22676
22638
22596
22558
22524
22492
22456
22418
22383
22352
22321
22285
22246
22208
22171
22138
22108
22079
22047
22012
21975
21938
21901
21865
21829
21790
21746
21697
21648
21602
21556
21511
21468
21424
21382
21343
21309
21277
21246
21216
21187
21152
21114
21075
21038
21010
20993
20989
21003
21043
21112
21214
21348
21517
21721
21959
22227
22526
22856
23204
23562
23928
24294
24653
24998
25322
25621
25896
26143
26361
26550
26710
26844
26949
27028
27080
27109
27118
27114
27101
27082
27057
27028
26994
26958
26921
26885
26848
26808
26768
26728
26689
26651
26613
26577
26541
26506
26468
26427
26381
26329
26270
26207
26143
26078
26013
25950
25886
25823
25764
25709
25652
25598
25552
25519
25498
25491
25493
25505
25524
25551
25583
25618
25652
25679
25700
25719
25741
25767
25794
25820
25840
25853
25860
25864
25863
25856
25839
25813
25781
25748
25712
25671
25626
25581
25533
25480
25426
25369
25313
25256
25199
25139
25076
25008
24942
24880
24822
24768
24712
24652
24589
24528
24470
24414
24361
24308
24257
24207
24157
24102
24046
23993
23943
23896
23852
23810
23772
23738
23710
23685
23661
23637
23613
23585
23555
23524
23492
23463
23438
23412
23383
23354
23322
23288
23256
23229
23207
23187
23167
23150
23138
23125
23110
23095
23079
23066
23056
23047
23032
23011
22986
22958
22928
22897
22864
22831
22799
22769
22737
22701
22662
22624
22587
22553
22522
22497
22478
22462
22446
22430
22416
22398
22375
22350
22330
22318
22317
22335
22377
22444
22541
22668
22824
23012
23230
23477
23751
24042
24342
24644
24943
25233
25513
25781
26034
26268
26484
26679
26851
26993
27104
27191
27257
27304
27333
27343
27335
27313
27283
27250
27214
27176
27140
27104
27067
27028
26986
26940
26889
26837
26783
26727
26670
26613
26555
26492
26425
26355
26279
26200
26116
26029
25940
25853
25767
25685
25610
25544
25488
25444
25414
25399
25397
25406
25425
25453
25487
25526
25568
25611
25650
25684
25715
25745
25773
25799
25821
25836
25842
25842
25839
25831
25812
25784
25749
25708
25664
25618
25573
25527
25479
25427
25377
25332
25288
25241
25195
25150
25103
25053
25000
24944
24885
24828
24770
24709
24645
24581
24520
24463
24409
24357
24302
24244
24190
24141
24096
24048
23999
23953
23909
23869
23836
23808
23780
23751
23718
23684
23656
23630
23602
23577
23559
23544
23530
23513
23492
23468
23443
23418
23396
23374
23358
23345
23331
23315
23298
23280
23260
23239
23220
23205
23191
23173
23154
23133
23112
23089
23065
23039
23011
22981
22949
22913
22874
22834
22795
22754
22713
22678
22648
22620
22590
22562
22540
22526
22515
22507
22504
22510
22531
22572
22640
22740
22875
23049
23257
23495
23755
24034
24329
24634
24941
25246
25540
25820
26089
26348
26594
26821
27023
27201
27358
27489
27594
27675
27734
27772
27792
27796
27783
27756
27721
27680
27635
27590
27547
27501
27453
27406
27360
27310
27259
27211
27167
27126
27082
27032
26978
26924
26867
26809
26749
26684
26613
26538
26462
26386
26313
26242
26178
26120
26068
26022
25982
25950
25931
25925
25933
25952
25977
26006
26038
26069
26102
26136
26170
26204
26235
26263
26286
26305
26323
26337
26340
26332
26317
26294
26261
26219
26173
26125
26074
26017
25952
25881
25806
25729
25653
25584
25519
25456
25397
25340
25284
25232
25182
25135
25089
25041
24990
24939
24890
24838
24783
24729
24672
24613
24552
24491
24435
24383
24338
24301
24269
24239
24209
24182
24157
24132
24107
24083
24058
24031
24003
23977
23953
23929
23904
23876
23848
23825
23809
23797
23786
23774
23760
23744
23727
23708
23688
23665
23639
23614
23591
23570
23547
23523
23501
23482
23467
23452
23434
23416
23398
23380
23358
23335
23311
23282
23246
23206
23167
23132
23097
23066
23037
23010
22982
22948
22913
22883
22853
22821
22788
22755
22719
22684
22653
22625
22598
22570
22537
22503
22469
22437
22408
22380
22352
22320
22284
22246
22209
22172
22133
22093
22055
22019
21984
21951
21922
21894
21867
21844
21836
21848
21889
21960
22064
22204
22387
22608
22859
23138
23448
23781
24129
24488
24851
25208
25556
25894
26219
26526
26813
27078
27316
27526
27710
27865
27989
28084
28152
28197
28221
28223
28207
28180
28143
28097
28046
27993
27938
27886
27836
27789
27746
27711
27683
27657
27631
27605
27577
27543
27504
27459
27410
27357
27300
27237
27170
27103
27040
26972
26900
26826
26753
26685
26623
26570
26525
26487
26459
26444
26445
26459
26481
26506
26533
26560
26588
26619
26647
26672
26696
26715
26728
26734
26736
26738
26740
26736
26725
26713
26698
26679
26655
26621
26577
26526
26473
26420
26362
26303
26245
26187
26127
26066
26003
25940
25876
25808
25738
25670
25603
25532
25463
25396
25333
25271
25207
25144
25085
25032
24984
24935
24882
24828
24777
24733
24697
24662
24624
24586
24552
24522
24493
24464
24435
24406
24377
24345
24311
24275
24243
24215
24189
24165
24142
24120
24099
24079
24058
24035
24012
23990
23965
23936
23904
23875
23848
23819
23791
23767
23743
23714
23685
23657
23629
23596
23564
23536
23507
23476
23449
23425
23397
23362
23330
23299
23265
23228
23193
23158
23116
23068
23018
22969
22919
22871
22826
22782
22739
22699
22657
22614
22573
22535
22499
22464
22430
22393
22352
22314
22281
22249
22215
22175
22131
22087
22044
22002
21960
21919
21878
21840
21806
21774
21743
21715
21688
21666
21646
21622
21593
21565
21543
21524
21511
21507
21514
21539
21585
21656
21761
21905
22089
22311
22568
22854
23167
23503
23858
24223
24591
24951
25298
25627
25934
26220
26483
26723
26939
27131
27295
27431
27545
27634
27696
27738
27761
27765
27751
27727
27691
27644
27591
27535
27477
27416
27352
27289
27224
27156
27089
27029
26979
26934
26887
26836
26779
26715
26647
26581
26519
26459
26392
26317
26239
26164
26096
26036
25984
25936
25891
25850
25813
25783
25761
25749
25747
25753
25763
25777
25795
25817
25840
25863
25887
25914
25943
25964
25980
25993
26002
26008
26012
26011
26000
25983
25962
25938
25910
25876
25835
25791
25746
25703
25661
25618
25572
25523
25469
25412
25353
25290
25223
25154
25083
25010
24939
24869
24797
24721
24643
24566
24494
24428
24366
24302
24238
24183
24136
24091
24043
23992
23942
23893
23842
23787
23729
23674
23625
23580
23536
23496
23464
23439
23417
23396
23376
23358
23339
23317
23294
23274
23258
23240
23219
23196
23171
23149
23131
23117
23104
23088
23069
23049
23028
23004
22977
22951
22924
22897
22870
22842
22813
22783
22754
22727
22700
22675
22650
22623
22597
22571
22546
22518
22487
22454
22420
22384
22346
22303
22257
22212
22169
22128
22083
22037
21991
21944
21898
21856
21820
21790
21763
21735
21705
21671
21634
21598
21565
21540
21518
21498
21481
21465
21447
21428
21415
21418
21437
21474
21537
21634
21768
21938
22143
22384
22654
22949
23264
23598
23944
24295
24645
24979
25292
25582
25850
26092
26305
26487
26640
26765
26863
26937
26988
27016
27026
27017
26990
26952
26907
26857
26800
26738
26675
26613
26552
26490
26427
26365
26305
26244
26182
26118
26049
25975
25897
25813
25724
25631
25537
25441
25346
25253
25162
25075
24993
24920
24859
24809
24770
24741
24722
24711
24711
24721
24744
24774
24806
24841
24877
24915
24952
24988
25027
25065
25102
25139
25175
25202
25218
25225
25222
25206
25179
25148
25114
25077
25035
24990
24943
24894
24848
24805
24760
24712
24660
24603
24547
24491
24426
24353
24274
24193
24113
24038
23965
23892
23819
23748
23679
23611
23546
23483
23418
23353
23291
23232
23176
23123
23073
23030
22991
22953
22914
22875
22839
22806
22776
22747
22723
22700
22677
22655
22632
22603
22569
22535
22507
22485
22464
22441
22418
22400
22383
22366
22350
22342
22339
22339
22335
22329
22323
22321
22319
22314
22309
22303
22295
22283
22268
22249
22224
22193
22160
22131
22105
22078
22047
22011
21970
21924
21880
21844
21816
21794
21774
21753
21727
21698
21670
21637
21603
21572
21551
21545
21560
21599
21668
21771
21913
22094
22310
22556
22834
23138
23460
23789
24118
24444
24764
25076
25371
25641
25882
26095
26281
26439
26571
26680
26769
26839
26892
26928
26943
26938
26915
26875
26823
26763
26692
26612
26529
26449
26374
26305
26239
26177
26119
26062
26006
25952
25897
25839
25779
25717
25651
25580
25500
25411
25316
25220
25126
25035
24953
24879
24808
24745
24692
24648
24615
24591
24577
24575
24583
24604
24638
24679
24725
24779
24836
24888
24938
24984
25023
25054
25077
25089
25093
25092
25088
25081
25071
25050
25017
24973
24919
24861
24803
24748
24693
24640
24586
24531
24474
24416
24359
24304
24250
24193
24132
24067
23997
23921
23840
23756
23672
23589
23511
23440
23377
23316
23253
23192
23135
23081
23029
22977
22929
22885
22844
22803
22762
22721
22684
22651
22624
22597
22565
22527
22485
22442
22400
22365
22338
22317
22298
22276
22253
22227
22200
22173
22150
22128
22106
22090
22078
22066
22053
22033
22008
21980
21950
21924
21904
21889
21874
21859
21846
21832
21819
21809
21797
21780
21755
21727
21696
21660
21618
21577
21539
21504
21467
21429
21393
21356
21319
21285
21252
21218
21184
21152
21117
21076
21031
20988
20949
20917
20892
20874
20860
20848
20850
20876
20933
21024
21154
21326
21540
21790
22070
22374
22694
23029
23382
23748
24114
24470
24813
25135
25432
25701
25940
26148
26323
26465
26577
26663
26722
26754
26764
26757
26739
26708
26667
26617
26562
26502
26439
26375
26313
26251
26190
26129
26068
26009
25953
25903
25858
25817
25779
25740
25696
25645
25586
25522
25455
25385
25312
25238
25164
25088
25014
24945
24882
24825
24777
24738
24712
24694
24682
24677
24681
24690
24701
24715
24731
24751
24776
24809
24844
24876
24902
24924
24943
24955
24958
24952
24938
24915
24885
24847
24804
24761
24717
24672
24623
24565
24499
24433
24370
24304
24235
24163
24089
24019
23952
23888
23826
23761
23694
23633
23575
23516
23457
23400
23344
23291
23235
23176
23117
23055
22992
22928
22866
22807
22750
22695
22642
22590
22539
22491
22447
22408
22375
22347
22326
22307
22285
22259
22232
22206
22180
22157
22137
22119
22098
22076
22052
22029
22007
21986
21968
21950
21931
21916
21903
21887
21868
21848
21826
21806
21785
21762
21734
21704
21673
21642
21609
21575
21541
21513
21488
21462
21435
21410
21384
21353
21320
21286
21251
21214
21177
21141
21107
21072
21041
21015
20993
20970
20947
20921
20891
20854
20815
20775
20733
20691
20649
20613
20581
20551
20521
20489
20455
20423
20393
20362
20329
20298
20272
20253
20248
20262
20299
20369
20481
20634
20824
21046
21299
21579
21880
22194
22517
22843
23170
23494
23813
24116
24395
24646
24871
25070
25246
25397
25523
25624
25702
25759
25796
25813
25809
25788
25757
25721
25677
25627
25573
25517
25463
25413
25365
25320
25275
25227
25176
25127
25083
25039
24989
24935
24879
24821
24761
24699
24633
24564
24494
24426
24358
24294
24238
24189
24145
24105
24070
24042
24025
24014
24007
24004
24008
24017
24028
24043
24058
24074
24089
24102
24113
24125
24139
24154
24167
24175
24174
24164
24146
24120
24090
24057
24022
23985
23947
23906
23863
23819
23775
23723
23663
23603
23541
23477
23417
23361
23304
23245
23187
23132
23080
23031
22983
22937
22892
22844
22793
22740
22690
22645
22603
22560
22514
22463
22414
22368
22324
22283
22244
22207
22171
22136
22100
22061
22021
21980
21944
21911
21880
21850
21822
21796
21773
21751
21727
21699
21667
21634
21604
21576
21552
21527
21499
21467
21434
21403
21376
21356
21333
21303
21272
21242
21216
21194
21172
21147
21120
21092
21063
21032
21007
20989
20971
20950
20925
20897
20868
20839
20808
20777
20745
20712
20680
20645
20606
20568
20530
20491
20450
20410
20370
20330
20293
20257
20221
20187
20154
20122
20096
20073
20044
20009
19971
19935
19904
19875
19849
19826
19807
19791
19777
19766
19762
19773
19807
19868
19959
20084
20243
20430
20646
20889
21152
21428
21711
21998
22286
22566
22834
23093
23341
23575
23792
23986
24157
24305
24429
24529
24604
24655
24682
24690
24683
24663
24631
24591
24547
24498
24445
24386
24327
24267
24207
24152
24100
24051
24004
23959
23916
23874
23833
23790
23747
23703
23655
23598
23532
23459
23381
23300
23218
23140
23066
23001
22947
22905
22874
22851
22842
22842
22850
22866
22893
22927
22964
23006
23050
23091
23127
23159
23185
23203
23215
23223
23229
23232
23230
23224
23213
23198
23178
23153
23122
23084
23043
23002
22958
22913
22866
22816
22763
22709
22655
22603
22551
22500
22452
22408
22365
22323
22281
22236
22190
22144
22097
22046
21990
21936
21885
21836
21784
21732
21686
21644
21606
21571
21540
21511
21485
21461
21438
21414
21389
21364
21340
21316
21292
21267
21240
21210
21180
21152
21128
21105
21085
21068
21054
21044
21038
21035
21029
21019
21009
21001
20994
20987
20980
20972
20961
20947
20934
20924
20911
20894
20876
20857
20835
20812
20786
20756
20725
20698
20673
20647
20619
20593
20567
20541
20515
20487
20456
20425
20398
20376
20353
20324
20290
20256
20222
20189
20160
20139
20132
20143
20173
20226
20305
20414
20556
20731
20936
21167
21417
21679
21949
22225
22504
22779
23042
23291
23527
23746
23945
24119
24269
24394
24500
24590
24663
24718
24756
24778
24787
24785
24774
24753
24723
24685
24640
24587
24531
24481
24434
24385
24335
24287
24244
24203
24166
24134
24098
24056
24010
23963
23918
23872
23821
23762
23698
23636
23577
23523
23472
23424
23381
23344
23315
23294
23279
23270
23265
23268
23279
23298
23321
23347
23380
23420
23464
23508
23551
23595
23637
23672
23699
23717
23724
23718
23706
23692
23669
23635
23594
23550
23502
23454
23404
23356
23310
23264
23219
23174
23128
23079
23029
22974
22921
22873
22831
22791
22748
22699
22642
22578
22513
22454
22403
22356
22311
22268
22226
22182
22140
22104
22070
22035
21998
21963
21928
21893
21860
21834
21811
21788
21762
21736
21712
21687
21663
21640
21615
21590
21570
21550
21530
21510
21492
21477
21461
21440
21414
21389
21365
21345
21331
21323
21317
21312
21305
21292
21275
21257
21236
21210
21182
21156
21133
21105
21069
21031
20998
20966
20933
20900
20870
20847
20831
20816
20798
20777
20754
20730
20706
20681
20659
20642
20627
20610
20586
20555
20521
20482
20444
20411
20382
20353
20320
20284
20245
20203
20159
20113
20066
20021
19985
19957
19931
19909
19898
19899
19911
19936
19981
20055
20164
20307
20482
20689
20926
21191
21482
21792
22112
22435
22756
23069
23375
23672
23949
24204
24432
24631
24799
24944
25074
25187
25278
25347
25394
25421
25435
25434
25417
25390
25360
25328
25295
25255
25209
25158
25108
25065
25029
24992
24955
24918
24880
24840
24796
24751
24707
24662
24616
24571
24526
24476
24415
24348
24276
24202
24129
24062
24001
23951
23915
23892
23882
23880
23887
23901
23924
23953
23982
24011
24039
24069
24101
24129
24150
24164
24175
24182
24184
24180
24172
24163
24152
24139
24123
24106
24089
24067
24036
23998
23947
23884
23819
23755
23691
23625
23556
23484
23406
23325
23247
23176
23111
23050
22990
22928
22864
22800
22738
22681
22628
22573
22516
22458
22397
22334
22273
22217
22164
22116
22073
22035
22000
21968
21945
21927
21910
21888
21864
21840
21816
21786
21756
21731
21710
21688
21665
21638
21612
21595
21584
21574
21563
21549
21539
21532
21522
21505
21489
21478
21469
21463
21459
21450
21433
21411
21390
21369
21343
21312
21280
21251
21223
21191
21157
21119
21080
21042
21007
20973
20935
20896
20863
20836
20811
20785
20754
20720
20687
20655
20624
20593
20561
20529
20498
20463
20426
20386
20345
20303
20263
20227
20193
20157
20121
20087
20056
20025
19998
19972
19942
19908
19873
19837
19804
19774
19749
19724
19697
19677
19667
19670
19695
19753
19844
19967
20126
20319
20543
20794
21064
21351
21652
21960
22271
22582
22886
23181
23467
23739
23991
24217
24414
24580
24718
24832
24927
25002
25059
25097
25118
25123
25117
25100
25073
25035
24991
24943
24892
24842
24791
24740
24694
24654
24618
24588
24563
24539
24512
24480
24443
24402
24355
24299
24240
24178
24112
24044
23980
23922
23864
23807
23754
23708
23669
23638
23618
23609
23607
23610
23615
23625
23640
23662
23694
23733
23767
23795
23815
23828
23841
23855
23863
23864
23865
23864
23862
23857
23847
23837
23825
23803
23769
23729
23685
23637
23586
23537
23486
23433
23382
23333
23285
23236
23181
23127
23079
23030
22976
22918
22861
22808
22757
22706
22656
22608
22559
22507
22453
22397
22341
22286
22233
22183
22138
22095
22052
22010
21972
21943
21928
21923
21922
21921
21920
21919
21915
21910
21900
21881
21859
21837
21813
21783
21753
21726
21700
21670
21635
21604
21582
21565
21551
21541
21530
21517
21507
21496
21479
21459
21442
21423
21400
21376
21354
21333
21310
21285
21261
21239
21218
21196
21174
21147
21114
21082
21051
21020
20990
20961
20931
20902
20871
20836
20800
20762
20725
20690
20660
20632
20604
20573
20542
20514
20489
20467
20447
20425
20399
20371
20342
20316
20302
20304
20328
20379
20463
20582
20735
20918
21128
21361
21615
21882
22160
22441
22721
22996
23268
23528
23768
23986
24185
24364
24521
24654
24764
24852
24922
24973
25005
25018
25010
24982
24938
24885
24825
24761
24699
24636
24574
24513
24458
24408
24359
24312
24269
24226
24180
24131
24080
24029
23977
23914
23839
23759
23674
23589
23507
23431
23364
23308
23260
23217
23179
23149
23131
23123
23124
23134
23152
23180
23217
23259
23306
23360
23413
23463
23508
23545
23572
23593
23613
23627
23634
23633
23620
23596
23564
23527
23489
23444
23392
23340
23290
23239
23189
23137
23085
23034
22984
22937
22895
22851
22801
22743
22677
22610
22547
22488
22430
22369
22306
22245
22184
22121
22058
22000
21946
21902
21866
21832
21798
21764
21733
21707
21681
21657
21639
21626
21611
21587
21556
21522
21486
21448
21413
21379
21347
21320
21295
21274
21255
21237
21221
21207
21197
21189
21178
21164
21149
21133
21121
21111
21099
21084
21066
21043
21020
20995
20967
20940
20917
20900
20888
20874
20859
20847
20834
20815
20792
20770
20749
20723
20693
20665
20641
20619
20593
20560
20520
20475
20430
20388
20346
20306
20275
20250
20227
20208
20197
20202
20233
20296
20392
20519
20672
20851
21054
21285
21543
21822
22115
22414
22712
23009
23298
23574
23838
24087
24320
24537
24731
24897
25036
25151
25242
25309
25355
25382
25389
25374
25342
25302
25256
25205
25150
25093
25035
24978
24927
24883
24845
24812
24780
24746
24709
24671
24634
24597
24558
24515
24462
24400
24332
24262
24190
24117
24044
23968
23895
23827
23762
23702
23652
23613
23584
23569
23568
23576
23591
23619
23654
23689
23727
23766
23804
23840
23868
23887
23901
23916
23931
23941
23940
23934
23921
23900
23870
23836
23806
23782
23757
23729
23700
23669
23631
23588
23543
23495
23443
23382
23317
23254
23193
23134
23076
23015
22948
22878
22810
22748
22689
22633
22583
22539
22498
22454
22409
22365
22323
22279
22233
22193
22150
22102
22053
22009
21968
21932
21902
21878
21854
21828
21804
21779
21752
21724
21696
21669
21644
21622
21600
21577
21552
21526
21503
21484
21466
21449
21433
21418
21402
21384
21364
21344
21322
21301
21283
21261
21233
21206
21183
21161
21135
21107
21080
21055
21031
21009
20985
20959
20937
20921
20903
20877
20845
20812
20776
20738
20701
20666
20626
20582
20540
20501
20465
20431
20398
20367
20339
20311
20282
20252
20225
20199
20176
20155
20130
20102
20074
20044
20009
19966
19919
19870
19819
19770
19724
19684
19653
19631
19619
19621
19642
19688
19766
19880
20033
20226
20456
20719
21009
21323
21657
22002
22355
22718
23084
23439
23774
24088
24382
24654
24899
25113
25294
25443
25566
25664
25740
25794
25829
25847
25846
25827
25796
25754
25702
25643
25583
25524
25462
25392
25320
25255
25198
25149
25106
25066
25029
24994
24954
24905
24848
24788
24729
24664
24597
24530
24465
24401
24338
24281
24230
24177
24123
24074
24035
24007
23987
23976
23971
23968
23968
23976
23990
24009
24034
24066
24100
24136
24174
24208
24237
24263
24284
24298
24311
24324
24328
24323
24312
24294
24268
24236
24196
24148
24095
24040
23983
23923
23861
23796
23728
23660
23597
23536
23473
23409
23346
23287
23230
23171
23107
23044
22985
22928
22874
22819
22761
22706
22656
22608
22557
22504
22454
22407
22361
22315
22272
22228
22184
22145
22108
22073
22038
22006
21979
21959
21945
21929
21915
21903
21888
21864
21840
21822
21805
21787
21771
21755
21738
21718
21695
21671
21643
21609
21574
21541
21506
21470
21439
21411
21380
21350
21329
21316
21304
21293
21283
21269
21250
21233
21217
21196
21167
21131
21093
21059
21031
21009
20984
20950
20908
20864
20818
20768
20715
20668
20630
20596
20558
20517
20474
20434
20396
20358
20317
20275
20229
20181
20132
20085
20043
20006
19967
19921
19876
19837
19796
19752
19711
19675
19643
19611
19578
19545
19511
19477
19448
19418
19379
19336
19296
19259
19225
19194
19168
19144
19116
19083
19049
19018
18989
18967
18953
18949
18955
18980
19037
19134
19280
19470
19698
19961
20256
20580
20927
21291
21664
22040
22414
22786
23146
23487
23807
24104
24372
24608
24813
24990
25137
25252
25335
25391
25426
25444
25443
25425
25391
25347
25294
25229
25159
25090
25024
24959
24896
24836
24779
24725
24674
24623
24574
24530
24486
24438
24382
24319
24250
24182
24116
24048
23977
23911
23853
23799
23746
23694
23646
23601
23558
23520
23494
23476
23462
23454
23456
23468
23488
23509
23530
23556
23588
23625
23664
23702
23736
23770
23800
23826
23848
23863
23868
23862
23850
23830
23802
23765
23721
23674
23627
23578
23525
23464
23401
23335
23270
23207
23146
23085
23023
22961
22900
22838
22774
22707
22639
22571
22502
22435
22371
22309
22248
22186
22128
22073
22021
21969
21920
21875
21831
21786
21738
21687
21636
21587
21542
21499
21460
21424
21391
21364
21340
21320
21299
21277
21255
21233
21215
21204
21195
21186
21179
21172
21163
21150
21135
21119
21103
21084
21063
21041
21013
20978
20942
20909
20876
20844
20817
20796
20776
20759
20744
20731
20719
20707
20688
20661
20627
20591
20558
20527
20490
20450
20413
20379
20346
20311
20274
20232
20185
20137
20093
20057
20023
19989
19955
19920
19884
19846
19809
19776
19746
19716
19686
19652
19615
19581
19554
19533
19523
19529
19555
19602
19674
19782
19928
20105
20316
20557
20826
21122
21440
21772
22107
22438
22767
23091
23400
23689
23959
24211
24437
24634
24802
24940
25049
25131
25188
25224
25236
25223
25188
25135
25070
24997
24918
24836
24755
24681
24613
24545
24480
24418
24357
24296
24232
24162
24088
24011
23930
23845
23755
23664
23573
23483
23391
23297
23203
23119
23049
22987
22932
22888
22859
22844
22838
22841
22854
22875
22902
22938
22981
23025
23068
23115
23171
23233
23298
23361
23418
23466
23506
23537
23560
23571
23573
23566
23546
23513
23470
23424
23376
23326
23275
23224
23175
23123
23072
23023
22972
22919
22867
22815
22766
22718
22667
22611
22551
22490
22430
22369
22303
22235
22167
22101
22033
21965
21899
21838
21783
21733
21690
21653
21613
21568
21522
21480
21442
21406
21373
21343
21315
21293
21274
21255
21237
21223
21215
21204
21188
21170
21150
21134
21120
21105
21088
21072
21056
21039
21025
21016
21007
20997
20987
20976
20964
20950
20935
20914
20889
20861
20835
20812
20794
20776
20756
20737
20717
20696
20673
20652
20630
20608
20588
20571
20556
20548
20553
20574
20618
20690
20789
20923
21093
21299
21539
21810
22105
22414
22732
23051
23367
23680
23983
24271
24539
24787
25017
25227
25413
25571
25699
25800
25876
25927
25956
25965
25954
25927
25893
25850
25798
25737
25671
25601
25534
25474
25413
25351
25290
25232
25177
25123
25068
25012
24954
24897
24839
24775
24704
24629
24553
24475
24393
24311
24230
24151
24076
24011
23956
23909
23869
23839
23824
23823
23834
23856
23887
23926
23967
24010
24054
24099
24142
24186
24229
24268
24300
24328
24352
24368
24375
24373
24361
24338
24305
24265
24223
24178
24132
24087
24043
23998
23948
23893
23838
23786
23733
23677
23619
23563
23507
23452
23397
23343
23291
23236
23175
23109
23043
22976
22910
22847
22791
22740
22690
22640
22592
22542
22495
22453
22415
22380
22346
22313
22281
22248
22215
22185
22158
22131
22105
22080
22056
22034
22011
21989
21969
21949
21930
21912
21898
21888
21880
21871
21857
21841
21824
21809
21794
21776
21755
21734
21710
21684
21659
21637
21618
21601
21586
21573
21563
21553
21542
21529
21513
21491
21462
21427
21391
21356
21323
21290
21259
21230
21197
21161
21127
21096
21066
21031
20992
20950
20909
20877
20859
20852
20858
20880
20923
20989
21087
21218
21391
21602
21843
22110
22403
22715
23042
23380
23720
24055
24381
24693
24986
25257
25501
25722
25922
26095
26238
26353
26446
26516
26566
26596
26610
26612
26604
26583
26549
26506
26456
26402
26351
26307
26267
26229
26192
26158
26130
26106
26083
26059
26033
26006
25975
25940
25903
25858
25803
25743
25678
25608
25536
25467
25398
25328
25262
25203
25152
25108
25071
25043
25022
25006
24999
25005
25023
25048
25077
25105
25134
25164
25195
25225
25248
25265
25278
25291
25304
25313
25313
25304
25287
25263
25235
25204
25168
25125
25080
25037
24992
24940
24886
24831
24772
24710
24648
24586
24521
24456
24394
24333
24273
24213
24151
24088
24026
23970
23923
23876
23827
23775
23723
23671
23617
23561
23505
23452
23405
23365
23327
23290
23256
23223
23193
23166
23137
23107
23076
23047
23018
22990
22962
22936
22910
22882
22852
22822
22795
22770
22747
22728
22715
22708
22705
22700
22689
22677
22662
22638
22607
22576
22544
22505
22464
22427
22393
22359
22323
22287
22248
22210
22174
22141
22110
22077
22044
22011
21979
21947
21915
21885
21857
21826
21794
21760
21726
21694
21663
21631
21597
21560
21524
21489
21454
21417
21384
21358
21336
21312
21288
21264
21238
21208
21177
21144
21109
21074
21037
20998
20960
20924
20892
20863
20833
20802
20770
20734
20699
20673
20662
20662
20676
20714
20783
20887
21025
21199
21404
21639
21902
22189
22493
22808
23136
23472
23811
24147
24468
24769
25045
25292
25508
25698
25864
26007
26123
26210
26269
26304
26323
26330
26320
26294
26259
26225
26189
26148
26103
26054
26002
25953
25911
25877
25853
25835
25814
25786
25758
25734
25713
25690
25656
25612
25562
25508
25449
25388
25330
25277
25226
25169
25109
25050
24997
24951
24917
24890
24864
24845
24833
24828
24827
24836
24857
24884
24916
24952
24996
25042
25080
25105
25124
25137
25141
25135
25124
25110
25096
25079
25054
25020
24984
24948
24914
24878
24837
24794
24750
24705
24654
24596
24534
24471
24410
24350
24289
24228
24168
24111
24058
24008
23955
23901
23848
23797
23746
23699
23656
23614
23572
23526
23479
23433
23387
23344
23307
23271
23236
23205
23179
23152
23124
23101
23081
23063
23048
23031
23011
22991
22974
22962
22954
22945
22934
22918
22900
22882
22859
22830
22797
22766
22740
22720
22704
22691
22678
22664
22657
22654
22647
22633
22617
22602
22588
22574
22558
22535
22506
22474
22444
22415
22384
22350
22312
22272
22235
22204
22176
22150
22124
22094
22055
22014
21975
21941
21914
21898
21888
21878
21868
21859
21853
21858
21884
21935
22013
22117
22249
22406
22589
22804
23048
23310
23581
23853
24123
24392
24662
24924
25173
25405
25620
25812
25976
26110
26221
26314
26391
26448
26488
26515
26531
26532
26520
26494
26458
26418
26377
26334
26286
26234
26180
26127
26075
26028
25989
25954
25916
25878
25841
25805
25764
25712
25648
25574
25496
25416
25336
25260
25189
25125
25069
25020
24974
24938
24913
24897
24891
24900
24924
24959
24996
25033
25069
25107
25152
25198
25242
25282
25316
25346
25375
25396
25406
25408
25404
25393
25377
25353
25322
25284
25245
25204
25162
25121
25080
25033
24982
24931
24882
24835
24788
24745
24701
24657
24613
24562
24503
24445
24390
24336
24279
24225
24171
24118
24066
24013
23958
23898
23838
23781
23729
23683
23646
23615
23587
23560
23530
23498
23466
23434
23403
23375
23354
23334
23318
23305
23293
23283
23272
23259
23247
23230
23208
23184
23160
23135
23112
23091
23075
23061
23044
23026
23013
23004
22991
22972
22951
22929
22906
22883
22861
22835
22809
22779
22746
22712
22679
22646
22613
22585
22562
22536
22509
22482
22454
22427
22399
22366
22326
22279
22225
22169
22118
22071
22028
21989
21951
21915
21880
21845
21814
21788
21767
21747
21728
21710
21699
21704
21732
21783
21861
21968
22105
22268
22458
22679
22924
23185
23459
23745
24038
24331
24621
24905
25175
25429
25666
25881
26070
26230
26361
26468
26558
26632
26688
26725
26743
26746
26736
26716
26692
26662
26629
26598
26567
26532
26497
26467
26442
26421
26404
26390
26376
26360
26340
26319
26297
26273
26242
26201
26149
26091
26028
25961
25897
25838
25783
25732
25684
25636
25588
25541
25502
25472
25453
25445
25448
25454
25462
25470
25478
25488
25506
25529
25554
25581
25609
25636
25656
25665
25666
25660
25655
25651
25640
25620
25594
25566
25532
25487
25434
25384
25336
25288
25240
25195
25149
25103
25056
25006
24952
24897
24844
24790
24734
24675
24612
24549
24484
24421
24364
24314
24266
24221
24180
24143
24112
24083
24051
24020
23990
23959
23931
23906
23874
23833
23789
23748
23711
23675
23640
23609
23584
23564
23540
23511
23478
23449
23427
23408
23390
23372
23352
23329
23308
23285
23258
23228
23198
23165
23130
23095
23056
23011
22968
22930
22891
22852
22822
22800
22776
22745
22712
22683
22658
22636
22615
22591
22564
22535
22508
22483
22457
22430
22404
22374
22339
22297
22248
22199
22154
22116
22085
22056
22033
22014
21999
21982
21959
21930
21896
21856
21809
21762
21720
21684
21654
21629
21603
21576
21550
21525
21500
21471
21440
21410
21383
21357
21333
21312
21295
21288
21295
21321
21363
21430
21528
21660
21825
22016
22232
22474
22739
23020
23311
23608
23906
24199
24487
24772
25042
25291
25522
25734
25923
26088
26226
26337
26426
26498
26551
26586
26605
26607
26596
26576
26549
26520
26491
26461
26429
26397
26368
26345
26328
26315
26304
26290
26275
26263
26247
26220
26184
26141
26095
26049
26003
25956
25906
25850
25791
25733
25676
25619
25564
25514
25471
25438
25415
25401
25397
25404
25417
25435
25454
25476
25505
25536
25563
25587
25611
25634
25654
25670
25683
25696
25706
25713
25716
25713
25700
25681
25657
25629
25596
25556
25512
25471
25429
25385
25342
25298
25250
25205
25161
25115
25068
25026
24990
24949
24901
24851
24802
24746
24684
24622
24561
24497
24432
24372
24318
24265
24213
24163
24118
24076
24035
23998
23964
23932
23905
23881
23852
23820
23785
23753
23728
23705
23683
23663
23641
23615
23586
23561
23535
23505
23474
23443
23411
23377
23344
23317
23293
23271
23251
23231
23209
23181
23150
23117
23081
23045
23011
22981
22955
22928
22902
22878
22852
22823
22792
22759
22723
22684
22640
22592
22544
22499
22453
22404
22357
22317
22280
22244
22208
22175
22143
22110
22077
22045
22013
21979
21943
21904
21864
21824
21784
21747
21713
21683
21654
21624
21597
21575
21555
21536
21516
21492
21463
21430
21393
21350
21304
21261
21222
21184
21148
21115
21089
21071
21053
21032
21012
20999
20989
20981
20971
20958
20947
20941
20943
20958
20995
21060
21150
21270
21424
21613
21831
22079
22356
22653
22960
23273
23588
23899
24206
24503
24788
25055
25298
25513
25703
25874
26024
26153
26254
26324
26369
26397
26414
26418
26412
26400
26387
26368
26338
26302
26262
26220
26177
26131
26084
26040
26001
25970
25947
25926
25903
25878
25852
25823
25787
25743
25691
25634
25575
25514
25455
25397
25342
25292
25248
25211
25180
25159
25144
25133
25125
25124
25131
25144
25164
25193
25224
25254
25284
25313
25338
25362
25387
25408
25425
25439
25448
25455
25458
25453
25442
25424
25398
25367
25337
25304
25266
25224
25179
25131
25084
25040
24998
24954
24909
24862
24814
24766
24718
24669
24621
24574
24528
24480
24426
24368
24309
24250
24192
24136
24083
24032
23986
23949
23913
23875
23836
23799
23762
23727
23696
23671
23647
23623
23602
23581
23555
23530
23508
23490
23471
23451
23433
23415
23392
23361
23331
23309
23291
23273
23257
23244
23229
23211
23188
23157
23121
23089
23060
23027
22989
22954
22929
22913
22901
22890
22880
22867
22854
22838
22818
22794
22769
22744
22718
22689
22656
22619
22578
22534
22491
22447
22399
22350
22300
22251
22203
22158
22114
22073
22035
21999
21968
21941
21919
21898
21877
21859
21840
21817
21790
21761
21737
21719
21712
21722
21753
21806
21885
21993
22133
22306
22513
22751
23012
23287
23573
23868
24168
24466
24757
25036
25298
25537
25755
25950
26121
26265
26384
26479
26550
26596
26619
26626
26621
26607
26585
26553
26513
26467
26416
26357
26297
26236
26175
26119
26069
26025
25986
25949
25906
25858
25809
25754
25689
25620
25550
25480
25410
25337
25258
25172
25092
25024
24969
24925
24885
24847
24811
24780
24759
24751
24756
24773
24803
24842
24888
24937
24989
25039
25082
25119
25150
25173
25188
25197
25201
25197
25185
25165
25140
25110
25071
25025
24977
24925
24870
24814
24755
24693
24627
24560
24497
24436
24377
24320
24264
24210
24160
24113
24069
24026
23982
23936
23887
23833
23778
23725
23674
23626
23578
23528
23477
23420
23360
23303
23249
23199
23156
23120
23089
23060
23033
23012
22995
22980
22961
22941
22920
22899
22876
22851
22824
22796
22770
22749
22733
22720
22706
22695
22691
22685
22676
22669
22665
22659
22650
22640
22629
22618
22606
22591
22573
22550
22522
22494
22468
22442
22417
22396
22377
22352
22320
22287
22253
22221
22190
22160
22132
22105
22080
22059
22037
22011
21981
21946
21908
21871
21840
21818
21806
21805
21820
21856
21924
22026
22161
22330
22528
22754
23004
23276
23562
23860
24166
24476
24780
25074
25356
25625
25879
26115
26327
26508
26658
26781
26879
26956
27013
27056
27083
27096
27093
27072
27037
26998
26959
26918
26873
26828
26786
26746
26708
26670
26630
26588
26548
26509
26472
26437
26401
26360
26317
26271
26218
26157
26089
26012
25928
25841
25759
25685
25620
25563
25507
25451
25404
25371
25350
25341
25343
25357
25379
25408
25441
25476
25511
25544
25573
25597
25619
25635
25647
25660
25670
25670
25663
25649
25625
25592
25555
25520
25486
25445
25398
25349
25298
25248
25200
25148
25096
25045
24991
24931
24869
24809
24750
24693
24639
24588
24534
24475
24414
24354
24299
24245
24189
24131
24076
24029
23986
23944
23900
23855
23807
23756
23707
23663
23625
23588
23549
23511
23478
23449
23419
23392
23366
23341
23317
23293
23273
23261
23256
23254
23251
23243
23230
23211
23186
23161
23137
23108
23076
23047
23020
22996
22971
22942
22914
22887
22858
22828
22801
22776
22751
22727
22701
22673
22642
22609
22579
22550
22519
22490
22468
22445
22418
22395
22380
22367
22347
22319
22284
22245
22207
22169
22130
22091
22051
22011
21966
21917
21866
21821
21781
21746
21713
21685
21657
21628
21600
21575
21551
21529
21517
21513
21517
21536
21576
21645
21744
21879
22055
22274
22533
22827
23149
23495
23853
24216
24578
24932
25274
25600
25908
26199
26467
26706
26913
27089
27239
27366
27467
27538
27577
27590
27588
27575
27550
27519
27482
27439
27394
27350
27309
27265
27218
27169
27122
27079
27040
27004
26971
26937
26901
26862
26826
26792
26752
26698
26632
26556
26472
26384
26300
26221
26146
26079
26017
25961
25913
25878
25854
25835
25822
25819
25820
25822
25828
25837
25852
25874
25904
25939
25975
26012
26049
26087
26119
26145
26161
26168
26165
26152
26128
26096
26056
26010
25959
25906
25852
25794
25733
25668
25603
25540
25481
25428
25375
25320
25263
25204
25148
25091
25030
24961
24886
24810
24734
24661
24589
24525
24472
24423
24371
24317
24260
24202
24147
24100
24062
24032
23999
23960
23920
23888
23861
23834
23805
23777
23747
23711
23674
23639
23606
23574
23540
23508
23479
23456
23439
23427
23412
23393
23378
23362
23343
23321
23300
23276
23251
23226
23197
23163
23127
23091
23059
23033
23009
22983
22957
22934
22912
22888
22862
22836
22809
22781
22751
22717
22682
22649
22614
22580
22550
22525
22500
22472
22438
22404
22367
22327
22285
22243
22203
22163
22126
22088
22047
22006
21967
21928
21884
21836
21788
21738
21685
21633
21586
21544
21505
21466
21425
21386
21355
21329
21301
21269
21236
21207
21180
21152
21124
21096
21062
21023
20987
20954
20924
20896
20871
20854
20849
20854
20871
20915
20999
21125
21290
21492
21730
21999
22299
22628
22982
23351
23733
24126
24517
24893
25247
25581
25890
26167
26408
26614
26786
26927
27040
27127
27185
27221
27237
27238
27225
27197
27158
27110
27054
26990
26927
26868
26813
26755
26694
26636
26582
26532
26488
26448
26405
26358
26309
26261
26216
26173
26128
26077
26018
25955
25889
25818
25747
25680
25620
25566
25520
25482
25451
25427
25410
25401
25401
25411
25425
25441
25459
25483
25509
25535
25563
25594
25627
25655
25676
25693
25704
25709
25706
25695
25683
25673
25661
25641
25614
25579
25533
25477
25414
25345
25272
25197
25126
25061
25002
24938
24870
24801
24736
24672
24609
24544
24480
24412
24343
24276
24214
24156
24101
24046
23984
23917
23850
23784
23723
23666
23613
23566
23526
23491
23454
23414
23375
23340
23308
23273
23238
23204
23175
23150
23123
23100
23086
23075
23062
23053
23047
23042
23039
23039
23036
23026
23011
22994
22978
22957
22931
22904
22878
22855
22834
22812
22790
22771
22753
22731
22708
22685
22664
22640
22609
22569
22528
22491
22453
22411
22368
22327
22289
22254
22223
22197
22167
22133
22095
22056
22015
21975
21937
21899
21859
21815
21768
21721
21676
21633
21589
21544
21502
21467
21435
21405
21375
21347
21321
21299
21280
21259
21237
21220
21208
21199
21190
21177
21160
21138
21116
21096
21077
21066
21071
21103
21165
21259
21388
21558
21769
22020
22300
22603
22924
23261
23609
23964
24317
24665
25002
25320
25617
25895
26146
26367
26561
26726
26859
26962
27037
27086
27112
27118
27104
27077
27038
26991
26938
26877
26809
26736
26659
26576
26489
26401
26316
26237
26164
26095
26029
25962
25891
25816
25739
25659
25572
25480
25389
25304
25222
25140
25060
24988
24924
24871
24830
24801
24784
24778
24783
24797
24815
24837
24864
24896
24934
24981
25033
25087
25143
25203
25266
25324
25376
25420
25453
25474
25479
25469
25451
25430
25401
25360
25318
25276
25231
25187
25142
25094
25044
24993
24940
24878
24807
24734
24663
24595
24526
24456
24382
24310
24247
24187
24128
24070
24005
23932
23864
23802
23741
23681
23624
23569
23517
23468
23417
23366
23326
23290
23251
23210
23171
23139
23113
23087
23061
23035
23009
22981
22953
22927
22908
22895
22884
22875
22867
22854
22834
22811
22789
22768
22743
22718
22696
22674
22653
22637
22629
22625
22622
22615
22599
22578
22557
22534
22509
22485
22461
22436
22407
22374
22341
22314
22296
22281
22267
22253
22237
22211
22180
22146
22109
22074
22041
22007
21967
21927
21892
21857
21818
21779
21742
21706
21669
21634
21604
21580
21555
21528
21502
21471
21433
21393
21354
21320
21299
21295
21313
21357
21434
21552
21712
21909
22140
22408
22715
23055
23417
23793
24180
24571
24957
25327
25673
25992
26289
26560
26799
27005
27173
27309
27415
27494
27548
27581
27597
27597
27583
27555
27516
27470
27418
27360
27295
27222
27145
27069
26992
26920
26860
26807
26754
26699
26644
26591
26536
26476
26415
26354
26292
26226
26158
26088
26017
25944
25868
25792
25720
25655
25596
25544
25498
25461
25435
25419
25414
25424
25447
25475
25501
25524
25550
25579
25606
25633
25661
25687
25710
25730
25746
25755
25759
25757
25749
25735
25711
25678
25642
25602
25557
25509
25462
25415
25365
25311
25257
25202
25137
25061
24974
24885
24803
24729
24657
24591
24528
24464
24405
24348
24290
24230
24173
24121
24071
24023
23975
23926
23876
23825
23775
23726
23677
23629
23580
23532
23487
23448
23414
23387
23363
23339
23311
23277
23240
23207
23176
23145
23115
23089
23067
23045
23025
23005
22983
22957
22930
22908
22890
22873
22858
22846
22831
22812
22788
22759
22726
22699
22677
22653
22625
22598
22573
22547
22519
22489
22452
22414
22382
22355
22322
22286
22252
22219
22179
22138
22098
22054
22010
21969
21934
21903
21877
21853
21825
21792
21755
21718
21684
21656
21626
21589
21548
21505
21462
21420
21375
21328
21284
21244
21207
21175
21145
21115
21090
21066
21038
21007
20974
20941
20909
20881
20862
20864
20899
20969
21076
21224
21415
21651
21932
22255
22611
22986
23379
23785
24193
24596
24987
25361
25715
26042
26335
26593
26818
27012
27173
27304
27408
27484
27532
27555
27555
27535
27502
27457
27404
27346
27284
27222
27161
27099
27032
26959
26889
26822
26760
26702
26646
26593
26542
26492
26442
26388
26327
26260
26186
26104
26017
25927
25837
25747
25662
25583
25510
25449
25395
25344
25297
25262
25241
25235
25242
25258
25281
25310
25340
25367
25389
25410
25431
25452
25474
25496
25518
25539
25556
25569
25577
25579
25580
25580
25580
25575
25560
25530
25492
25452
25406
25355
25297
25233
25165
25096
25027
24959
24892
24828
24765
24698
24634
24571
24507
24445
24386
24327
24265
24202
24140
24082
24026
23967
23907
23850
23792
23731
23668
23606
23544
23483
23426
23373
23322
23271
23221
23178
23142
23110
23079
23049
23024
23002
22986
22972
22952
22925
22894
22866
22841
22818
22796
22773
22749
22724
22695
22665
22637
22611
22589
22567
22547
22526
22500
22472
22446
22419
22394
22367
22333
22298
22269
22242
22214
22187
22159
22126
22091
22056
22020
21984
21945
21903
21864
21830
21794
21757
21722
21685
21645
21604
21565
21527
21496
21467
21434
21397
21360
21323
21284
21244
21205
21169
21137
21106
21075
21041
20998
20947
20894
20845
20801
20763
20731
20707
20689
20676
20669
20677
20706
20762
20850
20979
21151
21363
21619
21918
22252
22613
22997
23396
23801
24198
24579
24940
25279
25588
25867
26118
26344
26545
26720
26865
26977
27058
27118
27156
27169
27159
27134
27099
27052
26994
26931
26865
26791
26711
26632
26556
26480
26411
26351
26296
26243
26194
26152
26110
26064
26013
25955
25886
25811
25736
25659
25576
25492
25411
25334
25264
25203
25147
25096
25054
25019
24990
24970
24963
24968
24982
25004
25038
25087
25144
25203
25259
25308
25353
25397
25441
25478
25505
25522
25531
25529
25519
25502
25480
25458
25440
25417
25390
25365
25341
25314
25281
25244
25198
25142
25082
25020
24959
24896
24833
24767
24700
24637
24577
24517
24454
24391
24330
24273
24220
24171
24123
24072
24018
23961
23903
23843
23782
23721
23661
23603
23550
23500
23455
23415
23383
23356
23327
23296
23263
23227
23188
23150
23116
23091
23077
23071
23068
23066
23071
23081
23089
23095
23099
23100
23095
23085
23074
23065
23052
23031
23009
22987
22960
22931
22903
22877
22853
22831
22816
22803
22791
22781
22767
22747
22725
22700
22677
22654
22628
22598
22570
22539
22499
22453
22412
22382
22365
22359
22368
22401
22460
22550
22674
22834
23033
23270
23537
23825
24132
24456
24789
25123
25444
25752
26047
26321
26567
26783
26974
27138
27276
27391
27489
27569
27630
27672
27696
27703
27695
27674
27635
27584
27529
27476
27423
27367
27315
27269
27225
27176
27121
27063
27002
26938
26869
26797
26721
26643
26563
26482
26400
26326
26258
26185
26109
26037
25969
25903
25841
25785
25744
25717
25699
25695
25706
25724
25744
25771
25806
25844
25878
25907
25939
25976
26016
26051
26081
26109
26129
26140
26149
26155
26156
26149
26137
26120
26097
26064
26020
25965
25902
25835
25768
25702
25636
25572
25511
25449
25388
25328
25268
25207
25151
25104
25059
25011
24960
24909
24854
24792
24730
24668
24608
24551
24502
24461
24424
24388
24349
24307
24263
24215
24167
24118
24068
24022
23979
23940
23906
23875
23847
23823
23803
23785
23771
23759
23743
23723
23703
23682
23664
23649
23635
23621
23608
23596
23582
23565
23549
23536
23527
23517
23501
23481
23461
23442
23423
23403
23382
23355
23328
23305
23285
23263
23240
23217
23199
23188
23183
23188
23207
23248
23321
23426
23565
23740
23954
24205
24483
24781
25093
25416
25746
26079
26412
26740
27055
27351
27626
27874
28093
28287
28457
28605
28729
28826
28894
28940
28969
28983
28982
28966
28941
28908
28869
28829
28786
28735
28681
28628
28574
28521
28469
28418
28366
28316
28266
28215
28161
28106
28049
27989
27928
27862
27789
27712
27633
27552
27472
27396
27325
27257
27189
27123
27061
27005
26960
26924
26896
26878
26870
26868
26869
26878
26897
26925
26959
26999
27038
27072
27103
27136
27169
27195
27213
27220
27215
27205
27191
27169
27138
27102
27060
27012
26958
26901
26845
26791
26740
26696
26656
26616
26573
26524
26468
26407
26343
26276
26212
26151
26095
26041
25985
25929
25874
25819
25760
25699
25636
25576
25525
25481
25439
25403
25372
25341
25309
25280
25255
25231
25204
25179
25158
25140
25124
25104
25076
25038
24995
24954
24920
24887
24855
24821
24785
24748
24715
24689
24667
24650
24636
24622
24606
24587
24563
24541
24520
24496
24468
24442
24414
24383
24356
24330
24306
24287
24272
24257
24240
24210
24171
24132
24091
24048
24008
23970
23933
23892
23849
23804
23760
23722
23691
23662
23634
23600
23562
23522
23480
23443
23413
23391
23386
23400
23439
23517
23637
23796
24000
24247
24530
24843
25179
25531
25897
26272
26647
27009
27350
27668
27965
28240
28492
28718
28916
29082
29214
29319
29399
29456
29495
29518
29524
29513
29490
29456
29415
29366
29313
29259
29206
29151
29094
29037
28983
28930
28880
28831
28783
28735
28683
28625
28564
28500
28431
28354
28272
28189
28106
28024
27947
27876
27811
27752
27699
27654
27614
27585
27563
27541
27526
27521
27523
27529
27540
27555
27577
27601
27622
27641
27667
27698
27726
27750
27769
27783
27793
27800
27803
27799
27790
27775
27751
27717
27673
27624
27572
27515
27454
27392
27331
27268
27201
27133
27068
27005
26943
26881
26817
26752
26691
26631
26574
26518
26462
26399
26334
26273
26221
26175
26131
26085
26033
25979
25924
25873
25830
25788
25742
25692
25643
25601
25567
25537
25511
25487
25459
25426
25392
25363
25336
25315
25300
25285
25272
25259
25242
25219
25192
25162
25130
25103
25081
25063
25045
25024
25004
24990
24973
24951
24930
24908
24880
24849
24817
24787
24759
