22588
22221
22607
22194
22460
22536
22181
22353
22272
22367
22219
22292
22342
22591
22456
22462
22355
22211
22357
22548
22344
22517
22434
22283
22607
22349
22306
22491
22583
22365
22749
22695
22325
22585
22321
22492
22340
22700
22608
22627
22438
22326
22740
22441
22765
22434
22686
22342
22506
22452
22415
22434
22584
22536
22587
22561
22459
22761
22390
22507
22360
22305
22415
22569
22321
22495
22281
22564
22726
22368
22300
22443
22412
22785
22648
22396
22594
22811
22537
22385
22579
22594
22662
22502
22651
22849
22537
22671
22482
22433
22845
22828
22818
22467
22440
22809
22739
22520
22873
22770
22808
22748
22581
22867
22736
22645
22741
22528
22664
22548
22814
22639
22650
22516
22852
22503
22726
22739
22480
22376
22524
22647
22599
22511
22289
22496
22398
22224
22390
22379
22128
22299
22505
22364
22477
22371
22338
22081
22436
22128
22404
22363
22392
22137
22258
22383
22197
22391
22215
22386
22238
22020
22247
22517
22362
22440
22109
22051
22100
22378
22396
22092
22217
22420
22372
22305
22327
22261
22348
22226
22369
22433
22385
22324
22529
22312
22263
22492
22216
22493
22112
22419
22546
22082
22138
22176
22072
22374
22395
22217
22570
22412
22187
22454
22343
22136
22322
22380
22330
22044
22210
22572
22364
22163
22408
22314
22250
22377
22526
22498
22476
22557
22204
22211
22489
22322
22187
22438
22435
22357
22339
22411
22179
22363
22579
22632
22230
22284
22505
22555
22503
22333
22508
22729
22457
22478
22450
22831
22737
22614
22479
22657
22754
22429
22625
22674
22827
22568
22739
22599
22515
22801
22883
22784
22681
22974
22701
22703
22837
22848
22889
22915
22771
23037
22912
22715
22820
22955
22589
22773
22671
22780
22443
22512
22735
22508
22270
22295
22313
22506
22344
22391
22519
22568
22407
22692
22598
22366
22601
22439
22576
22227
22226
22485
22595
22337
22513
22262
22705
22563
22639
22770
22405
22700
22587
22527
22303
22474
22745
22609
22734
22496
22625
22472
22443
22626
22456
22753
22555
22683
22541
22632
22585
22581
22591
22473
22742
22828
22538
22836
22527
22788
22781
22590
22631
22717
22414
22378
22537
22426
22752
22409
22449
22610
22528
22591
22461
22616
22787
22827
22767
22700
22463
22582
22459
22472
22567
22794
22660
22552
22647
22834
22538
22588
22498
22704
22916
22855
22915
22754
22705
22621
22859
22851
22491
22744
22677
22681
22748
22763
22870
22651
22679
22725
22800
22575
22964
22670
22770
23001
23034
22616
22969
22730
22773
22824
22942
22867
23064
22994
23097
22917
22754
22824
22622
22777
23050
22913
22875
22563
22727
22655
22599
22467
22606
22764
22506
22709
22694
22548
22600
22641
22318
22332
22196
22272
22270
22584
22555
22337
22430
22318
22356
22367
22419
22390
22432
22305
22441
22395
22436
22440
22299
22483
22375
22615
22440
22179
22263
22526
22361
22646
22227
22574
22559
22679
22452
22577
22678
22517
22650
22328
22359
22512
22187
22361
22472
22385
22628
22257
22250
22382
22214
22223
22622
22397
22526
22515
22349
22193
22260
22389
22241
22260
22464
22600
22332
22391
22395
22493
22262
22506
22180
22425
22475
22578
22269
22264
22661
22584
22669
22542
22536
22376
22563
22262
22481
22386
22617
22680
22340
22659
22669
22540
22543
22559
22370
22590
22811
22703
22542
22507
22645
22585
22633
22509
22554
22727
22559
22439
22655
22778
22397
22838
22638
22648
22659
22580
22703
22787
22793
22851
22869
22822
22744
22740
22551
22661
22469
22677
22565
22388
22531
22450
22634
22324
22533
22255
22399
22185
22471
22459
22338
22467
22114
22013
22126
22114
22105
22333
22152
22221
22050
22116
22229
21934
22107
21927
22083
22059
22244
22080
21862
22094
21998
22121
22145
22029
22216
21985
22387
22257
22321
22334
21941
21939
22206
22100
22177
22388
22283
22451
22164
22127
22387
22283
22410
22447
22091
22076
22071
22131
22530
22151
22383
22369
22452
22440
22099
22234
22124
22056
22378
22298
22336
22306
22164
22035
22216
22487
22288
22231
22184
22420
22147
22141
22175
22447
22299
22229
22237
22362
22105
22414
22346
22224
22532
22114
22188
22154
22448
22205
22314
22235
22419
22632
22406
22274
22451
22216
22426
22491
22580
22242
22575
22280
22293
22222
22373
22564
22269
22584
22537
22607
22574
22435
22315
22592
22379
22464
22623
22600
22805
22433
22803
22509
22817
22632
22488
22595
22618
22509
22862
22452
22468
22716
22444
22843
22696
22479
22546
22671
22359
22388
22439
22486
22562
22403
22330
22305
22442
22497
22471
22284
22522
22333
22390
22101
22227
22423
22127
22359
22150
22139
22204
22285
22381
22456
22151
22114
22180
22260
22503
22367
22287
22236
22578
22227
22181
22522
22639
22653
22650
22344
22522
22673
22616
22315
22587
22491
22520
22402
22603
22743
22481
22345
22412
22613
22622
22584
22552
22839
22635
22651
22381
22579
22494
22582
22550
22517
22599
22467
22348
22400
22360
22692
22579
22280
22645
22674
22612
22699
22568
22390
22335
22687
22489
22701
22649
22643
22435
22418
22771
22511
22581
22421
22411
22596
22655
22692
22349
22427
22329
22445
22634
22658
22536
22469
22848
22777
22652
22424
22442
22429
22411
22513
22641
22708
22405
22682
22755
22549
22593
22687
22424
22590
22866
22624
22750
22633
22650
22589
22566
22538
22603
22419
22408
22564
22398
22733
22505
22652
22492
22138
22511
22466
22320
22340
22398
22102
22001
22325
22133
22135
21951
21806
21951
22067
22099
22084
22175
21831
21686
21755
22164
21972
21765
21915
21819
21712
21877
21778
21825
22193
22078
21792
21957
22208
22083
22007
21984
22202
22045
22170
22157
22121
21929
22225
21940
22056
21851
22024
22052
22199
22209
22119
21927
22163
22162
22228
21983
21959
22032
21961
21816
21795
21952
21918
22058
21757
21860
21636
22066
21877
21682
21736
22023
22004
22070
21745
21846
21996
21767
21884
21645
21849
21783
21773
21983
22048
21641
21785
22091
21964
21994
22130
21939
22027
21856
21777
21906
21918
21650
21769
21618
21878
21960
22094
21777
21855
22045
21766
21878
22095
22092
21960
22145
21722
21926
22055
21786
21947
21973
22104
22002
21853
21912
21792
21841
21764
22028
22113
22045
22082
22113
22066
22097
22062
21834
21906
21901
22061
21784
21643
21796
21601
21417
21748
21823
21625
21663
21547
21485
21405
21530
21695
21414
21599
21654
21469
21735
21601
21642
21470
21326
21310
21761
21557
21647
21648
21518
21665
21743
21709
21673
21369
21562
21532
21551
21501
21582
21791
21650
21557
21690
21476
21758
21892
21752
21657
21562
21817
21620
21517
21926
21558
21512
21750
21512
21856
21887
21852
21888
21765
21630
21461
21642
21874
21499
21706
21546
21747
21844
21456
21828
21852
21679
21535
21591
21654
21692
21450
21531
21933
21666
21796
21895
21573
21879
21677
21787
21904
21617
22002
21943
21974
21659
21930
21756
22013
21881
22084
21890
21704
21926
22014
21947
21872
21937
22115
22001
21906
22102
21923
21863
21894
21825
21994
22008
21935
22271
22083
22256
22263
22004
21911
22335
22203
22106
22247
22143
21926
22102
22282
21982
22057
22039
22020
22122
22356
21953
22224
22100
22054
22088
22080
22271
22007
21940
21954
22016
21811
21720
21784
21631
21915
21925
21632
21876
21877
21718
21787
21661
21546
21552
21774
21666
21681
21634
21698
21463
21410
21777
21447
21580
21700
21755
21508
21571
21689
21457
21612
21476
21595
21651
21892
21910
21800
21832
21891
21573
21644
22021
21694
21683
21961
21681
21833
21715
21903
21959
21623
21703
22143
22004
21765
22128
21950
22011
21967
22081
21980
21688
21930
22082
21907
21985
21972
22076
21828
21979
22022
21981
21941
22034
22087
22155
21873
22121
22179
21912
22164
22227
22187
22347
22195
22187
22052
22081
22313
22086
22401
22288
22174
22411
22094
22039
22384
22441
22167
22547
22271
22554
22213
22321
22328
22401
22305
22509
22357
22408
22704
22457
22655
22535
22581
22397
22729
22724
22553
22350
22524
22742
22602
22747
22461
22759
22712
22429
22684
22660
22598
22659
22258
22211
22363
22437
22460
22206
21998
22212
22001
21845
21811
21919
22088
21920
21904
21771
22020
21774
22011
21808
21788
21663
21874
21843
21983
22100
21894
21693
21724
21961
21833
21935
21910
21926
22015
21703
21664
21905
22039
22000
21905
21739
22085
21706
21795
21723
21823
22082
21972
21761
21994
21827
22081
21706
21750
22191
21743
21693
21914
22141
22058
21754
21827
21687
21724
21778
22022
21890
21683
21780
21783
21688
21863
21960
21882
21992
21822
21912
21896
21927
21864
21759
21877
21681
21971
21737
21778
21919
21721
21726
22086
21823
21773
22039
22119
21962
21788
21938
21884
22074
21911
21944
22143
21910
22101
21968
22219
22225
22107
22104
22110
22099
22132
22222
22132
21952
22132
22114
21930
22012
22075
22104
22177
22193
21968
22197
22098
22262
21961
22162
22289
21983
22129
22006
22033
21864
22047
21735
21984
21729
21952
21612
21886
21554
21709
21803
21772
21514
21691
21419
21605
21719
21662
21691
21255
21511
21646
21512
21168
21456
21485
21374
21505
21353
21370
21379
21245
21626
21382
21169
21349
21398
21266
21188
21390
21565
21467
21234
21365
21462
21514
21470
21273
21532
21669
21455
21309
21519
21658
21628
21692
21649
21322
21322
21419
21653
21310
21255
21655
21425
21612
21660
21455
21389
21588
21432
21695
21497
21620
21643
21555
21636
21751
21597
21327
21393
21454
21471
21382
21579
21435
21648
21533
21399
21807
21524
21527
21411
21705
21530
21586
21644
21816
21711
21759
21664
21686
21546
21873
21632
21698
21800
21925
21762
21942
21787
21581
21819
21620
21844
21624
21801
22013
21729
21698
22100
21643
21843
22117
22103
21841
21846
21984
21830
22065
22187
22069
22209
21942
21814
21966
22065
22202
22182
21737
22000
21806
22007
21992
21928
21960
21852
21629
21689
21810
21814
21889
21422
21738
21587
21444
21482
21596
21334
21424
21470
21610
21508
21363
21525
21412
21533
21523
21364
21604
21459
21721
21580
21657
21418
21691
21476
21370
21337
21329
21425
21425
21673
21273
21358
21692
21419
21487
21357
21473
21401
21456
21472
21727
21445
21693
21428
21637
21595
21361
21532
21320
21565
21641
21389
21719
21422
21286
21590
21576
21545
21559
21662
21584
21495
21457
21491
21514
21326
21309
21290
21539
21552
21205
21136
21454
21486
21441
21290
21194
21494
21402
21339
21272
21485
21602
21348
21391
21249
21426
21552
21446
21377
21512
21304
21574
21668
21544
21624
21481
21639
21350
21704
21431
21424
21676
21538
21550
21345
21697
21582
21387
21634
21794
21580
21804
21751
21790
21702
21845
21653
21737
21614
21735
21621
21716
21457
21721
21674
21712
21685
21436
21422
21420
21511
21672
21560
21409
21320
21618
21259
21704
21402
21586
21411
21158
21393
21136
21340
21480
21226
21261
21266
21266
21179
21496
21598
21538
21291
21331
21524
21418
21259
21352
21566
21392
21644
21563
21637
21453
21423
21409
21720
21478
21599
21709
21498
21568
21373
21677
21844
21909
21798
21464
21807
21703
21621
21562
21686
21617
21766
21658
21734
21514
21904
21687
21634
21544
21886
21886
21642
21908
21751
21557
21771
21520
21773
21717
21794
21901
21664
21868
21734
22027
21643
21778
21638
21797
22006
21871
21684
21746
21856
21810
21838
21677
21974
22008
22051
21727
21937
21887
21857
21711
21755
21720
21760
21691
21772
21742
21959
21895
21691
21907
21902
22077
22107
21869
21737
22176
21837
22051
21739
21995
21927
21873
21826
21778
21861
22014
21709
22072
21946
21603
21787
21874
21951
21843
21560
21470
21633
21590
21656
21539
21391
21243
21354
21134
21396
21354
21157
21354
21370
21279
21180
20974
21101
20960
21278
21254
21132
21096
20973
20849
20883
21121
21025
21252
21055
21296
21115
21183
21074
21213
21032
21105
21140
21138
20892
21207
21326
21177
20964
21144
20960
21094
21243
21398
21442
21250
21032
21397
21147
21092
21321
21142
21329
21434
21114
21093
21300
21431
21184
21245
21371
21318
21059
21143
21315
21272
21164
21326
21080
21355
21305
21287
21097
21426
21240
21275
21403
21611
21369
21501
21239
21569
21622
21510
21320
21339
21410
21615
21474
21416
21620
21594
21795
21844
21771
21554
21710
21800
21738
21857
21679
21892
21770
21908
21623
21721
21742
22020
21744
22025
21696
22058
21702
22048
22060
21842
21988
21767
22083
22175
22125
21976
22178
22112
22096
21880
22016
21944
22138
21987
21789
21880
22059
21831
21640
21685
21800
21510
21503
21741
21643
21289
21533
21587
21527
21206
21541
21358
21310
21472
21252
21052
21119
21097
21205
21155
21373
21238
21374
21208
21370
21092
21011
21224
20979
20998
20919
21143
21179
21190
21189
20885
20926
21087
21005
21009
21045
20913
20909
21288
21275
21336
21079
21304
21226
21207
20950
21367
21105
21051
20920
21228
21260
21196
20976
20984
20941
21187
21202
21221
21008
21062
21043
21046
21167
21292
21036
20819
20918
21251
21269
21119
21224
21349
20970
21128
21261
21347
21163
21187
21100
21070
21228
21067
21180
21195
21378
21341
21311
21319
21113
21105
21380
21480
21290
21293
21280
21166
21288
21268
21461
21383
21346
21468
21372
21275
21301
21393
21386
21399
21720
21692
21296
21621
21590
21663
21484
21527
21370
21470
21390
21436
21939
21739
21867
21791
21741
21724
21830
21766
21716
21565
21858
21845
21599
21507
21616
21709
21299
21508
21251
21465
21584
21372
21471
21297
21218
21237
21333
21265
21296
21347
21212
21112
21134
21093
21235
21328
21309
21315
21294
21158
21296
21140
21034
21259
21146
21377
21415
21354
21065
21334
21391
21301
21156
21295
21322
21237
21200
21438
21231
21450
21395
21252
21367
21588
21442
21228
21382
21499
21337
21614
21290
21467
21333
21429
21680
21656
21381
21333
21545
21547
21383
21402
21398
21336
21335
21752
21499
21712
21765
21485
21704
21789
21629
21678
21661
21672
21570
21468
21613
21778
21469
21712
21634
21662
21563
21706
21591
21687
21583
21762
21848
21708
21700
21935
21608
21791
21707
21959
21590
22027
22037
21958
21989
21638
21950
21902
21967
21740
21724
21891
21751
21762
21953
21824
21875
21751
21952
22132
22164
21933
22141
21908
22123
21862
22093
21913
21913
22001
21729
21906
21692
21592
21703
21489
21615
21744
21721
21733
21672
21522
21564
21287
21267
21356
21367
21486
21358
21156
21342
21429
21107
21202
21265
21256
21078
21303
21359
21444
21401
21247
21363
21418
21358
21105
21202
21159
21347
21414
21502
21135
21384
21594
21375
21489
21288
21416
21306
21360
21600
21413
21611
21529
21355
21376
21341
21565
21498
21366
21603
21341
21506
21631
21293
21274
21329
21424
21431
21651
21380
21470
21408
21706
21276
21258
21580
21388
21642
21439
21278
21486
21363
21520
21413
21517
21307
21659
21395
21653
21570
21755
21388
21403
21527
21622
21797
21535
21644
21810
21687
21628
21730
21834
21867
21629
21809
21494
21881
21762
21918
21759
21860
21634
21814
21702
21868
21968
21974
21974
21824
21844
21778
21970
21910
21994
21890
21993
21831
21868
21830
21814
21878
22077
21755
21565
21639
21607
21864
21851
21463
21637
21578
21309
21502
21488
21529
21298
21520
21468
21119
21328
21341
21453
21426
21118
21082
21412
21282
21298
21202
21104
21050
21418
21227
21275
21370
21383
21246
21409
21056
21345
21029
21373
21021
21274
21252
21234
21405
21285
21091
21262
21219
21198
21491
21590
21342
21666
21529
21487
21271
21460
21563
21532
21616
21310
21490
21606
21279
21454
21603
21489
21608
21430
21407
21451
21333
21429
21528
21460
21292
21434
21269
21507
21669
21667
21645
21458
21421
21610
21626
21324
21649
21572
21696
21316
21477
21533
21441
21685
21771
21528
21551
21558
21711
21818
21643
21760
21610
21763
21800
21794
21817
21489
21507
21749
21558
21579
21822
21852
21775
21451
21586
21844
21703
21916
21823
21896
21596
21553
21927
21938
21642
21611
21784
21695
21635
21773
22017
21863
21686
22056
22141
21877
21738
21895
21982
22044
21808
21599
21932
21688
21778
21740
21819
21672
21796
21585
21582
21355
21266
21488
21420
21470
21608
21528
21523
21327
21547
21472
21464
21150
21480
21533
21459
21156
21277
21221
21293
21188
21433
21411
21283
21453
21272
21170
21276
21214
21242
21631
21266
21306
21288
21573
21648
21437
21336
21668
21626
21617
21550
21382
21489
21463
21464
21449
21734
21724
21474
21809
21787
21519
21624
21841
21674
21850
21726
21623
21798
21883
21812
21753
21685
21797
21863
21769
21727
21663
21787
21825
21584
21605
21510
21947
21929
21831
21586
21770
21994
21923
21907
21770
21834
22014
21851
22072
22104
21965
21876
21836
21889
21998
21976
22073
21915
22211
22058
22111
22353
22213
22015
22220
22248
22262
22208
22388
22341
22333
22350
22305
22324
22137
22353
22227
22417
22561
22307
22402
22298
22304
22648
22482
22384
22677
22320
22419
22741
22736
22600
22588
22421
22592
22541
22341
22416
22188
22218
22126
22246
22398
22215
21903
21911
22061
21976
21742
21794
22102
21851
21551
21929
21990
21858
21598
21645
21674
21550
21689
21956
21704
21943
21682
21977
21652
21620
21858
21961
21854
21735
21655
21881
22068
21716
22077
21890
21867
21958
21921
21774
22077
21936
21802
22019
21690
21938
22025
21756
21938
21839
21862
21827
21787
21666
21622
21865
21721
21538
21936
21874
21636
22005
21938
21688
21944
21720
21869
21654
21932
21685
21858
21904
21696
21781
21857
21939
21888
21898
21844
21669
21932
22006
21913
21930
21886
21886
21901
21924
22022
21736
22117
21918
22011
22009
21848
21934
21859
21962
22195
22031
22112
22270
22085
21996
22275
22034
22247
22197
21980
21929
22036
22352
22255
22359
22302
22305
22191
22339
22255
22247
22131
22379
22291
22180
22405
22374
22444
22210
22149
22120
22084
21997
22242
21907
22162
21909
21809
21935
21836
21728
21845
21575
21784
21711
21740
21731
21847
21763
21889
21958
21795
21657
21798
21692
21540
21676
21737
21773
21617
21817
21725
21967
21871
21740
21813
21777
21875
21857
22017
22057
21876
21807
21951
22096
22143
22199
22040
21907
22098
21826
22267
22183
21995
21951
21900
22007
21986
22069
22165
21995
21934
22164
21989
22255
22193
22004
22274
22025
22236
21944
22215
21940
22007
22174
21964
21997
22265
22176
22329
22182
21992
22349
22052
22302
22355
22221
21977
22231
22423
22268
22333
22210
22207
22381
22174
22371
22103
22425
22365
22169
22319
22336
22092
22550
22355
22420
22202
22533
22185
22180
22193
22432
22353
22312
22628
22432
22463
22321
22209
22444
22218
22436
22481
22376
22414
22507
22364
22481
22495
22295
22487
22558
22296
22295
22506
22185
22405
22487
22284
22127
22142
22062
22328
22089
21926
22259
22214
21816
22009
21827
21884
21869
21597
21693
21729
21600
21547
21634
21626
21583
21633
21477
21591
21723
21688
21618
21690
21854
21872
21963
21496
21673
21791
21756
21533
21583
21496
21536
21880
21649
21660
21662
21681
21689
21765
22001
21681
21781
21917
21858
21919
22035
21951
21895
21900
21716
21993
21739
22003
21860
22003
21931
21626
21814
21780
21688
21810
21955
21686
21761
21723
21955
22019
21710
21746
21756
21920
22049
21785
21938
21954
21762
21936
22118
21955
22034
21872
21757
21985
21835
21961
22077
21883
22107
22135
21908
21837
22100
21998
21936
22265
22096
21936
21975
22086
22201
22184
22023
22232
21930
22223
22122
22197
22303
22167
22400
22116
22132
22344
22054
22312
22178
22258
22494
22201
22450
22436
22330
22138
22411
22306
22549
22464
22488
22138
22401
22482
22408
22416
22456
22111
22396
22145
22324
22221
21873
22073
22261
22061
21898
21813
22069
21837
21846
21950
21931
22105
21746
22149
22085
21810
21875
21811
22014
22104
22058
21793
22052
22174
22076
21841
22037
22117
22061
22106
22027
22108
21958
22237
22074
21919
22086
22352
22123
22191
22002
22296
22206
22001
22107
22205
22380
22130
22086
22126
22392
22324
22128
21970
22324
22394
22274
22175
22293
22250
22320
22190
22191
22236
22107
22294
22051
22147
22104
22247
22242
22386
22396
22279
22323
22490
22408
22200
22221
22526
22549
22341
22252
22275
22598
22269
22493
22428
22585
22455
22730
22624
22493
22623
22654
22711
22394
22702
22336
22578
22581
22751
22780
22632
22780
22427
22556
22817
22679
22747
22608
22640
22742
22947
22700
22687
22653
22829
22854
22686
22855
22791
22849
22925
22554
22942
22571
22870
22893
22802
22622
22466
22770
22536
22570
22438
22372
22350
22321
22153
22469
22476
22227
22369
22117
22080
22123
22035
22150
22059
22365
22171
22147
22129
22197
22324
22313
22185
22168
22061
22447
22189
22394
22121
22339
22504
22374
22128
22429
22508
22450
22346
22178
22123
22209
22162
22433
22341
22579
22307
22340
22240
22235
22345
22453
22325
22387
22545
22233
22597
22613
22619
22304
22333
22493
22441
22494
22671
22566
22286
22455
22331
22428
22710
22678
22365
22705
22354
22431
22575
22442
22520
22713
22465
22359
22613
22623
22527
22388
22724
22438
22468
22645
22510
22587
22753
22490
22542
22686
22688
22545
22695
22577
22522
22835
22855
22698
22746
22930
22820
22953
22726
22780
22914
22967
22722
22986
22900
23024
22640
22617
22675
22858
22872
22837
22852
22830
23057
23002
23011
22739
23028
22808
22952
22820
22697
22836
22448
22804
22552
22575
22470
22677
22333
22328
22295
22478
22347
22191
22431
22158
22310
22351
22124
22231
22105
22305
21995
22022
22159
22232
22159
22133
22174
22205
22202
22033
22005
22388
22081
22384
22324
22205
22182
22470
22237
22141
22298
22341
22337
22250
22407
22310
22324
22416
22377
22381
22294
22456
22634
22399
22545
22272
22317
22239
22265
22268
22221
22419
22226
22299
22610
22305
22401
22225
22234
22602
22340
22631
22566
22367
22444
22374
22539
22491
22302
22376
22458
22411
22347
22458
22649
22462
22313
22482
22540
22568
22555
22717
22636
22434
22715
22367
22501
22584
22681
22778
22654
22452
22474
22788
22600
22782
22567
22592
22537
22535
22592
22537
22757
22586
22558
22810
22924
22829
22573
22712
22733
22837
22936
22878
22898
22679
22903
23006
22818
23048
22725
22866
23012
22612
22848
22628
22926
22500
22877
22511
22692
22629
22341
22567
22442
22577
22617
22496
22453
22289
22347
22407
22586
22210
22398
22199
22296
22492
22421
22546
22383
22388
22387
22658
22549
22595
22570
22684
22407
22706
22372
22658
22370
22485
22533
22689
22494
22634
22423
22681
22446
22787
22673
22516
22831
22762
22620
22834
22690
22700
22742
22892
22861
22657
22989
23093
23021
22961
23151
22858
23202
23185
23196
22908
23055
23084
23071
23204
23096
22980
23360
23212
23094
23013
23107
23348
23074
23109
23392
23280
23241
23495
23232
23345
23485
23214
23217
23445
23360
23304
23627
23434
23645
23480
23310
23569
23365
23427
23571
23562
23569
23704
23768
23866
23712
23981
23964
24029
23719
24077
24038
23942
24081
23877
23960
24143
23963
23989
23941
24194
23923
24033
23906
23974
24093
24036
23792
23947
23773
24034
23793
24009
23722
23681
23958
23605
23623
23855
23623
23722
23729
23740
23567
23549
23295
23344
23407
23371
23009
23170
23025
23317
22960
23128
23079
22895
22757
22927
23046
22907
22808
22869
22696
22882
22860
22821
22832
22795
22799
22798
22834
23015
22818
22903
22930
23006
22733
22789
22746
23019
22872
22922
22920
22821
22926
23019
22880
23086
23180
23109
23098
23104
23053
22844
22799
22964
23204
23066
22792
23113
22942
22830
22910
23081
23031
22986
22943
22846
23025
23120
23072
23145
22957
22973
22880
23126
22928
23078
23370
23247
23259
23005
23244
23233
23384
23335
23384
23344
23309
23434
22995
23135
23135
23408
23117
23197
23379
23034
23390
23073
23383
23156
23395
23187
23455
23118
23168
23271
23083
23279
23092
23350
23254
23387
23258
23390
23494
23491
23209
23393
23096
23126
23162
23180
23166
23245
23228
23100
23242
23314
23245
23058
23057
23076
22993
22967
23126
22976
22738
22980
22871
22784
23076
22929
22738
22673
22893
22928
22543
22768
22963
22610
22615
22769
22893
22955
22633
22999
22720
22714
22937
22898
22726
23024
22882
22658
23057
22822
22789
22765
22805
22874
22942
22989
23074
22827
22987
23141
22927
23029
23116
22895
22994
23246
23181
22863
23002
23245
23283
22980
23153
23290
23068
22850
22917
22928
23254
22989
23237
23018
23235
23070
23242
23281
23186
23192
23091
23178
23206
22930
23033
23037
23197
23049
23156
22943
23252
23202
23183
23058
23299
23349
23330
23374
23359
23007
23281
23182
23053
23323
23455
23335
23490
23336
23190
23404
23337
23294
23169
23327
23449
23599
23350
23193
23309
23190
23490
23263
23488
23371
23385
23251
23237
23573
23273
23458
23469
23428
23463
23587
23612
23328
23630
23368
23438
23618
23701
23468
23367
23671
23569
23684
23443
23564
23433
23182
23373
23140
23329
23154
23192
23140
23062
22997
23143
22939
23118
22816
22920
22910
23074
22914
23023
22898
22978
22949
22718
22656
22774
22888
22749
22642
22856
22901
22911
22764
22726
22666
22751
22846
22677
23109
22845
23026
23004
22865
22744
22932
22861
22862
23045
22904
22945
22988
22815
22864
23032
22901
22840
23027
22830
22873
22957
22719
22815
22989
22789
22720
22663
22591
22609
22975
22762
22626
22847
22717
22644
22701
22599
22601
22606
22797
22642
22786
22973
22857
22766
23040
22694
22751
22865
22886
22949
22973
23232
23190
23012
23220
23144
22920
23137
23358
23119
23171
22946
23290
23318
23110
23470
23187
23075
23258
23485
23458
23555
23345
23294
23618
23547
23419
23349
23586
23653
23414
23577
23388
23527
23406
23636
23768
23662
23770
23766
23709
23578
23484
23767
23701
23531
23635
23485
23611
23875
23807
23535
23715
23463
23557
23581
23726
23599
23352
23386
23545
23372
23321
23402
23298
23266
23180
23487
23524
23550
23482
23420
23226
23446
23197
23565
23266
23375
23301
23366
23510
23568
23398
23548
23644
23277
23326
23328
23358
23565
23579
23725
23592
23503
23734
23780
23695
23822
23564
23567
23910
23921
23908
23892
23655
23971
23709
23653
23765
24023
23746
23995
23818
23681
23928
23624
23662
23772
23895
23912
23835
24030
23652
23818
23662
23868
23833
23723
23970
23756
23921
23719
23796
23867
23945
23946
24186
24029
24090
23923
24092
23894
24040
24217
24236
24146
24036
24280
24246
23875
23961
24313
24306
24253
24074
24161
24366
24356
24036
24150
24356
24233
24486
24367
24368
24461
24437
24139
24344
24569
24418
24549
24397
24487
24482
24468
24482
24634
24463
24507
24641
24441
24590
24469
24498
24467
24680
24395
24358
24410
24683
24580
24708
24373
24617
24680
24397
24293
24535
24578
24490
24439
24375
24396
24375
24050
24253
24268
24146
24208
24176
24002
24199
23934
23874
24112
24099
23995
23980
23996
23796
24181
24108
23852
24059
23824
24000
23793
23917
23807
23933
23934
23973
23781
24085
23810
24101
24134
24114
24175
23873
24186
24209
24124
24261
24187
24162
24182
24146
24310
24018
24315
24304
24129
24057
24360
24282
24329
24328
24151
24154
24057
24172
24022
24181
23982
24297
24031
24157
24213
24209
24214
24201
24044
24105
24198
24305
24266
23991
24331
23996
24354
24348
24239
24156
24312
24199
24242
24229
24232
24328
24322
24421
24483
24462
24183
24465
24250
24304
24473
24376
24583
24483
24382
24287
24531
24385
24433
24500
24501
24537
24449
24426
24358
24517
24707
24731
24623
24629
24707
24709
24553
24471
24700
24628
24709
24568
24913
24835
24823
24967
24926
24702
24905
24588
24737
24838
24840
24917
24801
24738
24877
24750
24663
24774
24663
24707
24779
24601
24670
24516
24531
24370
24320
24436
24465
24213
24140
24162
24068
24262
24148
24242
24223
24259
24124
24083
24300
24385
24122
24248
24051
24393
24340
24331
24410
24366
24226
24401
24191
24281
24463
24350
24199
24479
24488
24182
24209
24302
24515
24298
24434
24264
24368
24236
24341
24530
24398
24461
24472
24482
24337
24583
24231
24539
24340
24234
24544
24347
24332
24318
24486
24540
24471
24499
24188
24397
24594
24396
24213
24442
24431
24429
24421
24470
24508
24594
24454
24507
24525
24556
24527
24730
24538
24315
24483
24761
24383
24395
24659
24443
24447
24373
24590
24557
24678
24540
24467
24490
24420
24445
24745
24804
24779
24845
24821
24498
24710
24513
24783
24637
24756
24601
24608
24729
24555
24611
24720
24656
24640
24857
24855
24778
24994
24656
24645
24834
24741
24739
24653
24893
25077
24765
25012
24814
24751
24666
24770
24656
24701
24726
24606
24807
24517
24518
24596
24524
24683
24294
24498
24536
24354
24542
24135
24260
24302
24392
24240
24126
24082
24133
24272
24358
24054
24395
24202
24307
24169
24069
24273
24408
24219
24088
24186
24239
24178
24170
24273
24243
24180
24153
24408
24364
24440
24374
24309
24284
24305
24244
24554
24432
24460
24285
24478
24416
24587
24403
24626
24626
24391
24509
24509
24304
24304
24587
24530
24565
24582
24566
24606
24247
24488
24247
24493
24502
24549
24279
24223
24411
24369
24416
24471
24498
24465
24291
24390
24487
24464
24380
24439
24390
24324
24431
24570
24547
24360
24667
24495
24721
24493
24405
24647
24453
24738
24633
24404
24537
24655
24758
24430
24586
24879
24703
24514
24640
24770
24708
24571
24431
24729
24840
24810
24470
24759
24856
24783
24623
24761
24560
24695
24582
24868
24820
24792
24949
24920
24701
24856
24854
24884
24647
24570
24723
24561
24537
24848
24549
24619
24402
24640
24357
24435
24584
24368
24136
24232
24096
24357
23955
24327
23998
24101
24015
24152
24062
23952
24181
23865
23930
24136
24146
23979
23884
24083
23962
24018
23906
23763
24069
23792
23940
24092
24033
24129
23822
24022
23911
24029
23963
24009
24054
24092
24063
24133
24047
24040
24130
24257
24165
23995
24111
24242
24196
24212
24287
24316
24339
24061
24167
24295
24315
24239
24222
24188
24314
24147
23982
24219
24036
23898
24030
23889
24158
23959
24141
23946
24176
24052
24205
24271
24198
24326
24272
24231
24027
24415
24159
24048
24129
24231
24427
24278
24423
24238
24108
24333
24215
24256
24497
24490
24337
24278
24510
24272
24325
24553
24531
24575
24570
24194
24524
24223
24581
24610
24528
24643
24606
24586
24282
24386
24373
24391
24558
24590
24283
24472
24357
24406
24334
24636
24496
24655
24493
24782
24568
24789
24525
24712
24713
24624
24568
24535
24676
24457
24616
24641
24628
24432
24304
24294
24497
24453
24225
24152
24286
24019
24075
24042
23865
23901
23949
24048
24148
23827
23960
23839
23901
23942
23875
24070
23920
23704
23907
23723
23997
24109
23807
23956
24077
24094
23984
23853
23795
23989
24178
24046
24063
23991
24168
23885
23781
23947
23992
24210
24189
24140
24196
24213
24176
24244
24141
23952
24235
24018
24100
24203
23948
24052
24000
24055
24186
24056
24176
24196
24213
24041
23948
24159
23855
24181
24149
24193
24172
24056
23933
24129
23960
24110
24049
24081
24105
24124
24073
24112
24245
24074
24048
24237
24246
23998
24323
24016
24321
24010
24001
24174
24377
24338
24025
24337
24107
24088
24062
24123
24220
24362
24168
24448
24199
24032
24237
24091
24173
24397
24198
24253
24155
24364
24231
24284
24313
24205
24104
24433
24297
24131
24386
24195
24344
24386
24174
24178
24193
24235
24189
24219
24242
24170
24436
24279
24043
24253
24011
24107
23840
23689
23829
23747
23693
23618
23663
23545
23557
23519
23553
23536
23663
23551
23388
23497
23316
23557
23366
23566
23319
23530
23459
23500
23263
23404
23273
23571
23350
23470
23630
23429
23667
23707
23547
23516
23692
23771
23719
23798
23655
23627
23741
23648
23649
23483
23816
23535
23767
23616
23742
23723
23689
23550
23556
23563
23578
23533
23524
23584
23692
23401
23649
23403
23610
23457
23625
23762
23512
23506
23690
23591
23838
23666
23478
23653
23559
23475
23446
23630
23628
23785
23737
23913
23873
23956
23760
23925
23866
23581
23738
24000
23933
23820
23700
23914
23749
23974
23907
24075
23965
23684
23992
23918
23923
23900
23984
23736
23692
23788
24017
23815
23830
23941
23947
23707
23929
23903
23890
23777
23723
23770
23975
24039
23928
23744
24105
24065
23920
24016
23957
23897
23777
23931
23998
23817
24107
23777
23777
24047
23984
23960
23946
23501
23632
23545
23507
23361
23469
23298
23294
23135
23447
23370
23236
23254
23343
22966
22971
22986
22928
22905
23279
23150
23272
23054
23114
23082
22891
23115
23031
23156
22917
23224
23170
23187
23082
22952
23171
22946
23055
22985
23225
23085
23106
23364
23141
23509
23388
23435
23217
23336
23376
23490
23243
23405
23448
23269
23214
23411
23506
23183
23364
23330
23347
23364
23131
23427
23148
23535
23263
23403
23385
23207
23462
23524
23312
23160
23416
23492
23335
23394
23374
23396
23468
23412
23272
23557
23292
23584
23313
23424
23558
23457
23560
23377
23708
23499
23380
23420
23351
23679
23694
23545
23709
23665
23720
23344
23700
23784
23513
23644
23420
23538
23451
23670
23622
23688
23526
23677
23762
23814
23586
23810
23745
23838
23690
23698
23792
23668
23684
23865
23745
23674
23638
23645
23937
23955
23615
23648
23640
23878
23760
23784
23748
23710
23658
23504
23247
23446
23559
23184
23238
23198
23404
23356
23194
23147
23198
23139
23067
23286
23140
23278
23204
23330
23037
23052
22993
23248
23274
22979
23029
23107
23271
22952
23094
23170
23230
23081
23117
23070
23267
23289
23026
23101
23284
23093
23320
23242
23006
23412
23112
23100
23324
23087
23195
23034
23142
23108
23314
23418
23329
23177
23022
23187
23178
23145
22994
23175
22993
23208
23101
22996
23257
23076
22885
23013
23289
23017
23098
23024
23105
22955
23122
23127
23213
22951
22986
23287
23177
23322
23305
23157
23166
23106
23119
23127
23464
23224
23107
23397
23154
23245
23219
23414
23299
23469
23307
23265
23460
23236
23437
23337
23546
23342
23583
23372
23529
23618
23740
23721
23751
23521
23624
23633
23420
23721
23762
23595
23590
23533
23477
23751
23806
23680
23503
23687
23674
23607
23441
23551
23496
23283
23392
23482
23350
23019
23258
22929
22895
23148
23139
22773
22969
22938
22686
22785
23016
22814
22944
22878
22644
22946
22753
22905
22917
22721
22727
22702
22904
22735
22900
22708
22943
22960
23037
23087
23056
22776
22835
22927
23012
23174
22965
22855
23203
23031
22918
23246
22945
23176
22929
23067
23362
23134
23298
23021
23073
23106
23217
23331
23158
22963
23192
23206
23111
23194
23133
22988
23098
22994
23074
23177
23096
22996
23107
23126
23068
23096
23052
23057
23061
23114
23110
23147
23125
23091
23123
23202
23067
23184
23094
23021
23187
23362
23262
23257
23268
23368
23193
23208
23378
23108
23242
23347
23325
23386
23241
23286
23362
23288
23481
23255
23460
23449
23277
23370
23561
23503
23395
23434
23520
23475
23518
23505
23462
23404
23478
23405
23471
23560
23499
23417
23438
23323
23712
23514
23428
23363
23192
23336
23399
23170
23204
23201
22993
23081
22854
22952
22914
22822
22796
22799
22869
22646
22712
22685
22806
22722
22823
22919
22595
22581
22674
22908
22831
22859
22596
22901
22595
22867
22784
22866
22561
22887
22790
22690
22811
22922
22876
22893
22912
22868
22916
22888
23015
22944
22965
23088
22950
23134
23094
23108
23141
23057
22994
22942
22965
23053
23094
23188
22937
23192
22991
23176
23024
23045
23013
23040
23254
22997
23157
23007
23304
22974
23250
23034
23143
23326
23240
23232
23104
23031
23108
23016
23153
23275
23177
23218
23324
23347
23398
23306
23200
23221
23248
23233
23453
23373
23180
23425
23432
23467
23410
23543
23349
23530
23330
23441
23412
23416
23497
23484
23341
23545
23294
23229
23429
23375
23385
23363
23282
23428
23571
23411
23193
23184
23141
23456
23466
23319
23180
23287
23326
23070
23226
23419
23157
23085
23090
23199
22966
23099
22934
22880
22792
22704
22764
22752
22808
22713
22699
22540
22702
22364
22224
22525
22280
22502
22527
22375
22281
22197
22247
22423
22362
22305
22332
22155
22272
22230
22207
22361
22272
22185
22204
22177
22351
22278
22353
22400
22088
22292
22502
22361
22533
22452
22387
22357
22554
22216
22560
22460
22339
22357
22283
22429
22329
22637
22454
22369
22628
22673
22317
22279
22453
22402
22452
22479
22549
22476
22641
22528
22465
22410
22280
22527
22483
22379
22591
22505
22522
22514
22477
22555
22556
22704
22485
22643
22589
22507
22592
22484
22513
22542
22494
22834
22578
22768
22785
22691
22741
22855
22655
22753
22761
22748
22816
22722
23008
22887
22720
22937
22784
22962
22951
22892
22873
22918
22963
22962
22933
22947
22974
22896
22990
22992
22981
22998
23001
23056
22975
22978
23062
23036
22819
22954
23110
22904
22736
22995
22829
22883
22670
22769
22717
22325
22584
22538
22262
22088
22098
22202
22227
22098
22176
22328
22127
22058
22039
22038
22274
22073
22166
22007
21950
22238
22118
21953
22281
22231
21970
22223
22063
21974
22038
21994
22054
21953
22213
22044
22247
22250
22327
22095
22333
22025
22069
22133
22323
22240
22486
22280
22319
22315
22410
22287
22485
22395
22129
22259
22184
22290
22282
22225
22232
22172
22237
22309
22254
22372
22212
22245
22316
22263
22291
22366
22277
22356
22229
22351
22285
22268
22319
22243
22218
22424
22124
22210
22421
22219
22580
22428
22410
22547
22392
22579
22435
22502
22404
22252
22461
22646
22566
22303
22494
22468
22610
22350
22415
22679
22584
22711
22702
22729
22456
22530
22486
22672
22700
22521
22513
22529
22602
22825
22580
22597
22587
22535
22622
22854
22654
22769
22732
22785
22658
22486
22584
22538
22439
22319
22352
22233
22311
22081
21930
22084
22137
22127
22182
22015
21780
21859
21867
21720
21981
21727
21889
21812
21717
21800
21680
21651
21746
21948
21861
21994
21601
21715
21768
21602
21966
21716
21761
21683
21652
21895
21978
21840
21830
22013
22103
21949
22071
21896
22057
22110
21963
21813
21954
22078
21996
21973
22035
21831
21926
21921
21999
21956
21924
22014
22007
21974
22081
22032
21918
21927
21924
21976
21989
22020
21861
22024
22064
21858
22204
21930
22207
21945
22090
21828
21921
21857
22036
22087
21966
21896
22107
22055
22240
22184
21988
22161
22308
22333
22086
22192
22307
22372
22245
22132
22129
22119
22164
22469
22112
22346
22456
22190
22279
22279
22382
22338
22403
22471
22339
22329
22375
22243
22346
22592
22479
22558
22378
22485
22431
22484
22444
22511
22645
22538
22542
22484
22511
22406
22695
22674
22389
22637
22501
22335
22403
22303
22261
22308
22053
22126
21975
21953
21869
22028
21863
21883
21885
21899
21821
21970
21725
21833
21825
21698
21943
21675
21916
21754
21924
21694
21720
21609
21873
21887
21889
21860
21875
21564
21826
21946
21862
21931
21986
22069
21920
21907
21907
21920
21821
21862
21815
21877
21900
21954
21935
21918
22129
22132
22164
22125
21999
22141
21907
21896
21885
21790
21946
22153
21912
22156
21998
21939
21813
22063
21860
22002
22083
22101
21888
21962
21839
21964
21996
21999
22207
21934
21887
22095
22121
22110
21808
21875
22031
22179
21859
22208
21954
22005
21945
22066
22016
22153
22083
22092
22123
22057
22124
22153
22184
21959
22153
22263
22102
22076
22073
22236
22068
22143
22191
22175
22382
22203
22323
22230
22282
22386
22359
22482
22345
22188
22376
22544
22405
22245
22448
22327
22284
22608
22248
22282
22594
22241
22476
22253
22294
22358
22232
22350
22165
22233
22092
22008
21938
22061
22100
21957
21744
21947
21934
21966
21760
21932
21797
21911
21769
21854
21791
21760
21786
21789
21814
21736
21904
21830
21935
21815
21813
21876
21773
21849
21972
21781
21885
21867
21909
21988
22030
22140
21988
22167
22179
22206
22013
22013
22184
21989
22030
22168
22248
22187
22387
22431
22321
22155
22324
22194
22348
22292
22276
22276
22066
22298
22228
22282
22286
22302
22240
22311
22275
22342
22287
22325
22321
22356
22374
22216
22308
22358
22294
22302
22287
22369
22444
22425
22510
22249
22162
22340
22338
22470
22365
22359
22427
22375
22325
22363
22362
22386
22403
22349
22453
22375
22479
22427
22289
22401
22536
22470
22458
22307
22292
22527
22498
22394
22284
22380
22430
22377
22371
22354
22360
22342
22348
22327
22272
22311
22278
22260
22201
22375
22152
21922
22011
21902
22103
21761
22037
21918
21716
21536
21764
21363
21438
21578
21485
21503
21201
21147
21337
21388
21262
21086
21143
20954
21249
20936
21218
21146
21031
20788
21041
21130
20962
20738
20847
21038
20761
21106
20808
20948
20802
20932
20777
20920
20972
20863
20715
20919
20838
21019
20752
21013
21131
20946
20992
20955
20867
21058
21068
21150
21089
21090
21003
20961
21075
21078
21050
21135
21014
20973
21074
20876
20980
21185
20924
20983
21274
21066
21194
21230
21291
21016
21045
21082
21105
21297
21108
21393
21307
21304
21459
21351
21399
21172
21391
21252
21282
21526
21418
21519
21512
21543
21349
21349
21519
21416
21435
21491
21645
21554
21611
21504
21495
21652
21731
21463
21546
21456
21724
21619
21517
21468
21771
21595
21645
21572
21485
21760
21795
21881
21475
21698
21769
21748
21622
21826
21630
21833
21603
21527
21424
21518
21307
21403
21254
21427
21237
21273
21192
21231
21077
20829
20963
20830
20853
20794
20868
20836
20770
20784
20690
20677
20969
20529
20644
20789
20520
20582
20718
20766
20906
20689
20732
20849
20665
20759
20761
20823
20535
20723
20772
20928
20610
20828
20829
20913
20698
20917
20962
20773
20888
20943
20976
20875
20759
20928
20729
21123
20760
20801
20941
20991
20771
21115
20731
20979
20693
20733
20883
20777
20868
21015
20784
20772
20890
20996
20809
20773
21127
21104
21125
21014
21080
20964
21002
21104
21003
20989
21051
21060
21097
21024
21052
21135
21186
21182
20890
21171
20967
21056
21115
21191
21323
21216
21138
21253
21282
21278
21382
21248
21274
21469
21312
21223
21349
21505
21363
21377
21250
21541
21379
21401
21541
21440
21421
21439
21506
21376
21485
21359
21521
21435
21437
21688
21568
21649
21551
21658
21559
21477
21309
21308
21344
21583
21277
21420
21499
21162
21248
21370
21180
21075
21251
20938
20831
20973
20741
20885
20980
20587
20776
20589
20674
20933
20928
20578
20562
20620
20786
20860
20809
20837
20517
20458
20854
20495
20834
20675
20934
20596
20869
20619
20937
20870
20579
20766
20631
20753
20774
20781
21088
21054
20733
20780
21085
21070
21004
20814
20924
21138
21124
21208
21022
20955
21191
20903
20990
21157
21046
21116
21077
21095
21267
21140
20994
21157
21110
21171
20995
21137
21287
21199
21079
21183
21238
21393
21279
21456
21347
21272
21149
21143
21232
21384
21332
21387
21221
21240
21331
21310
21627
21450
21612
21336
21499
21710
21482
21600
21535
21556
21484
21688
21376
21579
21669
21767
21762
21437
21661
21651
21563
21526
21581
21565
21552
21543
21597
21571
21605
21595
21620
21597
21670
21633
21577
21660
21608
21635
21695
21611
21683
21542
21428
21423
21656
21476
21409
21449
21450
21285
21405
21247
21060
21164
20954
20882
21025
20811
21218
20850
21031
21126
21026
21012
20984
20873
20833
20861
21012
20841
21053
20857
20939
20976
20784
20952
20589
20995
20753
20953
20990
20862
20793
20861
20848
20847
20859
20796
21106
20925
21006
21280
21068
21039
21155
21129
21182
21316
21187
21205
21307
21143
21134
21204
21058
21099
21082
21126
21179
20971
21171
20977
21266
21367
21102
21173
21280
21252
21140
21264
21053
21311
21038
21245
21209
21300
21397
21448
21345
21561
21638
21444
21374
21302
21689
21619
21552
21494
21572
21490
21570
21565
21721
21883
21841
21659
21747
21763
21883
21869
22004
21706
21638
22051
21792
21910
22062
22054
21911
21829
21865
22009
22118
22057
21899
22103
22075
21891
22092
22074
22150
22243
22159
22392
22221
22194
22319
22328
22155
22205
22434
22387
22381
22255
22011
22201
22088
22176
21991
22067
22132
21861
21640
21650
21649
21589
21487
21441
21380
21668
21423
21487
21478
21448
21340
21336
21384
21475
21450
21389
21456
21446
21518
21315
21557
21314
21491
21495
21293
21246
21241
21424
21230
21552
21706
21555
21415
21641
21650
21645
21385
21540
21581
21752
21544
21713
21816
21604
21725
21416
21494
21813
21863
21582
21433
21705
21631
21747
21825
21657
21546
21808
21554
21709
21634
21441
21736
21779
21709
21690
21736
21483
21773
21587
21552
21479
21538
21740
21652
21577
21656
21523
21697
21708
21836
21694
21762
21750
21776
21747
21962
21818
21689
21699
21978
21948
21995
21819
21931
21856
21938
22056
21784
21989
21816
21798
21773
22092
21712
21846
22108
21719
21971
21766
22074
21938
21755
22102
21793
22072
21876
21992
22181
21800
21833
22099
22121
21820
21945
22219
22079
22153
22048
22171
22040
21964
22121
22164
21933
21973
21788
21901
21852
21730
21874
21653
21696
21597
21549
21445
21342
21534
21281
21394
21215
21147
21083
21271
21208
21143
20805
20834
21079
20792
20997
21049
20998
21081
21040
20745
20960
20855
21027
20844
20713
20863
20850
20879
21001
20977
21086
21008
20796
21033
21160
21050
20915
21096
21078
21049
21075
20942
20975
21272
21063
21061
21031
21328
21134
21106
21129
21082
21029
21223
21307
21251
21384
20958
21316
21297
21175
21144
21074
21106
21186
21343
21028
21065
21328
21173
21046
21241
21282
21246
21170
21063
21248
21369
21255
21224
21315
21181
21313
21333
21177
21281
21559
21359
21158
21382
21349
21296
21501
21298
21395
21367
21668
21470
21508
21462
21665
21785
21362
21442
21481
21445
21506
21432
21621
21878
21571
21811
21724
21639
21781
21721
21900
21821
21639
21831
21803
21737
21840
21896
21632
22015
21949
21744
21775
21803
21677
21953
21975
21818
22022
22167
21998
22112
22095
21870
22066
21842
22086
22108
21710
21915
21973
21798
21717
21670
21591
21720
21384
21621
21675
21616
21341
21279
21186
21235
21191
21350
21575
21357
21469
21286
21286
21495
21177
21262
21482
21235
21557
21452
21588
21256
21434
21514
21295
21399
21603
21529
21334
21470
21392
21626
21466
21686
21524
21669
21675
21871
21832
21958
21777
21970
21824
21996
21804
21721
21828
21729
21861
22092
22025
21681
21782
22060
22081
22096
21990
22042
21920
21977
21839
22084
21913
21940
22031
22226
22316
22283
22330
22348
22335
22038
22316
22097
22163
22466
22459
22208
22494
22546
22278
22486
22386
22407
22339
22474
22593
22481
22599
22526
22733
22481
22655
22487
22487
22642
22620
22484
22576
22422
22638
22478
22691
22792
22601
22388
22550
22664
22449
22567
22684
22308
22694
22472
22425
22364
22562
22647
22399
22556
22667
22443
22660
22531
22563
22533
22635
22291
22306
22287
22290
22225
22442
22471
22265
22234
22122
21943
21962
21971
21795
21908
21890
21648
21666
21513
21401
21612
21591
21439
21633
21531
21218
21476
21486
21353
21563
21303
21387
21468
21478
21397
21342
21342
21309
21198
21434
21344
21424
21419
21417
21554
21295
21453
21546
21561
21648
21393
21401
21605
21796
21533
21772
21688
21449
21797
21475
21588
21520
21734
21455
21894
21844
21556
21817
21593
21848
21836
21567
21645
21894
21799
21910
21561
21797
21901
21779
21660
21683
21779
21691
21885
21731
21742
21620
21818
21883
21729
21728
21867
21694
22035
21971
21808
21904
21695
21966
21965
22028
21939
21849
21811
21785
22133
21831
21967
22212
21941
22161
22098
21903
22046
21956
22081
22172
22108
22107
22135
22113
22132
22181
22114
22137
22206
22142
22192
22233
22181
22189
22237
22318
22319
22292
22268
22412
22224
22103
22455
22153
22468
22206
22428
22186
22242
22181
22394
22055
22204
22049
22163
21914
21815
21983
21931
21670
21632
21602
21550
21616
21655
21456
21376
21458
21456
21413
21420
21360
21383
21291
21356
21253
21385
21224
21330
21194
21489
21500
21504
21623
21388
21170
21203
21437
21295
21279
21358
21280
21227
21456
21644
21281
21494
21581
21485
21509
21635
21439
21493
21662
21528
21744
21587
21354
21590
21605
21516
21655
21533
21730
21587
21624
21688
21642
21730
21652
21549
21604
21570
21559
21736
21610
21778
21637
21850
21620
21647
21701
21566
21779
21609
21722
21691
21860
21677
21631
21559
21680
21555
21657
21813
21793
21698
21792
21821
21721
21762
21656
21831
21997
21891
22015
21807
21873
21898
21781
21958
21876
22130
22022
22011
21774
22065
22089
22015
21938
21850
22129
21852
22091
22026
21923
22012
21982
22019
22001
22039
22056
22040
22028
22110
22044
22048
22044
22052
22096
22007
22047
22145
22155
21982
21833
21956
21998
21840
21927
21659
21515
21650
21517
21534
21631
21567
21447
21517
21287
21418
21459
21098
21199
21188
21282
21175
21294
21130
21084
21307
21145
21282
21227
21143
21233
21187
21248
21389
21246
21200
21235
21407
21362
21129
21127
21444
21466
21374
21292
21265
21386
21403
21464
21388
21496
21454
21481
21757
21756
21557
21742
21714
21555
21600
21793
21579
21563
21478
21622
21557
21627
21605
21669
21699
21710
21751
21739
21643
21736
21497
21665
21466
21532
21494
21640
21680
21693
21910
21952
21700
21769
21636
21867
21967
21679
21779
21649
22086
21749
21901
21880
21909
21913
21884
22209
22202
22225
22238
22073
22198
22042
22324
22015
22029
22152
22136
22376
22354
22182
22352
22101
22074
22121
22375
22338
22483
22183
22242
22524
22377
22199
22369
22392
22407
22496
22355
22301
22438
22423
22521
22451
22488
22348
22185
22378
22462
22266
22069
22053
22069
22154
21820
21865
21969
21690
21995
21663
21599
21860
21631
21728
21791
21715
21657
21753
21453
21698
21799
21773
21662
21530
21613
21579
21662
21701
21426
21608
21730
21658
21790
21509
21809
21628
21572
21746
21880
21596
21669
21911
21864
21863
21791
21712
21762
21683
22047
21936
21691
21696
21983
22025
21752
21793
21994
21818
21855
21867
21688
21905
21958
21808
21784
21756
21867
21682
21738
21781
21892
21815
21727
21636
21728
21923
21801
21858
21572
21588
21887
21529
21809
21936
21585
21611
21568
21907
21597
21768
21658
21746
21576
21799
21957
21840
21771
21677
21870
21674
21639
22031
21898
21919
21736
21753
21938
21926
21796
21667
21708
21665
21843
21741
21923
21978
21908
21723
21782
21754
22039
21800
21704
21964
21961
21943
22007
21981
21849
22008
22053
22166
21882
22009
21871
21849
21847
21620
21884
21513
21714
21404
21591
21610
21325
21268
21425
21512
21269
21293
21290
21114
21229
21001
21364
21099
21189
21297
21280
21109
21173
20916
21263
20915
21057
20921
21257
21211
21270
21349
21145
21265
21242
21129
21298
21031
21123
21350
21293
21146
21173
21398
21057
21332
21488
21298
21280
21501
21441
21214
21436
21341
21423
21176
21361
21273
21444
21438
21485
21550
21485
21526
21474
21221
21499
21180
21516
21411
21211
21349
21185
21300
21543
21458
21578
21262
21412
21533
21318
21289
21286
21243
21539
21191
21514
21258
21311
21539
21318
21541
21557
21272
21365
21635
21668
21563
21641
21631
21386
21541
21647
21431
21685
21490
21394
21510
21642
21689
21700
21534
21421
21753
21626
21442
21636
21870
21590
21701
21597
21616
21767
21523
21755
21841
21664
21794
21586
21629
21912
21747
21646
21834
21580
21641
21904
21695
21503
21487
21452
21529
21225
21476
21403
21296
21196
21360
21129
21243
21095
21170
21236
21208
20971
20894
20944
21171
21185
20956
21037
20881
21011
20981
21136
21142
21066
21087
21010
21254
20957
21056
21034
21009
20976
21111
21119
21083
21340
21304
21152
21327
21288
21559
21260
21395
21370
21406
21322
21485
21553
21631
21523
21569
21363
21636
21574
21511
21818
21733
21872
21494
21614
21694
21694
21841
21829
21796
21599
21742
21467
21495
21550
21620
21491
21554
21568
21509
21626
21480
21630
21717
21806
21774
21758
21744
21864
21760
21820
21751
21578
21710
21791
21616
21839
21626
21845
21833
21838
21840
21651
21841
21863
21596
21604
21517
21578
21912
21577
21968
21730
21813
21636
21760
21797
21835
21563
21870
21943
21781
21863
21963
21922
21765
21934
21782
21801
21896
21689
21934
21752
21855
21779
21626
21847
21695
21773
21827
21495
21592
21472
21501
21396
21302
21134
21298
21056
21198
21173
21246
21194
20980
20876
21100
20964
21244
21151
21093
21097
21226
21093
21200
21015
20998
21199
20907
21073
21010
21109
21262
21198
20968
21217
21204
21341
21068
21334
21247
21050
21241
21090
21408
21453
21377
21293
21197
21155
21285
21236
21520
21152
21508
21237
21299
21530
21277
21607
21323
21432
21618
21425
21491
21551
21526
21304
21497
21437
21441
21406
21307
21526
21354
21368
21486
21528
21505
21267
21336
21437
21567
21632
21657
21553
21624
21414
21682
21607
21674
21422
21598
21713
21750
21563
21591
21438
21731
21837
21581
21628
21566
21824
21831
21681
21846
21724
21729
21802
21588
21703
21488
21595
21621
21841
21666
21748
21565
21815
21629
21620
21877
21879
21694
21867
21787
21813
22006
21744
21878
21668
21823
22013
21832
21815
21755
21947
21840
21924
21562
21802
21645
21717
21787
21445
21434
21611
21436
21356
21209
21490
21123
21158
21334
21324
21302
21287
21285
21424
21368
21040
21127
21394
21083
21321
21352
21279
21192
21110
21198
21142
21211
21239
21239
21186
21319
21290
21278
21397
21089
21218
21512
21205
21211
21347
21343
21494
21583
21606
21555
21610
21444
21565
21484
21679
21608
21657
21285
21271
21533
21533
21338
21420
21262
21562
21475
21485
21596
21345
21567
21293
21609
21425
21255
21284
21258
21285
21451
21223
21392
21507
21421
21438
21384
21228
21196
21351
21272
21171
21496
21149
21285
21231
21290
21399
21524
21331
21195
21496
21222
21257
21572
21292
21224
21392
21395
21391
21521
21668
21410
21351
21450
21500
21590
21581
21488
21781
21716
21826
21772
21411
21671
21778
21623
21520
21593
21550
21797
21816
21875
21820
21897
21956
21582
21839
21585
21938
21821
21928
21877
21843
21836
21700
21777
21543
21665
21655
21650
21708
21627
21355
21385
21465
21192
21375
21241
21319
21164
21178
21099
21278
21250
21379
20993
21275
21370
21293
21131
21152
21169
21293
21172
21219
21192
21020
21013
21334
21080
21202
21137
21421
21288
21326
21205
21334
21163
21149
21441
21441
21351
21279
21396
21551
21427
21322
21556
21575
21489
21402
21584
21610
21559
21619
21491
21407
21430
21529
21369
21421
21336
21635
21350
21580
21678
21540
21469
21379
21674
21574
21539
21591
21605
21657
21299
21636
21341
21325
21386
21382
21566
21365
21371
21382
21390
21374
21501
21467
21504
21545
21609
21386
21498
21422
21537
21472
21709
21521
21427
21644
21821
21628
21655
21552
21501
21570
21815
21679
21534
21646
21572
21648
21636
21555
21830
21541
21640
21626
21916
21914
21759
21990
21768
21592
21925
21831
21606
21831
21947
21756
21820
21752
21964
21654
21894
21888
21655
21842
21660
21818
21813
21919
21608
21492
21641
21775
21533
21653
21336
21587
21322
21327
21391
21394
21386
21202
20947
21267
21091
21244
21058
21122
21027
20950
21217
21103
21112
21061
21077
21202
20904
20960
21094
21292
21155
21043
21004
21318
21241
21031
21074
21028
21222
21024
21088
21321
21364
21297
21098
21223
21103
21264
21434
21443
21503
21330
21437
21429
21348
21422
21360
21188
21476
21157
21318
21125
21302
21191
21348
21158
21145
21201
21421
21475
21322
21296
21201
21398
21195
21285
21282
21436
21495
21353
21248
21545
21555
21355
21198
21538
21573
21337
21385
21501
21608
21706
21513
21685
21505
21621
21551
21416
21682
21590
21452
21805
21810
21538
21715
21670
21648
21603
21667
21845
21671
21916
21578
21918
21685
21711
21921
21896
21795
21772
21898
21688
21831
21692
21975
21732
21856
22022
21956
21714
21785
21972
21976
21769
21899
21791
21833
21779
21816
21652
21744
21836
21665
21789
21469
21646
21398
21364
21222
21358
21278
21103
21259
21359
21016
21100
21115
21201
21176
21062
21104
21148
21114
21007
21059
21146
21097
21115
21078
21085
21160
21127
21170
21147
21197
21111
21124
21141
21167
21132
21208
21400
21250
21450
21336
21114
21162
21266
21265
21171
21315
21398
21499
21227
21578
21375
21515
21301
21537
21644
21406
21335
21418
21557
21485
21543
21332
21404
21260
21405
21499
21402
21611
21539
21554
21516
21535
21404
21550
21384
21692
21645
21793
21579
21522
21649
21866
21703
21611
21845
21957
21813
21918
21712
21594
21689
21778
21669
21649
22012
21774
21959
21784
21843
21932
21684
22024
21745
21767
21877
21918
21838
21956
22061
21859
22031
22023
22071
21864
21863
21919
22031
22081
21954
21875
22011
22112
21881
21957
22062
21965
22029
21970
22071
21972
22017
21876
22060
21963
21830
21981
21756
21983
21697
21578
21781
21451
21505
21471
21339
21563
21264
21188
21279
21365
21079
21301
21019
21047
21008
20971
21083
21254
21143
21129
21190
21040
20923
21177
21008
20850
20966
20989
21076
21070
20982
20876
21145
21214
21075
21152
21033
21042
21150
20973
21205
20958
21181
21195
21022
21156
21021
21011
21332
21394
21194
21077
21305
21239
21097
21193
21289
21190
21292
21143
21338
21112
21290
21437
21186
21043
21177
21289
21214
21190
21136
21411
21196
21339
21196
21304
21324
21380
21146
21339
21253
21279
21214
21219
21597
21230
21225
21453
21465
21605
21606
21471
21314
21590
21542
21511
21662
21415
21470
21395
21566
21418
21774
21793
21701
21665
21706
21568
21697
21661
21542
21584
21670
21800
21634
21684
21583
21633
21899
21603
21905
21875
21756
21776
21879
21712
21810
21855
21842
21884
21887
21965
21885
21865
21889
21895
22031
21886
22044
21970
21947
21836
21654
21664
21542
21824
21873
21768
21407
21651
21363
21333
21461
21139
21413
21458
21339
21388
21209
21229
21351
21415
21056
21347
21194
21163
21109
21192
21046
21131
21076
21184
21071
21303
21262
21214
21140
21259
21062
21433
21417
21257
21185
21503
21440
21505
21403
21395
21505
21419
21516
21286
21481
21436
21478
21548
21484
21607
21605
21381
21513
21499
21236
21570
21582
21344
21193
21505
21220
21229
21533
21506
21443
21515
21353
21170
21433
21345
21367
21392
21324
21548
21374
21251
21541
21567
21234
21560
21584
21402
21558
21543
21426
21482
21332
21517
21476
21363
21602
21622
21513
21596
21461
21323
21476
21444
21429
21608
21561
21474
21522
21450
21664
21473
21491
21379
21454
21680
21750
21583
21532
21521
21445
21624
21757
21588
21752
21836
21546
21861
21932
21709
21680
21740
21830
21763
21932
21692
21946
21956
21867
21972
21624
21779
21527
21490
21482
21421
21656
21454
21240
21369
21204
21353
21205
21398
21225
21275
21433
21111
21131
21466
21106
21308
21121
21408
21404
21489
21237
21186
21362
21527
21324
21201
21237
21387
21444
21513
21328
21576
21260
21364
21439
21429
21325
21483
21456
21665
21552
21515
21479
21750
21607
21637
21639
21833
21556
21706
21618
21568
21511
21734
21450
21717
21444
21359
21639
21692
21573
21574
21545
21532
21424
21585
21285
21547
21316
21608
21493
21625
21210
21536
21347
21622
21574
21591
21401
21615
21501
21438
21564
21602
21405
21682
21523
21713
21537
21374
21590
21603
21546
21460
21385
21525
21458
21556
21512
21546
21652
21561
21458
21589
21529
21484
21502
21544
21518
21417
21645
21408
21645
21598
21648
21494
21758
21531
21744
21609
21692
21578
21670
21532
21806
21685
21825
21604
21829
21672
21556
21577
21601
21650
21387
21584
21252
21184
21406
21118
21203
21325
21082
21088
21217
20972
20966
20896
20936
20913
21088
21071
21092
20991
21189
20998
20971
21099
20874
20964
21208
21115
20933
21220
21221
20883
21209
21207
20945
21335
21199
21297
21153
21147
21155
21066
21328
21212
21193
21126
21398
21512
21504
21431
21244
21405
21595
21388
21291
21327
21247
21524
21417
21253
21389
21469
21295
21450
21512
21238
21494
21260
21352
21290
21382
21634
21546
21337
21410
21298
21550
21579
21468
21384
21509
21458
21638
21350
21315
21392
21564
21384
21328
21536
21313
21430
21605
21361
21421
21544
21611
21596
21615
21661
21663
21344
21484
21767
21683
21526
21646
21776
21494
21620
21803
21696
21785
21657
21721
21873
21569
21913
21583
21649
21980
21994
21941
22000
21902
21896
21796
21663
21843
21916
21802
21948
21878
21706
21881
21612
21866
21812
21529
21670
21600
21596
21465
21366
21520
21260
21037
21105
21288
21194
21291
21004
21124
20852
20763
21060
21103
20777
20879
20865
20754
20886
20805
20974
21001
20837
21000
20668
20756
21025
20841
21075
20980
20882
20909
21095
21085
21014
20916
21065
21011
21058
21058
21060
21017
21095
21169
21149
21059
21024
21089
21091
21047
20936
21172
21223
21212
20887
21023
21027
21246
21246
21015
20910
21051
21097
20914
21205
21039
21290
20936
21180
21288
21089
20972
21059
21142
21235
21296
20983
21267
20997
21170
21448
21293
21395
21365
21385
21195
21405
21449
21157
21493
21532
21454
21528
21482
21454
21317
21471
21722
21383
21693
21477
21768
21844
21665
21599
21568
21609
21734
21523
21686
21645
21684
21749
21700
21966
22064
21704
21786
21867
21937
21888
21811
22048
21969
21954
22266
22099
22058
22001
22235
21922
21838
21787
21930
21767
21828
21754
21703
21495
21635
21513
21463
21498
21649
21569
21369
21386
21626
21271
21395
21309
21368
21532
21244
21527
21460
21333
21244
21543
21483
21431
21489
21609
21446
21338
21532
21657
21493
21339
21469
21735
21629
21424
21595
21473
21805
21430
21742
21829
21805
21444
21658
21726
21640
21808
21727
21681
21772
21778
21401
21525
21715
21684
21467
21606
21534
21630
21657
21721
21559
21628
21623
21397
21502
21538
21564
21467
21410
21398
21550
21406
21728
21482
21619
21506
21585
21383
21688
21610
21338
21399
21389
21375
21485
21619
21346
21366
21576
21674
21504
21418
21557
21446
21725
21509
21599
21637
21717
21746
21474
21634
21802
21551
21421
21589
21505
21559
21828
21626
21748
21639
21672
21849
21571
21615
21596
21594
21635
21880
21550
21778
21565
21751
21580
21474
21679
21366
21415
21426
21433
21230
21157
21321
21095
21196
20949
21180
20955
21019
21163
21089
20825
20921
20737
20826
20789
20662
20828
20981
20900
20796
20806
20913
20788
20998
20689
21027
20822
20945
20895
20675
20674
20799
20692
20653
21050
20982
20941
20954
20898
21084
20731
20889
21044
21114
21216
21008
21125
20944
20910
20906
21004
21090
21182
21245
21047
21228
21183
21028
21041
20990
20951
21081
21227
21064
21267
21054
20993
21040
20876
20963
20849
21210
21085
20984
20998
20973
20979
20932
21171
21246
21128
20964
21011
21006
21289
21181
21301
21375
21055
21166
21164
21268
21233
21183
21369
21388
21131
21441
21510
21357
21349
21407
21309
21480
21423
21536
21485
21268
21386
21515
21480
21615
21352
21315
21623
21294
21661
21364
21674
21412
21416
21715
21746
21762
21726
21571
21674
21613
21494
21758
21659
21745
21755
21813
21468
21725
21617
21377
21395
21533
21423
21295
21196
20998
21011
21026
20907
21224
20838
20785
21082
20961
20999
20760
20912
20708
20659
20910
21016
20782
20672
20817
21026
20877
20628
20736
20750
20633
20723
20982
20828
20574
20712
20965
20946
21042
20727
20896
21014
20653
20901
20745
20770
20860
20737
20964
20987
20851
20921
21041
21098
20797
20745
20953
21089
21017
21084
21024
20854
20938
21060
21126
20897
20915
21073
20904
21051
20934
20921
21222
21069
21061
21102
20871
20961
20907
20905
21008
21061
20979
21064
20960
21309
21063
21134
21272
21164
21149
21053
21389
21177
21090
21226
21117
21213
21230
21371
21584
21266
21376
21264
21439
21497
21584
21521
21520
21395
21465
21735
21651
21689
21611
21455
21710
21515
21747
21850
21756
21832
21896
21854
21576
21784
21635
21645
21565
21860
21985
21877
21792
21580
21951
21635
21583
21514
21572
21437
21411
21447
21407
21229
21249
21397
21407
21152
21183
21239
21165
21060
21039
21099
21249
20924
21000
21075
21051
20869
21125
21057
21049
20844
20893
20829
20966
21128
20952
21154
20769
21142
21037
21156
21115
21260
21105
21169
21180
21187
21251
21144
21222
21212
21174
21220
21170
21189
21207
21199
21198
21242
21350
21235
21063
21212
21091
21051
21239
21123
21091
21345
21353
21148
21144
21336
21086
21139
21347
21161
21183
21202
21404
21244
21311
21146
21129
21359
21436
21294
21314
21300
21271
21416
21331
21240
21311
21316
21363
21477
21346
21664
21505
21322
21501
21348
21610
21547
21546
21809
21621
21492
21671
21514
21871
21597
21647
21662
21699
21578
21929
21641
21741
21936
21883
21878
21951
21937
21925
21716
21972
21856
21768
21872
21866
21786
22018
21974
21871
21727
21593
21474
21783
21539
21481
21501
21593
21325
21466
21273
21091
21163
21287
21179
21314
21225
21099
21096
20959
20911
21072
20889
21010
20971
21085
20890
20943
20889
21101
21299
21163
21007
21215
21021
21234
21005
21183
21278
21284
21354
21099
21125
21423
21135
21133
21458
21540
21418
21218
21397
21303
21476
21492
21287
21328
21271
21528
21659
21439
21631
21338
21608
21441
21671
21554
21497
21654
21558
21656
21620
21479
21411
21506
21373
21629
21381
21680
21344
21666
21683
21657
21345
21670
21426
21617
21465
21572
21465
21471
21573
21620
21410
21783
21449
21502
21750
21671
21652
21806
21749
21785
21687
21504
21599
21869
21742
21613
21622
21917
21851
21887
21931
21822
22014
21903
22032
21903
21919
21937
22088
21923
21723
21807
22091
21936
22022
21816
21967
21927
21789
21891
22035
22073
22025
22023
22064
21647
21723
21995
21711
21611
21719
21554
21530
21341
21396
21497
21444
21478
21480
21318
21083
21103
21094
21046
21020
21056
21014
21156
21053
21266
21227
21163
21047
21065
21290
21112
21115
21071
21068
21119
21195
21211
21114
21226
21359
21217
21156
21257
21159
21383
21095
21358
21396
21486
21453
21324
21413
21577
21598
21368
21452
21586
21339
21558
21684
21374
21406
21740
21609
21511
21389
21696
21375
21407
21557
21526
21614
21491
21426
21479
21699
21551
21691
21570
21679
21435
21640
21401
21762
21504
21698
21490
21853
21766
21830
21508
21790
21744
21846
21737
21921
21806
21659
21819
21719
21935
22055
21886
22082
22063
21762
22137
22156
21839
21842
21904
22137
22117
22121
22156
22163
22109
22129
22154
22197
22345
22084
22399
22225
22219
22293
22100
22465
22479
22412
22213
22253
22495
22502
22483
22601
22282
22276
22340
22251
22525
22339
22280
22418
22598
22402
22457
22300
22102
22109
22229
22116
21888
21857
21773
21784
21934
22019
21730
21695
21948
21824
21801
21963
21822
21781
21929
22093
21879
21800
21906
21978
21781
21916
21806
21967
22019
22090
21886
22164
22072
22098
22402
22020
21959
22375
22279
22113
22167
22097
22329
22433
22377
22275
22276
22196
22451
22643
22400
22347
22428
22486
22383
22391
22302
22347
22400
22394
22435
22421
22367
22271
22477
22435
22359
22410
22312
22455
22156
22460
22153
22297
22262
22113
22197
22469
22389
22504
22172
22104
22492
22435
22209
22435
22233
22241
22319
22256
22538
22264
22228
22376
22279
22306
22491
22441
22410
22380
22484
22429
22487
22433
22565
22536
22480
22702
22594
22427
22599
22742
22446
22804
22691
22502
22608
22710
22542
22514
22763
22546
22555
22511
22623
22706
22483
22743
22482
22662
22598
22549
22584
22307
22497
22456
22401
22401
22261
22230
22207
22212
22166
21975
22020
21931
21810
21965
21788
21910
22020
21913
21787
21981
21954
21856
21980
21804
21817
21992
21961
22023
21885
21691
22010
22073
21967
21846
21915
22165
21858
21850
21917
22195
22057
22112
21964
21999
21990
22258
22321
22127
22182
22134
22056
22194
22095
22339
22261
22152
22239
22103
22152
22304
22069
22347
22193
22356
22287
22197
22389
22455
22372
22130
22408
22361
22302
22278
22270
22321
22405
22160
22361
22188
22203
22171
22381
22178
22416
22267
22129
22455
22288
22297
22288
22504
22405
22294
22257
22548
22253
22255
22257
22238
22246
22267
22596
22574
22321
22473
22575
22426
22270
22549
22347
22563
22336
22386
22462
22469
22453
22492
22613
22590
22601
22781
22715
22431
22635
22776
22617
22399
22552
22630
22663
22765
22411
22437
22451
22360
22510
22312
22497
22444
22172
22205
22111
21998
22259
22097
21903
22109
21931
21948
22040
22095
22019
22071
21872
21974
21897
21758
21745
21847
21838
22077
22036
21856
21905
21912
21803
21978
21876
21963
21876
21895
22023
21948
21837
21984
21904
22077
21908
22272
22218
22049
22208
22031
22346
22313
22439
22144
22323
22209
22302
22532
22504
22530
22382
22308
22252
22372
22291
22411
22444
22429
22597
22378
22722
22613
22672
22616
22444
22594
22620
22489
22695
22426
22633
22432
22701
22598
22547
22746
22494
22455
22564
22856
22711
22707
22845
22579
22586
22846
22625
22757
22767
22836
22682
22737
22946
22895
22854
22963
22670
22669
22632
22639
22550
22695
22648
22834
22905
22664
22705
22855
22620
22675
22717
22732
22813
22793
22667
22801
22931
22808
22757
22800
22747
22764
22759
22806
22601
22685
22751
22735
22648
22467
22448
22738
22438
22463
22277
22521
22318
22154
22393
22148
22340
22214
22245
22231
21851
21868
21778
22008
21726
21739
21780
21735
21970
21800
21984
21967
21690
21929
21832
21975
21853
21820
21917
22029
22014
21964
21988
22029
22121
22117
21883
21890
22184
21901
21924
22158
22176
22142
21969
22124
22023
22108
22331
22383
22161
22075
22011
22398
22412
22101
22284
22142
22235
22329
22355
22295
22282
22211
22388
22253
22201
22179
22394
22475
22140
22476
22425
22315
22331
22322
22184
22526
22161
22385
22392
22518
22384
22292
22355
22603
22357
22489
22493
22318
22508
22534
22600
22447
22451
22711
22569
22452
22443
22722
22725
22685
22683
22734
22522
22550
22498
22795
22680
22700
22911
22739
22758
22883
22628
22759
22696
22691
22765
22628
22863
22969
22976
22812
22806
22830
22919
22661
22744
22709
22880
22835
22637
22564
22705
22634
22511
22466
22674
22475
22289
22346
22465
22233
22379
22195
22036
22246
22043
22111
22199
22135
22040
22263
22132
22226
22120
21998
21938
22026
22003
22078
22307
22220
22123
22143
22311
22201
22098
22279
22036
22179
22368
22159
22286
22342
22193
22252
22187
22122
22261
22145
22246
22414
22314
22351
22554
22365
22580
22638
22540
22404
22353
22352
22270
22375
22394
22469
22483
22482
22337
22346
22226
22501
22369
22212
22369
22200
22266
22232
22309
22303
22279
22449
22143
22499
22233
22403
22420
22523
22533
22393
22292
22536
22228
22611
22396
22422
22509
22459
22575
22392
22444
22596
22540
22579
22575
22647
22550
22271
22504
22379
22541
22604
22566
22715
22528
22661
22725
22759
22805
22491
22509
22631
22591
22503
22872
22549
22667
22642
22572
22836
22843
22816
22541
22797
22616
22817
22781
22514
22490
22380
22520
22321
22356
22281
22256
22139
22109
22150
22098
22070
22177
22078
22022
21922
21850
21783
21719
21795
21930
21692
21966
21887
21845
21668
21956
21848
21763
21625
21888
21959
21725
21718
21764
21978
21791
21935
21936
21999
22001
22019
21792
21852
22112
22117
21952
22143
22251
22237
22404
22087
22199
22317
22379
22142
21975
22303
22338
22098
22179
22144
22073
21938
21996
21782
21831
21809
21730
21749
21680
21727
22004
21873
21860
21881
22036
21965
21788
21878
21700
21847
22019
21782
21809
21873
21718
21906
21836
21714
21651
21565
21771
21741
21731
21857
21836
21789
21926
21763
21735
22047
21931
22054
22076
21705
21834
21821
21863
22061
22067
21962
22072
22031
22013
22065
21740
21818
21791
22039
21905
21695
21953
22035
21780
21738
21736
21924
21650
21793
21638
21648
21563
21649
21384
21573
21254
21356
21215
21398
21136
21193
21173
21068
21105
21230
20700
20752
20993
20929
20985
20961
20780
20861
20733
20706
20643
20523
20418
20409
20497
20339
20373
20718
20552
20595
20736
20593
20661
20525
20784
20603
20832
20644
20637
20624
20523
20661
20731
20752
20691
20762
20936
20950
21013
21202
21221
20962
21057
21271
21184
21344
21093
21421
21182
21277
21362
21314
21686
21630
21414
21744
21443
21529
21641
21425
21452
21375
21591
21693
21668
21651
21727
21680
21339
21384
21551
21503
21705
21486
21630
21466
21764
21770
21812
21639
21736
21790
21537
21803
21707
21775
21993
21868
22035
21979
21999
21936
22076
21973
21975
21970
21967
22016
21978
22039
22044
22003
22061
22112
22042
22077
22114
22161
22129
22118
22063
22099
21954
21884
22173
22075
22065
22131
22147
22151
22125
22182
22148
22184
22183
22079
21955
22237
21970
22042
22071
22111
21943
22033
21919
21833
21876
21832
21754
21686
21672
21695
21698
21701
21667
21613
21611
21572
21536
21550
21647
21567
21606
21595
21378
21536
21461
21545
21562
21834
21498
21517
21511
21527
21875
21811
21881
21623
21622
21844
21992
21795
22013
21948
21984
21861
22082
21866
21955
22061
22155
22206
22030
22282
22093
22232
22107
22231
22107
22088
22189
22400
22181
22332
22267
22230
22217
22067
22406
22353
22283
22219
22448
22375
22295
22275
22210
22326
22349
22263
22475
22321
22216
22482
22255
22536
22196
22426
22272
22592
22347
22540
22346
22471
22579
22404
22468
22671
22619
22435
22621
22583
22401
22555
22452
22638
22586
22633
22566
22457
22307
22648
22408
22377
22489
22713
22673
22384
22580
22393
22427
22354
22487
22399
22705
22646
22475
22696
22652
22782
22618
22702
22628
22632
22639
22723
22628
22717
22604
22589
22662
22672
22657
22643
22605
22527
22501
22332
22067
22431
22322
21958
22166
22051
21902
21984
22042
21890
21962
22013
21893
21932
22013
21869
21788
21865
21683
21931
21971
21852
22062
21877
22068
21949
22123
21917
21958
22111
21957
21980
21919
21962
22091
21924
22075
22044
22247
22402
22270
22115
22312
22481
22411
22425
22229
22267
22328
22424
22367
22461
22408
22253
22431
22494
22298
22484
22349
22420
22329
22446
22138
22340
22292
22469
22325
22144
22356
22209
22337
22280
22299
22303
22355
22297
22355
22423
22232
22425
22420
22463
22276
22404
22359
22385
22664
22527
22336
22549
22500
22704
22457
22578
22718
22383
22673
22749
22611
22813
22700
22496
22532
22631
22755
22626
22693
22837
22636
22624
22600
22762
22886
22664
22789
22716
22685
22892
22994
22902
23009
22979
23035
22885
22956
22793
22849
22924
22928
22818
22769
22881
22799
22789
22625
22391
22559
22570
22327
22464
22349
22342
22346
22235
22047
22303
22346
22161
22087
22041
21921
21972
21967
22090
22310
22232
22171
21943
22190
22287
22031
22156
22103
22025
22256
21990
22067
22083
22166
22070
22256
22252
22334
22287
22194
22441
22272
22430
22131
22320
22524
22512
22306
22519
22456
22249
22546
22358
22434
22341
22556
22215
22265
22401
22398
22407
22589
22559
22462
22405
22363
22502
22204
22285
22373
22262
22441
22605
22293
22559
22613
22537
22521
22490
22512
22419
22452
22702
22491
22556
22455
22747
22477
22463
22691
22429
22813
22888
22834
22712
22840
22783
22574
22667
22823
22834
22975
22769
22651
22961
22949
22833
22914
22851
23016
23007
23004
22764
22831
23044
22997
22977
23037
22990
23063
23199
23232
22864
22967
22938
22962
22916
23174
22847
22792
22922
22675
22814
22927
22719
22688
22555
22523
22417
22526
22303
22416
22607
22261
22537
22294
22341
22254
22427
22172
22053
22301
22461
22437
22042
22407
22197
22338
22013
22349
22404
22244
22325
22314
22510
22242
22513
22267
22175
22176
22328
22525
22517
22401
22291
22495
22453
22473
22651
22545
22343
22485
22671
22667
22489
22619
22607
22756
22615
22762
22659
22808
22547
22647
22673
22764
22447
22445
22687
22857
22799
22655
22530
22622
22838
22746
22856
22619
22840
22863
22688
22646
22549
22860
22905
22672
22694
22759
22834
22803
22954
22705
22789
23072
22906
23007
23061
22771
23055
22891
23057
23060
23018
22982
23055
23043
23061
23081
23112
23074
23131
23129
23223
23199
23182
23199
23272
23238
23184
23255
23294
23437
23364
23396
23188
23097
23248
23546
23202
23355
23368
23514
23198
23117
23290
23468
23474
23327
23235
23301
23381
23181
23101
23202
23259
22984
23081
22829
22850
22981
22765
22682
22727
22707
22705
22656
22617
22618
22608
22672
22541
22656
22701
22663
22509
22484
22561
22502
22637
22749
22641
22657
22673
22688
22700
22736
22690
22747
22682
22820
22917
22773
22720
22917
23012
22972
22963
22852
22987
22935
23138
22984
23051
22991
23023
23103
23218
23152
23173
23184
23163
23212
23288
23219
23179
23088
23292
23091
23186
23299
23261
23097
23192
