17402
17373
17271
17180
17172
17181
17133
17110
17194
17302
17382
17497
17646
17737
17750
17770
17812
17789
17705
17658
17648
17588
17500
17485
17503
17455
17357
17300
17266
17158
17017
16933
16852
16676
16473
16335
16199
16010
15849
15755
15650
15476
15305
15217
15136
14993
14873
14814
14724
14566
14431
14368
14276
14126
14020
13945
13816
13665
13571
13512
13404
13266
13185
13136
13039
12910
12823
12752
12625
12495
12461
12465
12417
12387
12468
12606
12716
12865
13156
13514
13842
14205
14674
15177
15653
16169
16762
17346
17852
18354
18901
19385
19762
20134
20513
20801
21009
21228
21427
21508
21485
21463
21446
21354
21227
21165
21124
20997
20820
20685
20545
20325
20101
19957
19824
19619
19414
19290
19157
18926
18695
18552
18411
18214
18062
18014
17979
17888
17814
17819
17808
17737
17705
17716
17678
17626
17670
17787
17849
17846
17882
17948
17939
17887
17905
17960
17958
17962
18062
18182
18227
18245
18314
18366
18307
18205
18128
18005
17790
17576
17450
17356
17214
17080
17006
16926
16805
16715
16662
16544
16342
16166
16063
15937
15761
15630
15548
15410
15238
15153
15143
15080
14989
14980
14993
14919
14812
14762
14701
14556
14414
14368
14345
14257
14158
14124
14088
13972
13859
13838
13827
13750
13717
13805
13910
13969
14075
14288
14546
14834
15222
15724
16252
16791
17433
18147
18787
19348
19923
20492
20962
21358
21782
22218
22553
22811
23086
23309
23405
23465
23552
23595
23540
23469
23457
23423
23296
23155
23061
22927
22709
22505
22376
22234
22022
21830
21715
21590
21408
21258
21158
20998
20786
20655
20589
20464
20303
20225
20193
20099
20003
20018
20098
20121
20100
20132
20172
20126
20067
20104
20157
20131
20127
20236
20363
20403
20436
20531
20566
20466
20351
20309
20257
20130
20032
20020
19974
19861
19793
19762
19648
19455
19308
19220
19094
18935
18836
18782
18655
18465
18334
18253
18110
17940
17857
17799
17652
17499
17431
17348
17142
16920
16805
16720
16591
16496
16476
16434
16309
16196
16170
16130
16017
15924
15900
15855
15740
15646
15602
15495
15326
15226
15192
15103
14962
14868
14815
14725
14645
14696
14841
14984
15178
15509
15928
16349
16810
17382
17982
18485
18971
19569
20189
20701
21187
21744
22276
22690
23055
23418
23680
23795
23881
23995
24059
24040
24023
24049
24014
23881
23765
23685
23513
23269
23096
22987
22835
22664
22574
22521
22386
22191
22038
21908
21720
21533
21436
21351
21190
21036
20992
20956
20821
20687
20649
20631
20543
20469
20496
20542
20527
20529
20607
20671
20686
20741
20842
20873
20832
20847
20909
20887
20793
20760
20781
20740
20669
20665
20667
20567
20414
20335
20298
20209
20108
20063
20001
19843
19677
19599
19534
19391
19241
19155
19051
18871
18725
18676
18592
18386
18169
18026
17887
17722
17617
17572
17482
17344
17270
17268
17209
17078
17000
16967
16858
16709
16627
16559
16399
16197
16084
16028
15922
15819
15795
15771
15653
15524
15484
15458
15360
15260
15227
15167
15012
14873
14837
14814
14725
14690
14805
14966
15112
15354
15715
16058
16365
16773
17295
17806
18308
18905
19567
20160
20684
21229
21770
22208
22561
22919
23229
23398
23500
23651
23804
23860
23870
23927
23955
23859
23716
23632
23539
23350
23166
23072
22976
22800
22630
22524
22386
22172
21981
21845
21665
21438
21267
21130
20929
20711
20599
20547
20422
20255
20170
20157
20109
20043
20070
20124
20086
20026
20043
20066
20014
19994
20102
20213
20217
20222
20312
20390
20399
20410
20469
20494
20420
20318
20252
20157
20004
19898
19873
19813
19684
19603
19571
19455
19265
19127
19020
18839
18619
18475
18370
18170
17933
17799
17714
17565
17414
17361
17336
17250
17164
17133
17067
16896
16742
16705
16666
16530
16397
16337
16265
16136
16046
16027
15971
15837
15717
15649
15543
15395
15314
15290
15222
15115
15053
15001
14878
14759
14754
14807
14801
14795
14940
15190
15404
15628
15984
16410
16783
17187
17731
18287
18750
19235
19805
20315
20672
20995
21360
21663
21847
22019
22228
22371
22392
22408
22461
22447
22357
22282
22214
22060
21846
21685
21548
21331
21075
20899
20764
20552
20288
20079
19886
19602
19298
19104
18976
18796
18599
18477
18375
18220
18092
18063
18046
17961
17904
17952
18007
18000
18014
18101
18149
18107
18081
18130
18175
18177
18197
18242
18227
18156
18131
18152
18113
18026
18003
18023
17981
17923
17930
17930
17836
17716
17663
17612
17477
17336
17271
17183
16970
16743
16620
16506
16317
16133
16024
15915
15761
15652
15619
15547
15384
15246
15189
15099
14953
14857
14810
14706
14539
14428
14388
14309
14202
14157
14131
14033
13915
13873
13872
13814
13725
13718
13755
13741
13755
13902
14121
14312
14539
14906
15342
15744
16191
16754
17316
17805
18316
18886
19417
19860
20306
20777
21147
21400
21654
21921
22090
22164
22270
22399
22433
22377
22335
22313
22218
22056
21923
21812
21630
21408
21257
21134
20931
20711
20556
20389
20148
19939
19849
19773
19619
19466
19368
19263
19109
18970
18904
18842
18737
18665
18654
18606
18520
18518
18597
18632
18621
18674
18774
18822
18860
18971
19100
19150
19157
19207
19251
19210
19144
19149
19163
19091
19008
18998
18965
18821
18683
18639
18592
18447
18282
18195
18121
17975
17839
17761
17644
17454
17296
17199
17069
16892
16758
16662
16520
16355
16267
16232
16134
15979
15878
15825
15714
15569
15489
15436
15319
15196
15165
15164
15115
15090
15148
15225
15275
15384
15613
15895
16189
16577
17097
17651
18180
18750
19379
19972
20501
21039
21594
22063
22433
22808
23188
23459
23637
23852
24085
24222
24294
24384
24432
24363
24252
24190
24112
23929
23709
23544
23397
23223
23091
23036
22942
22733
22523
22410
22312
22146
21998
21920
21807
21598
21413
21319
21210
21039
20913
20878
20840
20785
20795
20850
20852
20813
20861
20982
21034
21013
21036
21092
21092
21074
21115
21172
21152
21097
21117
21164
21128
21059
21046
21029
20926
20809
20769
20715
20569
20444
20396
20293
20088
19907
19809
19710
19571
19482
19455
19355
19177
19055
18995
18868
18674
18548
18465
18300
18100
17974
17888
17739
17549
17437
17376
17244
17102
17072
17073
16997
16910
16874
16800
16625
16482
16479
16508
16468
16465
16605
16796
16942
17149
17518
17949
18365
18862
19478
20105
20696
21338
22028
22614
23085
23580
24096
24502
24805
25131
25464
25692
25855
26055
26253
26335
26348
26415
26488
26478
26446
26482
26509
26424
26302
26239
26133
25897
25666
25554
25454
25265
25069
24938
24780
24558
24391
24319
24214
24036
23908
23857
23743
23564
23459
23425
23346
23234
23219
23275
23257
23200
23225
23283
23259
23213
23253
23312
23293
23265
23332
23403
23349
23272
23301
23322
23216
23092
23045
22969
22788
22629
22579
22515
22365
22246
22215
22152
22005
21879
21788
21615
21373
21192
21077
20910
20704
20596
20557
20461
20337
20292
20267
20140
19985
19925
19884
19733
19561
19510
19485
19346
19177
19104
19049
18895
18734
18682
18648
18539
18465
18500
18498
18371
18248
18204
18136
18003
17907
17885
17830
17727
17675
17648
17516
17325
17224
17188
17107
17008
16995
17031
17009
16996
17132
17373
17610
17916
18389
18921
19400
19925
20581
21236
21790
22349
23006
23649
24155
24613
25114
25540
25805
26028
26288
26517
26679
26851
27023
27091
27068
27064
27069
26982
26847
26785
26755
26646
26503
26434
26400
26294
26144
26060
26011
25899
25774
25727
25681
25534
25372
25291
25208
25053
24924
24891
24838
24703
24601
24588
24558
24441
24360
24388
24406
24368
24386
24473
24494
24436
24428
24454
24409
24346
24373
24449
24464
24434
24454
24487
24444
24359
24302
24227
24051
23853
23754
23688
23548
23408
23370
23332
23182
23019
22922
22792
22576
22396
22312
22224
22068
21922
21835
21698
21481
21324
21242
21104
20926
20828
20789
20673
20488
20372
20326
20238
20125
20091
20088
19999
19870
19804
19746
19587
19403
19314
19256
19132
19010
18969
18910
18741
18574
18529
18519
18451
18408
18435
18431
18352
18289
18278
18209
18047
17927
17886
17807
17689
17626
17594
17482
17325
17265
17283
17277
17300
17476
17766
18051
18365
18822
19367
19871
20376
20983
21625
22187
22742
23367
23930
24316
24643
25039
25438
25735
25995
26297
26534
26617
26658
26724
26714
26594
26489
26441
26355
26225
26160
26149
26068
25929
25847
25796
25673
25519
25445
25393
25247
25072
24977
24890
24704
24494
24369
24258
24064
23880
23822
23784
23645
23510
23506
23536
23482
23421
23430
23421
23336
23287
23336
23389
23395
23443
23558
23626
23625
23667
23753
23755
23663
23616
23633
23594
23498
23450
23429
23327
23179
23080
22987
22821
22640
22550
22478
22297
22083
21950
21808
21570
21358
21262
21170
20991
20830
20774
20708
20552
20403
20325
20219
20056
19942
19879
19777
19636
19531
19468
19350
19173
19054
18978
18843
18691
18632
18616
18515
18380
18332
18311
18201
18076
18055
18070
17994
17879
17845
17832
17745
17668
17680
17669
17546
17405
17323
17219
17043
16900
16828
16732
16585
16488
16465
16406
16281
16192
16146
16024
15837
15721
15665
15584
15521
15577
15727
15860
16006
16284
16641
16964
17332
17845
18413
18912
19396
19974
20580
21116
21657
22259
22805
23221
23595
24011
24369
24581
24761
24971
25112
25159
25205
25257
25224
25131
25088
25065
24933
24722
24593
24549
24458
24325
24261
24229
24110
23931
23815
23728
23567
23397
23307
23213
23026
22853
22798
22754
22608
22456
22397
22335
22179
22035
22006
22010
21968
21974
22069
22151
22185
22263
22422
22536
22554
22594
22679
22684
22600
22565
22588
22552
22473
22447
22426
22323
22211
22192
22192
22087
21930
21829
21730
21561
21415
21369
21294
21096
20907
20817
20716
20526
20348
20263
20154
19952
19774
19667
19520
19297
19114
19027
18929
18779
18679
18628
18501
18318
18204
18141
18024
17877
17813
17819
17766
17659
17622
17619
17537
17439
17404
17360
17231
17109
17075
17023
16878
16758
16748
16754
16692
16628
16624
16583
16437
16295
16212
16099
15929
15788
15713
15620
15489
15442
15506
15572
15654
15886
16241
16572
16903
17356
17872
18327
18766
19303
19894
20419
20898
21408
21891
22254
22558
22891
23167
23306
23429
23640
23814
23857
23889
23970
23990
23897
23786
23719
23596
23383
23218
23135
23001
22803
22670
22585
22432
22250
22151
22099
21973
21784
21639
21513
21319
21127
21035
20965
20827
20688
20642
20635
20568
20502
20549
20620
20586
20538
20589
20656
20643
20639
20737
20850
20890
20930
21022
21066
21013
20973
21006
21007
20930
20891
20916
20885
20798
20770
20764
20649
20468
20364
20303
20155
19977
19887
19817
19654
19473
19395
19361
19246
19100
19046
19001
18825
18614
18498
18387
18188
18007
17937
17885
17781
17705
17695
17643
17496
17356
17275
17163
16991
16864
16818
16751
16643
16586
16563
16465
16332
16287
16303
16274
16230
16255
16275
16165
15999
15915
15864
15749
15635
15618
15638
15610
15614
15750
15922
16039
16216
16535
16906
17270
17731
18323
18905
19414
19941
20508
21017
21438
21856
22289
22648
22942
23279
23629
23866
24021
24197
24347
24379
24348
24365
24390
24310
24168
24079
24004
23855
23686
23579
23480
23318
23150
23049
22942
22757
22568
22443
22304
22095
21921
21838
21738
21574
21461
21440
21390
21277
21229
21273
21275
21203
21168
21181
21157
21131
21197
21303
21343
21363
21457
21564
21571
21540
21581
21631
21593
21534
21549
21574
21522
21477
21516
21533
21442
21334
21287
21224
21089
20976
20926
20847
20705
20580
20508
20407
20260
20157
20103
19991
19811
19669
19555
19381
19192
19074
18998
18877
18738
18676
18642
18538
18403
18321
18249
18114
17980
17952
17965
17919
17881
17923
17939
17847
17746
17707
17640
17487
17330
17242
17174
17059
16959
16926
16888
16806
16754
16728
16626
16463
16364
16321
16216
16072
16019
16049
16039
16016
16106
16281
16449
16683
17082
17562
17999
18453
19027
19634
20162
20677
21254
21806
22263
22701
23200
23662
23997
24304
24646
24919
25065
25177
25307
25373
25344
25324
25338
25292
25199
25162
25160
25079
24926
24814
24727
24556
24334
24186
24086
23924
23728
23596
23496
23345
23188
23097
23006
22835
22666
22590
22526
22395
22282
22255
22218
22098
22014
22057
22121
22122
22143
22240
22316
22334
22388
22477
22508
22507
22574
22686
22724
22701
22726
22778
22755
22690
22678
22680
22596
22463
22387
22320
22166
21985
21873
21770
21589
21413
21339
21284
21156
21032
20984
20919
20779
20646
20562
20430
20194
19977
19862
19756
19600
19478
19423
19341
19211
19125
19082
18986
18857
18795
18752
18631
18499
18460
18454
18382
18277
18222
18173
18037
17876
17788
17702
17539
17392
17361
17357
17272
17180
17180
17171
17063
16979
16999
17022
17002
17030
17144
17267
17372
17565
17883
18228
18584
19041
19597
20130
20618
21171
21756
22255
22704
23190
23664
24031
24345
24693
25015
25228
25382
25567
25716
25729
25683
25690
25689
25608
25528
25523
25489
25350
25231
25191
25106
24918
24736
24618
24484
24299
24133
24018
23894
23750
23663
23617
23506
23346
23231
23146
23004
22839
22771
22772
22729
22677
22717
22784
22772
22750
22826
22938
22971
22960
22993
23016
22984
23005
23130
23234
23245
23263
23349
23399
23334
23242
23198
23132
23000
22884
22808
22683
22492
22337
22234
22079
21887
21766
21689
21544
21363
21259
21211
21109
20969
20892
20826
20660
20452
20318
20201
20007
19807
19695
19606
19473
19377
19376
19367
19269
19157
19108
19056
18928
18812
18771
18700
18545
18412
18342
18255
18129
18049
18038
17985
17867
17794
17754
17656
17534
17497
17543
17572
17603
17755
17999
18228
18493
18881
19326
19722
20140
20667
21202
21642
22068
22571
23049
23421
23782
24200
24595
24892
25144
25407
25607
25701
25786
25896
25947
25917
25888
25875
25781
25620
25523
25495
25423
25305
25236
25177
25016
24800
24641
24518
24350
24171
24062
23982
23831
23666
23578
23491
23334
23194
23133
23078
22984
22937
22978
23013
22985
22973
23042
23120
23152
23211
23328
23411
23416
23439
23526
23584
23591
23641
23714
23705
23648
23645
23654
23583
23477
23431
23410
23332
23229
23176
23123
22992
22847
22778
22722
22614
22535
22533
22502
22367
22226
22154
22061
21901
21770
21697
21589
21422
21297
21251
21180
21021
20881
20808
20706
20564
20489
20483
20428
20329
20286
20258
20141
19972
19868
19821
19745
19671
19673
19694
19645
19607
19683
19799
19887
20061
20415
20849
21256
21706
22252
22784
23226
23676
24204
24715
25138
25545
25983
26366
26642
26900
27182
27389
27496
27604
27735
27789
27758
27753
27768
27703
27599
27546
27501
27370
27196
27073
26960
26779
26585
26452
26319
26121
25936
25840
25755
25593
25435
25352
25236
25034
24882
24842
24787
24651
24550
24541
24527
24472
24467
24528
24566
24574
24647
24762
24809
24812
24874
24975
25015
25011
25059
25124
25106
25040
25024
25011
24929
24852
24850
24827
24691
24539
24485
24453
24353
24264
24243
24171
23973
23767
23655
23560
23421
23324
23298
23233
23098
22996
22961
22906
22808
22759
22761
22705
22608
22570
22561
22466
22302
22197
22141
22019
21868
21794
21739
21610
21487
21461
21452
21342
21204
21155
21125
21009
20879
20829
20775
20650
20568
20598
20641
20620
20637
20782
20961
21122
21374
21769
22204
22623
23108
23663
24175
24637
25150
25699
26172
26588
27043
27493
27820
28054
28300
28527
28651
28727
28840
28929
28921
28902
28942
28941
28825
28706
28670
28634
28537
28448
28417
28341
28158
27984
27886
27759
27543
27338
27204
27055
26861
26713
26629
26523
26405
26383
26419
26389
26317
26320
26381
26393
26374
26411
26466
26450
26424
26483
26566
26572
26559
26619
26690
26680
26653
26690
26705
26618
26529
26523
26515
26427
26350
26340
26287
26129
25973
25870
25738
25570
25470
25435
25349
25204
25104
25045
24917
24744
24644
24586
24455
24284
24173
24089
23941
23783
23714
23668
23540
23373
23270
23196
23079
22979
22968
22966
22887
22799
22772
22702
22528
22367
22297
22238
22135
22076
22095
22078
21982
21901
21856
21749
21580
21464
21397
21282
21162
21157
21239
21305
21395
21614
21918
22196
22484
22879
23335
23760
24200
24727
25261
25706
26136
26637
27103
27428
27712
28047
28355
28571
28780
29039
29251
29332
29358
29404
29400
29323
29279
29286
29237
29124
29046
29008
28909
28759
28667
28617
28514
28377
28295
28229
28090
27931
27840
27749
27570
27376
27268
27182
27020
26860
26793
26748
26652
26586
26614
26632
26580
26571
26664
26745
26739
26740
26816
26881
26879
26892
26969
27019
27005
27014
27047
27023
26960
26938
26932
26844
26716
26664
26652
26577
26483
26442
26376
26211
26036
25946
25864
25706
25553
25482
25414
25263
25111
25031
24943
24787
24646
24577
24485
24311
24146
24044
23931
23780
23677
23640
23567
23447
23360
23308
23222
23124
23092
23101
23032
22889
22806
22760
22629
22454
22358
22313
22214
22108
22083
22076
21985
21874
21846
21814
21685
21557
21501
21427
21287
21183
21170
21154
21102
21115
21242
21376
21470
21643
21952
22297
22631
23030
23495
23917
24310
24779
25287
25724
26110
26522
26911
27182
27401
27681
27946
28085
28184
28360
28532
28587
28585
28607
28584
28463
28345
28314
28269
28117
27972
27918
27848
27690
27530
27425
27296
27100
26940
26857
26731
26529
26381
26317
26238
26136
26098
26107
26059
25975
25949
25953
25906
25852
25873
25907
25856
25792
25819
25872
25878
25893
25973
26042
26020
25999
26069
26139
26114
26075
26095
26096
26032
25979
25972
25912
25759
25618
25542
25443
25289
25176
25130
25044
24912
24838
24797
24688
24536
24435
24352
24199
24021
23920
23867
23767
23645
23570
23503
23369
23206
23114
23051
22916
22778
22727
22679
22542
22400
22337
22263
22121
22025
22021
21985
21862
21749
21694
21614
21479
21395
21377
21328
21260
21266
21318
21294
21205
21159
21140
21072
21006
21042
21143
21228
21355
21609
21944
22265
22595
23010
23437
23798
24192
24693
25184
25562
25909
26293
26622
26829
27001
27211
27387
27479
27575
27702
27746
27674
27606
27603
27563
27438
27336
27280
27182
27046
26944
26864
26730
26559
26441
26349
26191
26008
25897
25816
25671
25517
25432
25351
25193
25041
24995
24985
24907
24828
24835
24830
24728
24637
24648
24657
24598
24594
24704
24810
24832
24861
24959
25013
24975
24969
25016
24994
24915
24906
24957
24940
24859
24823
24790
24658
24501
24426
24371
24235
24077
24010
23972
23849
23699
23622
23525
23299
23056
22924
22819
22653
22518
22479
22431
22293
22143
22052
21955
21814
21714
21661
21550
21378
21266
21224
21141
21008
20934
20900
20791
20635
20560
20537
20447
20325
20271
20237
20128
19994
19948
19951
19905
19861
19891
19915
19868
19852
19954
20093
20203
20380
20697
21068
21415
21817
22330
22854
23338
23855
24400
24870
25255
25652
26068
26397
26630
26874
27122
27263
27313
27380
27461
27477
27442
27428
27416
27356
27277
27220
27144
27003
26864
26792
26715
26577
26442
26361
26259
26074
25901
25807
25690
25491
25306
25202
25094
24929
24801
24758
24717
24638
24611
24661
24677
24629
24609
24609
24535
24416
24377
24399
24370
24338
24405
24523
24583
24609
24679
24756
24751
24706
24710
24688
24542
24377
24320
24282
24157
24026
23964
23878
23702
23544
23481
23425
23304
23188
23118
23022
22874
22750
22671
22551
22380
22271
22211
22083
21918
21825
21774
21656
21500
21437
21434
21360
21242
21180
21129
21021
20909
20852
20780
20630
20494
20449
20413
20309
20219
20218
20185
20041
19912
19884
19852
19743
19650
19621
19571
19462
19374
19350
19320
19273
19303
19394
19466
19576
19817
20138
20432
20735
21154
21669
22168
22664
23228
23786
24240
24662
25139
25597
25918
26186
26516
26815
26994
27137
27303
27409
27405
27389
27442
27465
27381
27285
27243
27181
27071
26986
26933
26827
26651
26510
26417
26259
26043
25880
25745
25546
25332
25209
25131
24986
24836
24782
24761
24686
24606
24599
24610
24558
24506
24535
24564
24511
24462
24487
24498
24428
24362
24383
24423
24416
24433
24512
24556
24529
24518
24550
24523
24412
24326
24273
24149
23977
23889
23884
23833
23729
23676
23659
23564
23420
23339
23283
23148
22984
22900
22827
22660
22474
22368
22251
22030
21813
21717
21657
21526
21421
21413
21371
21216
21047
20944
20832
20662
20533
20489
20430
20318
20252
20245
20182
20064
20019
20030
19969
19853
19787
19748
19637
19478
19387
19349
19255
19135
19088
19067
18977
18883
18872
18876
18806
18735
18749
18770
18719
18719
18888
19143
19391
19712
20175
20670
21114
21582
22119
22645
23121
23622
24156
24620
24996
25383
25787
26100
26330
26573
26800
26919
26978
27076
27174
27159
27063
27002
26947
26806
26635
26544
26473
26321
26157
26054
25927
25715
25522
25421
25312
25132
24986
24920
24831
24672
24526
24438
24319
24131
23986
23921
23842
23749
23738
23791
23784
23722
23707
23705
23621
23510
23501
23566
23593
23613
23724
23859
23899
23884
23900
23899
23809
23715
23717
23749
23697
23607
23564
23506
23362
23232
23186
23129
23005
22889
22829
22742
22590
22467
22394
22275
22106
21984
21913
21788
21607
21490
21435
21322
21160
21066
21004
20863
20681
20559
20450
20263
20067
19970
19911
19793
19684
19663
19649
19542
19412
19351
19273
19096
18935
18888
18852
18729
18611
18573
18529
18426
18375
18397
18364
18261
18195
18171
18082
17922
17806
17732
17604
17453
17389
17377
17307
17237
17286
17411
17514
17653
17945
18330
18672
19026
19501
19999
20399
20798
21301
21810
22228
22634
23105
23558
23914
24248
24605
24890
25053
25190
25357
25466
25482
25497
25533
25494
25384
25312
25254
25086
24854
24707
24621
24462
24260
24128
24040
23900
23734
23608
23474
23266
23060
22937
22819
22634
22478
22433
22387
22240
22092
22043
22028
21972
21945
22010
22070
22053
22044
22092
22122
22117
22154
22237
22269
22245
22268
22334
22341
22305
22328
22384
22357
22270
22230
22213
22143
22050
22004
21966
21859
21731
21649
21547
21344
21134
21033
20963
20823
20687
20633
20572
20438
20321
20272
20198
20032
19857
19736
19588
19373
19190
19082
18983
18866
18794
18764
18670
18523
18452
18435
18348
18212
18137
18102
17989
17854
17828
17838
17749
17639
17606
17573
17458
17345
17328
17333
17288
17279
17378
17504
17599
17766
18069
18416
18747
19149
19656
20150
20569
21017
21539
22010
22383
22761
23159
23490
23764
24051
24324
24486
24563
24670
24769
24755
24695
24696
24707
24638
24538
24489
24420
24239
24023
23879
23731
23492
23268
23132
22987
22774
22589
22497
22391
22187
21992
21876
21751
21566
21431
21402
21365
21266
21197
21177
21109
21020
21027
21078
21053
21008
21055
21146
21147
21100
21145
21235
21252
21259
21350
21435
21417
21380
21416
21444
21375
21284
21265
21250
21151
21047
21008
20935
20758
20583
20484
20377
20207
20072
20018
19949
19811
19686
19609
19488
19310
19173
19073
18910
18716
18606
18532
18375
18190
18101
18057
17928
17753
17649
17570
17423
17281
17234
17195
17058
16907
16845
16795
16671
16556
16512
16443
16286
16150
16122
16107
16032
15994
16054
16132
16208
16400
16733
17082
17423
17854
18346
18789
19222
19754
20342
20859
21316
21802
22280
22658
22982
23351
23707
23954
24145
24347
24504
24548
24552
24610
24645
24569
24477
24461
24418
24269
24140
24114
24067
23901
23714
23582
23424
23199
23003
22879
22749
22607
22547
22547
22469
22328
22247
22198
22074
21917
21842
21830
21765
21663
21635
21648
21616
21586
21633
21699
21706
21715
21805
21891
21869
21819
21850
21881
21820
21763
21793
21825
21791
21767
21801
21819
21779
21758
21777
21728
21588
21474
21395
21253
21079
20988
20945
20836
20698
20633
20597
20479
20317
20221
20157
20023
19871
19799
19746
19619
19480
19414
19334
19162
19007
18970
18949
18838
18729
18695
18638
18506
18402
18380
18332
18223
18168
18195
18180
18068
17975
17939
17859
17741
17702
17720
17679
17621
17691
17866
18035
18237
18581
19022
19435
19854
20384
20964
21484
21994
22577
23154
23634
24084
24585
25057
25409
25699
26008
26261
26382
26458
26567
26632
26596
26555
26565
26536
26429
26343
26298
26194
26031
25915
25846
25725
25583
25508
25447
25300
25128
25047
25004
24876
24713
24634
24571
24408
24218
24129
24092
23998
23904
23900
23890
23776
23662
23656
23675
23636
23641
23758
23864
23878
23896
23982
24047
24042
24060
24131
24163
24139
24150
24187
24140
24028
23985
23999
23953
23868
23832
23800
23678
23517
23422
23353
23215
23068
23007
22957
22818
22667
22589
22503
22331
22177
22141
22119
22004
21894
21858
21780
21597
21429
21351
21265
21113
20988
20939
20860
20718
20622
20589
20506
20371
20316
20327
20270
20170
20148
20160
20080
19950
19887
19846
19722
19579
19523
19501
19416
19347
19398
19481
19506
19577
19783
20036
20271
20579
21015
21459
21826
22227
22756
23305
23771
24239
24776
25284
25714
26142
26582
26919
27133
27350
27566
27656
27645
27666
27698
27635
27530
27506
27533
27490
27410
27394
27380
27260
27076
26936
26811
26624
26443
26354
26269
26080
25874
25739
25570
25294
25048
24931
24844
24718
24647
24662
24633
24522
24450
24454
24429
24368
24380
24466
24493
24446
24456
24519
24510
24455
24478
24545
24541
24505
24534
24563
24484
24389
24404
24447
24393
24305
24278
24244
24111
23953
23863
23763
23591
23456
23401
23309
23134
22991
22948
22887
22728
22574
22481
22344
22153
22034
21992
21905
21779
21714
21665
21516
21333
21241
21183
21044
20884
20811
20752
20597
20427
20353
20310
20187
20046
19992
19950
19828
19729
19726
19691
19545
19423
19410
19389
19276
19163
19098
18995
18815
18662
18589
18499
18352
18246
18198
18099
17979
17974
18064
18129
18200
18401
18712
19025
19378
19852
20355
20792
21256
21835
22433
22932
23387
23893
24382
24758
25085
25440
25740
25909
26044
26232
26381
26419
26437
26484
26447
26288
26144
26076
25978
25810
25678
25592
25432
25199
25017
24882
24677
24451
24351
24326
24234
24093
24000
23928
23781
23594
23468
23354
23171
23021
22996
22979
22860
22736
22717
22715
22650
22637
22749
22856
22868
22887
22978
23030
22976
22920
22929
22930
22895
22906
22966
22963
22895
22869
22876
22798
22667
22628
22637
22559
22446
22408
22368
22226
22062
21979
21927
21819
21700
21647
21572
21396
21233
21168
21087
20874
20645
20540
20465
20315
20193
20160
20108
19985
19879
19830
19740
19577
19456
19417
19352
19235
19158
19121
19026
18878
18791
18762
18671
18552
18528
18544
18472
18360
18312
18268
18130
17986
17962
17995
17987
18005
18131
18297
18429
18619
18944
19305
19631
20030
20574
21136
21610
22074
22590
23063
23425
23773
24164
24517
24796
25070
25355
25564
25682
25801
25911
25900
25801
25736
25686
25569
25418
25317
25219
25029
24815
24704
24635
24481
24283
24147
24027
23839
23660
23577
23491
23296
23086
22950
22797
22580
22414
22364
22314
22182
22075
22065
22060
22020
22048
22148
22191
22169
22200
22287
22309
22263
22281
22360
22361
22308
22337
22413
22412
22391
22451
22515
22479
22415
22419
22421
22307
22157
22088
22024
21869
21718
21648
21548
21361
21202
21117
20990
20769
20588
20505
20401
20224
20078
20005
19912
19772
19681
19645
19548
19381
19278
19241
19145
19004
18939
18926
18837
18707
18656
18641
18560
18465
18449
18435
18326
18206
18172
18132
17994
17867
17842
17806
17662
17534
17514
17491
17399
17359
17428
17509
17559
17669
17887
18127
18354
18682
19135
19596
20050
20601
21216
21755
22231
22756
23313
23813
24276
24766
25221
25538
25773
26015
26212
26277
26290
26365
26426
26374
26279
26240
26198
26055
25905
25849
25788
25637
25487
25389
25240
24997
24784
24674
24566
24397
24250
24157
24033
23870
23771
23722
23601
23428
23337
23317
23234
23095
23021
22996
22923
22853
22870
22911
22881
22858
22944
23062
23102
23112
23174
23230
23201
23158
23194
23230
23161
23092
23122
23129
23034
22941
22902
22810
22627
22461
22366
22258
22116
22039
22011
21902
21720
21593
21513
21365
21187
21089
21012
20849
20656
20539
20456
20318
20171
20091
20014
19860
19714
19675
19647
19528
19410
19375
19306
19133
19000
18991
18977
18885
18815
18812
18754
18593
18443
18356
18242
18096
18018
17991
17911
17785
17716
17685
17583
17463
17456
17505
17471
17409
17465
17601
17715
17861
18142
18515
18891
19316
19867
20460
20998
21549
22185
22817
23342
23812
24315
24779
25124
25446
25812
26109
26260
26374
26512
26582
26576
26588
26608
26551
26441
26383
26352
26236
26068
25948
25838
25638
25398
25218
25065
24847
24602
24440
24333
24186
24038
23952
23855
23678
23521
23472
23427
23272
23098
23030
22990
22866
22746
22733
22745
22696
22665
22720
22773
22769
22806
22925
23020
23054
23117
23227
23281
23279
23316
23345
23267
23142
23093
23089
23017
22905
22855
22818
22688
22532
22459
22383
22193
21986
21897
21843
21713
21587
21539
21459
21268
21089
21025
20965
20802
20639
20571
20494
20340
20215
20157
20056
19871
19717
19648
19558
19423
19349
19316
19221
19111
19105
19156
19126
19028
18969
18912
18769
18621
18564
18522
18413
18307
18288
18279
18157
18009
17965
17922
17760
17593
17533
17502
17430
17410
17501
17602
17655
17781
18049
18356
18659
19056
19573
20101
20607
21174
21789
22328
22794
23303
23832
24254
24613
25049
25496
25813
26049
26312
26531
26608
26618
26641
26616
26478
26313
26218
26109
25901
25705
25596
25462
25243
25067
25006
24929
24756
24610
24540
24436
24268
24128
24037
23896
23691
23526
23428
23311
23176
23140
23188
23170
23089
23084
23129
23091
23011
23006
23023
22971
22918
22967
23051
23057
23053
23124
23172
23106
23037
23083
23146
23122
23087
23118
23141
23086
23032
23026
22965
22787
22621
22539
22428
22247
22100
22010
21881
21718
21624
21582
21468
21302
21223
21195
21081
20932
20871
20841
20737
20598
20498
20391
20215
20031
19931
19856
19699
19543
19496
19441
19278
19126
19068
18996
18854
18766
18802
18833
18758
18658
18612
18548
18412
18288
18214
18089
17912
17825
17826
17771
17668
17645
17697
17721
17753
17909
18152
18365
18576
18887
19271
19651
20068
20606
21211
21761
22284
22864
23415
23839
24227
24668
25070
25366
25642
25946
26191
26310
26384
26477
26512
26444
26349
26268
26120
25896
25721
25611
25448
25233
25079
24972
24793
24583
24472
24404
24244
24033
23888
23772
23577
23344
23168
23009
22782
22562
22466
22432
22376
22363
22455
22547
22543
22533
22613
22690
22698
22732
22842
22918
22902
22894
22952
22986
22973
23009
23104
23154
23140
23158
23183
23109
22972
22885
22839
22745
22618
22548
22504
22388
22251
22176
22103
21947
21784
21706
21647
21528
21404
21340
21271
21127
20997
20964
20924
20780
20637
20579
20493
20327
20206
20163
20096
19970
19871
19828
19774
19676
19595
19538
19421
19276
19220
19215
19121
18959
18856
18795
18668
18520
18475
18507
18505
18499
18595
18767
18928
19128
19450
19819
20154
20557
21121
21727
22250
22762
23330
23837
24222
24611
25062
25443
25681
25886
26138
26327
26391
26448
26533
26539
26454
26399
26393
26328
26215
26159
26130
26025
25872
25758
25642
25441
25206
25020
24842
24599
24360
24226
24116
23914
23701
23584
23486
23322
23174
23118
23065
22933
22825
22817
22802
22732
22726
22821
22897
22921
22984
23096
23167
23187
23255
23360
23390
23365
23394
23451
23420
23336
23306
23298
23214
23094
23048
23046
22970
22843
22772
22705
22551
22383
22297
22215
22042
21868
21779
21686
21532
21424
21418
21392
21272
21145
21073
20981
20820
20671
20576
20455
20285
20170
20136
20083
19999
19984
20006
19944
19840
19806
19792
19680
19514
19411
19312
19131
18964
18914
18892
18790
18678
18650
18628
18514
18393
18361
18346
18282
18274
18406
18572
18693
18885
19247
19682
20107
20588
21146
21687
22180
22699
23247
23725
24140
24597
25069
25424
25679
25957
26246
26427
26519
26647
26803
26880
26885
26912
26936
26878
26801
26787
26747
26591
26420
26336
26265
26121
25983
25916
25822
25638
25472
25389
25299
25140
24997
24923
24841
24698
24578
24523
24421
24250
24147
24134
24091
24010
24001
24063
24091
24106
24199
24315
24335
24306
24337
24385
24361
24335
24409
24503
24504
24465
24477
24463
24354
24268
24280
24274
24181
24124
24161
24167
24072
23963
23902
23802
23604
23418
23315
23202
23035
22898
22825
22725
22574
22476
22422
22294
22122
22042
22021
21915
21755
21657
21595
21459
21292
21225
21199
21083
20945
20905
20884
20771
20628
20562
20520
20402
20276
20244
20224
20119
20022
20008
19978
19859
19742
19698
19647
19549
19471
19438
19364
19253
19246
19340
19427
19550
19805
20157
20505
20889
21399
21970
22483
22976
23536
24098
24557
24965
25430
25885
26215
26487
26810
27105
27269
27388
27561
27681
27678
27683
27756
27784
27716
27634
27607
27549
27394
27254
27179
27053
26852
26697
26620
26517
26374
26293
26260
26149
25980
25862
25782
25663
25533
25471
25434
25311
25139
25041
24984
24867
24776
24814
24886
24864
24818
24846
24873
24817
24783
24865
24945
24922
24899
24969
25037
25023
25022
25097
25125
25038
24962
24957
24911
24801
24752
24772
24750
24693
24691
24691
24572
24392
24279
24191
24020
23817
23702
23632
23492
23325
23230
23136
22947
22764
22708
22672
22530
22371
22284
22185
22002
21845
21799
21741
21608
21509
21496
21475
21394
21340
21336
21265
21116
21011
20980
20909
20772
20696
20687
20616
20509
20477
20457
20335
20180
20125
20130
20071
19971
19916
19855
19701
19523
19429
19362
19236
19133
19142
19153
19079
19036
19124
19243
19302
19403
19635
19911
20176
20521
20982
21454
21885
22359
22901
23412
23864
24349
24866
25292
25646
26050
26445
26702
26877
27078
27256
27321
27328
27369
27400
27335
27229
27184
27149
27036
26900
26817
26715
26522
26325
26213
26111
25945
25803
25733
25650
25507
25387
25332
25253
25122
25031
24990
24905
24766
24657
24606
24558
24501
24491
24520
24491
24413
24390
24416
24414
24395
24435
24502
24487
24424
24420
24438
24381
24312
24332
24365
24318
24265
24269
24244
24123
24007
24002
24010
23914
23793
23736
23670
23541
23426
23363
23279
23157
23077
23043
22947
22773
22620
22500
22339
22163
22068
22018
21900
21752
21681
21638
21509
21343
21254
21202
21083
20953
20914
20893
20793
20682
20647
20602
20469
20346
20321
20296
20190
20082
20043
20005
19901
19803
19770
19721
19609
19526
19510
19443
19299
19190
19121
18998
18834
18753
18744
18678
18588
18578
18614
18606
18597
18700
18862
18994
19165
19471
19851
20200
20572
21040
21530
21964
22408
22919
23393
23749
24086
24476
24818
25051
25264
25513
25706
25790
25858
25945
25949
25850
25783
25773
25719
25609
25521
25466
25351
25173
25042
24938
24754
24540
24397
24295
24139
23961
23875
23832
23719
23589
23530
23480
23346
23199
23151
23132
23037
22964
22994
23001
22892
22784
22774
22789
22772
22803
22916
22981
22935
22909
22968
22997
22960
22968
23042
23076
23052
23071
23111
23062
22967
22935
22913
22795
22640
22550
22475
22336
22188
22109
22034
21877
21695
21594
21504
21319
21139
21066
20991
20819
20648
20546
20412
20191
20004
19927
19859
19731
19628
19609
19581
19495
19454
19472
19434
19348
19307
19296
19225
19093
18995
18922
18780
18622
18579
18593
18527
18417
18373
18348
18236
18106
18068
18053
17949
17808
17720
17639
17516
17448
17489
17537
17523
17543
17678
17854
18020
18280
18672
19070
19425
19860
20400
20906
21350
21854
22414
22880
23247
23652
24096
24458
24748
25070
25380
25548
25624
25734
25837
25841
25801
25808
25807
25702
25544
25454
25391
25257
25120
25062
24994
24837
24694
24646
24603
24478
24354
24315
24254
24092
23934
23827
23697
23527
23387
23313
23248
23173
23163
23196
23163
23098
23109
23164
23158
23117
23142
23211
23235
23243
23333
23443
23444
23395
23407
23409
23316
23218
23203
23189
23086
22986
22973
22962
22894
22847
22857
22830
22724
22640
22625
22589
22479
22381
22337
22241
22078
21961
21898
21781
21614
21504
21444
21328
21168
21081
21039
20916
20754
20677
20635
20521
20393
20334
20284
20147
19980
19891
19812
19654
19510
19466
19427
19321
19227
19215
19209
19130
19055
19045
19014
18921
18863
18863
18814
18690
18604
18598
18573
18490
18420
18385
18331
18262
18255
18275
18197
18053
17956
17889
17768
17647
17643
17706
17731
17762
17899
18125
18366
18674
19134
19648
20090
20535
21075
21631
22116
22608
23183
23727
24135
24505
24923
25279
25514
25740
25994
26164
26224
26292
26396
26443
26436
26466
26531
26537
26484
26474
26482
26396
26269
26216
26165
26013
25831
25723
25629
25453
25266
25185
25124
24962
24798
24735
24667
24521
24399
24363
24302
24166
24076
24084
24078
24014
23995
24071
24164
24204
24258
24378
24454
24448
24485
24572
24586
24553
24598
24685
24687
24623
24591
24578
24503
24400
24364
24349
24245
24109
24037
23964
23823
23692
23633
23559
23393
23244
23207
23165
23003
22824
22732
22617
22401
22216
22148
22077
21921
21781
21720
21640
21489
21390
21362
21283
21158
21095
21083
20995
20835
20743
20724
20648
20513
20430
20369
20238
20104
20046
19988
19854
19744
19757
19810
19776
19710
19712
19690
19558
19425
19385
19341
19205
19071
19015
18937
18776
18653
18626
18591
18501
18433
18407
18346
18227
18142
18129
18086
17998
17994
18093
18200
18327
18575
18932
19280
19636
20120
20678
21157
21606
22145
22682
23117
23551
24053
24525
24897
25244
25609
25896
26039
26150
26317
26453
26495
26512
26556
26551
26470
26413
26426
26413
26314
26190
26076
25921
25732
25584
25457
25270
25068
24947
24871
24724
24536
24432
24367
24206
24010
23913
23865
23757
23643
23616
23610
23517
23405
23388
23416
23406
23422
23511
23558
23501
23451
23491
23545
23527
23501
23541
23560
23502
23464
23479
23453
23381
23359
23383
23326
23196
23127
23106
23035
22927
22857
22790
22641
22470
22378
22326
22214
22066
21983
21911
21748
21579
21499
21415
21223
21014
20887
20766
20586
20445
20407
20345
20185
20052
20013
19952
19826
19720
19655
19560
19422
19340
19332
19295
19214
19167
19136
19027
18875
18814
18803
18699
18551
18485
18457
18362
18243
18193
18158
18043
17902
17821
17745
17606
17495
17488
17489
17426
17401
17506
17660
17800
18041
18434
18861
19241
19645
20124
20576
20966
21403
21912
22383
22788
23211
23648
23990
24241
24509
24779
24955
25055
25160
25233
25195
25107
25077
25073
24997
24876
24805
24732
24555
24335
24183
24052
23856
23676
23582
23469
23273
23087
22974
22845
22629
22418
22292
22177
22004
21868
21849
21837
21753
21684
21679
21650
21570
21539
21571
21569
21536
21562
21622
21620
21587
21629
21723
21766
21783
21867
21970
21988
21949
21952
21973
21931
21871
21873
21870
21761
21611
21508
21385
21190
21031
20968
20899
20763
20637
20557
20434
20233
20063
19977
19874
19715
19583
19496
19373
19209
19095
19026
18895
18703
18571
18505
18392
18249
18170
18112
17975
17819
17756
17721
17619
17510
17486
17465
17346
17225
17203
17194
17101
16999
16974
16953
16873
16831
16902
17007
17109
17319
17687
18097
18464
18866
19363
19853
20293
20771
21294
21766
22186
22637
23076
23399
23648
23916
24166
24325
24455
24641
24835
24932
24946
24968
24969
24875
24755
24698
24641
24501
24342
24241
24110
23876
23650
23521
23388
23179
22994
22906
22809
22626
22448
22334
22210
22051
21943
21912
21872
21805
21799
21845
21839
21802
21840
21922
21954
21973
22068
22187
22238
22261
22338
22433
22476
22512
22598
22657
22628
22601
22645
22680
22629
22582
22629
22669
22609
22534
22528
22514
22423
22366
22408
22439
22399
22361
22347
22294
22199
22147
22133
22050
21907
21815
21776
21691
21580
21553
21554
21467
21352
21310
21299
21207
21075
21015
20962
20816
20666
20623
20611
20534
20481
20558
20667
20721
20846
21118
21434
21722
22069
22551
23078
23561
24058
24624
25157
25589
26033
26521
26931
27242
27579
27954
28230
28422
28655
28888
28988
28993
29039
29103
29071
28984
28961
28945
28815
28640
28529
28414
28211
28000
27881
27780
27589
27374
27231
27088
26887
26715
26608
26451
26202
25981
25853
25732
25559
25440
25418
25350
25204
25127
25133
25097
25020
24990
25003
24966
24894
24897
24930
24885
24828
24867
24938
24911
24817
24771
24731
24613
24511
24519
24522
24410
24270
24203
24141
23997
23846
23771
23679
23506
23344
23261
23171
23007
22875
22825
22737
22575
22460
22421
22321
22121
21934
21802
21637
21436
21317
21285
21207
21091
21040
20996
20839
20634
20522
20477
20380
20260
20231
20250
20222
20206
20285
20383
20436
20562
20863
21232
21561
21934
22447
23027
23577
24151
24806
25433
25954
26456
26988
27479
27896
28293
28667
28938
29110
29281
29450
29521
29524
29575
29660
29683
29662
29686
29711
29637
29521
29479
29447
29313
29149
29074
29017
28861
28668
28530
28384
28153
27936
27833
27757
27621
27511
27496
27464
27353
27273
27278
27255
27135
27024
26987
26932
26821
26755
26757
26725
26660
26687
26792
26823
26799
26854
26951
26984
26995
27075
27160
27134
27057
27050
27049
26938
26790
26718
26657
26505
26345
26281
26223
26077
25941
25895
25819
25641
25493
25438
25343
25135
24919
24785
24678
24524
24375
24272
24121
23907
23767
23716
23628
23496
23417
23378
23281
23147
23095
23085
22982
22833
22756
22704
22596
22478
22414
22355
22244
22144
22114
22062
21896
21712
21625
21554
21399
21276
21287
21314
21274
21258
21339
21446
21529
21696
22019
22381
22716
23132
23671
24229
24778
25390
26023
26541
26960
27416
27911
28332
28675
29027
29350
29552
29687
29863
30029
30086
30101
30171
30238
30216
30160
30167
30161
30029
29853
29754
29663
29482
29299
29207
29126
28998
28900
28855
28777
28636
28497
28403
28266
28059
27893
27787
27649
27482
27381
27338
27261
27153
27103
27092
27029
26946
26953
27008
26993
26951
26975
26992
26917
26841
26851
26883
26852
26814
26845
26859
26777
26697
26695
26674
26555
26433
26376
26287
26119
25984
25942
25884
25748
25634
25581
25480
25306
25168
25084
24953
24791
24702
24656
24532
24354
24240
24157
23993
23802
23696
23617
23452
23259
23158
23109
23000
22884
22856
22824
22694
22562
22521
22463
22308
22187
22174
22136
22004
21910
21903
21848
21691
21542
21466
21393
21283
21206
21162
21046
20871
20762
20695
20558
20392
20314
20288
20188
20038
19965
19952
19885
19795
19771
19753
19642
19501
19432
19380
19267
19191
19246
19333
19366
19444
19648
19873
20051
20315
20731
21161
21516
21876
22291
22669
22992
23373
23812
24197
24534
24899
25234
25429
25524
25662
25859
25987
26044
26142
26241
26233
26185
26219
26274
26228
26125
26068
26025
25911
25774
25712
25662
25518
25354
25284
25241
25125
25006
24965
24920
24810
24722
24699
24662
24577
24536
24571
24562
24442
24322
24260
24170
24053
24031
24077
24051
23969
23960
24015
24017
23976
23998
24046
23996
23915
23926
23961
23932
23900
23927
23933
23835
23717
23688
23675
23590
23511
23511
23477
23315
23146
23057
22949
22759
22593
22522
22437
22272
22145
22115
22067
21953
21872
21837
21726
21543
21434
21392
21291
21156
21098
21085
21002
20877
20814
20788
20699
20575
20524
20518
20448
20344
20284
20200
20031
19905
19902
19898
19806
19715
19707
19688
19584
19510
19526
19492
19335
19180
19122
19051
18896
18789
18771
18697
18540
18415
18342
18241
18114
18046
18026
17951
17831
17778
17768
17693
17600
17609
17668
17653
17623
17699
17829
17930
18072
18332
18616
18835
19109
19515
19904
20158
20379
20684
21002
21243
21495
21823
22105
22283
22463
22692
22869
22951
23048
23179
23220
23173
23146
23135
23071
22987
22962
22965
22893
22762
22695
22680
22593
22478
22463
22488
22444
22381
22375
22362
22243
22097
22055
22030
21895
21753
21724
21701
21589
21483
21477
21482
21401
21334
21362
21379
21344
21372
21496
21608
21654
21701
21759
21742
21665
21642
21658
21585
21464
21442
21475
21434
21356
21364
21411
21373
21294
21274
21274
21207
21119
21092
21080
20989
20867
20806
20758
20631
20495
20443
20384
20244
20130
20115
20082
19940
19801
19753
19702
19603
19532
19505
19435
19313
19246
19221
19119
18965
18877
18813
18659
18474
18389
18358
18270
18199
18233
18274
18210
18100
18063
18057
17984
17919
17947
17959
17841
17690
17608
17531
17408
17320
17318
17314
17249
17195
17181
17123
16992
16876
16835
16777
16656
16568
16530
16453
16355
16340
16386
16382
16341
16372
16458
16506
16563
16734
16965
17158
17369
17680
18034
18330
18596
18922
19276
19577
19875
20233
20559
20772
20959
21184
21335
21356
21377
21485
21589
21609
21598
21606
21569
21466
21419
21450
21437
21369
21338
21317
21218
21077
21009
20996
20916
20800
20764
20756
20665
20540
20498
20495
20425
20332
20312
20310
20243
20196
20252
20312
20279
20246
20295
20348
20324
20297
20351
20419
20436
20473
20561
20588
20508
20430
20435
20443
20409
20425
20498
20512
20471
20470
20500
20457
20346
20287
20279
20226
20141
20118
20123
20039
19901
19829
19795
19691
19549
19473
19422
19287
19137
19082
19044
18924
18808
18784
18752
18635
18538
18546
18568
18509
18436
18418
18383
18277
18190
18147
18070
17973
17954
18003
18003
17962
17971
17987
17912
17776
17687
17638
17553
17471
17474
17494
17396
17248
17179
17134
17015
16883
16844
16835
16750
16669
16679
16686
16596
16518
16540
16554
16496
16469
16547
16640
16673
16758
16978
17220
17420
17659
17979
18292
18549
18827
19150
19438
19686
19994
20334
20570
20701
20840
20982
21052
21094
21198
21324
21367
21358
21381
21368
21232
21073
21012
20980
20886
20799
20764
20704
20573
20451
20388
20305
20160
20041
20007
19977
19886
19792
19731
19651
19548
19489
19483
19441
19351
19304
19292
19238
19177
19190
19250
19284
19319
19425
19542
19562
19544
19612
19720
19751
19744
19797
19844
19784
19701
19696
19695
19618
19545
19553
19553
19476
19418
19432
19416
19319
19240
19216
19144
18988
18863
18816
18742
18614
18527
18499
18425
18296
18232
18215
18118
17985
17944
17955
17906
17836
17842
17867
17788
17657
17595
17563
17475
17383
17360
17340
17260
17189
17199
17214
17154
17104
17122
17092
16958
16864
16871
16839
16706
16580
16513
16422
16299
16237
16231
16183
16084
16018
15994
15935
15866
15882
15967
16023
16058
16191
16407
16584
16762
17057
17407
17703
17998
18377
18772
19086
19363
19679
19975
20176
20352
20577
20765
20841
20905
21041
21166
21209
21249
21321
21334
21268
21218
21202
21138
21001
20895
20860
20818
20776
20803
20844
20795
20690
20630
20592
20495
20392
20376
20391
20326
20221
20174
20143
20062
19982
19954
19935
19880
19858
19935
20013
19995
19967
20007
20030
19973
19939
19988
20030
20016
20024
20107
20182
20184
20180
20208
20204
20177
20202
20240
20177
20046
19974
19944
19862
19755
19721
19730
19684
19609
19585
19568
19501
19441
19452
19460
19362
19229
19163
19106
18995
18901
18881
18864
18775
18687
18683
18674
18566
18423
18331
18236
18084
17973
17960
17947
17883
17842
17835
17783
17692
17659
17667
17614
17523
17484
17465
17381
17277
17247
17247
17180
17077
17030
17015
16946
16864
16849
16848
16770
16670
16633
16600
16484
16363
16337
16326
16242
16181
16236
16345
16434
16554
16760
16990
17202
17470
17822
18173
18480
18798
19151
19471
19753
20068
20394
20638
20826
21047
21275
21431
21552
21717
21874
21939
21954
22005
22061
22060
22040
22062
22074
21993
21883
21839
21785
21655
21548
21532
21519
21445
21400
21433
21434
21339
21230
21175
21109
21002
20937
20937
20912
20850
20855
20928
20951
20907
20889
20895
20856
20812
20842
20903
20916
20927
21016
21133
21177
21177
21236
21324
21341
21323
21356
21397
21371
21318
21290
21228
21084
20960
20944
20953
20894
20828
20801
20731
20583
20450
20386
20325
20238
20191
20188
20131
20017
19945
19926
19881
19812
19786
19779
19708
19594
19523
19476
19378
19261
19206
19176
19093
19004
18987
18976
18883
18784
18764
18748
18654
18556
18526
18477
18342
18241
18234
18205
18093
17993
17971
17940
17859
17827
17863
17843
17734
17664
17651
17572
17424
17327
17286
17208
17115
17106
17135
17061
16917
16857
16875
16866
16875
16997
17148
17223
17310
17526
17788
17987
18222
18589
18978
19290
19626
20058
20462
20759
21062
21448
21803
22037
22247
22501
22700
22794
22906
23089
23240
23311
23386
23466
23454
23386
23370
23382
23337
23253
23206
23163
23042
22909
22860
22824
22702
22553
22490
22463
22353
22214
22146
22088
21971
21865
21837
21796
21666
21572
21599
21625
21564
21523
21585
21647
21638
21671
21796
21892
21913
21952
22026
22049
22038
22097
22192
22201
22158
22180
22231
22207
22149
22165
22210
22167
22077
22046
22045
21958
21815
21744
21709
21596
21453
21377
21299
21137
20980
20917
20833
20656
20528
20533
20537
20441
20349
20328
20256
20076
19913
19841
19766
19641
19572
19575
19509
19363
19276
19256
19183
19072
19043
19062
19008
18925
18929
18957
18876
18741
18671
18610
18466
18336
18328
18350
18294
18230
18231
18199
18059
17911
17843
17754
17573
17417
17380
17382
17338
17326
17399
17428
17362
17354
17467
17596
17729
17970
18311
18636
18927
19278
19679
20020
20317
20681
21096
21450
21766
22136
22497
22743
22940
23183
23405
23509
23548
23612
23638
23551
23462
23484
23509
23424
23334
23349
23356
23247
23112
23047
22982
22853
22728
22660
22553
22363
22212
22140
22048
21922
21855
21825
21720
21577
21523
21537
21505
21458
21500
21566
21544
21496
21521
21555
21500
21437
21476
21543
21525
21498
21567
21632
21598
21571
21652
21736
21720
21699
21750
21784
21732
21675
21688
21690
21610
21532
21503
21425
21274
21168
21121
21032
20916
20877
20891
20834
20700
20608
20552
20427
20272
20195
20139
19989
19815
19759
19781
19745
19674
19652
19623
19511
19396
19363
19313
19172
19076
19101
19110
19011
18910
18889
18834
18693
18605
18628
18623
18520
18438
18431
18373
18230
18141
18137
18103
18074
18179
18364
18488
18586
18783
19060
19306
19545
19880
20263
20597
20930
21336
21752
22090
22415
22805
23164
23392
23571
23798
24003
24105
24189
24321
24407
24379
24341
24366
24353
24236
24116
24047
23941
23773
23651
23599
23512
23365
23242
23134
22959
22763
22657
22606
22485
22324
22228
22155
22017
21878
21849
21862
21797
21721
21735
21765
21717
21663
21688
21705
21641
21598
21662
21731
21716
21709
21782
21840
21827
21840
21928
21991
21984
21992
22026
21975
21836
21756
21746
21700
21630
21623
21631
21547
21416
21343
21287
21155
20989
20888
20812
20673
20522
20454
20397
20248
20085
20014
19955
19806
19651
19594
19551
19435
19323
19286
19241
19121
19028
19034
19035
18958
18899
18911
18891
18792
18718
18689
18599
18443
18321
18245
18131
17995
17953
17990
17985
17964
18061
18235
18362
18479
18700
19004
19294
19603
20007
20422
20754
21080
21487
21899
22244
22602
23041
23466
23795
24099
24435
24703
24833
24927
25067
25165
25162
25163
25226
25247
25192
25149
25136
25065
24939
24861
24820
24707
24543
24434
24348
24181
23985
23868
23782
23624
23456
23382
23349
23259
23158
23109
23046
22909
22793
22786
22809
22762
22722
22765
22787
22714
22670
22740
22815
22818
22836
22924
22996
23022
23086
23202
23254
23216
23199
23235
23235
23180
23142
23107
22983
22813
22716
22660
22534
22389
22336
22307
22195
22076
22041
22016
21907
21783
21741
21715
21602
21467
21403
21326
21155
21017
20995
20966
20838
20702
20655
20618
20508
20401
20350
20262
20111
20005
19965
19881
19743
19668
19649
19574
19462
19417
19405
19309
19165
19087
19035
18898
18727
18647
18616
18549
18527
18633
18780
18875
19006
19267
19568
19827
20134
20582
21065
21479
21906
22415
22910
23312
23712
24167
24582
24913
25233
25551
25796
25959
26132
26338
26474
26527
26599
26681
26682
26621
26586
26563
26474
26361
26301
26240
26100
25940
25847
25756
25581
25407
25326
25258
25105
24938
24835
24711
24496
24300
24215
24142
24004
23906
23904
23886
23782
23699
23712
23740
23729
23757
23842
23880
23872
23925
24027
24063
24036
24054
24115
24100
24015
23985
24001
23951
23867
23861
23908
23894
23833
23803
23756
23601
23417
23326
23263
23126
22990
22941
22883
22717
22553
22493
22437
22296
22181
22154
22092
21952
21855
21833
21775
21652
21558
21515
21416
21235
21091
21016
20910
20774
20717
20715
20653
20557
20518
20478
20339
20171
20099
20080
20010
19922
19889
19846
19700
19539
19476
19429
19314
19215
19194
19152
19024
18933
18943
18927
18829
18760
18778
18795
18764
18805
18968
19151
19336
19608
19975
20352
20716
21140
21628
22085
22518
23021
23559
24006
24390
24820
25257
25595
25873
26164
26413
26538
26612
26739
26853
26861
26838
26879
26916
26862
26782
26746
26679
26517
26341
26219
26089
25896
25714
25600
25470
25270
25088
24967
24822
24651
24560
24540
24488
24398
24354
24341
24257
24139
24101
24095
24004
23878
23842
23857
23803
23722
23733
23801
23812
23802
23858
23921
23912
23908
23982
24038
23993
23951
23996
24033
23991
23960
23989
23962
23818
23673
23612
23557
23450
23362
23322
23235
23091
22984
22915
22786
22616
22517
22456
22312
22119
21992
21897
21724
21509
21367
21272
21128
20982
20929
20893
20766
20623
20571
20540
20440
20357
20362
20331
20184
20044
19995
19938
19794
19662
19618
19563
19446
19364
19347
19301
19201
19140
19139
19099
19007
18967
18966
18893
18773
18726
18721
18642
18512
18432
18374
18255
18130
18091
18084
18024
17964
17968
17945
17823
17692
17630
17563
17433
17338
17354
17380
17357
17404
17588
17812
18019
18308
18733
19185
19599
20050
20560
21041
21471
21929
22415
22830
23183
23566
23952
24245
24478
24752
25033
25209
25312
25459
25609
25650
25638
25670
25680
25586
25463
25407
25351
25200
25027
24931
24833
24650
24489
24436
24394
24285
24190
24154
24070
23896
23747
23685
23606
23457
23344
23306
23242
23144
23125
23172
23157
23098
23130
23232
23260
23239
23309
23425
23457
23452
23519
23596
23590
23574
23637
23691
23655
23614
23657
23700
23636
23568
23599
23625
23549
23473
23468
23427
23299
23190
23146
23059
22876
22725
22665
22572
22400
22255
22164
22036
21878
21796
21750
21621
21464
21404
21396
21314
21194
21148
21111
20982
20840
20785
20729
20565
20375
20275
20212
20105
20027
20039
20035
19927
19823
19823
19829
19753
19702
19742
19746
19633
19511
19458
19374
19211
19090
19052
18994
18900
18874
18907
18859
18739
18682
18669
18580
18450
18406
18405
18323
18201
18152
18138
18063
17983
18004
18056
18030
18005
18102
18252
18361
18515
18809
19157
19471
19848
20352
20850
21250
21654
22127
22555
22877
23220
23650
24049
24355
24658
24988
25233
25379
25545
25716
25773
25755
25806
25901
25902
25842
25857
25905
25852
25736
25676
25643
25551
25445
25388
25298
25096
24898
24821
24759
24600
24446
24384
24308
24142
24001
23968
23932
23807
23702
23692
23679
23608
23576
23638
23693
23696
23745
23854
23903
23885
23919
23993
23994
23960
24031
24166
24230
24251
24316
24356
24270
24144
24097
24071
23967
23851
23827
23817
23716
23598
23553
23491
23332
23194
23173
23141
22997
22862
22829
22783
22641
22514
22462
22386
22248
22143
22087
21975
21806
21697
21651
21551
21406
21331
21289
21163
20995
20915
20891
20819
20746
20759
20775
20678
20538
20473
20418
20278
20158
20161
20173
20084
19988
19973
19939
19808
19688
19662
19622
19499
19399
19383
19347
19234
19148
19125
19077
18986
18943
18955
18911
18805
18745
18721
18628
18511
18502
18570
18592
18617
18798
19092
19359
19634
20025
20496
20932
21372
21886
22381
22769
23143
23604
24068
24430
24762
25147
25485
25689
25854
26061
26231
26310
26375
26458
26466
26373
26289
26258
26183
26035
25918
25864
25761
25608
25521
25487
25385
25233
25140
25069
24917
24742
24649
24578
24439
24291
24218
24152
24001
23842
23771
23714
23590
23490
23501
23534
23497
23483
23558
23609
23573
23571
23675
23767
23780
23810
23899
23951
23941
23969
24042
24055
24006
23997
24035
24019
23955
23943
23953
23875
23754
23706
23681
23556
23388
23291
23214
23066
22907
22827
22755
22602
22438
22354
22277
22121
21983
21945
21890
21731
21579
21520
21465
21358
21280
21267
21213
21067
20950
20911
20844
20721
20644
20631
20577
20477
20447
20461
20389
20266
20214
20198
20107
19972
19908
19878
19777
19659
19629
19632
19556
19457
19438
19437
19362
19280
19271
19255
19146
19039
19035
19047
18994
18969
19040
19113
19143
19246
19490
19782
20063
20410
20855
21290
21675
22111
22603
23042
23428
23863
24326
24701
25005
25346
25685
25910
26057
26231
26392
26453
26465
26525
26578
26545
26492
26494
26471
26345
26213
26164
26099
25917
25719
25604
25493
25317
25167
25108
25039
24900
24786
24737
24650
24487
24355
24281
24166
24012
23938
23943
23902
23829
23836
23894
23909
23921
24016
24130
24142
24108
24151
24223
24230
24230
24297
24353
24317
24267
24292
24322
24273
24223
24256
24282
24220
24157
24158
24124
23994
23876
23829
23762
23625
23506
23455
23379
23235
23121
23059
22953
22809
22729
22694
22589
22442
22367
22327
22210
22060
21987
21943
21823
21677
21609
21570
21462
21350
21331
21322
21220
21112
21097
21083
20979
20882
20877
20872
20782
20696
20694
20693
20619
20550
20545
20507
20387
20283
20236
20164
20061
20010
20004
19945
19866
19885
19987
20068
20162
20385
20700
20993
21292
21690
22123
22500
22888
23368
23861
24273
24665
25104
25504
25779
26024
26336
26625
26810
26984
27209
27386
27459
27534
27661
27742
27736
27722
27735
27693
27570
27466
27399
27282
27132
27035
26959
26808
26612
26471
26351
26159
25941
25809
25735
25618
25484
25414
25355
25228
25106
25078
25071
25007
24962
25013
25070
25064
25087
25203
25305
25325
25369
25512
25640
25666
25673
25731
25776
25767
25780
25841
25854
25802
25777
25780
25711
25574
25485
25443
25343
25206
25136
25105
25005
24875
24821
24795
24696
24569
24506
24455
24326
24176
24099
24033
23888
23742
23676
23601
23440
23287
23215
23141
23004
22904
22908
22909
22837
22783
22790
22748
22622
22528
22497
22432
22324
22276
22287
22241
22127
22060
22035
21948
21831
21793
21779
21669
21519
21450
21421
21342
21266
21270
21281
21197
21090
21053
21023
20926
20856
20919
21030
21104
21237
21506
21813
22083
22407
22841
23297
23728
24212
24765
25278
25711
26141
26577
26933
27223
27553
27904
28150
28307
28491
28678
28770
28805
28878
28953
28944
28895
28889
28871
28748
28588
28493
28406
28253
28126
28111
28098
27991
27878
27830
27743
27560
27393
27321
27246
27094
26956
26893
26821
26700
26622
26622
26594
26506
26451
26449
26418
26365
26382
26450
26472
26472
26549
26660
26687
26667
26709
26771
26755
26715
26744
26788
26756
26703
26701
26673
26553
26447
26442
26433
26318
26201
26175
26141
26023
25915
25886
25844
25722
25604
25536
25422
25226
25060
24968
24864
24723
24621
24560
24450
24309
24239
24214
24136
24042
24024
24020
23926
23798
23738
23689
23553
23408
23360
23337
23251
23181
23200
23217
23141
23042
23008
22970
22846
22727
22711
22706
22633
22579
22599
22585
22484
22399
22371
22316
22221
22166
22153
22080
21951
21883
21862
21772
21641
21574
21550
21470
21367
21349
21381
21356
21344
21471
21672
21841
22057
22411
22814
23176
23564
24058
24565
24995
25431
25948
26428
26793
27162
27607
28007
28288
28558
28872
29144
29325
29480
29629
29667
29602
29574
29599
29569
29482
29436
29410
29295
29153
29112
29103
28993
28840
28770
28734
28622
28505
28490
28499
28420
28316
28277
28222
28074
27936
27893
27858
27748
27666
27691
27713
27646
27597
27648
27704
27695
27706
27779
27810
27761
27748
27808
27834
27819
27871
27965
27969
27906
27912
27956
27914
27832
27839
27872
27789
27654
27613
27601
27491
27339
27252
27163
26974
26781
26691
26625
26497
26377
26324
26246
26092
25978
25964
25925
25778
25625
25548
25466
25321
25204
25159
25091
24966
24879
24845
24756
24614
24526
24477
24361
24212
24149
24143
24077
23981
23958
23964
23902
23830
23829
23823
23715
23589
23553
23522
23403
23295
23287
23271
23150
23041
23029
22999
22877
22779
22781
22769
22661
22555
22526
22468
22331
22229
22198
22123
21987
21910
21896
21829
21739
21752
21840
21887
21952
22179
22513
22819
23140
23569
24039
24452
24878
25415
25971
26423
26835
27297
27722
28017
28282
28613
28913
29087
29241
29455
29621
29668
29697
29762
29767
29676
29603
29601
29574
29483
29414
29366
29242
29064
28963
28933
28858
28757
28725
28711
28603
28453
28382
28345
28214
28030
27920
27850
27707
27562
27525
27497
27374
27278
27322
27374
27314
27255
27310
27389
27400
27429
27550
27658
27679
27704
27788
27834
27797
27791
27850
27851
27771
27721
27702
27607
27469
27423
27436
27364
27237
27192
27178
27068
26920
26855
26825
26735
26631
26579
26526
26405
26288
26252
26194
26026
25858
25799
25749
25602
25461
25419
25368
25229
25105
25064
25024
24925
24855
24854
24813
24702
24628
24607
24532
24401
24335
24319
24220
24059
23982
23976
23908
23802
23776
23788
23731
23652
23647
23648
23555
23444
23414
23389
23276
23154
23112
23069
22950
22850
22837
22811
22709
22637
22649
22623
22499
22396
22375
22338
22252
22221
22286
22358
22425
22595
22869
23130
23388
23763
24238
24684
25096
25568
26059
26459
26819
27249
27691
28047
28367
28712
29009
29186
29315
29490
29645
29687
29694
29754
29786
29722
29654
29660
29646
29531
29412
29369
29308
29177
29086
29077
29028
28889
28759
28675
28558
28406
28313
28271
28186
28082
28050
28050
27968
27841
27784
27754
27645
27502
27442
27443
27410
27366
27392
27436
27422
27425
27510
27595
27625
27687
27826
27930
27919
27898
27953
27997
27954
27912
27927
27904
27801
27712
27664
27574
27432
27339
27295
27176
26982
26838
26727
26543
26335
26245
26230
26151
26042
26007
25996
25905
25776
25696
25613
25470
25344
25297
25238
25085
24944
24910
24871
24730
24602
24572
24522
24370
24215
24150
24093
23972
23869
23847
23817
23727
23667
23648
23578
23460
23410
23425
23374
23259
23199
23183
23124
23053
23052
23073
23021
22928
22891
22871
22766
22643
22608
22602
22525
22431
22406
22371
22233
22094
22051
22016
21937
21949
22120
22307
22435
22636
22984
23377
23767
24231
24775
25255
25632
26030
26472
26860
27204
27602
28011
28280
28423
28573
28736
28828
28862
28937
29034
29060
29052
29099
29151
29098
28975
28883
28782
28602
28425
28321
28203
28005
27835
27776
27723
27597
27491
27477
27447
27333
27225
27159
27067
26940
26865
26849
26775
26645
26596
26624
26591
26520
26541
26602
26585
26549
26592
26663
26666
26643
26700
26793
26809
26797
26840
26892
26882
26872
26931
26974
26900
26788
26746
26714
26619
26545
26551
26526
26412
26313
26275
26205
26057
25903
25805
25684
25491
25336
25265
25184
25080
25037
25040
24976
24850
24768
24711
24587
24441
24372
24331
24219
24087
24024
23979
23865
23766
23771
23780
23677
23537
23477
23417
23263
23126
23109
23109
23030
22968
22983
22975
22901
22870
22915
22912
22821
22752
22727
22652
22534
22462
22427
22341
22242
22221
22210
22099
21954
21900
21882
21785
21666
21629
21628
21594
21591
21720
21936
22139
22378
22727
23110
23427
23771
24249
24745
25147
25546
26020
26464
26790
27090
27443
27758
27982
28210
28479
28686
28791
28901
29034
29087
29074
29073
29061
28976
28850
28767
28699
28550
28359
28236
28140
27979
27811
27737
27697
27601
27515
27512
27490
27372
27268
27256
27233
27114
26989
26957
26923
26806
26715
26720
26722
26660
26637
26717
26802
26828
26853
26914
26950
26943
26980
27054
27064
27037
27080
27159
27147
27074
27076
27113
27040
26893
26826
26824
26769
26702
26712
26711
26582
26408
26317
26258
26141
26047
26048
26033
25910
25768
25688
25571
25344
25128
25021
24916
24753
24659
24677
24666
24560
24463
24430
24361
24224
24138
24126
24066
23953
23913
23937
23890
23779
23727
23716
23640
23537
23511
23521
23452
23331
23275
23230
23098
22993
23011
23037
22965
22880
22870
22836
22692
22553
22534
22526
22435
22363
22355
22294
22128
21997
21982
21949
21824
21727
21700
21636
21522
21498
21600
21705
21810
22028
22316
22556
22791
23152
23598
23971
24305
24733
25206
25619
26025
26480
26908
27239
27549
27923
28279
28516
28720
28981
29201
29296
29376
29503
29577
29535
29462
29415
29316
29145
29015
28954
28855
28710
28632
28608
28497
28308
28199
28170
28096
28014
28016
28044
28007
27942
27929
27937
27868
27767
27747
27775
27749
27704
27731
27756
27669
27572
27593
27638
27605
27605
27717
27818
27814
27807
27895
27968
27935
27910
27965
27973
27882
27825
27852
27839
27743
27682
27674
27612
27503
27452
27457
27421
27346
27323
27334
27256
27102
26994
26898
26711
26516
26429
26365
26231
26120
26109
26081
25943
25803
25760
25722
25585
25451
25414
25364
25226
25108
25078
25033
24913
24825
24815
24774
24679
24629
24638
24615
24542
24510
24516
24438
24295
24229
24223
24138
24000
23954
23965
23901
23802
23784
23801
23741
23656
23646
23645
23552
23446
23429
23400
23266
23143
23130
23136
23072
23030
23094
23139
23093
23095
23214
23338
23414
23581
23914
24297
24653
25053
25505
25891
26220
26627
27084
27444
27730
28066
28432
28717
28943
29192
29416
29522
29577
29686
29772
29741
29675
29688
29713
29645
29581
29613
29610
29467
29323
29291
29252
29114
29006
29015
29008
28887
28761
28711
28628
28467
28359
28340
28280
28160
28119
28150
28093
27961
27914
27936
27890
27812
27836
27925
27941
27916
27961
28010
27971
27931
27998
28080
28068
28053
28138
28230
28222
28200
28263
28309
28234
28151
28148
28093
27916
27764
27714
27635
27460
27332
27329
27300
27181
27112
27106
27024
26885
26840
26841
26739
26577
26492
26451
26324
26163
26106
26086
25969
25815
25753
25714
25570
25390
25306
25252
25108
24979
24979
24992
24913
24841
24843
24795
24628
24494
24500
24520
24447
24380
24398
24400
24329
24288
24312
24273
24145
24060
24028
23915
23757
23707
23722
23655
23545
23532
23564
23506
23394
23340
23297
23156
22994
22949
22964
22938
22972
23176
23427
23594
23795
24159
24568
24891
25255
25752
26227
26582
26933
27357
27747
28048
28357
28695
28958
29124
29273
29428
29512
29520
29565
29632
29578
29453
29415
29419
29323
29169
29096
29075
28978
28839
28778
28739
28607
28458
28392
28318
28150
28025
28047
28074
27980
27878
27885
27893
27804
27718
27713
27668
27505
27363
27333
27307
27228
27201
27260
27290
27264
27298
27410
27485
27534
27671
27845
27904
27889
27946
28022
27978
27876
27859
27890
27860
27814
27843
27863
27769
27649
27612
27569
27404
27233
27173
27109
26941
26797
26772
26738
26596
26466
26433
26380
26217
26074
26028
25953
25802
25685
25623
25514
25373
25327
25346
25272
25136
25099
25128
25076
24975
24959
24989
24937
24855
24859
24869
24765
24631
24604
24600
24495
24391
24407
24422
24310
24207
24225
24231
24129
24042
24045
24022
23912
23843
23875
23869
23755
23662
23656
23614
23514
23497
23594
23689
23785
24018
24379
24717
25032
25427
25851
26176
26465
26846
27236
27497
27704
27994
28295
28485
28640
28878
29104
29191
29240
29369
29473
29464
29463
29547
29589
29493
29364
29301
29212
29027
28869
28814
28738
28585
28468
28422
28336
28196
28114
28078
27956
27772
27679
27659
27580
27470
27452
27474
27403
27301
27299
27326
27256
27164
27177
27226
27201
27176
27242
27304
27279
27295
27440
27561
27543
27519
27604
27699
27706
27713
27786
27804
27692
27574
27528
27463
27334
27248
27228
27160
27053
27030
27052
26975
26834
26759
26724
26607
26452
26398
26394
26289
26144
26085
26033
25871
25688
25614
25574
25446
25315
25288
25270
25167
25090
25119
25118
24994
24875
24862
24843
24743
24684
24731
24744
24654
24593
24597
24528
24364
24251
24211
24123
24006
23981
24003
23939
23833
23820
23853
23788
23666
23631
23636
23534
23390
23351
23355
23294
23269
23396
23568
23667
23807
24108
24443
24688
24964
25369
25767
26067
26410
26879
27327
27655
27966
28315
28590
28761
28964
29226
29411
29495
29593
29701
29710
29666
29708
29797
29795
29736
29744
29775
29714
29609
29572
29525
29354
29157
29082
29052
28937
28805
28758
28709
28557
28426
28433
28445
28352
28260
28255
28233
28115
28024
28042
28053
27994
27973
28027
28047
28015
28054
28171
28227
28208
28246
28327
28314
28238
28236
28275
28225
28137
28143
28191
28153
28082
28090
28116
28042
27938
27916
27894
27779
27686
27711
27729
27633
27528
27507
27466
27314
27160
27092
27004
26822
26657
26583
26502
26365
26275
26262
26202
26080
26011
25989
25900
25762
25706
25706
25622
25485
25432
25427
25357
25272
25272
25283
25191
25063
25014
24984
24889
24814
24847
24865
24748
24621
24606
24572
24414
24275
24272
24283
24203
24148
24196
24205
24095
24002
23993
23962
23877
23874
24005
24142
24262
24487
24792
25039
25261
25598
26011
26351
26640
27017
27450
27807
28136
28552
28976
29259
29484
29777
30036
30142
30201
30346
30483
30490
30475
30546
30587
30507
30431
30447
30434
30319
30225
30215
30166
30021
29909
29887
29828
29695
29604
29558
29429
29246
29161
29149
29077
28984
28987
29027
28963
28828
28771
28769
28688
28588
28602
28664
28647
28607
28650
28702
28678
28683
28778
28836
28774
28728
28798
28858
28809
28767
28804
28788
28668
28605
28652
28650
28543
28466
28478
28457
28372
28337
28336
28237
28068
27978
27935
27798
27610
27513
27469
27355
27219
27173
27150
27022
26861
26788
26727
26576
26429
26395
26371
26237
26110
26109
26098
25964
25833
25808
25776
25647
25535
25521
25488
25360
25261
25250
25202
25063
24955
24916
24828
24708
24688
24721
24650
24519
24485
24515
24460
24353
24328
24334
24239
24112
24092
24107
24010
23874
23827
23812
23746
23730
23862
24034
24154
24325
24629
24944
25187
25479
25892
26295
26612
26958
27390
27779
28057
28346
28690
28957
29123
29317
29543
29674
29738
29873
30035
30058
29988
29992
30024
29938
29791
29728
29696
29571
29429
29385
29357
29237
29101
29054
29023
28910
28808
28794
28736
28552
28396
28371
28349
28224
28098
28059
28005
27879
27825
27896
27933
27885
27881
27947
27959
27917
27950
28034
28026
27960
27992
28091
28108
28059
28081
28138
28096
28019
28040
28085
28018
27916
27921
27946
27867
27788
27818
27838
27740
27658
27696
27693
27540
27392
27362
27324
27172
27023
26961
26883
26743
26667
26695
26686
26602
26575
26605
26547
26394
26302
26287
26212
26082
26025
26012
25935
25860
25898
25971
25940
25862
25857
25848
25727
25607
25602
25615
25517
25405
25419
25453
25363
25251
25250
25250
25133
25020
25012
24971
24804
24640
24559
24448
24280
24201
24227
24211
24162
24238
24419
24543
24637
24865
25206
25508
25797
26205
26674
27065
27426
27870
28329
28672
28947
29272
29581
29756
29900
30132
30320
30351
30377
30520
30640
30625
30604
30671
30716
30653
30582
30578
30528
30375
30252
30213
30129
29958
29816
29735
29599
29421
29335
29309
29202
29049
28980
28961
28862
28732
28699
28700
28606
28480
28453
28461
28378
28286
28321
28402
28399
28397
28499
28585
28541
28493
28558
28613
28556
28519
28580
28600
28507
28433
28452
28454
28380
28339
28361
28322
28201
28126
28100
27991
27822
27737
27704
27581
27416
27344
27296
27134
26940
26853
26798
26647
26492
26466
26471
26372
26263
26246
26210
26042
25865
25815
25785
25655
25530
25504
25463
25337
25268
25326
25344
25239
25154
25153
25111
24989
24920
24929
24870
24721
24623
24583
24476
24335
24301
24328
24262
24155
24141
24161
24081
23968
23951
23935
23798
23659
23647
23641
23524
23438
23508
23608
23629
23688
23903
24176
24395
24656
25041
25425
25740
26111
26594
27065
27447
27831
28253
28575
28771
28993
29270
29460
29569
29734
29919
30000
30021
30118
30230
30215
30126
30090
30064
29944
29802
29761
29761
29676
29555
29508
29459
29307
29170
29156
29131
28982
28831
28780
28710
28538
28401
28399
28404
28317
28245
28249
28207
28086
28028
28071
28082
28038
28062
28148
28160
28111
28147
28239
28232
28173
28223
28328
28344
28328
28388
28445
28377
28274
28274
28308
28246
28148
28122
28085
27936
27786
27742
27691
27539
27418
27421
27410
27282
27146
27086
27008
26861
26768
26765
26710
26559
26448
26398
26284
26126
26058
26041
25929
25761
25692
25694
25616
25499
25486
25512
25428
25304
25271
25257
25135
24996
24970
24977
24895
24810
24830
24831
24681
24522
24488
24457
24335
24235
24239
24206
24043
23900
23883
23879
23805
23740
23724
23664
23561
23558
23645
23663
23629
23719
23935
24137
24339
24664
25050
25359
25656
26076
26538
26905
27236
27643
28058
28355
28600
28902
29152
29237
29303
29476
29640
29684
29716
29828
29897
29830
29758
29765
29732
29588
29457
29416
29345
29191
29076
29023
28898
28695
28551
28466
28313
28123
28035
28003
27889
27749
27717
27742
27703
27649
27679
27716
27632
27505
27474
27462
27368
27308
27399
27505
27467
27402
27463
27555
27558
27564
27671
27740
27679
27636
27678
27683
27596
27536
27553
27493
27319
27196
27165
27102
27013
27012
27047
26979
26853
26804
26779
26648
26482
26420
26384
26220
26004
25891
25813
25633
25427
25333
25278
25134
24998
24983
24965
24847
24774
24840
24887
24802
24710
24704
24655
24493
24362
24344
24309
24191
24107
24097
24028
23876
23784
23772
23706
23610
23631
23730
23750
23713
23749
23803
23740
23624
23599
23604
23506
23374
23344
23352
23263
23136
23093
23052
22922
22842
22947
23112
23206
23338
23605
23899
24143
24458
24911
25362
25725
26098
26531
26911
27193
27494
27828
28075
28252
28487
28747
28883
28951
29117
29324
29406
29415
29497
29592
29563
29469
29439
29404
29247
29071
29014
28984
28852
28710
28666
28610
28433
28259
28197
28127
27967
27829
27790
27740
27617
27537
27548
27526
27420
27358
27381
27375
27327
27344
27410
27388
27318
27371
27490
27499
27431
27445
27508
27482
27415
27445
27528
27531
27498
27552
27630
27603
27541
27573
27625
27575
27508
27526
27519
27394
27273
27248
27199
27063
26965
26944
26875
26721
26604
26555
26462
26312
26221
26192
26088
25910
25809
25795
25716
25584
25557
25599
25533
25395
25332
25301
25185
25057
25045
25056
24948
24795
24738
24711
24598
24508
24539
24543
24408
24268
24242
24225
24133
24073
24107
24101
23963
23827
23777
23704
23564
23478
23496
23481
23377
23316
23318
23250
23143
23158
23267
23314
23342
23507
23755
23928
24081
24371
24736
25038
25352
25796
26262
26600
26888
27260
27653
27961
28263
28644
28991
29188
29340
29571
29773
29828
29843
29908
29919
29824
29747
29751
29717
29594
29515
29522
29478
29333
29204
29118
28966
28780
28689
28645
28516
28341
28248
28187
28024
27838
27787
27783
27649
27468
27404
27383
27280
27181
27201
27234
27171
27136
27219
27288
27261
27259
27362
27456
27466
27523
27687
27803
27803
27813
27888
27905
27807
27717
27690
27619
27501
27469
27494
27430
27300
27232
27195
27059
26868
26777
26731
26583
26419
26379
26378
26269
26115
26057
26032
25904
25762
25749
25743
25609
25484
25485
25458
25311
25189
25181
25153
25023
24920
24904
24850
24713
24635
24652
24608
24486
24439
24452
24368
24203
24117
24096
24001
23875
23859
23885
23795
23663
23649
23689
23626
23512
23496
23504
23386
23227
23168
23119
22962
22825
22838
22874
22827
22858
23073
23315
23497
23771
24205
24634
24956
25305
25764
26204
26559
26953
27407
27770
28036
28351
28707
28959
29114
29318
29535
29610
29592
29640
29702
29636
29495
29438
29432
29325
29177
29128
29096
28937
28742
28664
28608
28435
28271
28258
28249
28104
27952
27904
27849
27715
27629
27651
27625
27467
27324
27279
27209
27071
26999
27034
27045
27004
27025
27101
27118
27100
27177
27303
27340
27343
27439
27558
27564
27524
27578
27667
27673
27671
27757
27814
27743
27670
27690
27670
27525
27402
27410
27406
27285
27168
27137
27067
26882
26725
26675
26590
26413
26267
26178
26030
25826
25711
25678
25565
25411
25381
25430
25398
25318
25326
25375
25322
25223
25220
25242
25153
25035
25024
25055
24982
24864
24817
24749
24580
24461
24485
24506
24397
24275
24265
24265
24176
