27286
27212
27233
27241
27339
27279
27302
27359
27277
27366
27409
27417
27479
27470
27516
27490
27599
27431
27582
27665
27540
27470
27581
27651
27551
27601
27570
27785
27587
27618
27697
27733
27716
27675
27846
27878
27695
27900
27792
27798
27836
27763
27889
27861
27902
27894
27829
27729
27835
27978
27893
27967
27873
27883
27978
27958
27990
28107
28090
28044
28101
28108
28190
28138
28296
28174
28058
28162
28087
28082
28235
28143
28103
28247
28284
28200
28273
28104
28134
28100
28254
28073
28139
28153
28288
28236
28248
28387
28216
28245
28412
28252
28171
28329
28417
28372
28148
28215
28290
28190
28057
28212
27957
28117
28039
27959
27935
27810
27796
27967
27885
27710
27755
27840
27687
27683
27665
27759
27679
27456
27572
27435
27440
27504
27338
27477
27590
27449
27548
27525
27484
27530
27700
27719
27634
27811
27826
27697
27681
27661
27916
27762
27842
27686
27766
27684
27839
27782
27780
27890
27857
27684
27876
27832
27775
27907
27836
27814
27790
27869
27975
28030
27858
28068
27821
28028
28032
28125
28053
28010
28137
28091
28020
28198
28082
27963
28130
28027
28208
28173
28207
28174
28080
28101
28196
28289
28271
28183
28327
28261
28272
28200
28285
28246
28239
28234
28252
28148
28232
28158
28353
28222
28282
28265
28407
28439
28310
28290
28297
28428
28429
28294
28448
28472
28415
28381
28382
28400
28363
28502
28471
28363
28429
28283
28116
28044
27971
27892
27858
27949
27796
27885
27813
27874
27694
27816
27792
27820
27653
27611
27730
27748
27763
27549
27638
27704
27626
27646
27589
27692
27763
27598
27644
27660
27651
27691
27680
27817
27875
27867
27893
27847
27838
27998
27894
27812
27889
27873
27944
28050
27918
28050
28001
27934
28005
28051
28092
28061
28051
28044
28105
28009
28141
28133
27963
28150
27982
28078
28084
28052
28178
28184
28083
28077
28176
28213
28271
28259
28293
28215
28361
28415
28297
28344
28278
28289
28141
28194
28336
28233
28146
28249
28194
28380
28324
28366
28395
28302
28497
28503
28360
28319
28336
28335
28372
28550
28355
28390
28335
28529
28418
28347
28529
28520
28551
28432
28590
28630
28623
28528
28659
28494
28469
28628
28451
28496
28434
28450
28421
28389
28307
28237
28227
28206
28147
28026
28124
28072
28073
27945
27887
27929
27861
27776
27962
27778
27752
27896
27842
27823
27724
27840
27784
27823
27856
27916
27861
27945
27899
27937
27777
27781
27757
27962
27787
27997
27989
28010
27935
28023
27987
28011
28064
28214
28113
28204
28173
28215
28148
28237
28141
28027
28213
28269
28076
28122
28283
28249
28351
28407
28301
28384
28269
28351
28349
28379
28302
28278
28395
28346
28383
28264
28299
28289
28311
28242
28240
28182
28295
28454
28302
28297
28271
28478
28345
28542
28403
28539
28513
28534
28526
28412
28528
28420
28623
28464
28636
28417
28462
28442
28572
28482
28516
28578
28650
28668
28639
28636
28588
28660
28639
28602
28540
28594
28492
28583
28451
28520
28424
28404
28527
28358
28381
28169
28286
28182
28149
28155
27938
27887
27986
27927
27848
27705
27655
27867
27717
27659
27751
27770
27763
27738
27609
27600
27616
27538
27572
27492
27532
27553
27580
27582
27436
27608
27716
27612
27767
27695
27818
27855
27838
27769
27847
27789
27888
27936
27891
27829
27912
27855
27894
27945
27963
28033
28084
28036
28026
28076
28143
28092
28260
28249
28035
28196
28263
28214
28183
28262
28228
28105
28248
28256
28207
28259
28283
28342
28316
28258
28336
28448
28244
28226
28481
28429
28501
28509
28531
28449
28541
28518
28490
28515
28489
28510
28442
28458
28577
28411
28451
28385
28543
28421
28518
28478
28495
28448
28478
28393
28578
28428
28527
28536
28590
28602
28511
28593
28556
28635
28488
28466
28504
28468
28238
28249
28151
28232
28122
28091
28042
28039
27921
27929
27937
27869
27863
27823
27804
27682
27772
27798
27734
27751
27706
27728
27638
27613
27630
27736
27700
27608
27753
27540
27538
27643
27617
27790
27784
27641
27808
27753
27756
27760
27685
27750
27847
27846
27878
27929
27863
27875
27806
27988
27895
28051
28041
27959
28119
28102
28124
28043
28072
28110
28144
28104
28136
28175
28055
28180
28165
28244
28153
28261
28310
28356
28332
28376
28346
28278
28461
28433
28525
28428
28506
28540
28386
28463
28603
28585
28385
28498
28437
28478
28570
28492
28510
28648
28564
28555
28676
28501
28635
28582
28689
28698
28800
28783
28626
28621
28591
28563
28663
28685
28783
28698
28781
28804
28714
28704
28773
28674
28880
28804
28843
28746
28746
28661
28476
28615
28464
28339
28302
28194
28171
28096
28126
28235
28018
28077
27982
28011
28039
28023
27998
27921
28023
27884
27945
27879
27784
27901
27805
27808
27836
27881
27950
27862
27898
27859
27916
27963
27920
27943
28152
28079
28040
28210
28202
28063
28231
28144
28208
28089
28309
28214
28314
28284
28206
28246
28246
28211
28232
28266
28464
28322
28288
28416
28336
28346
28476
28411
28387
28344
28422
28415
28392
28426
28312
28283
28362
28522
28397
28281
28396
28353
28438
28401
28450
28419
28372
28467
28398
28371
28334
28469
28465
28525
28540
28521
28401
28502
28342
28613
28446
28432
28642
28648
28638
28695
28577
28683
28717
28539
28539
28547
28514
28662
28537
28542
28643
28428
28484
28675
28644
28513
28552
28655
28692
28649
28633
28504
28426
28407
28484
28426
28295
28222
28154
28088
28107
28052
28060
27916
27914
27829
27955
27980
27892
27759
27689
27795
27714
27714
27729
27752
27711
27681
27597
27787
27767
27745
27706
27820
27683
27872
27920
27771
27787
27976
28016
28025
27942
27928
27978
27949
27987
27931
28118
28013
28204
28027
28166
28259
28225
28083
28217
28179
28252
28152
28100
28161
28267
28283
28210
28335
28177
28242
28362
28193
28220
28197
28424
28366
28267
28267
28441
28321
28345
28416
28484
28368
28455
28320
28386
28453
28566
28512
28510
28546
28625
28560
28460
28551
28669
28561
28672
28628
28608
28788
28694
28792
28670
28839
28780
28770
28873
28899
28736
28792
28781
28962
28797
28750
28857
28959
28867
28931
28818
28814
28998
28809
28849
28906
28845
28892
28818
28699
28585
28618
28512
28561
28509
28409
28353
28427
28273
28110
28172
28118
28055
27984
28057
28023
27969
27950
28124
28114
27894
28121
28031
28072
28043
28072
28108
28028
27997
28182
28139
28207
28053
28112
28229
28080
28250
28154
28306
28269
28309
28168
28361
28247
28282
28244
28151
28197
28249
28085
28106
28257
28155
28183
28167
28320
28374
28247
28212
28301
28358
28351
28282
28401
28373
28414
28315
28257
28341
28401
28281
28370
28333
28263
28334
28284
28326
28338
28516
28451
28492
28562
28625
28499
28523
28557
28536
28529
28619
28506
28579
28607
28709
28727
28606
28597
28615
28590
28587
28536
28620
28668
28594
28809
28808
28835
28647
28816
28713
28754
28775
28887
28704
28766
28803
28837
28672
28742
28613
28581
28721
28569
28365
28406
28295
28396
28238
28215
28189
28106
28110
28004
28093
28133
28025
28045
28061
28108
28141
28085
28114
28057
27944
28067
27957
28009
28072
27994
28079
28120
28142
27973
27902
28089
28134
28126
28107
28198
28288
28329
28183
28321
28325
28253
28404
28432
28284
28243
28488
28283
28365
28368
28340
28353
28292
28332
28301
28435
28300
28325
28494
28517
28363
28513
28346
28493
28334
28536
28489
28418
28452
28444
28436
28491
28459
28466
28443
28402
28410
28534
28497
28455
28576
28590
28642
28672
28559
28542
28530
28643
28657
28471
28581
28683
28440
28516
28451
28482
28560
28552
28519
28489
28553
28597
28519
28437
28539
28559
28553
28501
28611
28686
28594
28689
28669
28724
28838
28805
28735
28721
28832
28650
28632
28565
28583
28470
28291
28287
28250
28269
28159
28176
28107
28135
27985
27910
28043
27836
27955
28010
27790
27849
27813
27838
27882
27680
27883
27771
27862
27710
27765
27798
27651
27906
27769
27828
27765
27866
27873
27776
27797
27878
27872
27869
27852
27915
27953
27842
28013
27963
28045
27940
28084
27923
28059
27889
28099
27968
28115
28147
28114
28105
27996
28049
28144
28039
28155
28156
28104
28285
28179
28280
28250
28375
28319
28422
28326
28386
28262
28246
28268
28444
28275
28343
28350
28360
28349
28343
28270
28346
28286
28373
28302
28320
28250
28359
28328
28393
28453
28438
28459
28463
28427
28329
28471
28505
28468
28593
28508
28667
28635
28510
28649
28676
28494
28701
28509
28561
28671
28523
28756
28639
28581
28574
28699
28487
28570
28384
28349
28270
28197
28211
28163
28044
27897
28105
27921
27910
27839
27785
27873
27688
27833
27790
27751
27754
27746
27785
27708
27702
27690
27770
27826
27722
27760
27763
27626
27779
27707
27921
27713
27746
27798
27769
27812
27997
27947
27982
27993
27846
27918
28002
28046
28120
27904
27959
28103
27957
27945
28089
28012
27991
28017
28108
27971
28020
27980
28028
28146
28172
27949
28077
28133
27991
28068
27972
28104
28075
28189
28328
28237
28264
28272
28365
28384
28276
28435
28450
28391
28323
28575
28354
28553
28418
28575
28592
28474
28480
28448
28635
28400
28657
28515
28653
28657
28642
28519
28646
28572
28556
28513
28604
28512
28534
28511
28553
28573
28523
28623
28591
28572
28627
28658
28581
28750
28658
28579
28578
28554
28607
28567
28306
28396
28207
28287
28249
28241
28127
27914
27925
27841
27952
27924
27790
27893
27788
27695
27642
27798
27769
27661
27602
27716
27616
27590
27648
27497
27656
27681
27669
27716
27628
27703
27611
27658
27691
27824
27721
27747
27711
27757
27701
27847
27960
27897
27963
27790
27794
27839
27795
27743
27781
27875
27843
27973
27838
27924
27798
28029
27834
27962
28062
28038
28083
28118
28103
28179
27943
28151
28163
28140
28032
28141
28107
28047
28147
28146
28231
28119
28160
28175
28222
28219
28201
28322
28250
28149
28228
28208
28240
28113
28201
28267
28193
28173
28285
28126
28130
28208
28331
28314
28317
28259
28272
28301
28483
28380
28532
28558
28515
28459
28421
28387
28385
28434
28626
28626
28619
28540
28557
28621
28567
28429
28477
28313
28307
28334
28248
28162
28307
28082
28009
28065
28113
27949
27891
27970
27841
27844
27802
27987
27817
27924
27781
27809
27841
27852
27990
27882
27981
27912
27895
27961
27929
27923
27994
27954
28024
27937
28013
28137
28163
28134
28071
28167
28260
28252
28243
28234
28264
28314
28317
28324
28355
28412
28418
28416
28405
28491
28478
28526
28583
28640
28648
28518
28751
28772
28680
28574
28793
28867
28638
28704
28818
28711
28722
28887
28786
28807
28936
28774
28803
28848
28827
29040
28926
28948
29095
29036
29041
28952
28989
29107
29016
29053
29116
29055
29074
29117
29107
29155
28979
29205
29252
29158
29241
29205
29296
29275
29141
29231
29334
29294
29336
29251
29262
29327
29242
29201
29240
29132
29254
29226
29239
29075
29144
29165
29011
28732
28741
28658
28677
28575
28417
28530
28485
28262
28307
28427
28213
28174
28277
28359
28252
28180
28336
28323
28337
28387
28200
28156
28234
28257
28226
28176
28147
28363
28177
28139
28296
28181
28230
28247
28241
28259
28255
28297
28231
28287
28231
28315
28316
28339
28403
28388
28522
28347
28336
28496
28396
28306
28501
28303
28342
28453
28419
28523
28373
28327
28505
28544
28487
28359
28377
28467
28547
28410
28503
28500
28543
28524
28604
28478
28571
28619
28555
28607
28546
28578
28669
28745
28628
28736
28669
28704
28724
28766
28733
28625
28767
28699
28738
28718
28717
28686
28746
28717
28798
28709
28747
28795
28693
28849
28680
28752
28748
28913
28936
28920
28780
28930
28732
28937
28739
28835
28824
28635
28504
28672
28568
28327
28411
28342
28326
28202
28100
28147
28175
28011
27879
27941
27913
27889
27876
27795
27865
27763
27699
27772
27755
27595
27652
27659
27683
27730
27799
27814
27821
27791
27830
27743
27706
27808
27791
27893
27758
27915
27924
27845
27890
27945
28045
27927
27994
28065
27921
27991
28026
28102
28036
28087
28045
28193
28065
28034
28065
28025
28139
28215
28085
28108
28069
28199
28148
28181
28258
28243
28282
28330
28228
28182
28261
28213
28247
28230
28265
28267
28321
28413
28474
28397
28403
28423
28470
28449
28411
28546
28483
28436
28515
28460
28514
28520
28549
28539
28537
28533
28463
28570
28454
28570
28703
28617
28482
28542
28639
28681
28631
28744
28638
28783
28621
28770
28720
28770
28755
28728
28831
28653
28803
28593
28542
28649
28602
28494
28451
28391
28363
28268
28120
28178
28165
28018
27880
27959
27894
27900
27938
27952
27825
27862
27882
27772
27821
27735
27922
27927
27821
27905
27764
27840
27768
27701
27920
27818
27818
27930
27798
27874
27848
27806
28048
27916
28086
28005
27930
28069
27913
28082
28144
28115
28147
28136
28151
28052
28176
28147
28194
28239
28219
28320
28276
28185
28383
28241
28305
28213
28294
28278
28340
28388
28345
28241
28282
28236
28298
28331
28172
28304
28315
28388
28370
28254
28226
28247
28363
28300
28221
28295
28310
28374
28319
28347
28378
28497
28408
28354
28376
28486
28565
28486
28376
28482
28537
28501
28504
28489
28525
28596
28544
28562
28631
28591
28600
28679
28608
28587
28654
28668
28647
28569
28602
28652
28706
28695
28601
28504
28473
28503
28476
28482
28440
28234
28292
28110
28142
28158
27980
28045
27859
27877
27932
27887
27755
27675
27656
27649
27805
27851
27755
27680
27767
27680
27786
27809
27764
27770
27742
27824
27803
27678
27677
27740
27664
27728
27695
27817
27757
27720
27724
27797
27826
27771
27936
27958
27901
27900
27834
27941
27883
27844
27916
27847
27907
27880
27911
27812
27853
27948
27806
27844
27995
27948
27995
27906
27774
27974
27886
27777
27858
27913
27692
27923
27769
27798
27894
27928
28010
27905
27800
27910
27990
28091
28007
28175
28135
28013
28118
28030
28069
28061
28107
28075
28129
28132
28154
28157
28237
28157
28275
28268
28341
28221
28252
28202
28273
28257
28404
28438
28381
28357
28379
28521
28390
28483
28473
28342
28584
28414
28587
28477
28599
28557
28365
28465
28381
28376
28255
28329
28220
28109
28082
28132
28078
27936
27985
27950
27866
27797
27795
28013
27847
27959
27748
27714
27747
27729
27921
27733
27776
27726
27805
27770
27771
27892
28015
27957
28055
27998
28011
27995
27988
28203
28091
28204
28348
28301
28340
28291
28246
28349
28389
28259
28273
28378
28388
28468
28339
28278
28408
28477
28370
28555
28521
28415
28425
28477
28422
28508
28458
28505
28520
28569
28519
28473
28510
28488
28495
28647
28440
28478
28660
28504
28628
28760
28604
28744
28758
28806
28650
28784
28843
28810
28653
28793
28710
28765
28817
28747
28693
28740
28848
28770
28646
28803
28658
28869
28667
28827
28773
28788
28739
28866
28763
28888
28726
28705
28704
28817
28723
28766
28664
28799
28681
28863
28682
28838
28680
28779
28643
28725
28576
28639
28648
28542
28616
28530
28498
28506
28336
28210
28278
28408
28192
28165
28139
28095
28067
28085
28003
28074
27978
28123
27877
28018
27994
27842
27858
27866
27853
27957
28055
27934
28078
27991
27956
27902
27919
28093
28133
27957
28009
28126
27930
27975
28071
28188
28060
28111
28273
28061
28199
28154
28151
28248
28401
28238
28185
28271
28410
28284
28393
28323
28289
28389
28485
28388
28571
28399
28387
28451
28443
28423
28500
28469
28535
28551
28557
28544
28577
28613
28504
28439
28504
28575
28540
28716
28685
28659
28522
28606
28544
28658
28715
28637
28764
28642
28583
28578
28556
28637
28601
28697
28525
28721
28525
28646
28612
28659
28657
28663
28648
28588
28567
28711
28717
28619
28617
28565
28630
28618
28591
28666
28666
28538
28332
28387
28293
28362
28368
28197
28069
28048
27984
27947
28000
27809
27948
27839
27751
27602
27799
27784
27592
27538
27605
27556
27545
27590
27620
27527
27413
27572
27619
27542
27636
27598
27573
27648
27591
27682
27778
27719
27826
27646
27827
27801
27745
27839
27826
27900
27854
27866
27943
27838
27940
28110
27950
28022
28127
28146
28224
28057
28186
28254
28192
28195
28096
28300
28336
28170
28423
28239
28315
28388
28345
28234
28288
28383
28387
28420
28524
28547
28459
28330
28535
28445
28452
28477
28517
28559
28534
28561
28726
28669
28646
28567
28667
28632
28747
28755
28655
28794
28718
28889
28866
28809
28891
28936
28842
28889
28928
28916
28952
28982
28926
29043
28983
28999
29036
29046
28964
29010
28960
29065
28914
28992
28950
28977
29006
28828
28766
28843
28643
28606
28631
28656
28567
28421
28270
28259
28309
28348
28198
28092
28100
28167
28183
28043
28049
28194
28149
28027
28186
28083
28108
28026
27997
28028
27959
28061
28186
28109
28140
28046
28156
28194
28090
28162
28189
28304
28246
28323
28287
28391
28221
28315
28229
28320
28271
28305
28396
28346
28216
28224
28211
28417
28390
28328
28229
28338
28405
28186
28390
28234
28252
28265
28305
28384
28368
28238
28218
28333
28456
28487
28305
28374
28317
28424
28310
28443
28412
28359
28344
28381
28313
28547
28526
28501
28366
28492
28636
28599
28541
28559
28421
28489
28548
28607
28609
28654
28643
28725
28594
28698
28561
28534
28694
28537
28676
28813
28664
28603
28707
28786
28627
28768
28637
28806
28743
28777
28722
28649
28631
28602
28563
28488
28495
28405
28319
28259
28283
28251
28091
27962
28045
27918
27995
27984
27880
27930
27805
27837
27897
27834
27795
27823
27865
27826
27774
27755
27855
27844
27893
27848
27781
27933
27757
27811
27835
27943
27959
27943
28135
27923
27904
27995
28057
28176
28184
28151
28124
28103
28246
28363
28175
28281
28173
28267
28234
28302
28281
28436
28398
28483
28575
28547
28322
28515
28496
28436
28508
28580
28621
28632
28546
28673
28553
28535
28631
28565
28684
28531
28614
28617
28591
28763
28817
28779
28870
28760
28767
28850
28900
28883
28913
28919
28755
28874
28966
28762
28778
28906
28797
28767
28977
28889
28870
28768
28932
29000
28926
29062
28854
29065
29034
28928
28962
28970
28998
28939
28996
28934
28916
28913
28893
28906
28825
28860
28853
28726
28739
28635
28650
28489
28406
28477
28270
28296
28396
28256
28276
28175
28185
28166
28142
28080
28146
28210
28102
28012
28016
28005
28115
28084
27998
28093
28129
28093
28110
28079
28066
28085
28053
28073
28109
28116
28134
28134
28142
28242
28226
28314
28234
28231
28322
28359
28376
28348
28239
28326
28479
28343
28315
28380
28449
28404
28360
28446
28459
28474
28610
28452
28611
28550
28547
28809
28687
28797
28791
28917
28868
28897
28814
28816
28937
28845
28788
28827
28874
28910
28806
28905
28787
28929
28979
28947
28774
28896
29021
28972
28869
28879
29033
28922
29016
29028
28974
29007
29032
28913
28944
29135
29105
29036
28981
29077
28980
29011
29068
28994
29076
29149
29098
29169
28998
29123
29191
29072
29180
29165
28903
29047
28823
28927
28668
28692
28787
28678
28610
28605
28572
28353
28576
28336
28504
28365
28429
28255
28263
28365
28238
28254
28229
28308
28367
28350
28468
28355
28476
28422
28415
28445
28478
28469
28518
28498
28515
28699
28620
28766
28630
28669
28665
28646
28756
28601
28815
28767
28719
28835
28845
28769
28815
28803
28667
28741
28800
28804
28624
28807
28776
28779
28596
28636
28721
28857
28665
28714
28741
28670
28826
28649
28833
28900
28876
28759
28733
28783
28861
28888
28825
28865
28876
28951
28836
28885
28747
28924
28894
28887
28801
28826
28819
29022
28817
28961
29085
29029
28934
29017
29084
29101
28941
29060
29058
29140
29187
28967
29173
29044
29064
29006
29118
29092
29001
29190
29220
29156
29115
29192
29237
29187
29297
29195
29108
29235
29026
29062
29020
28851
29019
28923
28802
28687
28647
28574
28437
28502
28340
28250
28340
28435
28183
28326
28204
28401
28367
28266
28178
28252
28263
28318
28256
28263
28310
28326
28293
28402
28250
28429
28287
28459
28399
28493
28474
28475
28476
28456
28573
28541
28565
28597
28526
28640
28620
28509
28692
28744
28732
28683
28635
28606
28631
28781
28758
28783
28737
28725
28683
28687
28779
28684
28653
28825
28725
28593
28716
28744
28661
28772
28814
28724
28883
28858
28972
28777
28802
28967
29016
28991
28985
28965
29062
28944
29092
28986
29155
29140
28962
29120
29080
28973
29146
29055
29153
29250
29154
29101
29157
29293
29339
29113
29341
29124
29181
29281
29197
29379
29258
29307
29384
29249
29437
29218
29383
29231
29397
29264
29301
29291
29206
29199
29270
29184
29123
29114
28961
28867
28851
28676
28612
28653
28632
28596
28452
28392
28301
28372
28452
28224
28288
28266
28105
28322
28266
28231
28203
28272
28321
28272
28248
28264
28235
28280
28309
28368
28308
28451
28347
28436
28334
28348
28501
28463
28600
28467
28641
28620
28524
28712
28518
28607
28652
28798
28688
28702
28811
28737
28718
28861
28881
28636
28710
28900
28801
28876
28902
28842
28860
28832
28976
28878
28965
29093
29015
28997
28951
28961
29163
29187
29081
29080
29110
29030
29144
29006
29076
29147
29115
29192
29144
29132
29109
29253
29102
29340
29109
29238
29213
29244
29237
29254
29242
29193
29271
29165
29136
29200
29174
29347
29384
29309
29243
29349
29380
29402
29409
29451
29424
29430
29446
29466
29487
29535
29483
29442
29410
29423
29340
29200
29202
29033
29069
29107
29012
28978
28787
28699
28837
28772
28744
28706
28562
28709
28653
28528
28689
28556
28517
28625
28601
28713
28707
28585
28713
28719
28560
28771
28704
28615
28642
28755
28675
28675
28731
28736
28683
28821
28728
28908
28925
28791
28957
28992
28825
28885
28831
28906
28882
28903
28851
29020
28962
29060
28881
28974
28874
28825
28875
29022
28874
29049
29036
28856
29004
29127
28961
29073
29121
29157
29023
28996
29078
29009
29087
29159
29147
29059
29064
29207
29155
29172
29180
29166
29150
29127
29109
29107
29169
29154
29185
29167
29162
29162
29168
29232
29197
29144
29135
29278
29277
29174
29360
29321
29187
29364
29225
29406
29305
29453
29451
29307
29381
29284
29470
29448
29327
29349
29350
29268
29044
29211
28989
28977
28964
28937
28859
28587
28710
28574
28600
28471
28589
28496
28426
28427
28375
28460
28494
28328
28404
28319
28318
28279
28355
28316
28310
28477
28457
28283
28453
28454
28355
28276
28465
28305
28360
28398
28482
28486
28351
28565
28492
28477
28572
28537
28419
28540
28538
28568
28629
28564
28528
28567
28656
28505
28687
28528
28601
28544
28574
28515
28636
28740
28669
28691
28694
28567
28774
28821
28671
28643
28654
28732
28614
28626
28648
28864
28698
28824
28761
28779
28664
28855
28791
28735
28890
28708
28791
28761
28821
28882
28844
28785
28874
28743
28857
28823
28843
28860
28845
28835
28861
28847
28958
28923
28998
29037
29013
28842
28818
28913
28936
28981
28965
29017
28767
28843
28991
28940
28750
28639
28676
28701
28634
28396
28394
28416
28258
28149
28252
27926
27995
28008
27865
27865
27984
27801
27982
27913
27976
27921
27847
27878
27957
27861
27757
27836
27889
27858
27841
28035
27819
28068
27943
27894
27966
28069
27959
27903
28003
28008
28188
28142
28168
28199
28112
28208
28229
28163
28437
28251
28310
28271
28215
28298
28439
28326
28300
28265
28371
28244
28347
28255
28368
28361
28425
28484
28441
28462
28480
28379
28442
28597
28592
28591
28638
28511
28480
28650
28532
28619
28690
28544
28736
28646
28560
28742
28536
28608
28662
28673
28705
28640
28688
28701
28702
28774
28771
28694
28784
28802
28833
28694
28813
28690
28639
28837
28710
28806
28932
28756
28875
28850
28849
28853
28939
28838
28814
28767
28695
28791
28724
28678
28736
28527
28525
28477
28362
28443
28306
28091
28104
28233
27978
28125
28062
27828
28003
27785
27984
27879
27764
27760
27857
27785
27725
27871
27834
27787
27719
27912
27820
27812
27829
27799
27939
27816
27851
27979
27952
28029
28009
27980
27904
27994
28045
28159
28130
28070
28136
28184
28059
28179
28269
28165
28286
28305
28347
28218
28162
28298
28246
28192
28254
28282
28378
28384
28313
28253
28363
28423
28293
28301
28376
28401
28490
28413
28393
28393
28403
28405
28383
28528
28576
28432
28362
28562
28516
28603
28430
28571
28698
28695
28494
28709
28614
28476
28623
28654
28653
28715
28680
28859
28835
28735
28773
28827
28821
28794
28706
28820
28865
28799
28735
28800
28722
28877
28845
28798
28903
28840
28817
28965
28761
28784
28857
28682
28746
28613
28666
28586
28435
28331
28412
28302
28140
28220
28247
28167
28127
28074
28026
27887
27965
27932
27899
28017
28088
28033
27954
28004
27991
27893
27953
27828
27954
27811
27787
27978
27978
27982
27885
28049
27922
27849
28034
27998
28061
28181
28150
28094
28110
28143
28329
28235
28107
28223
28298
28216
28142
28279
28248
28222
28209
28381
28389
28447
28414
28437
28461
28304
28448
28450
28302
28494
28382
28360
28344
28338
28384
28339
28390
28419
28446
28362
28574
28488
28487
28495
28655
28640
28504
28604
28637
28630
28610
28695
28636
28789
28683
28602
28660
28576
28702
28671
28726
28689
28756
28884
28746
28762
28717
28773
28715
28645
28783
28649
28726
28741
28789
28858
28796
28820
28656
28717
28845
28721
28842
28811
28801
28654
28505
28713
28562
28396
28426
28417
28211
28147
28154
28246
28142
28038
27911
27877
27841
28018
28082
27975
27842
28017
27966
27978
27925
28034
27937
27983
27961
28021
27913
27933
28154
28014
28130
27973
28094
28270
28174
28204
28257
28256
28262
28333
28319
28366
28393
28358
28422
28400
28419
28439
28370
28424
28443
28521
28415
28459
28502
28302
28326
28471
28507
28529
28409
28493
28481
28523
28485
28520
28556
28516
28530
28533
28700
28549
28566
28571
28525
28609
28769
28703
28663
28722
28741
28744
28798
28803
28805
28829
28845
28903
28860
28920
28914
28889
28971
29028
28984
29036
29005
29009
28975
28890
29058
28933
29007
28995
29023
29194
28981
29053
29063
29080
29219
29069
29203
29200
29278
29247
29134
29126
29191
29041
28982
29109
28959
29126
29004
28758
28857
28844
28649
28629
28570
28620
28485
28485
28468
28469
28385
28307
28489
28429
28253
28417
28352
28349
28419
28411
28434
28333
28279
28501
28476
28326
28465
28405
28417
28348
28442
28470
28468
28481
28497
28528
28535
28514
28605
28664
28612
28644
28758
28690
28594
28767
28840
28701
28682
28909
28720
28887
28739
28853
28806
28985
28777
28976
28964
28919
28913
28822
28955
28954
29058
29012
28889
29034
29157
29100
29007
29022
29200
29033
29010
29109
29266
29218
29068
29259
29070
29232
29138
29175
29236
29076
29167
29068
29176
29111
29156
29069
29179
29180
29151
29250
29165
29234
29324
29250
29093
29243
29329
29297
29210
29254
29251
29346
29155
29388
29228
29313
29208
29228
29131
28982
28982
28985
28917
28955
28818
28813
28711
28603
28488
28508
28401
28307
28469
28425
28295
28206
28288
28301
28159
28296
28275
28268
28220
28315
28316
28291
28364
28314
28386
28379
28348
28470
28336
28242
28234
28347
28387
28464
28416
28364
28530
28332
28418
28639
28400
28505
28451
28634
28668
28533
28630
28636
28621
28644
28758
28625
28728
28753
28549
28701
28739
28616
28721
28819
28659
28896
28766
28886
28827
28914
28844
28846
28905
28797
28764
28899
28941
28788
28800
28943
29004
28930
28832
28866
29029
28866
28886
28837
29012
29007
28871
28903
29049
28925
29049
28913
28976
28898
28914
29072
29131
28999
28941
29037
29062
29135
29220
29206
28965
29088
29217
29108
29046
29065
29127
29024
28964
29131
29190
28959
28947
29073
28854
28736
28807
28880
28620
28579
28620
28565
28512
28386
28287
28403
28229
28168
28243
28204
28176
28324
28345
28288
28139
28260
28160
28239
28202
28320
28417
28267
28186
28266
28254
28213
28272
28239
28287
28362
28430
28414
28352
28484
28536
28355
28528
28475
28579
28553
28521
28534
28745
28620
28506
28631
28503
28630
28710
28669
28754
28700
28573
28740
28673
28666
28706
28817
28732
28745
28870
28704
28830
28727
28975
28961
28881
28878
28825
28765
28775
28853
28870
29004
28936
28977
28881
28924
29050
29031
29133
28943
29102
29077
29188
29183
29075
29113
29232
29190
29191
29153
29190
29076
29134
29155
29168
29157
29084
29189
29135
29277
29156
29228
29219
29311
29367
29256
29277
29415
29281
29405
29271
29340
29396
29192
29261
29181
29100
29132
28983
28899
28876
28834
28691
28559
28597
28494
28613
28426
28580
28411
28482
28513
28453
28438
28442
28343
28314
28382
28470
28412
28425
28412
28268
28266
28247
28354
28419
28501
28350
28444
28542
28434
28427
28537
28466
28503
28469
28537
28633
28613
28625
28574
28522
28596
28746
28659
28767
28701
28791
28701
28600
28756
28742
28803
28819
28778
28829
28678
28783
28895
28860
28702
28861
28763
28799
28721
28826
28793
28750
28886
28770
28943
28969
28813
28911
29019
28875
29033
28929
29006
28933
29052
28963
28997
29010
29130
29147
29097
29011
29240
29047
29057
29166
29151
29172
28971
29108
29279
29171
29074
29161
29186
29111
29169
29070
29262
29032
29144
29143
29154
29276
29230
29087
29109
29245
29074
29072
29081
28965
29056
28911
28850
28790
28925
28777
28789
28698
28472
28510
28554
28443
28508
28484
28430
28522
28413
28380
28395
28451
28400
28206
28389
28191
28221
28274
28249
28382
28388
28307
28300
28358
28249
28393
28447
28445
28506
28398
28581
28619
28479
28617
28517
28584
28505
28697
28697
28674
28614
28584
28723
28731
28636
28733
28755
28573
28645
28648
28659
28681
28795
28725
28759
28733
28734
28778
28744
28797
28894
28781
28903
28954
28834
28820
29006
28904
28989
28936
28907
28942
28964
29120
28928
29169
28995
28951
28962
28982
29142
29141
29120
28958
28997
29041
29119
29079
29200
29143
29145
29281
29271
29105
29298
29209
29105
29115
29189
29178
29173
29321
29197
29198
29261
29338
29239
29246
29197
29280
29223
29146
29239
29118
29122
28937
28897
28911
28886
28842
28816
28695
28671
28683
28667
28596
28435
28565
28379
28515
28374
28292
28522
28352
28364
28451
28381
28273
28444
28492
28409
28487
28407
28402
28440
28408
28470
28422
28325
28458
28379
28517
28414
28401
28487
28469
28459
28500
28540
28526
28517
28557
28547
28567
28658
28631
28557
28516
28622
28745
28621
28614
28651
28682
28670
28674
28693
28702
28689
28685
28756
28716
28721
28743
28753
28740
28769
28763
28740
28740
28690
28676
28842
28820
28726
28809
28822
28857
28862
28888
28827
28858
28900
28886
28927
28880
28903
28944
28985
28941
29048
29105
29035
28990
29039
28991
28989
29017
29049
29062
29099
29127
29123
29130
29132
29183
29123
29030
29067
29047
29015
28956
28870
28798
28706
28690
28621
28492
28493
28505
28509
28465
28255
28355
28305
28299
28258
28093
28225
28225
28073
28246
28167
28092
28088
28219
28124
28227
28234
28274
28152
28119
28310
28253
28335
28371
28213
28295
28289
28354
28427
28451
28455
28372
28354
28497
28629
28425
28654
28656
28596
28490
28618
28518
28575
28681
28684
28590
28647
28675
28582
28635
28600
28634
28727
28717
28554
28673
28783
28652
28821
28728
28828
28758
28773
28785
28755
28810
28752
28823
28732
28898
28809
28858
28867
28919
28871
28967
28920
29001
29000
28916
28862
28897
29008
28962
28902
28921
29035
28970
28852
29005
28913
29033
28945
29111
28928
29167
29020
29147
29024
29020
29020
29099
29038
28987
29031
29129
29030
28945
28958
29068
28889
28813
28764
28885
28677
28634
28585
28524
28568
28509
28338
28408
28420
28300
28401
28351
28229
28292
28381
28257
28316
28210
28325
28142
28198
28311
28332
28311
28164
28342
28312
28364
28189
28243
28280
28323
28326
28482
28384
28517
28426
28549
28528
28572
28508
28497
28562
28499
28595
28619
28589
28602
28565
28573
28552
28616
28548
28499
28572
28522
28560
28450
28501
28523
28542
28562
28605
28598
28505
28623
28562
28670
28739
28711
28679
28801
28736
28852
28751
28817
28831
28737
28736
28729
28762
28764
28790
28868
28837
28716
28751
28915
28772
28925
28886
28880
28991
28851
29069
28916
28933
28919
29017
28887
29068
28901
29000
28860
29043
29005
29069
28957
29025
29045
29062
29019
29141
29186
29061
28898
29008
28924
28809
28730
28841
28729
28677
28654
28640
28414
28370
28294
28375
28251
28098
28218
28210
28158
28061
28046
28194
28191
28075
28150
27992
28043
28139
28131
28128
28154
28038
28062
28065
28171
28292
28203
28261
28244
28363
28326
28258
28310
28403
28372
28279
28473
28543
28436
28518
28532
28598
28659
28602
28592
28710
28503
28547
28729
28716
28560
28674
28700
28764
28732
28589
28629
28701
28672
28633
28614
28768
28619
28624
28729
28772
28696
28701
28824
28695
28745
28698
28903
28712
28871
28863
28873
28833
28910
28849
28726
28868
28977
28910
28879
28894
28902
29015
28970
29060
28920
28967
29042
28928
28973
29122
28986
28929
29109
29009
29035
29144
28921
29110
28942
29069
29046
29156
29071
29127
29023
29108
29157
29095
29007
29058
29159
29056
28916
28830
28881
28853
28764
28650
28635
28598
28445
28431
28467
28252
28399
28373
28252
28266
28205
28282
28251
28290
28405
28255
28149
28183
28258
28198
28323
28266
28136
28362
28226
28362
28192
28352
28246
28281
28356
28205
28436
28466
28399
28435
28426
28557
28468
28436
28567
28539
28436
28538
28480
28575
28652
28577
28482
28584
28491
28539
28737
28571
28658
28570
28573
28709
28613
28670
28626
28564
28687
28567
28613
28689
28663
28600
28665
28685
28628
28594
28776
28647
28709
28626
28771
28676
28734
28698
28743
28595
28680
28629
28663
28594
28649
28656
28504
28657
28516
28501
28610
28732
28675
28676
28711
28633
28654
28850
28842
28743
28728
28789
28907
28863
28762
28884
28832
28913
28992
29046
28933
28991
29068
29090
29108
28924
28980
28813
28818
28637
28735
28705
28584
28494
28391
28492
28282
28255
28298
28174
28076
28062
28249
28081
28112
28043
27958
28018
27964
27987
27904
28045
27860
28032
27899
27988
28096
27954
28101
27952
28163
28216
28191
28223
28141
28288
28226
28172
28228
28479
28248
28480
28485
28514
28419
28486
28486
28487
28445
28526
28542
28626
28478
28574
28522
28530
28558
28582
28592
28614
28625
28629
28675
28636
28637
28694
28666
28572
28770
28796
28644
28805
28864
28862
28800
28776
28877
28956
28909
28929
28938
28985
28896
29015
28999
28898
29020
29063
28947
28864
29012
28891
29058
28891
29018
29096
29050
29046
29083
29099
29181
29136
29069
29087
29047
29097
29146
29113
29189
29110
29138
29211
29306
29199
29152
29195
29148
29341
29378
29396
29392
29440
29410
29453
29348
29407
29199
29189
29203
28936
28957
28906
28905
28766
28586
28715
28609
28579
28352
28430
28408
28551
28434
28500
28410
28542
28455
28410
28506
28437
28508
28367
28514
28363
28539
28507
28603
28634
28591
28676
28653
28667
28683
28674
28632
28732
28773
28740
28633
28787
28880
28815
28892
28787
28821
28923
28916
28893
28865
28885
28842
28936
29025
28945
28920
29025
28983
28992
28877
28846
28916
29000
28942
28983
28939
28971
29046
29053
28964
29071
29183
29169
29072
29128
29274
29224
29059
29232
29170
29136
29219
29117
29151
29255
29262
29236
29212
29077
29225
29230
29233
29248
29314
29247
29335
29377
29395
29297
29399
29326
29385
29408
29283
29396
29536
29509
29549
29442
29496
29551
29530
29554
29567
29419
29585
29554
29714
29604
29731
29786
29691
29636
29521
29522
29557
29431
29424
29279
29336
29274
29180
29059
29008
28993
28989
28949
28732
28685
28683
28747
28678
28631
28754
28808
28706
28722
28724
28519
28688
28663
28727
28755
28748
28710
28826
28706
28772
28693
28765
28757
28808
28804
28869
28844
29058
28911
29061
29054
29059
28970
29066
29141
29220
29035
29221
29114
29179
29242
29040
29254
29186
29154
29234
29073
29062
29079
29188
29109
29222
29160
29064
29206
29094
29242
29128
29315
29325
29359
29294
29148
29217
29205
29213
29359
29355
29402
29306
29281
29348
29327
29376
29324
29451
29333
29327
29394
29488
29457
29504
29455
29434
29488
29411
29438
29353
29489
29547
29539
29492
29617
29626
29624
29680
29544
29501
29605
29698
29579
29555
29555
29596
29623
29571
29777
29695
29531
29550
29548
29378
29324
29371
29222
29109
29081
28917
28936
28760
28747
28760
28721
28814
28651
28756
28733
28621
28743
28634
28510
28598
28458
28548
28447
28471
28386
28532
28490
28554
28540
28398
28463
28545
28567
28489
28509
28593
28610
28489
28531
28740
28676
28660
28616
28631
28594
28647
28854
28759
28643
28709
28918
28747
28825
28908
28920
28818
28788
29004
28927
28981
28974
29027
28974
28835
28947
28956
28978
29075
29084
28997
29057
29019
29123
29170
29053
28928
29233
29109
29070
29085
29110
29076
29034
29111
29034
29124
29111
29179
29118
29161
29151
29153
29160
29158
29180
29196
29160
29072
29307
29249
29205
29324
29196
29265
29367
29251
29213
29438
29267
29308
29405
29385
29322
29442
29256
29382
29439
29258
29369
29251
29404
29380
29357
29310
29372
29417
29290
29243
29058
29125
29055
28754
28807
28864
28695
28626
28651
28555
28514
28443
28353
28333
28322
28397
28408
28409
28427
28431
28433
28241
28363
28279
28223
28207
28243
28308
28399
28406
28304
28255
28305
28533
28342
28525
28363
28461
28471
28605
28519
28601
28613
28529
28668
28734
28611
28563
28639
28770
28744
28752
28667
28744
28726
28634
28761
28886
28779
28700
28853
28876
28890
28882
28884
29036
28942
28871
29026
28913
29056
28987
28950
28923
28942
28981
28941
28918
29040
29055
29068
29033
29171
29186
29005
29109
29041
29056
29188
29064
29152
29222
29095
29130
29212
29196
29062
29076
29208
29186
29241
29175
29186
29193
29302
29210
29298
29300
29211
29206
29372
29344
29351
29271
29332
29393
29298
29385
29244
29192
29233
29321
29267
29034
28999
29121
29056
28903
28860
28849
28710
28836
28698
28631
28493
28459
28588
28393
28354
28281
28315
28383
28277
28361
28245
28208
28375
28337
28341
28376
28285
28210
28360
28265
28409
28476
28385
28405
28360
28428
28502
28565
28557
28479
28530
28626
28576
28719
28525
28740
28637
28754
28772
28793
28782
28788
28841
28894
28734
28774
28741
28758
28882
28686
28778
28872
28770
28783
28903
28882
28800
28853
28799
28920
29029
28901
28854
28853
28818
29019
28949
28956
28973
29051
29055
28920
28886
29017
29006
29043
29114
29072
29009
29120
29103
29255
29097
29132
29257
29263
29224
29186
29102
29107
29101
29146
29126
29140
29290
29339
29308
29308
29237
29345
29206
29303
29341
29335
29222
29320
29304
29440
29395
29472
29430
29398
29368
29346
29365
29290
29228
29131
29037
29030
29039
28876
28893
28804
28796
28694
28634
28648
28517
28581
28432
28418
28432
28529
28441
28370
28444
28586
28449
28409
28406
28411
28608
28606
28636
28583
28454
28622
28532
28615
28670
28506
28681
28727
28728
28665
28668
28674
28689
28776
28829
28833
28806
28696
28859
28907
28761
28873
28875
28883
28918
28905
28952
28938
28845
28942
28907
28907
29000
28966
29001
28992
29118
28978
28914
28994
29016
29155
29184
29041
29236
29169
29189
29044
29255
29135
29227
29270
29159
29180
29187
29218
29215
29214
29366
29405
29367
29337
29407
29278
29431
29291
29457
29296
29188
29355
29269
29383
29374
29322
29365
29334
29352
29431
29320
29322
29391
29468
29444
29318
29496
29479
29400
29299
29508
29312
29387
29417
29212
29311
29227
29157
29002
29004
28950
28885
28677
28690
28718
28592
28491
28616
28489
28601
28590
28551
28329
28537
28439
28367
28399
28429
28360
28331
28286
28371
28261
28230
28409
28311
28375
28257
28239
28315
28458
28334
28378
28443
28489
28519
28614
28430
28541
28500
28559
28603
28680
28711
28635
28607
28679
28669
28651
28698
28808
28722
28728
28684
28817
28780
28666
28738
28726
28802
28655
28828
28757
28759
28742
28937
28853
28809
28990
28970
28895
28865
28904
28845
28934
28943
28892
28936
28997
28935
28986
28940
28989
28963
29017
29020
29013
29112
29096
29048
29058
29128
29142
29150
29127
29156
29159
29146
29087
29132
29162
29119
29148
29178
29082
29114
29099
29105
29108
29028
29133
29136
29069
28987
29130
29139
28941
28954
28892
28760
28839
28803
28700
28533
28517
28515
28464
28367
28299
28235
28284
28137
28204
28145
28119
28015
28089
28110
27927
28016
28096
27896
27959
27873
27963
27982
28032
27937
28040
28006
27930
28033
28082
28054
28058
28066
28217
28118
28125
28120
28160
28157
28223
28264
28235
28302
28280
28204
28340
28391
28265
28354
28408
28439
28264
28424
28319
28247
28406
28484
28509
28458
28466
28499
28470
28598
28571
28407
28575
28607
28584
28442
28552
28457
28578
28661
28612
28700
28617
28691
28588
28761
28752
28766
28699
28758
28702
28711
28742
28733
28709
28728
28738
28755
28733
28783
28804
28826
28857
28843
28850
28803
28804
28813
28823
28803
28808
28883
28854
28804
28859
28856
28868
28847
28849
28853
28845
28834
28824
28850
28849
28791
28760
28800
28613
28762
28632
28591
28583
28387
28337
28215
28166
28138
28058
28027
28047
27972
27833
27879
27887
27813
27847
27789
27787
27701
27721
27900
27782
27840
27794
27820
27767
27844
27795
27852
27813
27949
27895
27914
27982
27994
27932
27982
28046
28094
28071
28067
28126
28220
28130
28210
28241
28164
28149
28381
28218
28363
28268
28361
28336
28352
28375
28429
28362
28296
28310
28474
28314
28259
28494
28310
28310
28518
28329
28548
28497
28379
28504
28441
28549
28437
28521
28631
28481
28521
28628
28609
28651
28614
28632
28565
28569
28611
28659
28636
28684
28691
28704
28755
28769
28752
28731
28842
28858
28753
28876
28701
28812
28799
28844
28824
28821
28834
28844
28883
28880
28866
28965
28958
28929
28935
28965
28925
28933
28982
28990
28938
28972
28982
28901
28785
28816
28729
28715
28681
28570
28524
28440
28361
28318
28250
28251
28186
28106
28173
28117
28150
28083
27987
27954
28037
27908
27954
27878
28021
27897
28018
28009
27996
27976
27981
27958
28004
27948
28041
28056
28018
28065
28047
28087
28194
28047
28062
28048
28234
28303
28100
28214
28224
28231
28190
28251
28250
28218
28332
28199
28304
28229
28306
28126
28248
28163
28232
28207
28169
28239
28194
28325
28201
28328
28347
28394
28400
28437
28520
28506
28473
28455
28523
28583
28497
28542
28558
28515
28505
28476
28667
28481
28579
28667
28693
28700
28609
28632
28794
28727
28759
28636
28693
28646
28720
28640
28662
28839
28827
28840
28645
28670
28743
28876
28808
28838
28819
28782
28800
28745
28824
28745
28788
28746
28743
28656
28722
28640
28500
28543
28418
28437
28452
28354
28185
28132
28101
28087
28169
28088
28016
28011
27890
27848
27969
27882
27721
27823
27729
27829
27823
27750
27720
27659
27725
27774
27711
27767
27793
27723
27827
27792
27718
27794
27777
27803
27844
27919
28012
27975
27813
28066
28023
27966
27963
28007
28028
27989
28247
28016
28050
28139
28187
28289
28169
28169
28116
28372
28300
28361
28161
28156
28204
28318
28170
28231
28160
28326
28190
28279
28270
28411
28366
28223
28274
28271
28291
28178
28271
28388
28190
28147
28349
28243
28375
28230
28378
28342
28341
28335
28435
28432
28363
28457
28452
28441
28571
28635
28435
28647
28416
28475
28661
28645
28668
28667
28606
28644
28636
28592
28696
28618
28615
28643
28670
28633
28581
28701
28605
28684
28641
28598
28678
28519
28401
28522
28357
28277
28139
28220
28001
27943
27890
27903
27889
27751
27884
27775
27729
27624
27757
27618
27692
27713
27717
27592
27654
27781
27609
27678
27585
27650
27593
27663
27776
27643
27705
27827
27721
27797
27688
27815
27911
27845
27933
27844
27803
27967
27893
28038
27874
27992
27986
27851
27934
27978
28032
28011
27905
27979
28109
28064
28033
28016
28154
28079
28175
28151
28128
28087
28154
28177
27977
28028
28196
28161
28211
28195
28162
28153
28233
28149
28099
28216
28070
28154
28308
28322
28142
28304
28383
28255
28366
28320
28420
28369
28243
28333
28465
28300
28366
28295
28279
28305
28277
28442
28371
28281
28306
28425
28354
28354
28501
28483
28427
28329
28588
28441
28550
28462
28657
28530
28511
28603
28512
28568
28526
28579
28564
28537
28498
28514
28315
28242
28293
28060
28095
28023
28020
27853
27927
27701
27770
27830
27800
27692
27593
27768
27617
27661
27715
27556
27626
27644
27682
27596
27684
27670
27684
27496
27647
27594
27586
27586
27567
27520
27583
27419
27544
27598
27619
27652
27755
27685
27759
27833
27660
27629
27581
27683
27664
27716
27658
27766
27714
27732
27803
27787
27722
27873
27895
27951
27792
27952
27893
27865
27966
28002
27926
27831
27942
27842
28088
27955
28061
28087
28113
28165
28161
28075
28177
28181
28222
28079
28111
28135
28051
28096
28131
28175
28101
28340
28355
28332
28270
28238
28331
28340
28328
28389
28379
28310
28271
28375
28355
28305
28446
28456
28445
28342
28452
28437
28432
28489
28487
28435
28518
28534
28369
28551
28617
28367
28366
28324
28296
28434
28309
28341
28239
27990
28048
27982
27829
27963
27903
27859
27650
27836
27768
27727
27660
27596
27732
27654
27670
27575
27625
27594
27669
27595
27630
27514
27469
27550
27467
27484
27591
27454
27517
27480
27529
27654
27538
27492
27593
27700
27763
27669
27596
27574
27801
27559
27645
27591
27748
27623
27699
27798
27828
27789
27860
27670
27904
27715
27734
27894
27823
27823
27825
27645
27723
27699
27807
27776
27747
27884
27928
27829
27795
27876
27766
27824
27883
27841
27844
27867
27882
27910
27841
27947
27938
27951
27901
27995
27833
27869
28015
27931
27981
27908
27995
28048
28101
28030
27975
27997
28195
28073
28157
28152
28046
28178
28076
27998
28171
28171
28097
28067
28265
28283
28030
28135
28153
28234
28337
28371
28310
28359
28350
28388
28450
28508
28360
28262
28407
28364
28300
28295
28119
28047
28003
27899
27812
27739
27722
27713
27538
27545
27626
27597
27433
27447
27614
27566
27357
27527
27458
27348
27507
27485
27401
27496
27470
27591
27450
27402
27493
27588
27504
27436
27424
27620
27611
27431
27472
27572
27719
27629
27638
27776
27802
27740
27848
27882
27929
27751
27794
27926
27760
27988
27796
27822
27802
27929
27993
27800
27974
28043
27920
27919
28087
28134
28075
27935
28035
28045
27964
28100
28222
28058
28157
28016
28182
28089
28164
28211
28149
28179
28215
28105
28168
28111
28177
28195
28165
28216
28212
28271
28252
28230
28347
28373
28351
28332
28481
28356
28399
28483
28349
28518
28461
28427
28544
28531
28591
28608
28547
28471
28587
28448
28497
28519
28590
28640
28460
28676
28669
28626
28655
28503
28662
28614
28644
28596
28644
28529
28536
28366
28460
28426
28239
28250
28078
28084
27914
27861
27850
27950
27744
27915
27823
27879
27717
27897
27699
27681
27764
27669
27769
27611
27755
27744
27809
27731
27814
27741
27727
27772
27876
27930
27823
27911
27836
27886
27867
27864
27903
27892
27798
27885
28038
27918
27877
27951
28060
27905
27987
27994
27960
27956
27952
27994
28011
28112
27967
28129
27997
28071
28072
28026
28013
28063
28052
28062
28033
28046
28112
28087
28074
28117
28171
28138
28113
28126
28160
28111
28243
28263
28218
28247
28256
28196
28193
28074
28246
28192
28120
28099
28190
28154
28272
28249
28212
28213
28324
28423
28276
28288
28369
28400
28387
28425
28561
28525
28430
28534
28376
28362
28529
28604
28512
28414
28608
28486
28529
28508
28531
28461
28423
28471
28324
28366
28333
28262
28272
28111
28137
27927
27905
27817
27709
27682
27735
27690
27515
27540
27645
27585
27584
27473
27401
27408
27528
27428
27494
27445
27471
27500
27352
27338
27362
27252
27198
27152
27151
27158
27138
27129
27135
27168
27187
27165
27180
27233
27271
27213
27333
27477
27398
27319
27570
27419
27566
27542
27575
27693
27566
27617
27692
27727
27677
27679
27722
27713
27746
27899
27771
27848
27986
27948
28025
27862
27886
28108
28048
27958
28075
28165
28098
27987
28141
28160
28161
28187
28218
28259
28210
28257
28332
28236
28204
28244
28229
28268
28323
28282
28239
28357
28351
28331
28266
28366
28270
28444
28398
28495
28364
28525
28490
28411
28486
28543
28340
28447
28512
28472
28470
28467
28447
28531
28591
28601
28520
28567
28549
28544
28511
28528
28491
28413
28347
28313
28226
28233
28173
28148
27863
27833
27803
27732
27713
27733
27623
27538
27487
27515
27564
27473
27486
27456
27425
27458
27442
27467
27408
27440
27448
27420
27376
27423
27382
27403
27397
27404
27471
27547
27498
27580
27604
27523
27602
27563
27617
27647
27704
27717
27705
27643
27695
27687
27715
27754
27754
27715
27703
27838
27827
27876
27839
27875
27887
27762
27823
27853
27855
27802
27906
28021
27939
27976
27993
27990
28006
27996
28020
28047
27997
28011
28084
28027
27917
28042
28087
28048
28163
28139
27980
28159
27991
28246
28161
28214
28036
28276
28344
28297
28213
28335
28430
28311
28331
28389
28334
28370
28414
28483
28405
28295
28395
28357
28502
28571
28422
28550
28573
28466
28582
28508
28477
28467
28525
28534
28511
28534
28469
28478
28497
28446
28466
28459
28338
28263
28215
28073
28108
27897
27984
27888
27814
27712
27773
27512
27671
27500
27590
27418
27359
27478
27407
27533
27527
27418
27509
27368
27549
27471
27571
27616
27534
27454
27572
27563
27734
27745
27570
27713
27665
27632
27667
27666
27731
27690
27631
27732
27732
27777
27724
27745
27882
27883
27915
27876
27849
28019
27907
27915
27912
28129
28000
27984
28049
27923
27943
27946
28128
28111
28019
28023
27992
27973
28123
28137
28130
28148
28088
28039
28099
28141
28235
28275
28285
28085
28292
28304
28129
28085
28200
28041
28153
28176
28072
28172
28165
28004
28159
28138
28102
28117
28247
28237
28236
28288
28284
28268
28227
28261
28244
28359
28199
28235
28430
28381
28389
28278
28267
28356
28336
28502
28477
28370
28411
28455
28448
28396
28440
28564
28449
28423
28309
28421
28358
28249
28204
28057
28054
27903
27912
27762
27666
27692
27659
27602
27499
27591
27584
27412
27486
27502
27441
27376
27361
27530
27410
27278
27346
27341
27437
27319
27427
27421
27513
27493
27525
27512
27420
27589
27443
27499
27669
27688
27501
27560
27537
27666
27612
27584
27692
27654
27771
27729
27719
27760
27825
27741
27806
27999
27959
28037
27968
27937
27980
27987
27959
28088
28101
28000
28074
27965
28150
27981
27961
28030
28024
28137
27934
28030
28057
28003
28043
28098
28097
28199
28135
28248
28178
28267
28361
28303
28338
28335
28410
28303
28455
28423
28354
28458
28395
28466
28444
28464
28424
28496
28460
28523
28569
28626
28561
28559
28570
28614
28652
28569
28627
28616
28688
28677
28688
28668
28731
28668
28770
28731
28732
28736
28643
28651
28689
28842
28757
28667
28680
28666
28610
28389
28370
28322
28270
28237
28165
28082
27980
28066
27932
27808
27942
28038
27802
27873
27828
27892
27782
27740
27702
27766
27676
27688
27659
27792
27632
27759
27928
27854
27795
27896
27939
27750
27789
27806
27855
27940
27851
28006
27926
28051
27928
28045
28095
27918
28017
27982
27985
28059
28017
27995
28150
28067
28175
28077
28023
28115
28279
28082
28213
28123
28157
28230
28222
28295
28321
28378
28270
28397
28332
28375
28334
28308
28405
28279
28334
28328
28334
28466
28495
28501
28407
28431
28605
28496
28657
28643
28554
28616
28701
28529
28570
28584
28708
28808
28768
28506
28717
28719
28663
28722
28673
28716
28680
28561
28695
28688
28722
28689
28748
28561
28660
28516
28479
28576
28607
28592
28666
28506
28507
28550
28678
28650
28428
28397
28543
28477
28228
28310
28194
28082
28048
27965
27934
27745
27722
27760
27801
27619
27710
27748
27781
27663
27774
27694
27763
27577
27570
27607
27577
27692
27627
27573
27609
27589
27647
27656
27705
27656
27767
27863
27809
27927
27766
27904
27777
27817
27896
27993
27927
27882
27947
27987
27916
27942
27848
27905
28011
28023
28033
27955
28056
27998
27968
28065
28191
27982
28080
28160
28154
28217
28184
28152
28129
28104
28127
28125
28098
28152
28089
28192
28147
28212
28290
28219
28197
28375
28424
28369
28397
28421
28352
28278
28208
28430
28371
28383
28411
28322
28402
28377
28452
28410
28282
28377
28456
28516
28368
28468
28344
28521
28472
28413
28558
28441
28466
28520
28514
28552
28564
28546
28619
28499
28470
28639
28543
28560
28538
28537
28567
28506
28505
28435
28470
28357
28401
28313
28200
28123
28017
27992
28037
27996
27758
27833
27745
27662
27793
27613
27536
27561
27453
27544
27577
27496
27490
27617
27575
27603
27534
27561
27465
27600
27454
27541
27638
27478
27654
27566
27559
27629
27520
27770
27770
27702
27766
27762
27776
27755
27850
27884
27825
27882
27798
27821
27919
28032
27957
28093
27935
28037
27915
27898
27915
27856
27861
27960
27928
27930
28015
27953
27979
28000
28116
28165
28024
28151
28094
28226
28002
28190
28078
28044
28238
28241
28134
28162
28218
28177
28250
28139
28175
28191
28279
28304
28318
28183
28394
28245
28382
28328
28388
28319
28414
28369
28365
28388
28352
28379
28355
28389
28298
28329
28417
28419
28425
28385
28419
28286
28415
28435
28531
28522
28408
28414
28451
28429
28444
28410
28508
28614
28521
28432
28294
28222
28136
28172
28174
27999
27983
27856
27923
27790
27765
27692
27773
27656
27608
27604
27637
27609
27653
27715
27698
27508
27577
27483
27573
27510
27523
27538
27600
27560
27560
27704
27697
27656
27636
27651
27839
27848
27750
27894
27710
27851
27867
27782
27863
27959
27967
27863
27892
27980
27876
27929
28001
28093
28038
28032
28156
27997
28036
28154
28245
28080
28162
28141
27987
28151
28217
28165
28101
28214
28132
28329
28252
28192
28245
28427
28331
28442
28346
28478
28500
28366
28405
28418
28455
28347
28423
28518
28431
28404
28621
28663
28447
28555
28655
28619
28456
28498
28571
28503
28597
28663
28618
28706
28633
28586
28659
28689
28633
28714
28643
28652
28654
28619
28629
28598
28726
28709
28629
28667
28615
28718
28579
28658
28587
28621
28628
28529
28667
28514
28410
28430
28356
28233
28137
28126
28090
28007
27779
27904
27798
27756
27753
27864
27711
27589
27781
27718
27679
27681
27711
27622
27639
27626
27624
27642
27667
27640
27684
27633
27685
27672
27699
27751
27686
27727
27794
27758
27769
27752
27795
27916
28006
27892
27972
28025
28103
28065
27939
27942
28076
27957
28071
27981
28043
28067
28061
28195
28210
28189
28245
28258
28248
28160
28302
28209
28259
28184
28233
28144
28242
28245
28291
28275
28367
28336
28279
28388
28271
28277
28266
28424
28385
28459
28301
28438
28293
28501
28414
28468
28315
28525
28428
28562
28563
28432
28526
28486
28437
28560
28568
28456
28500
28672
28548
28557
28744
28678
28490
28681
28670
28677
28532
28643
28744
28650
28563
28615
28592
28698
28765
28656
28636
28646
28720
28628
28674
28599
28555
28406
28522
28422
28378
28270
28194
28218
28151
28120
27908
28079
27961
27836
27808
27832
27728
27862
27795
27814
27764
27775
27853
27773
27802
27873
27879
27816
27895
27805
27825
27846
27912
27831
27893
27785
27835
27875
27948
27945
27918
27821
27958
28041
28065
27994
28155
28006
28156
28153
28161
28077
28190
28165
28098
28055
27984
28120
28054
28193
28176
28240
28178
28188
28227
28190
28259
28172
28278
28235
28251
28123
28332
28201
28331
28157
28212
28262
28369
28353
28189
28365
28386
28408
28406
28458
28409
28347
28460
28336
28433
28320
28338
28405
28451
28490
28479
28528
28451
28374
28564
28569
28595
28483
28573
28480
28635
28606
28679
28553
28572
28698
28577
28656
28616
28761
28696
28767
28619
28664
28717
28809
28717
28792
28653
28678
28625
28616
28515
28485
28353
28296
28314
28173
28112
28118
28001
28003
27845
27885
27952
27826
27701
27764
27687
27725
27820
27825
27792
27682
27608
27684
27827
27662
27797
27824
27798
27737
27753
27751
27771
27758
27793
27874
27852
27855
27902
27828
27840
27913
27866
27934
27967
27963
27993
28047
28015
28067
28031
28073
28060
28059
28101
28046
28057
28104
28052
28044
28066
28057
28167
28077
28092
28203
28074
28214
28186
28286
28156
28122
28248
28206
28190
28189
28296
28174
28296
28305
28314
28418
28288
28370
28410
28464
28318
28322
28385
28423
28385
28298
28406
28463
28360
28406
28381
28370
28381
28463
28424
28405
28474
28522
28565
28531
28468
28591
28493
28534
28476
28595
28548
28586
28445
28605
28609
28638
28567
28453
28634
28578
28637
28552
28627
28535
28423
28550
28426
28426
28264
28201
28005
27959
27867
27879
27745
27769
27700
27666
27629
27547
27491
27511
27548
27396
27453
27415
27437
27355
27417
27322
27377
27412
27361
27359
27336
27375
27242
27321
27396
27265
27254
27454
27385
27360
27373
27453
27543
27579
27578
27659
27662
27668
27517
27655
27535
27665
27630
27736
27731
27711
27745
27669
27688
27847
27828
27779
27788
27833
27760
27912
27944
27908
27980
27861
27901
27896
28005
27930
27870
27908
28046
27907
27945
27911
28007
28102
28015
27963
28092
28143
28088
28161
28044
28094
28054
28011
28249
28274
28189
28239
28267
28239
28213
28167
28286
28219
28249
28194
28248
28208
28274
28190
28275
28162
28261
28291
28233
28189
28300
28338
28287
28378
28334
28351
28360
28338
28360
28383
28473
28399
28325
28323
28421
28286
28218
28283
28100
27968
28072
27979
27865
27852
27784
27688
27718
27465
27532
27321
27356
27544
27306
27472
27356
27497
27406
27454
27311
27381
27336
27372
27273
27359
27242
27408
27371
27320
27400
27371
27471
27445
27460
27379
27467
27560
27475
27429
27526
27639
27630
27700
27621
27497
27607
27563
27506
27548
27714
27645
27666
27607
27636
27780
27689
27593
27689
27687
27798
27711
27834
27701
27759
27848
27842
27847
27838
27898
27900
27844
27929
28000
27989
27999
27988
28029
28028
27966
28053
28038
28020
28076
28008
28214
28215
28115
28238
28259
28227
28230
28252
28278
28114
28314
28410
28245
28354
28422
28373
28328
28387
28348
28332
28316
28435
28475
28315
28289
28331
28306
28353
28425
28409
28518
28396
28486
28371
28508
28440
28529
28560
28587
28373
28600
28407
28336
28501
28288
28379
28176
28206
28128
28072
27865
27920
27859
27744
27788
27709
27536
27526
27594
27620
27498
27432
27466
27368
27440
27516
27463
27446
27499
27397
27470
27536
27639
27454
27599
27479
27535
27632
27599
27737
27600
27723
27658
27683
27649
27875
27796
27812
27822
27717
27815
27999
27880
27970
27895
28027
27964
27866
27927
28065
28076
28155
27931
27951
27975
28103
28010
28004
28035
28172
27954
28144
28106
28106
28193
28092
28256
28116
28083
28226
28095
28330
28324
28336
28311
28162
28261
28155
28175
28368
28354
28294
28384
28286
28394
28369
28325
28435
28515
28397
28424
28444
28394
28498
28536
28507
28384
28588
28526
28581
28535
28613
28477
28565
28501
28544
28630
28516
28626
28503
28572
28546
28539
28652
28699
28599
28543
28501
28501
28605
28584
28428
28543
28384
28192
28111
28202
27977
28036
27823
27819
27683
27698
27804
27634
27509
27568
27733
27584
27662
27624
27489
27562
27544
27501
27498
27475
27581
27479
27579
27542
27463
27441
27547
27394
27480
27493
27389
27400
27384
27537
27433
27467
27676
27572
27526
27676
27788
27701
27699
27734
27840
27793
27766
27997
27879
27780
27955
28044
27916
27847
27947
27833
27906
28021
27980
27905
28082
27892
28108
27996
28032
28070
28128
27999
27955
28127
27954
28095
28014
28215
28059
28203
28077
28125
28232
28173
28098
28082
28321
28343
28224
28173
28295
28261
28339
28196
28394
28273
28334
28276
28373
28181
28321
28321
28317
28319
28388
28253
28364
28438
28299
28454
28350
28385
28463
28361
28441
28346
28412
28347
28542
28534
28571
28415
28557
28413
28524
28461
28342
28197
28277
28149
28014
28112
27826
27854
27828
27696
27718
27620
27633
27637
27493
27538
27545
27464
27399
27472
27361
27348
27347
27288
27406
27296
27368
27328
27442
27339
27483
27381
27467
27372
27329
27560
27450
27532
27581
27421
27555
27607
27571
27486
27516
27716
27518
27714
27604
27586
27616
27567
27615
27608
27640
27534
27663
27614
27678
27653
27623
27735
27749
27693
27772
27751
27815
27792
27859
27781
27765
27891
27935
27795
27900
27820
27795
27972
27969
27858
27906
27986
27857
27823
27851
27988
27918
28057
27902
27926
28054
28019
27960
28123
28143
28037
27950
28180
28080
28097
28097
28122
28116
28021
28129
28128
28170
28055
28073
28203
28082
28068
28122
28242
28162
28043
28128
28282
28238
28088
28247
28186
28137
28249
28144
28154
28215
28072
28055
28109
28120
28014
27992
27899
27761
27771
27565
27563
27402
27444
27562
27497
27415
27304
27324
27277
27328
27309
27286
27331
27309
27263
27144
27171
27209
27154
27133
27230
27360
27232
27209
27202
27212
27284
27375
27281
27342
27391
27263
27421
27378
27337
27428
27565
27444
27520
27441
27606
27626
27525
27529
27611
27555
27586
27606
27686
27723
27612
27754
27628
27555
27674
27638
27714
27752
27753
27696
27653
27788
27726
27749
27779
27762
27892
27865
27902
27791
27840
27854
27851
27905
27799
27927
27805
27917
27935
27930
27965
27976
27858
27967
27867
28045
27925
27964
28051
28135
28104
27992
28102
28212
28118
28202
28198
28178
28213
28197
28245
28241
28194
28260
28247
28253
28230
28297
28406
28423
28323
28335
28399
28396
28426
28425
28395
28411
28377
28397
28324
28267
28220
28158
28072
27987
27898
27843
27762
27723
27825
27759
27642
27500
27531
27498
27558
27505
27536
27450
27431
27445
27434
27390
27420
27457
27472
27400
27413
27430
27472
27459
27409
27505
27548
27477
27414
27508
27619
27531
27641
27561
27498
27599
27564
27630
27606
27662
27657
27654
27695
27692
27711
27689
27701
27867
27789
27675
27772
27753
27680
27861
27862
27780
27751
27893
27770
27976
28013
27902
27888
28041
28037
28106
27955
28011
27946
28025
27954
28006
28069
28153
28052
28052
28179
28068
28145
28161
28026
28195
28091
28131
28278
28176
28235
28126
28242
28159
28275
28269
28302
28293
28295
28206
28190
28358
28306
28361
28338
28277
28365
28232
28379
28251
28321
28252
28380
28307
28328
28237
28410
28273
28408
28275
28289
28272
28174
28292
28098
28093
28027
27982
27867
27859
27659
27729
27610
27662
27513
27535
27387
27545
27469
27470
27381
27392
27374
27406
27479
27469
27290
27449
27419
27259
27334
27334
27389
27403
27263
27393
27328
27425
27340
27513
27510
27524
27428
27461
27575
27498
27420
27561
27582
27664
27631
27582
27586
27728
27621
27583
27723
27682
27702
27636
27639
27655
27677
27733
27823
27717
27665
27779
27884
27845
27823
27768
27721
27821
27949
27759
27766
27979
27904
27824
27901
27873
27945
27954
27953
27825
27797
27973
27834
27881
28051
27865
28060
28036
27888
28073
28088
28100
27931
28010
28032
28127
27989
28172
28035
28026
28100
28013
28084
28226
28134
28016
28167
28086
28144
28075
28104
28132
28012
27949
28130
28138
28056
28171
28235
28243
28130
28097
28124
27989
27948
28053
27856
27932
27668
27777
27556
27748
27664
27473
27435
27533
27392
27450
27295
27190
27253
27231
27210
27131
27137
27108
27170
27285
27238
27150
27212
27173
27114
27271
27367
27313
27276
27254
27382
27324
27378
27322
27315
27409
27333
27484
27507
27390
27490
27593
27563
27414
27447
27642
27563
27635
27657
27497
27503
27729
27725
27651
27644
27703
27588
27633
27651
27612
27774
27700
27558
27633
27622
27655
27636
27653
27713
27732
27795
27708
27742
27862
27882
27889
27798
27888
27918
27943
27997
28046
28070
27943
27843
27952
27989
27973
27840
27852
27913
28015
27856
27868
28022
28053
27979
27920
27983
27959
28028
27964
28081
28136
28128
28132
28091
28029
28190
28158
28191
28158
28062
28183
28234
28157
28298
28143
28073
28213
28158
28107
28068
28161
28197
28084
27951
27861
27810
27733
27638
27746
27566
27598
27533
27452
27516
27358
27398
27307
27375
27285
27392
27155
27173
27187
27113
27162
27064
27137
27081
27179
27169
27227
27252
27269
27215
27226
27263
27304
27341
27234
27308
27244
27417
27443
27385
27521
27505
27594
27513
27480
27585
27617
27514
27535
27466
27646
27504
27583
27467
27633
27543
27733
27716
27602
27518
27796
27679
27678
27803
27721
27680
27640
27799
27685
27701
27699
27820
27870
27762
27889
27743
27854
27702
27801
27754
27828
27775
27937
27921
27852
27839
27895
27888
27899
27963
27853
27961
28064
27935
27941
28025
28042
28071
28049
28054
28087
28229
28187
28186
28227
28100
28179
28276
28288
28287
28282
28151
28287
28230
28339
28244
28438
28460
28329
28444
28420
28447
28295
28442
28286
28258
28302
28209
27998
28027
27881
27840
27780
27744
27669
27726
27607
27670
27623
27440
27584
27497
27534
27460
27501
27392
27346
27522
27443
27312
27465
27476
27460
27566
27467
27474
27431
27477
27479
27408
27403
27565
27526
27625
27524
27662
27692
27659
27732
27785
27843
27860
27830
27892
27894
27946
27870
27964
27945
27925
28022
27928
28032
27878
27908
27976
28047
27971
28120
28082
28068
27893
28076
27981
27925
28168
28038
28131
28080
28147
28101
28086
28084
28190
28126
28035
28163
28105
28132
28097
28156
28188
28106
28023
28118
28124
28046
28150
28096
28147
28138
28068
28152
28111
28103
28204
28133
28156
28108
28143
28115
28115
28115
28052
28157
28126
28075
28133
28125
28103
28205
28194
28089
28204
28272
28202
28313
28218
28221
28247
28170
28236
28141
28117
28003
27887
27891
27808
27634
27592
27520
27456
27440
27458
27322
27445
27436
27462
27224
27342
27389
27366
27344
27302
27311
27241
27239
27283
27262
27236
27134
27262
27405
27316
27260
27276
27413
27374
27341
27508
27466
27577
27482
27630
27576
27588
27503
27612
27691
27579
27706
27705
27697
27680
27587
27629
27551
27653
27827
27745
27844
27752
27888
27819
27927
27807
27878
27989
27878
27830
27851
28066
27904
27891
27931
28066
27928
27976
28075
27924
28093
27951
28135
28151
28191
28151
28119
28112
28159
28174
28176
28283
28116
28325
28292
28240
28347
28299
28386
28364
28361
28246
28393
28293
28381
28301
28433
28233
28429
28289
28330
28325
28445
28386
28425
28392
28374
28448
28377
28479
28389
28432
28542
28546
28550
28581
28607
28449
28367
28366
28147
28215
28183
27986
28012
27968
27821
27678
27664
27795
27680
27719
27605
27576
27584
27539
27422
27476
27435
27491
27357
27402
27571
27378
27421
27520
27391
27485
27433
27461
27500
27366
27437
27446
27558
27652
27683
27693
27610
27710
27561
27661
27618
27648
27652
27783
27750
27828
27875
27748
27812
27877
27729
27883
27936
27799
27752
27820
27757
27846
27835
27785
27822
28030
27882
28029
27982
28091
27945
27971
28003
28027
28172
27959
28174
28188
28058
28221
28094
28095
28195
28208
28233
28128
28094
28278
28332
28280
28273
28358
28359
28263
28353
28398
28277
28333
28296
28323
28318
28331
28412
28341
28381
28264
28413
28419
28244
28371
28433
28346
28464
28415
28383
28430
28463
28398
28426
28403
28392
28415
28395
28418
28404
28416
28409
28390
28401
28231
28279
28353
28292
28197
28002
28044
27932
27864
27855
27860
27731
27625
27642
27555
27614
27629
27572
27653
27618
27699
27534
27636
27641
27670
27587
27573
27607
27595
27732
27588
27646
27598
27735
27743
27703
27617
27702
27788
27818
27753
27755
27854
27902
27895
27958
27939
28097
27909
28122
28083
27983
28002
27885
27925
27979
28041
28025
27938
28173
28176
28067
28179
28066
28211
28100
28230
28094
28132
28122
28155
28095
28125
28184
28113
28280
28196
28217
28225
28106
28340
28220
28183
28241
28283
28393
28366
28338
28342
28379
28249
28292
28371
28410
28268
28394
28329
28459
28409
28408
28449
28396
28499
28504
28512
28585
28571
28471
28643
28582
28683
28488
28673
28694
28557
28585
28463
28747
28586
28594
28644
28774
28782
28689
28594
28725
28702
28754
28608
28630
28465
28329
28354
28163
28136
28184
28073
27864
27926
28004
27896
27767
27782
27810
27844
27799
27787
27704
27800
27694
27749
27658
27661
27660
27653
27660
27667
27598
27682
27752
27592
27661
27656
27729
27716
27818
27844
27766
27741
27935
27911
27923
27970
27886
27840
27862
27923
27937
27855
28031
27910
27999
27944
28053
28039
28104
27938
27974
28123
28125
28098
28183
28016
28164
28027
28048
28128
28122
28147
28136
28300
28226
28170
28183
28224
28267
28370
28437
28347
28339
28363
28337
28345
28348
28425
28316
28441
28357
28410
28495
28339
28400
28428
28361
28526
28401
28529
28467
28484
28526
28525
28545
28553
28533
28496
28541
28571
28484
28604
28511
28486
28497
28397
28512
28412
28569
28584
28539
28415
28523
28522
28526
28565
28513
28452
28401
28457
28249
28297
28233
28104
28054
28042
27971
27881
27748
27782
27644
27569
27500
27519
27522
27579
27519
27598
27442
27521
27483
27527
27460
27484
27454
27485
27497
27446
27447
27489
27393
27499
27581
27466
27411
27604
27708
27598
27721
27643
27761
27624
27792
27689
27669
27679
27747
27891
27840
27837
27709
27743
27777
27711
27932
27849
27752
27827
27933
27934
27761
27877
27817
27993
27845
27989
28097
28078
27982
28002
27961
27919
28071
28145
28107
27972
28059
28132
28189
28144
28134
28103
28126
28213
28304
28292
28120
28249
28348
28253
28258
28259
28275
28172
28212
28307
28212
28398
28382
28437
28390
28383
28474
28337
28471
28462
28370
28397
28434
28526
28406
28360
28462
28450
28599
28551
28564
28437
28706
28575
28605
28593
28556
28549
28619
28597
28601
28413
28503
28389
28429
28248
28277
28262
27952
27927
27953
27955
27839
27801
27823
27694
27635
27678
27619
27621
27545
27606
27519
27744
27548
27632
27563
27568
27506
27675
27643
27623
27494
27625
27666
27744
27715
27731
27709
27866
27712
27664
27779
27699
27861
27957
27790
27799
27892
27856
27948
27883
27843
27901
27868
28012
28017
27960
28053
28041
28145
28046
28103
28226
28087
28123
28231
28130
28291
28110
28248
28342
28180
28121
28296
28178
28366
28334
28291
28250
28254
28344
28276
28394
28364
28387
28431
28461
28375
28365
28487
28603
28444
28505
28558
28551
28528
28566
28693
28588
28590
28565
28682
28581
28565
28530
28672
28615
28577
28621
28691
28626
28670
28690
28750
28668
28707
28739
28769
28712
28822
28748
28725
28667
28767
28646
28621
28857
28723
28821
28768
28611
28774
28733
28590
28535
28550
28436
28334
28228
28153
28090
28177
28093
27808
27855
27953
27827
27850
27783
27811
27654
27613
27625
27722
27746
27656
27766
27857
27667
27699
27690
27818
27830
27830
27636
27714
27786
27695
27782
27659
27763
27932
27813
27910
27859
27783
27926
27868
27970
28134
28093
27940
28051
28125
28155
28093
28197
28146
28211
28096
28120
28083
28245
28172
28065
28237
28256
28299
28318
28200
28310
28295
28243
28411
28241
28194
28290
28147
28301
28217
28340
28334
28351
28429
28332
28401
28194
28295
28474
28378
28504
28450
28377
28306
28345
28343
28502
28377
28372
28363
28320
28385
28544
28441
28373
28449
28446
28586
28498
28428
28559
28402
28595
28640
28540
28629
28672
28696
28688
28522
28702
28706
28532
28663
28756
28763
28711
28830
28648
28646
28665
28637
28581
28714
28494
28583
28512
28358
28479
28341
28310
28325
28150
28071
27920
27850
27957
27819
27779
27643
27768
27703
27687
27709
27795
27679
27850
27698
27876
27719
27857
27855
27897
27883
27874
27705
27851
27929
27974
27828
27934
27992
28046
27929
28088
28054
28136
28008
28074
28026
28232
28109
28155
28109
28241
28133
28239
28015
28061
28244
28189
28117
28238
28180
28149
28134
28144
28068
28185
28274
28167
28233
28308
28323
28204
28207
28242
28273
28349
28272
28412
28440
28204
28367
28411
28325
28254
28297
28251
28291
28305
28510
28433
28428
28442
28520
28314
28347
28505
28459
28435
28586
28436
28447
28493
28425
28421
28478
28558
28451
28466
28507
28582
28498
28581
28472
28572
28533
28469
28656
28710
28570
28750
28748
28734
28851
28725
28707
28674
28511
28676
28628
28594
28367
28396
28359
28327
28239
28104
27965
28118
28044
27916
27879
27775
27801
27697
27756
27749
27705
27776
27742
27624
27682
27767
27816
27680
27715
27694
27768
27693
27674
27774
27682
27759
27788
27846
27798
27925
27937
27892
27950
27846
28014
28002
27921
27946
28017
27971
27981
28083
27962
28085
28176
28024
28103
28173
28242
28209
28174
28195
28103
28174
28183
28132
28332
28262
28385
28343
28249
28341
28267
28412
28382
28428
28302
28318
28291
28402
28282
28494
28343
28401
28525
28338
28426
28426
28468
28381
28608
28536
28434
28420
28626
28452
28379
28499
28441
28589
28486
28551
28567
28479
28566
28475
28549
28452
28599
28432
28482
28573
28539
28472
28495
28493
28697
28672
28731
28787
28637
28574
28588
28685
28615
28685
28480
28691
28705
28660
28362
28378
28436
28275
28266
28313
28169
28089
28031
27886
27907
27944
27862
27783
27752
27797
27823
27714
27574
27706
27785
27769
27697
27606
27711
27597
27567
27594
27634
27570
27501
27502
27629
27606
27635
27516
27604
27646
27666
27650
27725
27860
27868
27871
27746
27807
27952
27991
27829
27889
28010
27951
28001
28036
27998
27938
28017
28123
27992
28038
28073
28112
28100
28040
28066
28209
28106
27984
28142
28161
28166
28195
28149
28181
28204
28149
28227
28255
28219
28267
28156
28273
28268
28215
28209
28371
28249
28422
28469
28284
28485
28377
28451
28425
28478
28452
28527
28388
28322
28439
28537
28379
28420
28356
28394
28350
28398
28442
28430
28440
28619
28561
28398
28511
28436
28618
28559
28626
28534
28700
28643
28727
28550
28638
28570
28787
28694
28676
28650
28519
28537
28561
28477
28407
28324
28270
28291
28111
28049
28105
27958
27924
27956
27925
27713
27896
27688
27859
27902
27682
27662
27764
27741
27741
27866
27705
27663
27673
27801
27817
27736
27626
27779
27872
27800
27702
27704
27790
27736
27747
27769
27796
27706
27879
27794
27982
27987
27913
28038
28005
27864
27923
28076
27990
27934
28131
27981
27939
28025
27990
27991
28100
27956
28086
28074
28101
28029
28152
27960
27937
28143
28008
28159
27998
28180
28063
28091
28207
28020
28041
28111
28263
28278
28157
28212
28226
28219
28273
28292
28353
28264
28118
28351
28305
28183
28288
28181
28196
28388
28243
28364
28340
28416
28392
28374
28295
28238
28259
28463
28473
28454
28425
28325
28480
28435
28522
28434
28338
28477
28380
28509
28480
28459
28394
28591
28485
28554
28562
28406
28433
28489
28325
28204
28229
28241
28086
27936
27922
27905
27830
27926
27844
27730
27696
27829
27641
27711
27743
27657
27669
27708
27761
27567
27577
27635
27570
27633
27749
27667
27677
27784
27779
27750
27852
27774
27923
27859
27801
27784
27923
27845
28050
27852
28021
27945
27981
27903
27963
28016
27895
28093
28043
27975
28093
27972
27910
28095
28147
27993
28152
28081
28059
28057
28076
28077
28046
28157
28118
28186
28121
28026
28118
28298
28071
28237
28298
28190
28123
28316
28133
28177
28229
28264
28258
28280
28080
28201
28278
28212
28324
28253
28277
28361
28297
28524
28470
28298
28470
28577
28510
28536
28520
28649
28526
28573
28670
28610
28521
28534
28603
28561
28567
28607
28702
28638
28465
28517
28650
28687
28670
28578
28569
28533
28536
28594
28480
28550
28421
28431
28332
28402
28269
28257
28001
28032
28108
27901
27804
27739
27740
27827
27686
27760
27675
27738
27696
27698
27772
27635
27570
27778
27631
27619
27639
27602
27748
27628
27794
27833
27851
27698
27837
27939
27987
28019
27868
27838
28008
28022
28064
27912
28083
27971
27984
28165
28151
28061
28212
28245
28229
28271
28231
28086
28206
28192
28201
28139
28235
28388
28309
28170
28292
28444
28442
28273
28405
28401
28294
28295
28563
28524
28544
28510
28499
28477
28562
28539
28627
28572
28501
28424
28459
28494
28556
28638
28558
28512
28535
28621
28515
28502
28472
28551
28636
28580
28480
28444
28615
28635
28498
28531
28745
28621
28590
28666
28562
28779
28752
28658
28720
28695
28724
28690
28687
28880
28821
28826
28813
28815
28698
28628
28714
28536
28416
28439
28401
28419
28225
28114
28170
28056
28078
27915
27780
27797
27674
27792
27640
27706
27783
27691
27814
27611
27621
27595
27656
27785
27627
27745
27590
27598
27593
27569
27732
27547
27715
27642
27658
27654
27712
27649
27736
27731
27713
27771
27767
27787
27912
27892
27940
27953
27924
28008
27918
27957
27980
27889
27993
28030
28015
27998
28018
27941
28126
27961
28008
28026
28095
28051
28050
28191
28303
28304
28341
28306
