10304
10764
11229
11677
12082
12433
12723
12951
13115
13221
13277
13281
13239
13164
13064
12937
12787
12628
12470
12310
12146
11985
11833
11684
11537
11400
11279
11171
11071
10989
10925
10867
10812
10761
10709
10651
10589
10527
10461
10385
10306
10231
10159
10088
10022
9965
9916
9872
9837
9815
9808
9808
9811
9821
9837
9851
9862
9879
9902
9927
9950
9971
9980
9976
9967
9956
9938
9913
9884
9854
9818
9776
9735
9693
9644
9597
9554
9512
9468
9426
9388
9353
9320
9292
9274
9259
9239
9216
9193
9169
9141
9113
9091
9075
9062
9053
9052
9054
9047
9037
9031
9025
9014
9002
8993
8984
8969
8949
8931
8916
8902
8895
8897
8899
8901
8905
8911
8914
8912
8907
8897
8880
8863
8851
8840
8827
8813
8800
8787
8770
8754
8746
8748
8757
8774
8802
8844
8903
8990
9124
9321
9588
9928
10331
10773
11227
11676
12100
12485
12817
13094
13314
13470
13562
13597
13578
13509
13403
13275
13125
12955
12774
12590
12404
12214
12031
11859
11700
11551
11416
11294
11181
11073
10979
10901
10828
10757
10694
10635
10573
10504
10433
10362
10290
10220
10157
10103
10053
10006
9969
9948
9938
9932
9931
9936
9943
9952
9964
9980
10000
10026
10057
10088
10111
10120
10124
10129
10132
10130
10124
10114
10096
10074
10048
10018
9978
9931
9883
9838
9798
9761
9725
9689
9653
9619
9587
9555
9525
9499
9478
9459
9438
9418
9397
9371
9347
9331
9320
9306
9292
9285
9282
9278
9271
9267
9262
9248
9231
9221
9213
9201
9186
9175
9168
9160
9155
9153
9142
9120
9094
9072
9053
9035
9023
9015
8999
8977
8957
8945
8934
8922
8917
8917
8920
8932
8965
9021
9099
9203
9352
9566
9851
10205
10616
11061
11510
11946
12357
12726
13039
13293
13490
13625
13695
13711
13685
13619
13518
13395
13258
13107
12946
12782
12617
12449
12279
12118
11969
11829
11697
11576
11469
11374
11281
11192
11115
11043
10970
10900
10836
10773
10706
10640
10582
10529
10480
10436
10398
10367
10343
10328
10319
10311
10304
10301
10303
10307
10316
10331
10348
10369
10395
10426
10454
10473
10488
10503
10512
10509
10499
10484
10463
10436
10409
10382
10347
10307
10263
10217
10169
10122
10080
10040
9995
9953
9918
9887
9856
9830
9814
9800
9783
9767
9758
9752
9741
9730
9718
9703
9685
9673
9668
9663
9655
9649
9646
9639
9626
9611
9599
9590
9581
9576
9572
9564
9554
9545
9538
9528
9515
9503
9497
9494
9495
9497
9495
9489
9480
9471
9460
9442
9418
9394
9375
9360
9350
9348
9350
9357
9373
9409
9467
9553
9675
9853
10102
10425
10818
11264
11738
12213
12672
13101
13482
13804
14067
14268
14402
14475
14491
14458
14380
14270
14137
13989
13825
13651
13475
13301
13128
12964
12814
12675
12539
12410
12289
12175
12071
11975
11892
11819
11746
11673
11605
11536
11460
11381
11309
11241
11170
11098
11033
10974
10918
10868
10828
10797
10773
10757
10748
10746
10750
10763
10785
10807
10828
10854
10884
10910
10928
10935
10934
10923
10907
10885
10855
10817
10782
10751
10717
10676
10634
10591
10544
10495
10447
10401
10354
10307
10270
10239
10207
10177
10154
10133
10108
10081
10060
10045
10035
10026
10017
10006
9993
9979
9966
9955
9943
9928
9914
9904
9891
9876
9865
9857
9848
9840
9836
9832
9825
9819
9817
9813
9804
9796
9788
9777
9763
9750
9740
9728
9714
9705
9703
9698
9687
9674
9662
9645
9622
9599
9582
9569
9560
9565
9588
9628
9682
9761
9875
10030
10245
10534
10895
11311
11759
12217
12659
13064
13426
13743
14005
14203
14340
14422
14446
14413
14337
14229
14093
13937
13773
13603
13426
13242
13061
12889
12723
12565
12419
12285
12160
12048
11952
11869
11794
11730
11673
11616
11557
11494
11431
11372
11314
11256
11203
11155
11108
11063
11027
10995
10962
10928
10899
10874
10851
10834
10827
10827
10828
10828
10832
10841
10850
10861
10873
10879
10882
10890
10900
10900
10886
10866
10843
10816
10783
10747
10711
10671
10631
10595
10562
10527
10488
10453
10425
10400
10374
10349
10329
10307
10285
10268
10252
10232
10214
10200
10185
10167
10153
10145
10135
10122
10109
10098
10088
10077
10065
10055
10048
10043
10038
10036
10033
10028
10020
10012
10004
9996
9989
9986
9984
9982
9977
9965
9947
9927
9913
9901
9883
9862
9845
9830
9817
9812
9812
9808
9800
9797
9803
9819
9846
9895
9972
10077
10219
10417
10690
11037
11440
11877
12332
12780
13193
13559
13871
14122
14308
14433
14501
14509
14469
14395
14292
14160
14008
13845
13669
13478
13285
13097
12909
12724
12550
12392
12247
12113
11993
11889
11794
11704
11622
11555
11498
11441
11382
11330
11279
11220
11160
11108
11061
11014
10970
10933
10901
10873
10859
10859
10862
10868
10879
10891
10902
10914
10930
10948
10960
10972
10989
11003
11013
11020
11024
11020
11001
10970
10936
10901
10865
10828
10792
10753
10708
10661
10620
10586
10551
10519
10494
10471
10442
10415
10394
10374
10349
10323
10298
10277
10260
10247
10227
10196
10161
10136
10122
10110
10095
10084
10074
10061
10046
10033
10022
10008
9990
9971
9951
9926
9901
9881
9864
9849
9840
9837
9832
9821
9809
9794
9774
9753
9737
9725
9716
9706
9699
9692
9678
9657
9639
9629
9623
9622
9626
9637
9656
9690
9746
9827
9937
10088
10296
10568
10906
11301
11734
12185
12627
13041
13416
13737
13992
14178
14303
14372
14384
14345
14267
14158
14021
13862
13691
13514
13332
13147
12971
12807
12650
12503
12373
12256
12149
12054
11966
11882
11800
11726
11661
11599
11538
11480
11417
11348
11281
11220
11165
11115
11065
11015
10967
10924
10890
10872
10862
10856
10850
10848
10849
10852
10860
10874
10882
10884
10886
10893
10898
10902
10907
10911
10907
10893
10877
10860
10835
10806
10778
10748
10712
10677
10645
10613
10578
10545
10518
10491
10465
10448
10439
10426
10400
10364
10330
10304
10282
10261
10245
10228
10201
10172
10152
10141
10131
10122
10117
10111
10106
10103
10105
10099
10084
10067
10053
10036
10015
9998
9985
9969
9950
9935
9920
9903
9889
9877
9862
9846
9838
9835
9828
9814
9804
9800
9796
9786
9769
9749
9727
9702
9680
9660
9639
9619
9604
9597
9597
9608
9639
9694
9776
9881
10015
10194
10436
10746
11121
11544
11989
12436
12864
13254
13587
13861
14081
14247
14355
14409
14415
14376
14291
14171
14031
13879
13717
13547
13374
13197
13018
12842
12675
12516
12361
12221
12099
11989
11887
11798
11719
11645
11575
11513
11456
11397
11337
11278
11221
11165
11112
11063
11017
10972
10937
10915
10897
10881
10870
10865
10861
10857
10853
10853
10856
10856
10854
10857
10862
10866
10868
10869
10870
10864
10855
10846
10835
10816
10794
10773
10749
10719
10690
10669
10648
10623
10598
10573
10539
10502
10470
10444
10415
10387
10367
10352
10334
10317
10301
10282
10257
10236
10227
10226
10230
10241
10258
10271
10274
10271
10260
10239
10214
10192
10166
10135
10103
10078
10058
10038
10015
9997
9988
9980
9968
9954
9943
9932
9922
9913
9903
9890
9873
9862
9857
9857
9859
9865
9873
9879
9883
9886
9889
9887
9879
9869
9858
9845
9834
9831
9838
9857
9896
9960
10046
10153
10287
10463
10694
10980
11317
11690
12077
12457
12816
13143
13422
13644
13810
13920
13971
13971
13932
13860
13753
13615
13461
13295
13114
12927
12745
12572
12405
12246
12101
11970
11850
11746
11663
11592
11524
11464
11413
11366
11319
11280
11247
11215
11180
11146
11117
11094
11077
11072
11074
11072
11065
11063
11068
11072
11075
11079
11087
11096
11106
11113
11117
11117
11114
11111
11110
11109
11110
11113
11114
11111
11107
11102
11089
11070
11048
11023
10995
10964
10933
10905
10875
10845
10817
10795
10774
10750
10727
10710
10687
10659
10634
10615
10600
10584
10570
10559
10548
10541
10538
10534
10527
10521
10519
10516
10503
10489
10477
10459
10436
10417
10404
10395
10388
10382
10377
10369
10353
10334
10319
10309
10299
10290
10286
10283
10278
10272
10261
10248
10238
10236
10240
10243
10241
10234
10226
10215
10203
10199
10209
10226
10255
10305
10378
10473
10589
10731
10902
11115
11379
11690
12029
12372
12704
13015
13295
13530
13718
13860
13952
13989
13978
13930
13846
13730
13589
13436
13275
13108
12940
12776
12620
12471
12330
12201
12082
11969
11873
11796
11735
11685
11646
11613
11578
11542
11512
11489
11466
11443
11424
11407
11387
11368
11350
11337
11326
11317
11315
11314
11309
11307
11311
11318
11321
11323
11330
11338
11343
11357
11382
11404
11416
11426
11437
11444
11442
11437
11428
11411
11387
11363
11339
11308
11272
11240
11214
11188
11158
11125
11092
11058
11024
10996
10972
10946
10918
10897
10879
10859
10844
10835
10827
10811
10792
10779
10772
10764
10753
10741
10730
10711
10686
10663
10645
10631
10620
10612
10602
10590
10579
10568
10560
10556
10554
10550
10541
10528
10516
10504
10491
10477
10465
10452
10436
10418
10401
10386
10369
10351
10337
10327
10317
10309
10311
10324
10349
10393
10465
10564
10684
10827
10998
11201
11442
11728
12054
12398
12740
13065
13364
13624
13835
13996
14109
14171
14183
14156
14102
14021
13914
13788
13646
13491
13329
13168
13011
12855
12706
12570
12444
12325
12220
12133
12056
11986
11924
11873
11828
11780
11731
11684
11640
11598
11562
11531
11499
11465
11436
11415
11396
11375
11356
11342
11331
11322
11315
11309
11304
11303
11309
11320
11327
11333
11345
11362
11376
11391
11408
11420
11420
11411
11400
11384
11360
11331
11305
11277
11244
11213
11192
11174
11157
11145
11134
11117
11094
11079
11070
11061
11048
11036
11025
11011
10995
10983
10977
10972
10972
10975
10975
10968
10960
10956
10955
10949
10939
10930
10917
10898
10883
10876
10867
10858
10855
10857
10856
10852
10848
10845
10840
10831
10823
10819
10815
10808
10803
10803
10804
10805
10807
10803
10790
10775
10763
10748
10731
10718
10714
10715
10714
10718
10739
10779
10834
10911
11016
11147
11301
11483
11700
11958
12247
12560
12884
13197
13481
13733
13943
14105
14217
14284
14310
14292
14233
14150
14046
13918
13773
13620
13462
13304
13153
13016
12891
12774
12669
12578
12497
12425
12363
12314
12274
12241
12211
12183
12155
12124
12095
12072
12048
12023
12004
11992
11981
11966
11948
11936
11930
11925
11925
11932
11942
11953
11969
11988
12005
12020
12035
12046
12048
12046
12045
12043
12036
12031
12026
12017
12007
11999
11995
11989
11979
11969
11962
11956
11944
11928
11912
11893
11868
11844
11820
11794
11762
11729
11700
11670
11637
11608
11586
11567
11546
11528
11514
11499
11485
11475
11469
11461
11449
11438
11430
11422
11413
11405
11393
11376
11359
11347
11341
11335
11325
11314
11302
11293
11288
11284
11281
11267
11245
11224
11205
11183
11161
11149
11142
11133
11122
11110
11098
11085
11075
11069
11061
11051
11046
11051
11066
11093
11139
11206
11287
11377
11483
11606
11753
11936
12154
12402
12665
12934
13196
13433
13633
13794
13912
13985
14012
14000
13959
13885
13781
13660
13531
13394
13247
13101
12966
12843
12730
12629
12543
12466
12395
12333
12281
12237
12196
12165
12144
12125
12105
12087
12071
12054
12037
12030
12028
12021
12009
12001
11997
11992
11989
11989
11992
11991
11988
11986
11981
11973
11968
11973
11981
11984
11990
12001
12012
12016
12017
12016
12011
12001
11991
11980
11960
11935
11914
11899
11883
11863
11843
11819
11787
11752
11721
11686
11644
11605
11572
11542
11516
11499
11489
11479
11466
11453
11442
11432
11419
11407
11398
11388
11372
11358
11352
11348
11342
11337
11338
11339
11335
11331
11331
11331
11327
11323
11324
11330
11336
11344
11352
11359
11364
11369
11374
11373
11368
11366
11365
11360
11356
11357
11364
11373
11380
11389
11399
11412
11436
11480
11540
11613
11706
11825
11963
12122
12314
12542
12797
13067
13341
13611
13858
14069
14241
14372
14458
14497
14499
14469
14402
14308
14196
14071
13937
13803
13670
13539
13410
13289
13180
13083
12995
12917
12852
12801
12759
12725
12699
12675
12649
12618
12589
12564
12536
12507
12484
12463
12440
12414
12395
12386
12381
12381
12391
12403
12409
12415
12425
12429
12426
12429
12443
12462
12479
12496
12511
12518
12520
12525
12529
12525
12512
12500
12483
12460
12441
12431
12422
12407
12387
12365
12339
12313
12289
12268
12247
12222
12200
12183
12167
12149
12132
12118
12101
12080
12060
12044
12029
12011
11992
11971
11946
11924
11911
11904
11899
11891
11882
11872
11860
11849
11840
11828
11807
11781
11756
11737
11727
11726
11730
11737
11743
11742
11742
11741
11733
11718
11703
11690
11677
11663
11653
11644
11629
11611
11595
11581
11567
11560
11558
11555
11549
11549
11562
11584
11619
11674
11752
11846
11953
12080
12228
12398
12600
12842
13110
13388
13673
13956
14213
14427
14599
14735
14827
14874
14886
14869
14821
14742
14641
14526
14399
14264
14128
13995
13867
13741
13624
13518
13422
13336
13264
13203
13148
13100
13063
13034
13009
12987
12968
12950
12932
12916
12900
12880
12852
12825
12802
12778
12754
12739
12733
12730
12728
12731
12740
12754
12767
12780
12790
12794
12794
12796
12801
12804
12803
12804
12808
12807
12803
12803
12802
12792
12777
12763
12749
12728
12701
12675
12646
12612
12576
12545
12518
12493
12470
12448
12422
12390
12359
12335
12314
12289
12265
12241
12212
12182
12161
12147
12132
12115
12101
12093
12084
12077
12072
12070
12067
12062
12059
12058
12051
12039
12024
12007
11986
11967
11956
11950
11942
11932
11920
11910
11899
11892
11890
11888
11882
11872
11863
11857
11851
11847
11850
11853
11852
11846
11840
11834
11822
11808
11797
11787
11775
11767
11767
11771
11777
11798
11847
11920
12012
12124
12260
12419
12603
12817
13062
13330
13610
13891
14160
14401
14603
14765
14886
14962
14996
14990
14952
14885
14792
14685
14568
14441
14310
14180
14049
13917
13787
13664
13550
13445
13358
13295
13244
13199
13166
13143
13120
13095
13077
13062
13041
13016
12993
12965
12929
12888
12854
12831
12813
12800
12797
12800
12802
12804
12811
12818
12821
12820
12822
12828
12833
12837
12846
12856
12862
12864
12865
12859
12847
12837
12826
12811
12788
12763
12742
12719
12691
12661
12631
12597
12561
12532
12510
12487
12461
12439
12418
12397
12375
12353
12331
12306
12281
12264
12256
12244
12224
12202
12179
12150
12120
12096
12078
12060
12044
12030
12013
11990
11962
11937
11920
11912
11911
11914
11914
11907
11897
11889
11882
11873
11864
11860
11858
11857
11856
11857
11856
11852
11850
11846
11836
11828
11828
11829
11827
11823
11825
11834
11842
11853
11871
11895
11922
11962
12023
12100
12186
12288
12415
12571
12758
12977
13228
13499
13766
14016
14246
14447
14605
14716
14785
14819
14819
14786
14725
14639
14530
14404
14270
14136
14001
13870
13746
13627
13516
13414
13323
13243
13175
13121
13077
13040
13009
12984
12963
12939
12918
12898
12876
12850
12824
12802
12777
12752
12733
12722
12713
12706
12705
12709
12712
12714
12718
12722
12720
12719
12727
12742
12754
12764
12775
12785
12785
12776
12765
12755
12743
12727
12712
12699
12681
12665
12658
12649
12632
12612
12592
12570
12543
12511
12478
12446
12411
12377
12351
12332
12311
12289
12271
12248
12218
12188
12168
12153
12138
12125
12117
12108
12096
12086
12081
12069
12049
12034
12023
12013
12004
11994
11982
11968
11954
11944
11936
11925
11914
11904
11892
11875
11858
11849
11842
11833
11828
11828
11828
11823
11818
11818
11818
11816
11814
11815
11810
11795
11781
11775
11776
11782
11802
11836
11883
11947
12038
12151
12281
12429
12601
12799
13022
13274
13546
13816
14068
14297
14498
14665
14791
14874
14919
14925
14896
14837
14754
14650
14531
14403
14275
14147
14017
13887
13772
13673
13580
13493
13417
13352
13295
13249
13212
13179
13145
13114
13086
13061
13037
13013
12990
12966
12944
12925
12903
12878
12855
12837
12820
12803
12791
12789
12787
12783
12785
12794
12806
12816
12827
12840
12853
12863
12871
12875
12870
12859
12847
12839
12831
12813
12791
12771
12749
12723
12698
12676
12650
12614
12577
12545
12514
12479
12444
12410
12375
12341
12317
12305
12297
12286
12272
12256
12234
12209
12187
12171
12159
12152
12151
12144
12128
12113
12101
12088
12072
12055
12038
12017
11998
11986
11976
11958
11939
11928
11924
11922
11921
11923
11927
11929
11926
11923
11919
11905
11887
11874
11869
11867
11867
11870
11871
11865
11853
11845
11843
11839
11831
11826
11826
11825
11824
11835
11860
11896
11948
12021
12116
12229
12358
12508
12685
12892
13135
13407
13691
13971
14236
14474
14675
14839
14966
15050
15089
15094
15072
15026
14954
14861
14760
14649
14525
14393
14261
14135
14012
13896
13789
13690
13592
13497
13416
13353
13299
13254
13219
13188
13155
13121
13086
13053
13024
12998
12980
12964
12951
12946
12943
12936
12928
12921
12914
12901
12885
12877
12875
12873
12871
12872
12878
12884
12892
12903
12911
12912
12905
12897
12890
12881
12865
12849
12834
12817
12798
12781
12766
12749
12733
12719
12703
12679
12650
12625
12603
12578
12551
12522
12488
12451
12417
12386
12353
12321
12295
12276
12260
12249
12246
12246
12240
12230
12224
12225
12225
12221
12219
12217
12205
12187
12171
12161
12149
12137
12128
12121
12110
12098
12090
12082
12070
12060
12051
12038
12020
12007
12000
11992
11981
11974
11967
11956
11940
11927
11918
11909
11900
11895
11894
11893
11894
11901
11912
11923
11941
11976
12033
12108
12201
12314
12448
12598
12764
12957
13180
13426
13684
13940
14179
14384
14549
14676
14763
14813
14833
14828
14790
14721
14632
14529
14414
14290
14166
14048
13933
13824
13725
13634
13546
13464
13393
13332
13277
13232
13200
13176
13152
13131
13116
13104
13089
13071
13058
13048
13031
13010
12992
12979
12962
12948
12943
12939
12932
12928
12930
12937
12941
12941
12945
12952
12960
12971
12981
12986
12984
12982
12979
12969
12956
12946
12934
12915
12888
12864
12841
12814
12787
12766
12750
12731
12710
12688
12660
12626
12596
12577
12561
12541
12516
12488
12460
12428
12400
12379
12362
12345
12335
12331
12325
12313
12298
12286
12275
12261
12245
12230
12215
12200
12187
12178
12167
12153
12142
12136
12128
12118
12110
12104
12097
12089
12085
12081
12075
12070
12069
12070
12068
12061
12051
12042
12031
12022
12016
12008
11993
11974
11960
11951
11949
11960
11992
12041
12106
12194
12302
12424
12558
12717
12904
13116
13348
13592
13838
14071
14278
14458
14608
14717
14786
14819
14818
14784
14719
14631
14522
14396
14261
14126
13994
13863
13736
13619
13505
13397
13305
13235
13175
13125
13087
13058
13030
13000
12974
12952
12930
12905
12884
12868
12853
12839
12829
12825
12817
12807
12797
12787
12777
12766
12758
12752
12744
12734
12728
12728
12729
12734
12744
12757
12768
12779
12790
12793
12786
12771
12754
12729
12696
12662
12634
12607
12580
12558
12541
12521
12497
12477
12460
12440
12417
12401
12390
12375
12355
12335
12317
12300
12287
12280
12276
12270
12263
12252
12235
12212
12185
12161
12139
12115
12091
12071
12052
12030
12010
11997
11988
11977
11965
11954
11941
11931
11929
11928
11923
11917
11917
11919
11918
11919
11923
11922
11909
11895
11889
11890
11889
11888
11890
11892
11890
11886
11889
11896
11898
11896
11901
11915
11939
11980
12046
12132
12232
12350
12492
12657
12844
13062
13311
13574
13835
14084
14315
14519
14681
14803
14893
14949
14964
14944
14898
14831
14740
14631
14512
14386
14256
14129
14006
13888
13774
13669
13573
13489
13420
13366
13320
13279
13245
13221
13196
13166
13137
13108
13078
13044
13011
12985
12963
12945
12934
12927
12919
12906
12897
12896
12894
12887
12880
12875
12873
12874
12878
12884
12891
12899
12910
12926
12940
12948
12951
12945
12930
12909
12887
12863
12833
12803
12779
12754
12725
12697
12669
12638
12606
12578
12559
12543
12524
12511
12507
12499
12481
12460
12441
12419
12398
12383
12372
12358
12338
12318
12300
12283
12262
12244
12232
12219
12203
12190
12181
12167
12149
12134
12123
12109
12092
12074
12058
12043
12024
12004
11985
11965
11943
11928
11917
11904
11892
11888
11888
11885
11880
11881
11884
11876
11862
11850
11842
11831
11818
11814
11817
11825
11844
11878
11929
11996
12085
12195
12323
12464
12624
12809
13022
13262
13518
13776
14022
14249
14452
14621
14751
14842
14894
14911
14895
14850
14783
14691
14579
14461
14334
14200
14066
13940
13823
13710
13604
13516
13446
13381
13318
13264
13221
13183
13145
13113
13087
13058
13022
12989
12961
12936
12909
12883
12858
12834
12811
12795
12785
12776
12768
12767
12769
12769
12770
12775
12781
12784
12783
12782
12780
12779
12780
12783
12780
12767
12752
12739
12723
12701
12680
12661
12640
12620
12605
12592
12574
12549
12520
12492
12463
12432
12405
12382
12359
12337
12321
12306
12289
12271
12256
12243
12232
12226
12226
12223
12215
12206
12199
12190
12177
12163
12150
12132
12116
12109
12106
12100
12092
12089
12091
12088
12079
12067
12058
12049
12038
12032
12029
12024
12013
12003
11999
12001
12002
12003
12003
11998
11991
11989
11989
11980
11963
11946
11930
11913
11897
11882
11866
11849
11839
11838
11847
11873
11921
11993
12084
12191
12313
12450
12597
12752
12927
13125
13336
13550
13760
13955
14121
14256
14360
14430
14460
14454
14416
14348
14253
14140
14019
13892
13756
13623
13501
13388
13282
13187
13111
13051
13001
12961
12932
12910
12888
12869
12858
12848
12836
12823
12809
12794
12776
12759
12747
12737
12721
12709
12708
12713
12720
12734
12755
12774
12789
12805
12828
12848
12864
12882
12906
12931
12953
12975
12997
13014
13024
13033
13039
13034
13022
13008
12992
12972
12949
12927
12906
12884
12862
12845
12830
12808
12784
12765
12749
12732
12712
12694
12676
12654
12630
12609
12585
12559
12538
12522
12504
12484
12466
12448
12424
12395
12372
12351
12326
12304
12283
12261
12239
12224
12218
12211
12200
12190
12182
12177
12171
12164
12159
12152
12142
12129
12112
12089
12060
12027
11993
11953
11904
11851
11800
11750
11706
11673
11648
11625
11607
11607
11631
11673
11736
11825
11937
12060
12189
12328
12474
12629
12794
12967
13142
13308
13460
13596
13708
13789
13837
13854
13841
13803
13744
13675
13596
13507
13417
13333
13255
13180
13114
13058
13009
12969
12942
12927
12918
12913
12913
12914
12913
12911
12913
12914
12908
12902
12900
12901
12903
12906
12912
12916
12916
12918
12927
12935
12939
12942
12943
12936
12915
12885
12855
12826
12791
12757
12728
12699
12667
12633
12596
12554
12511
12474
12442
12411
12381
12356
12334
12310
12287
12272
12261
12243
12223
12207
12195
12177
12154
12135
12120
12103
12087
12080
12079
12075
12072
12076
12089
12103
12122
12148
12175
12193
12200
12203
12205
12203
12200
12201
12202
12201
12207
12222
12241
12262
12284
12303
12318
12329
12342
12355
12362
12368
12382
12401
12416
12433
12454
12470
12475
12472
12467
12463
12455
12442
12431
12423
12416
12408
12404
12407
12409
12412
12426
12449
12478
12522
12588
12668
12756
12853
12963
13086
13224
13378
13552
13741
13937
14127
14301
14448
14568
14661
14718
14737
14727
14693
14639
14563
14474
14383
14287
14184
14080
13982
13894
13811
13733
13668
13618
13576
13543
13523
13513
13505
13498
13499
13502
13500
13492
13483
13475
13466
13456
13452
13454
13459
13462
13465
13469
13473
13480
13492
13505
13514
13525
13545
13568
13593
13620
13649
13679
13706
13732
13755
13769
13780
13793
13803
13805
13802
13795
13782
13765
13749
13733
13713
13693
13675
13659
13641
13619
13596
13573
13544
13509
13473
13438
13402
13361
13323
13292
13260
13223
13188
13156
13126
13096
13073
13055
13038
13020
13002
12985
12964
12939
12916
12897
12878
12858
12839
12822
12805
12790
12783
12779
12774
12771
12773
12773
12763
12748
12741
12737
12730
12727
12729
12729
12724
12719
12717
12715
12714
12723
12745
12773
12808
12863
12943
13039
13150
13282
13434
13608
13811
14048
14308
14574
14836
15085
15312
15501
15647
15755
15826
15858
15857
15832
15783
15706
15610
15506
15396
15282
15173
15072
14974
14875
14779
14696
14626
14563
14508
14466
14434
14400
14369
14347
14326
14303
14283
14264
14244
14221
14198
14173
14148
14125
14112
14103
14096
14095
14104
14112
14119
14130
14149
14169
14185
14199
14216
14232
14244
14255
14266
14272
14272
14269
14263
14250
14234
14216
14195
14174
14154
14134
14111
14084
14057
14035
14009
13979
13954
13936
13921
13905
13891
13879
13867
13850
13834
13825
13818
13804
13788
13781
13776
13765
13754
13745
13732
13713
13695
13679
13659
13639
13626
13620
13612
13603
13600
13599
13595
13584
13568
13548
13524
13502
13490
13484
13477
13472
13471
13470
13467
13464
13464
13462
13450
13437
13428
13417
13401
13390
13396
13419
13457
13514
13597
13698
13815
13959
14138
14358
14619
14918
15246
15584
15911
16218
16493
16723
16901
17032
17123
17173
17182
17154
17094
17008
16907
16800
16690
16574
16458
16340
16217
16093
15975
15866
15764
15668
15581
15507
15443
15383
15329
15288
15254
15219
15185
15155
15124
15085
15042
15000
14960
14921
14887
14858
14832
14809
14793
14782
14773
14766
14766
14775
14786
14800
14817
14828
14829
14824
14818
14812
14805
14796
14792
14789
14776
14754
14731
14710
14685
14652
14617
14585
14551
14517
14493
14477
14459
14440
14425
14408
14388
14367
14350
14333
14315
14298
14282
14271
14264
14260
14255
14246
14232
14219
14208
14194
14177
14163
14150
14132
14113
14097
14082
14061
14036
14010
13985
13958
13930
13908
13890
13873
13858
13849
13849
13851
13853
13857
13859
13857
13851
13851
13858
13866
13874
13882
13891
13899
13912
13940
13982
14042
14125
14235
14375
14556
14796
15098
15449
15833
16230
16621
16985
17310
17591
17824
18006
18137
18225
18276
18288
18264
18214
18142
18047
17939
17827
17707
17582
17462
17349
17241
17132
17026
16923
16823
16729
16645
16573
16511
16460
16417
16376
16332
16284
16234
16178
16113
16041
15964
15884
15799
15714
15638
15571
15511
15460
15420
15383
15344
15310
15290
15280
15274
15275
15286
15307
15333
15360
15389
15415
15430
15434
15432
15422
15405
15384
15360
15333
15301
15269
15239
15210
15180
15154
15131
15106
15074
15042
15014
14985
14953
14922
14892
14863
14839
14820
14801
14783
14768
14756
14742
14723
14704
14690
14676
14658
14642
14634
14628
14616
14598
14587
14584
14583
14586
14593
14592
14582
14572
14565
14552
14534
14517
14508
14499
14489
14482
14478
14473
14460
14449
14441
14429
14415
14408
14402
14392
14383
14378
14379
14380
14382
14398
14432
14479
14540
14630
14766
14959
15220
15551
15937
16355
16786
17213
17614
17972
18280
18540
18747
18900
19007
19070
19086
19059
19006
18932
18836
18723
18605
18483
18357
18231
18110
17989
17868
17751
17645
17549
17459
17381
17320
17268
17216
17162
17108
17051
16988
16920
16846
16763
16669
16571
16477
16389
16304
16223
16150
16086
16028
15981
15950
15928
15910
15895
15884
15880
15879
15882
15888
15895
15900
15908
15918
15924
15926
15927
15918
15900
15881
15864
15840
15805
15764
15719
15670
15615
15558
15503
15445
15385
15329
15277
15229
15186
15153
15127
15102
15077
15052
15031
15011
14986
14962
14944
14927
14904
14881
14864
14846
14824
14805
14790
14773
14753
14736
14726
14715
14704
14693
14681
14661
14636
14617
14603
14589
14573
14562
14552
14541
14536
14539
14544
14548
14556
14561
14553
14537
14523
14507
14484
14458
14433
14415
14400
14388
14382
14382
14384
14394
14422
14477
14553
14656
14797
14990
15241
15554
15921
16321
16733
17139
17522
17863
18152
18385
18564
18690
18766
18796
18789
18745
18666
18563
18445
18313
18168
18019
17876
17737
17595
17456
17325
17205
17092
16992
16902
16820
16748
16687
16629
16572
16518
16471
16421
16365
16303
16238
16166
16087
16010
15942
15881
15825
15781
15750
15729
15713
15701
15695
15694
15692
15694
15703
15716
15730
15746
15765
15785
15806
15827
15846
15853
15848
15838
15828
15810
15782
15747
15706
15659
15605
15551
15505
15466
15432
15400
15368
15334
15301
15273
15246
15215
15184
15155
15124
15092
15064
15041
15017
14990
14969
14960
14956
14951
14947
14943
14932
14916
14903
14897
14889
14878
14870
14859
14839
14815
14799
14790
14782
14774
14769
14767
14763
14758
14755
14754
14750
14745
14741
14732
14713
14691
14675
14663
14647
14628
14613
14604
14597
14597
14617
14659
14721
14811
14940
15119
15359
15666
16033
16438
16855
17270
17665
18019
18318
18561
18752
18890
18975
19017
19018
18972
18884
18770
18644
18506
18358
18208
18060
17909
17755
17603
17454
17310
17175
17051
16940
16838
16749
16673
16605
16540
16478
16416
16347
16270
16194
16120
16044
15969
15902
15846
15793
15745
15712
15695
15681
15664
15651
15650
15657
15664
15675
15697
15724
15751
15776
15800
15818
15827
15832
15833
15830
15824
15814
15797
15772
15743
15708
15666
15618
15572
15532
15490
15446
15406
15373
15341
15308
15282
15264
15246
15222
15195
15169
15142
15112
15082
15062
15051
15040
15026
15014
15001
14988
14975
14961
14943
14922
14902
14887
14875
14863
14852
14841
14829
14817
14806
14793
14776
14756
14739
14722
14703
14688
14678
14665
14646
14627
14619
14615
14609
14602
14596
14587
14572
14559
14550
14536
14519
14505
14493
14484
14484
14498
14526
14571
14638
14731
14854
15016
15239
15535
15891
16284
16699
17123
17527
17893
18215
18484
18692
18841
18938
18985
18984
18941
18864
18760
18635
18493
18338
18178
18015
17850
17686
17532
17387
17250
17121
17002
16891
16792
16710
16641
16579
16520
16464
16408
16345
16280
16216
16150
16077
16001
15927
15855
15783
15716
15660
15614
15574
15542
15524
15515
15505
15494
15489
15489
15492
15500
15507
15510
15514
15518
15519
15515
15508
15500
15492
15482
15466
15448
15428
15406
15382
15355
15326
15295
15259
15221
15183
15145
15111
15083
15055
15023
14993
14970
14948
14924
14901
14881
14859
14831
14801
14771
14738
14702
14673
14654
14642
14632
14625
14620
14610
14594
14579
14567
14551
14530
14513
14499
14479
14457
14439
14426
14413
14402
14396
14394
14387
14374
14366
14363
14355
14344
14336
14328
14319
14311
14306
14299
14287
14271
14254
14243
14232
14223
14216
14210
14200
14194
14199
14220
14261
14326
14414
14522
14657
14833
15060
15338
15661
16020
16396
16768
17121
17441
17710
17918
18067
18161
18205
18203
18167
18105
18018
17905
17771
17627
17479
17326
17168
17014
16863
16712
16567
16437
16320
16210
16113
16034
15974
15923
15878
15841
15806
15767
15724
15684
15648
15611
15573
15538
15507
15475
15445
15421
15401
15382
15367
15358
15352
15346
15343
15344
15347
15352
15362
15371
15377
15386
15403
15418
15432
15447
15458
15461
15452
15434
15414
15390
15362
15335
15308
15278
15245
15213
15187
15158
15122
15088
15060
15031
15001
14976
14955
14933
14910
14891
14873
14852
14831
14812
14797
14783
14768
14752
14739
14725
14709
14697
14687
14676
14667
14663
14659
14654
14650
14647
14643
14629
14607
14588
14574
14561
14554
14555
14560
14561
14558
14555
14551
14538
14517
14496
14473
14450
14433
14426
14422
14418
14413
14410
14406
14406
14416
14437
14472
14527
14608
14712
14830
14967
15139
15361
15631
15938
16271
16607
16921
17204
17450
17650
17795
17893
17943
17943
17900
17829
17733
17611
17467
17311
17153
16993
16831
16676
16532
16395
16270
16162
16072
15995
15928
15871
15819
15770
15728
15697
15669
15642
15619
15606
15592
15569
15540
15512
15488
15460
15431
15408
15391
15377
15370
15370
15371
15367
15365
15372
15383
15397
15413
15431
15445
15449
15446
15440
15431
15417
15400
15381
15365
15348
15332
15315
15291
15259
15228
15199
15171
15142
15117
15093
15066
15040
15019
14998
14974
14951
14931
14912
14895
14884
14877
14865
14848
14832
14819
14803
14785
14772
14764
14753
14737
14725
14720
14715
14706
14695
14682
14667
14649
14634
14620
14608
14595
14582
14572
14559
14547
14543
14542
14539
14532
14527
14522
14509
14494
14484
14475
14465
14460
14459
14455
14446
14436
14428
14423
14425
14447
14491
14555
14640
14749
14885
15049
15249
15496
15789
16113
16449
16784
17101
17380
17617
17815
17969
18072
18125
18133
18097
18019
17911
17789
17656
17512
17361
17215
17075
16935
16797
16669
16550
16437
16333
16244
16168
16099
16043
16000
15966
15939
15915
15890
15863
15834
15805
15772
15737
15705
15680
15660
15638
15616
15604
15599
15592
15584
15579
15572
15562
15558
15561
15570
15580
15591
15607
15626
15642
15655
15667
15674
15668
15655
15641
15626
15607
15589
15575
15562
15542
15516
15489
15461
15431
15399
15367
15331
15295
15264
15236
15207
15186
15175
15168
15153
15138
15132
15129
15122
15114
15105
15090
15066
15044
15028
15013
14993
14972
14955
14942
14926
14911
14901
14891
14876
14865
14856
14845
14831
14820
14814
14808
14798
14790
14781
14768
14751
14734
14717
14695
14670
14653
14646
14637
14621
14606
14594
14580
14568
14563
14564
14567
14575
14597
14630
14676
14738
14825
14935
15063
15218
15412
15650
15928
16241
16575
16906
17218
17505
17757
17960
18112
18217
18276
18283
18246
18184
18104
18003
17885
17759
17629
17491
17346
17200
17060
16924
16796
16683
16584
16498
16420
16353
16293
16239
16196
16162
16129
16092
16058
16029
15998
15963
15932
15902
15868
15829
15791
15758
15733
15714
15696
15680
15662
15645
15638
15640
15645
15654
15670
15693
15713
15724
15731
15733
15723
15708
15695
15683
15661
15631
15606
15587
15569
15549
15530
15508
15478
15449
15426
15405
15381
15355
15336
15321
15304
15287
15271
15255
15232
15200
15168
15138
15106
15076
15051
15027
15001
14976
14960
14951
14944
14937
14927
14912
14896
14882
14868
14851
14830
14812
14796
14779
14762
14744
14725
14708
14697
14694
14692
14684
14677
14674
14671
14662
14654
14656
14659
14658
14653
14644
14630
14609
14592
14584
14576
14564
14559
14571
14601
14645
14705
14786
14882
14993
15129
15304
15520
15773
16059
16363
16668
16955
17213
17436
17614
17748
17837
17881
17880
17844
17786
17707
17601
17474
17339
17198
17050
16898
16751
16617
16496
16386
16290
16209
16139
16076
16025
15983
15944
15908
15878
15850
15819
15788
15762
15738
15712
15687
15670
15655
15639
15624
15616
15608
15594
15582
15578
15577
15575
15575
15582
15591
15604
15622
15639
15651
15659
15667
15672
15670
15664
15661
15659
15649
15634
15616
15592
15566
15543
15522
15497
15462
15421
15382
15342
15304
15270
15240
15212
15185
15163
15147
15134
15122
15111
15098
15080
15063
15053
15044
15025
14998
14973
14950
14930
14913
14901
14886
14864
14843
14830
14820
14806
14792
14778
14764
14749
14734
14724
14717
14707
14693
14683
14675
14671
14672
14672
14662
14645
14629
14617
14603
14590
14581
14576
14574
14581
14603
14641
14695
14770
14869
14992
15143
15338
15583
15868
16176
16497
16815
17109
17367
17585
17761
17886
17960
17992
17987
17942
17867
17772
17666
17546
17414
17281
17152
17021
16890
16770
16660
16555
16456
16368
16287
16210
16138
16076
16026
15980
15935
15890
15842
15791
15745
15706
15672
15637
15605
15582
15560
15538
15521
15515
15517
15517
15512
15510
15513
15517
15520
15525
15530
15532
15532
15535
15542
15548
15553
15561
15563
15554
15538
15524
15511
15496
15481
15465
15443
15416
15388
15361
15332
15304
15277
15250
15221
15191
15166
15142
15112
15083
15062
15044
15023
15003
14989
14979
14965
14948
14930
14909
14883
14858
14838
14820
14796
14770
14750
14734
14716
14702
14697
14699
14696
14691
14685
14671
14651
14635
14626
14618
14607
14601
14599
14593
14583
14569
14553
14535
14517
14507
14500
14492
14484
14480
14480
14477
14472
14473
14484
14503
14540
14601
14684
14782
14898
15042
15221
15439
15699
15997
16315
16630
16932
17215
17465
17673
17834
17950
18020
18050
18045
18009
17945
17855
17749
17628
17495
17359
17225
17090
16961
16844
16741
16643
16546
16461
16389
16326
16269
16219
16174
16127
16082
16043
16008
15967
15920
15874
15832
15792
15751
15716
15690
15669
15650
15634
15622
15610
15596
15585
15584
15586
15590
15599
15612
15626
15638
15648
15657
15660
15656
15654
15652
15644
15631
15618
15602
15577
15546
15516
15485
15450
15411
15376
15344
15310
15275
15245
15216
15185
15156
15134
15112
15087
15062
15041
15020
14993
14967
14942
14915
14889
14870
14859
14845
14828
14810
14789
14762
14739
14724
14712
14699
14687
14682
14678
14671
14662
14655
14646
14637
14635
14638
14637
14631
14626
14624
14619
14611
14605
14600
14590
14577
14568
14561
14545
14522
14501
14485
14471
14462
14459
14463
14471
14489
14526
14581
14650
14736
14840
14963
15109
15289
15511
15769
16045
16332
16620
16892
17134
17338
17499
17611
17678
17708
17703
17661
17587
17492
17379
17247
17103
16959
16820
16683
16547
16419
16306
16207
16121
16047
15983
15927
15884
15850
15822
15799
15776
15751
15721
15686
15652
15620
15585
15548
15518
15496
15476
15459
15450
15448
15447
15440
15432
15427
15425
15423
15428
15443
15458
15470
15481
15491
15495
15493
15494
15497
15496
15493
15492
15492
15486
15473
15459
15444
15422
15395
15368
15341
15314
15289
15266
15243
15224
15213
15205
15189
15167
15147
15137
15130
15121
15118
15117
15111
15097
15079
15065
15050
15033
15019
15011
14999
14982
14974
14975
14974
14964
14953
14944
14929
14909
14888
14867
14847
14831
14824
14821
14813
14797
14779
14764
14745
14722
14702
14685
14666
14645
14629
14614
14598
14587
14587
14595
14609
14638
14685
14748
14828
14930
15053
15192
15356
15556
15797
16064
16344
16626
16896
17135
17334
17497
17621
17695
17725
17720
17684
17619
17532
17433
17325
17207
17086
16971
16864
16758
16655
16561
16474
16393
16322
16266
16218
16165
16110
16061
16016
15972
15931
15893
15855
15814
15774
15738
15708
15685
15670
15656
15637
15619
15608
15599
15591
15590
15599
15611
15620
15626
15630
15630
15623
15614
15611
15612
15610
15605
15605
15608
15606
15600
15598
15598
15593
15580
15563
15545
15523
15496
15469
15439
15400
15358
15323
15296
15270
15244
15221
15199
15177
15159
15147
15138
15129
15122
15114
15100
15079
15057
15039
15018
14996
14980
14969
14961
14952
14946
14942
14933
14922
14914
14906
14894
14884
14881
14876
14866
14856
14850
14843
14834
14828
14824
14816
14808
14803
14799
14791
14781
14771
14765
14757
14743
14726
14711
14694
14676
14664
14666
14682
14710
14755
14821
14907
15015
15147
15307
15495
15713
15965
16242
16529
16817
17095
17349
17566
17748
17894
17995
18047
18060
18039
17987
17910
17820
17719
17607
17486
17366
17252
17138
17020
16917
16832
16754
16675
16600
16531
16463
16400
16347
16305
16266
16229
16195
16161
16123
16084
16049
16013
15972
15931
15893
15859
15828
15800
15780
15764
15747
15736
15730
15726
15725
15731
15742
15752
15758
15765
15775
15780
15774
15765
15762
15762
15758
15751
15741
15724
15699
15673
15649
15624
15597
15572
15550
15524
15492
15458
15423
15388
15355
15324
15292
15261
15239
15226
15213
15197
15182
15168
15152
15134
15121
15115
15109
15096
15085
15079
15069
15052
15035
15021
15003
14982
14969
14966
14961
14952
14942
14933
14921
14907
14896
14887
14878
14867
14857
14846
14826
14801
14775
14747
14712
14676
14643
14612
14577
14537
14499
14463
14423
14384
14354
14333
14326
14337
14371
14424
14492
14581
14696
14837
14996
15178
15390
15627
15879
16135
16380
16597
16778
16924
17032
17101
17135
17137
17112
17064
16999
16923
16836
16739
16641
16551
16466
16388
16319
16265
16221
16186
16160
16142
16127
16112
16100
16092
16082
16068
16051
16032
16009
15979
15948
15920
15889
15853
15818
15785
15749
15713
15685
15661
15633
15604
15581
15565
15550
15536
15533
15541
15550
15557
15565
15573
15574
15569
15566
15560
15549
15532
15513
15494
15469
15441
15416
15386
15343
15292
15248
15212
15176
15141
15110
15079
15044
15008
14979
14951
14920
14891
14863
14836
14806
14774
14741
14706
14670
14637
14615
14599
14587
14576
14567
14557
14548
14544
14541
14538
14533
14530
14530
14530
14532
14539
14543
14539
14534
14532
14530
14523
14517
14519
14525
14528
14532
14544
14557
14564
14568
14573
14576
14577
14577
14579
14584
14597
14622
14661
14711
14771
14851
14952
15070
15206
15366
15554
15771
16011
16267
16526
16769
16988
17176
17322
17420
17476
17497
17484
17437
17366
17280
17181
17070
16955
16840
16723
16606
16499
16405
16326
16259
16202
16161
16133
16109
16088
16068
16043
16014
15985
15956
15925
15894
15866
15841
15813
15786
15761
15740
15722
15708
15702
15701
15702
15703
15709
15719
15728
15735
15743
15753
15760
15767
15776
15782
15778
15769
15758
15742
15719
15697
15679
15659
15634
15612
15593
15571
15544
15519
15496
15468
15438
15413
15387
15354
15319
15288
15259
15228
15199
15177
15158
15137
15119
15111
15106
15097
15088
15084
15081
15075
15069
15064
15057
15049
15039
15030
15022
15010
14999
14989
14979
14969
14962
14958
14957
14958
14960
14962
14960
14954
14948
14946
14945
14940
14934
14928
14919
14908
14894
14876
14852
14827
14808
14798
14795
14802
14825
14865
14917
14985
15077
15190
15315
15455
15621
15820
16050
16308
16587
16871
17138
17384
17603
17782
17914
18002
18052
18067
18048
17998
17924
17827
17712
17589
17464
17335
17206
17085
16978
16878
16781
16691
16616
16550
16498
16458
16422
16383
16347
16318
16291
16262
16230
16204
16179
16149
16115
16085
16060
16034
16014
16008
16008
16003
15994
15988
15984
15980
15977
15980
15981
15982
15988
15999
16014
16029
16040
16046
16044
16038
16033
16027
16016
16001
15986
15974
15962
15947
15929
15911
15888
15859
15827
15795
15764
15735
15704
15668
15627
15588
15559
15533
15507
15483
15467
15454
15440
15427
15418
15406
15391
15379
15368
15352
15329
15308
15291
15275
15260
15253
15249
15241
15230
15224
15226
15227
15224
15217
15204
15185
15166
15155
15151
15146
15138
15135
15136
15131
15114
15094
15076
15059
15048
15041
15035
15027
15017
15014
15017
15024
15041
15070
15106
15152
15221
15312
15417
15540
15688
15856
16037
16238
16472
16730
16986
17229
17449
17634
17776
17876
17937
17960
17945
17904
17845
17768
17674
17568
17453
17329
17203
17085
16977
16873
16772
16686
16611
16540
16475
16420
16375
16334
16296
16266
16240
16213
16186
16164
16141
16112
16084
16062
16043
16022
16007
16001
15996
15985
15974
15969
15968
15967
15968
15976
15987
15996
16003
16015
16025
16025
16019
16007
15992
15973
15951
15930
15909
15885
15863
15844
15826
15807
15787
15766
15742
15718
15698
15683
15667
15644
15621
15599
15574
15545
15519
15499
15474
15447
15424
15405
15384
15364
15351
15338
15316
15292
15275
15261
15242
15218
15197
15178
15158
15140
15124
15109
15093
15079
15073
15071
15066
15062
15060
15053
15039
15027
15021
15010
14993
14979
14971
14967
14968
14978
14987
14988
14985
14985
14984
14977
14971
14969
14967
14961
14958
14962
14970
14985
15011
15057
15123
15207
15311
15435
15568
15710
15871
16058
16262
16477
16696
16905
17089
17243
17367
17456
17499
17500
17472
17418
17338
17238
17128
17013
16894
16779
16671
16567
16470
16386
16317
16259
16210
16171
16144
16121
16096
16073
16056
16042
16026
16013
16000
15978
15952
15933
15917
15900
15883
15871
15864
15856
15851
15854
15859
15859
15860
15867
15877
15884
15891
15908
15927
15939
15947
15955
15957
15953
15950
15950
15949
15943
15937
15934
15924
15907
15887
15866
15838
15802
15766
15734
15698
15660
15628
15599
15566
15532
15507
15492
15482
15474
15463
15448
15431
15412
15395
15380
15361
15344
15331
15322
15315
15305
15294
15281
15262
15242
15222
15202
15183
15166
15154
15148
15143
15135
15130
15126
15122
15118
15118
15116
15108
15094
15080
15066
15050
15039
15036
15038
15042
15055
15081
15116
15161
15226
15310
15405
15512
15638
15785
15947
16130
16340
16567
16797
17018
17219
17390
17523
17621
17694
17739
17749
17729
17684
17615
17524
17419
17307
17191
17074
16961
16855
16751
16650
16563
16493
16434
16381
16339
16307
16275
16246
16221
16196
16170
16149
16132
16113
16089
16068
16051
16039
16026
16010
15998
15990
15982
15976
15974
15971
15966
15966
15973
15979
15983
15992
16009
16026
16037
16047
16057
16062
16060
16055
16054
16051
16045
16040
16036
16028
16010
15988
15964
15934
15901
15878
15861
15842
15816
15786
15752
15712
15673
15641
15613
15587
15567
15553
15539
15519
15499
15486
15474
15457
15437
15419
15403
15382
15359
15339
15322
15308
15294
15283
15270
15250
15231
15215
15199
15183
15171
15164
15159
15149
15140
15139
15136
15127
15123
15128
15135
15135
15131
15129
15127
15124
15119
15113
15108
15111
15129
15163
15211
15277
15365
15473
15598
15743
15917
16121
16352
16611
16886
17158
17407
17631
17824
17972
18077
18146
18179
18170
18124
18054
17969
17869
17759
17644
17527
17405
17285
17175
17072
16971
16879
16804
16738
16677
16626
16590
16564
16538
16514
16491
16461
16426
16394
16369
16344
16318
16296
16276
16253
16226
16198
16173
16154
16142
16139
16143
16143
16137
16130
16128
16128
16127
16131
16137
16137
16135
16137
16141
16138
16128
16120
16113
16103
16097
16094
16088
16072
16053
16039
16026
16005
15976
15948
15923
15899
15875
15852
15829
15800
15767
15736
15706
15674
15644
15619
15594
15568
15546
15534
15529
15520
15506
15493
15480
15464
15450
15437
15422
15404
15387
15375
15371
15371
15372
15373
15372
15370
15370
15369
15363
15356
15348
15337
15322
15306
15296
15292
15291
15297
15305
15304
15294
15284
15278
15271
15266
15269
15280
15296
15323
15368
15434
15518
15618
15738
15876
16026
16193
16389
16617
16860
17103
17338
17555
17744
17900
18022
18107
18151
18159
18138
18089
18014
17916
17808
17694
17572
17448
17325
17205
17096
17002
16924
16855
16794
16738
16690
16648
16604
16564
16532
16502
16470
16435
16403
16375
16348
16326
16309
16289
16267
16244
16222
16200
16178
16161
16150
16142
16139
16142
16147
16146
16141
16137
16132
16125
16120
16118
16112
16100
16085
16069
16050
16028
16010
15998
15984
15970
15958
15944
15919
15891
15875
15867
15856
15842
15827
15811
15788
15762
15737
15720
15709
15707
15714
15729
15741
15741
15731
15717
15700
15682
15664
15642
15622
15608
15600
15591
15574
15551
15529
15499
15463
15432
15413
15403
15402
15409
15425
15442
15448
15448
15451
15456
15458
15459
15458
15452
15445
15440
15437
15432
15421
15409
15397
15384
15371
15362
15358
15355
15355
15362
15373
15386
15409
15452
15518
15605
15712
15842
15992
16148
16320
16524
16757
17003
17251
17487
17696
17868
18001
18098
18155
18170
18151
18108
18040
17951
17849
17740
17625
17505
17391
17284
17178
17075
16984
16904
16836
16784
16746
16715
16686
16659
16638
16618
16597
16579
16566
16553
16539
16524
16507
16488
16465
16444
16431
16425
16415
16401
16391
16383
16377
16377
16382
16387
16390
16396
16406
16415
16422
16428
16432
16430
16423
16422
16426
16427
16426
16422
16418
16409
16384
16347
16303
16258
16222
16197
16175
16151
16129
16108
16087
16065
16048
16034
16013
15990
15978
15974
15969
15960
15948
15929
15900
15868
15844
15826
15810
15796
15787
15778
15768
15759
15751
15740
15724
15714
15710
15702
15688
15677
15677
15677
15669
15658
15647
15634
15620
15611
15609
15607
15599
15588
15585
15586
15585
15582
15581
15581
15584
15599
15628
15670
15729
15805
15898
16007
16129
16269
16431
16617
16826
17055
17292
17520
17733
17923
18078
18193
18268
18307
18310
18280
18225
18154
18066
17959
17843
17726
17608
17487
17370
17265
17169
17079
16999
16931
16873
16822
16777
16739
16708
16677
16651
16631
16610
16585
16561
16541
16523
16506
16490
16475
16458
16443
16432
16425
16419
16413
16410
16408
16407
16409
16415
16426
16437
16449
16466
16487
16502
16515
16530
16545
16551
16549
16542
16529
16507
16481
16459
16436
16409
16381
16358
16336
16307
16275
16247
16221
16194
16173
16165
16158
16143
16125
16109
16096
16082
16067
16049
16029
16009
15994
15981
15967
15952
15939
15925
15905
15887
15877
15871
15859
15842
15825
15808
15788
15769
15756
15751
15743
15732
15724
15715
15700
15683
15669
15652
15631
15610
15595
15583
15572
15566
15563
15557
15548
15545
15547
15548
15545
15540
15535
15533
15538
15557
15593
15648
15730
15838
15966
16100
16240
16402
16596
16822
17070
17330
17587
17824
18030
18204
18345
18443
18501
18522
18509
18466
18401
18323
18234
18131
18017
17898
17776
17653
17533
17415
17303
17201
17114
17038
16966
16903
16855
16821
16787
16750
16718
16694
16673
16656
16645
16630
16605
16579
16560
16543
16521
16499
16482
16469
16461
16457
16456
16458
16459
16461
16465
16470
16474
16483
16498
16513
16526
16537
16546
16553
16559
16565
16572
16577
16576
16572
16567
16556
16539
16520
16499
16474
16448
16425
16402
16375
16345
16321
16304
16285
16265
16251
16238
16219
16195
16170
16143
16109
16074
16044
16021
16000
15982
15969
15955
15942
15930
15921
15914
15909
15909
15910
15907
15900
15893
15885
15874
15866
15866
15867
15861
15849
15841
15832
15821
15812
15808
15802
15795
15792
15792
15786
15777
15772
15769
15761
15752
15748
15746
15743
15745
15756
15773
15796
15833
15893
15975
16070
16177
16303
16449
16616
16811
17039
17290
17545
17794
18029
18236
18400
18523
18607
18654
18663
18641
18593
18523
18431
18324
18214
18101
17982
17864
17753
17642
17530
17427
17340
17266
17203
17152
17110
17070
17030
16999
16977
16957
16935
16915
16894
16870
16848
16830
16816
16800
16787
16779
16771
16760
16752
16751
16755
16754
16753
16756
16756
16753
16750
16748
16743
16738
16735
16733
16729
16723
16717
16712
16703
16686
16667
16649
16628
16607
16590
16576
16558
16535
16507
16482
16457
16435
16414
16387
16353
16322
16300
16284
16268
16249
16232
16215
16192
16168
16146
16123
16096
16071
16052
16028
15997
15967
15943
15921
15900
15884
15876
15873
15872
15875
15881
15885
15884
15881
15877
15869
15861
15858
15858
15854
15848
15843
15837
15830
15819
15808
15798
15787
15778
15774
15769
15761
15755
15757
15760
15764
15773
15794
15828
15873
15940
16033
16146
16272
16409
16559
16723
16905
17115
17348
17587
17816
18029
18213
18357
18461
18532
18569
18568
18532
18470
18385
18280
18159
18030
17899
17767
17638
17519
17411
17316
17236
17174
17124
17080
17042
17012
16986
16960
16935
16917
16900
16882
16868
16861
16854
16842
16832
16827
16822
16814
16808
16805
16804
16800
16793
16790
16790
16791
16792
16797
16807
16817
16829
16845
16859
16870
16881
16891
16896
16893
16888
16884
16874
16861
16851
16842
16827
16809
16795
16785
16773
16759
16744
16722
16690
16652
16623
16597
16569
16540
16514
16486
16457
16429
16404
16384
16368
16356
16348
16334
16313
16293
16276
16257
16240
16228
16221
16208
16191
16175
16162
16151
16140
16129
16118
16105
16096
16095
16097
16097
16103
16113
16120
16119
16111
16095
16074
16052
16030
16011
16001
15998
16004
16015
16025
16034
16048
16073
16113
16174
16255
16354
16464
16586
16730
16901
17102
17338
17601
17869
18118
18339
18533
18690
18807
18889
18937
18948
18923
18874
18808
18727
18626
18512
18392
18268
18139
18008
17884
17767
17658
17567
17495
17430
17370
17321
17283
17247
17209
17172
17141
17111
17080
17055
17035
17008
16972
16939
16917
16902
16888
16879
16878
16880
16884
16894
16907
16918
16930
16946
16962
16971
16977
16986
16994
16997
16996
16999
17004
17003
16997
16992
16986
16976
16966
16961
16958
16950
16935
16914
16887
16855
16820
16788
16757
16726
16697
16673
16649
16619
16590
16565
16540
16517
16496
16477
16458
16439
16424
16413
16397
16380
16365
16351
16336
16319
16305
16293
16279
16261
16244
16227
16206
16186
16175
16169
16164
16158
16156
16154
16148
16139
16131
16124
16114
16105
16096
16089
16084
16084
16085
16080
16071
16067
16071
16076
16081
16088
16095
16100
16106
16119
16140
16168
16210
16275
16367
16478
16612
16781
16991
17236
17508
17796
18087
18364
18618
18843
19029
19171
19272
19338
19369
19365
19337
19292
19227
19145
19050
18950
18844
18735
18628
18527
18428
18332
18243
18160
18081
18008
17948
17894
17841
17792
17752
17715
17673
17629
17590
17554
17513
17469
17428
17386
17342
17300
17268
17245
17226
17210
17198
17185
17173
17165
17161
17157
17154
17157
17163
17171
17177
17182
17183
17179
17174
17168
17154
17134
17116
17102
17086
17066
17047
17029
17005
16973
16945
16924
16903
16881
16866
16857
16846
16827
16807
16788
16768
16748
16733
16721
16703
16681
16663
16646
16623
16594
16571
16554
16537
16522
16514
16505
16488
16464
16442
16422
16399
16375
16355
16331
16303
16281
16272
16267
16261
16256
16251
16240
16223
16210
16204
16202
16198
16194
16191
16184
16172
16163
16156
16146
16133
16124
16117
16103
16084
16068
16056
16044
16035
16040
16059
16089
16132
16198
16291
16401
16528
16678
16851
17048
17275
17527
17785
18037
18274
18487
18666
18807
18919
19002
19047
19051
19024
18973
18898
18804
18701
18594
18477
18355
18240
18130
18018
17908
17808
17723
17649
17587
17537
17495
17456
17423
17395
17369
17341
17314
17288
17259
17228
17199
17173
17144
17111
17084
17067
17056
17048
17044
17044
17047
17052
17059
17066
17070
17071
17071
17071
17065
17055
17051
17051
17047
17043
17045
17050
17046
17026
17001
16975
16945
16914
16890
16868
16841
16807
16778
16751
16719
16688
16663
16639
16613
16591
16572
16552
16529
16503
16478
16453
16429
16410
16395
16377
16354
16334
16317
16301
16290
16288
16290
16288
16282
16277
16273
16265
16255
16250
16250
16247
16241
16236
16231
16224
16222
16221
16215
16203
16189
16178
16168
16156
16148
16144
16137
16124
16115
16113
16109
16104
16108
16126
16157
16206
16278
16372
16482
16605
16749
16924
17130
17360
17610
17873
18133
18374
18585
18760
18896
18993
19052
19074
19061
19020
18957
18875
18775
18660
18540
18419
18293
18164
18046
17942
17850
17769
17697
17628
17557
17492
17441
17399
17359
17322
17291
17259
17222
17183
17146
17112
17078
17045
17019
17000
16984
16971
16962
16958
16956
16956
16959
16961
16964
16970
16979
16986
16989
16990
16989
16983
16973
16968
16965
16954
16937
16926
16919
16910
16898
16883
16863
16837
16808
16781
16754
16725
16696
16672
16645
16609
16574
16544
16514
16481
16453
16431
16407
16377
16350
16329
16308
16285
16266
16252
16239
16232
16229
16224
16215
16206
16201
16195
16190
16187
16187
16184
16178
16172
16168
16161
16150
16138
16127
16110
16089
16074
16062
16050
16037
16026
16018
16011
16001
15988
15977
15968
15958
15950
15949
15952
15954
15961
15977
16003
16042
16102
16183
16281
16398
16540
16712
16914
17150
17423
17718
18014
18298
18563
18796
18985
19130
19239
19313
19347
19346
19323
19278
19206
19117
19022
18919
18806
18692
18580
18469
18361
18263
18178
18101
18026
17960
17906
17855
17800
17750
17709
17671
17638
17613
17592
17567
17540
17518
17494
17462
17428
17399
17376
17358
17345
17339
17333
17323
17314
17310
17309
17310
17312
17319
17327
17332
17337
17343
17340
17327
17318
17315
17311
17303
17296
17288
17277
17260
17239
17216
17191
17167
17147
17126
17098
17067
17040
17016
16990
16964
16941
16915
16882
16849
16822
16792
16757
16725
16702
16684
16669
16659
16650
16635
16613
16589
16567
16543
16520
16506
16500
16491
16481
16475
16469
16456
16442
16432
16422
16407
16391
16379
16367
16351
16334
16320
16304
16291
16282
16281
16284
16284
16284
16285
16283
16273
16263
16259
16259
16255
16254
16259
16263
16270
16291
16332
16395
16474
16574
16697
16840
17009
17219
17469
17742
18029
18325
18613
18874
19097
19278
19414
19504
19555
19574
19561
19514
19440
19349
19241
19120
18994
18872
18749
18623
18502
18394
18294
18198
18112
18040
17978
17923
17876
17838
17799
17760
17727
17699
17668
17633
17599
17566
17529
17489
17454
17423
17389
17354
17329
17311
17294
17276
17267
17266
17270
17279
17293
17304
17309
17311
17314
17315
17313
17309
17304
17297
17285
17272
17262
17251
17237
17224
17212
17195
17177
17162
17146
17122
17096
17076
17061
17040
17012
16986
16960
16929
16895
16869
16847
16819
16785
16755
16730
16705
16681
16658
16633
16605
16581
16567
16558
16550
16545
16540
16530
16511
16493
16480
16469
16456
16445
16432
16414
16395
16378
16365
16352
16337
16328
16325
16320
16311
16305
16300
16292
16280
16272
16267
16261
16256
16255
16259
16269
16293
16339
16405
16486
16587
16709
16853
17019
17212
17437
17686
17940
18192
18433
18650
18832
18978
19088
19162
19199
19203
19177
19125
19047
18954
18851
18739
18617
18490
18365
18240
18117
18001
17901
17815
17741
17680
17629
17585
17545
17508
17474
17439
17407
17377
17349
17324
17301
17281
17259
17233
17210
17191
17169
17146
17129
17121
17111
17099
17095
17101
17110
17120
17132
17144
17151
17153
17158
17165
17166
17161
17157
17153
17143
17127
17109
17091
17071
17047
17027
17010
16989
16964
16941
16914
16881
16844
16811
16781
16746
16709
16678
16646
16610
16575
16547
16525
16503
16482
16463
16444
16424
16411
16409
16411
16407
16396
16384
16368
16343
16316
16290
16262
16229
16200
16179
16161
16145
16134
16127
16121
16113
16115
16122
16127
16128
16127
16123
16114
16103
16097
16096
16094
16092
16096
16113
16148
16205
16284
16378
16485
16614
16777
16978
17217
17492
17793
18102
18396
18664
18901
19098
19251
19361
19434
19469
19468
19440
19387
19309
19212
19106
18994
18877
18756
18632
18503
18372
18249
18138
18037
17941
17854
17782
17719
17656
17599
17551
17508
17463
17422
17386
17349
17312
17283
17261
17239
17216
17197
17184
17168
17153
17143
17135
17127
17125
17130
17142
17155
17166
17174
17181
17185
17185
17182
17176
17171
17165
17160
17155
17149
17141
17135
17132
17123
17110
17097
17084
17065
17044
17026
17004
16976
16947
16924
16899
16871
16840
16814
16791
16765
16740
16717
16697
16678
16663
16650
16635
16619
16604
16590
16574
16554
16538
16525
16515
16506
16497
16486
16469
16449
16431
16416
16404
16394
16388
16381
16373
16366
16367
16365
16355
16340
16331
16323
16309
16289
16271
16257
16247
16244
16249
16259
16271
16295
16340
16405
16485
16586
16710
16856
17028
17238
17493
17780
18084
18394
18693
18964
19196
19392
19553
19673
19753
19797
19806
19779
19722
19648
19558
19455
19346
19236
19121
19002
18884
18769
18655
18546
18448
18364
18292
18227
18166
18114
18069
18024
17978
17930
17881
17830
17782
17740
17698
17653
17613
17580
17550
17516
17481
17451
17429
17416
17415
17419
17419
17415
17414
17416
17415
17415
17419
17423
17421
17415
17410
17403
17393
17383
17377
17370
17357
17343
17330
17312
17290
17267
17245
17220
17192
17164
17136
17102
17069
17044
17024
17003
16983
16964
16940
16912
16886
16869
16854
16838
16826
16819
16808
16788
16767
16744
16718
16689
16663
16642
16621
16598
16579
16566
16551
16535
16528
16526
16518
16505
16494
16487
16478
16468
16460
16454
16447
16439
16430
16417
16401
16385
16374
16363
16349
16335
16328
16329
16338
16357
16396
16454
16529
16630
16759
16910
17076
17265
17491
17749
18023
18301
18572
18819
19027
19201
19339
19433
19483
19500
19490
19452
19387
19312
19230
19132
19020
18904
18788
18671
18553
18443
18341
18243
18155
18081
18016
17955
17899
17854
17817
17781
17744
17712
17679
17643
17609
17583
17560
17537
17519
17507
17495
17483
17477
17479
17483
17483
17486
17492
17498
17503
17508
17513
17515
17515
17516
17515
17511
17507
17509
17514
17515
17509
17503
17498
17490
17480
17469
17452
17430
17402
17374
17348
17318
17282
17242
17200
17159
17123
17096
17072
17044
17016
16997
16988
16981
16975
16969
16958
16943
16931
16925
16916
16898
16880
16865
16850
16836
16826
16817
16807
16794
16783
16774
16764
16754
16748
16740
16727
16716
16711
16705
16694
16685
16679
16672
16660
16647
16637
16626
16612
16602
16603
16615
16638
16683
16755
16848
16956
17080
17232
17414
17626
17870
18144
18429
18700
18941
19147
19308
19422
19497
19541
19549
19521
19469
19394
19293
19172
19043
18909
18768
18632
18509
18394
18283
18184
18100
18024
17953
17890
17836
17790
17747
17710
17677
17644
17613
17591
17575
17556
17534
17516
17501
17484
17464
17447
17434
17420
17409
17407
17412
17417
17420
17431
17449
17465
17478
17492
17504
17512
17523
17536
17538
17529
17519
17509
17493
17472
17456
17447
17437
17422
17407
17390
17369
17348
17335
17325
17312
17291
17271
17251
17221
17187
17155
17126
17093
17060
17035
17019
17004
16984
16965
16946
16925
16905
16891
16880
16867
16854
16845
16839
16830
16817
16803
16789
16775
16764
16759
16756
16750
16748
16752
16752
16745
16739
16736
16732
16723
16720
16725
16728
16725
16726
16742
16777
16830
16905
17006
17129
17275
17456
17682
17947
18237
18544
18853
19140
19393
19608
19783
19911
19991
20032
20036
20005
19949
19875
19783
19672
19552
19429
19301
19167
19036
18910
18787
18672
18575
18495
18422
18346
18275
18213
18153
18093
18039
17994
17950
17909
17878
17851
17821
17789
17763
17738
17713
17691
17672
17654
17637
17625
17619
17618
17617
17618
17623
17628
17633
17642
17659
17675
17683
17692
17703
17708
17706
17702
17691
17667
17635
17607
17584
17557
17524
17492
17466
17442
17412
17382
17350
17314
17278
17248
17222
17194
17167
17145
17123
17099
17075
17052
17024
16990
16958
16936
16921
16907
16896
16890
16879
16856
16828
16802
16773
16743
16720
16705
16695
16685
16680
16681
16681
16675
16670
16666
16660
16655
16650
16646
16639
16628
16615
16602
16589
16577
16576
16590
16620
16661
16723
16809
16917
17044
17199
17386
17606
17862
18154
18471
18789
19093
19371
19614
19814
19970
20085
20160
20195
20197
20173
20123
20050
19959
19854
19738
19611
19480
19349
19219
19094
18979
18879
18787
18701
18625
18561
18504
18449
18394
18340
18286
18237
18193
18148
18098
18044
17993
17948
17911
17881
17862
17850
17835
17819
17810
17801
17790
17787
17796
17806
17811
17814
17818
17822
17826
17831
17831
17821
17798
17771
17747
17726
17704
17688
17673
17655
17641
17631
17616
17589
17560
17539
17517
17487
17457
17430
17402
17369
17336
17305
17271
17236
17206
17186
17169
17155
17145
17138
17128
17115
17104
17099
17095
17086
17077
17067
17049
17023
16998
16979
16960
16937
16915
16898
16882
16868
16862
16857
16850
16842
16837
16834
16827
16819
16813
16806
16796
16784
16776
16773
16773
16778
16793
16816
16849
16899
16974
17075
17195
17334
17497
17687
17911
18170
18456
18751
19035
19295
19526
19716
19857
19951
20007
20026
20011
19971
19911
19832
19737
19634
19525
19407
19287
19169
19052
18936
18829
18734
18649
18569
18497
18436
18381
18326
18274
18227
18183
18139
18099
18067
18036
18000
17960
17924
17892
17864
17842
17823
17804
17784
17768
17760
17755
17754
17761
17772
17780
17788
17799
17811
17823
17835
17848
17854
17846
17828
17809
17786
17759
17732
17714
17702
17691
17684
17677
17665
17642
17615
17592
17565
17534
17504
17475
17441
17404
17373
17348
17320
17288
17261
17245
17234
17220
17207
17196
17181
17163
17149
17136
17117
17095
17079
17065
17049
17034
17020
17008
16994
16983
16978
16976
16970
16962
16955
16947
16936
16924
16915
16906
16891
16872
16858
16851
16850
16860
16889
16936
16999
17078
17175
17287
17410
17550
17718
17921
18158
18423
18698
18962
19204
19414
19585
19716
19807
19858
19871
19851
19805
19741
19657
19552
19434
19310
19176
19037
18903
18783
18676
18575
18482
18401
18328
18263
18212
18171
18132
18096
18065
18038
18011
17981
17953
17928
17905
17881
17861
17845
17832
17821
17813
17810
17810
17809
17807
17805
17803
17803
17807
17810
17810
17810
17818
17829
17838
17846
17855
17857
17850
17839
17831
17821
17806
17794
17782
17760
17731
17704
17681
17654
17623
17594
17567
17541
17511
17484
17457
17431
17404
17379
17355
17330
17308
17289
17271
17252
17237
17231
17231
17226
17219
17216
17210
17199
17188
17180
17169
17152
17138
17131
17125
17111
17092
17078
17069
17057
17046
17037
17027
17015
16999
16985
16974
16960
16948
16950
16965
16992
17034
17095
17173
17266
17381
17523
17691
17887
18122
18391
18677
18965
19244
19502
19723
19900
20034
20126
20178
20190
20173
20131
20061
19967
19861
19745
19618
19486
19356
19229
19105
18991
18888
18793
18703
18621
18546
18477
18415
18362
18317
18271
18226
18185
18147
18106
18065
18029
18001
17974
17947
17923
17904
17885
17871
17870
17873
17870
17861
17852
17850
17852
17855
17863
17875
17883
17888
17893
17895
17895
17896
17899
17901
17895
17884
17871
17853
17830
17811
17795
17781
17763
17746
17732
17714
17693
17672
17651
17627
17600
17574
17553
17533
17511
17490
17474
17457
17433
17412
17393
17372
17351
17337
17328
17321
17314
17306
17295
17276
17257
17248
17239
17227
17215
17207
17196
17184
17177
17175
17177
17179
17182
17180
17171
17157
17146
17138
17131
17127
17124
17119
17115
17117
17127
17143
17165
17203
17262
17341
17437
17552
17692
17861
18067
18316
18601
18903
19200
19481
19743
19971
20157
20302
20411
20481
20512
20517
20499
20456
20389
20304
20205
20093
19973
19850
19730
19609
19491
19381
19281
19193
19118
19054
18995
18941
18895
18855
18810
18761
18718
18678
18635
18583
18531
18480
18430
18377
18329
18293
18262
18234
18211
18195
18181
18171
18166
18164
18158
18151
18149
18151
18150
18144
18140
18137
18132
18126
18117
18104
18089
18071
18051
18033
18012
17986
17962
17941
17918
17893
17871
17845
17813
17781
17754
17727
17696
17667
17640
17609
17575
17547
17524
17499
17471
17443
17418
17393
17372
17361
17353
17337
17315
17295
17279
17259
17239
17227
17218
17200
17175
17155
17139
17123
17109
17102
17099
17095
17092
17093
17093
17087
17076
17066
17056
17039
17019
17004
16992
16975
16959
16951
16950
16949
16954
16969
16993
17026
17075
17143
17232
17343
17477
17635
17815
18026
18273
18549
18837
19125
19398
19637
19828
19973
20075
20136
20158
20148
20116
20059
19980
19885
19779
19664
19541
19413
19287
19164
19044
18938
18850
18775
18705
18642
18588
18541
18493
18449
18413
18379
18339
18294
18250
18208
18168
18131
18099
18069
18039
18014
17996
17979
17960
17943
17930
17918
17910
17908
17911
17913
17914
17918
17920
17917
17914
17916
17919
17919
17919
17920
17913
17896
17873
17855
17837
17814
17791
17769
17741
17711
17683
17659
17633
17603
17573
17543
17510
17476
17447
17425
17405
17387
17370
17356
17342
17325
17304
17277
17246
17220
17203
17188
17170
17152
17137
17122
17103
17087
17078
17070
17058
17048
17041
17031
17018
17007
16998
16988
16977
16970
16971
16972
16970
16972
16971
16963
16954
16949
16944
16936
16928
16925
16924
16930
16947
16977
17019
17076
17152
17256
17390
17543
17714
17918
18154
18409
18674
18940
19189
19402
19573
19707
19803
19855
19865
19844
19796
19721
19625
19520
19405
19280
19151
19024
18899
18777
18664
18567
18484
18406
18341
18291
18250
18214
18187
18164
18141
18112
18078
18041
18005
17976
17957
17940
17921
17904
17889
17873
17852
17832
17819
17805
17790
17783
17787
17792
17791
17794
17802
17810
17812
17810
17807
17803
17795
17785
17774
17760
17741
17723
17710
17697
17681
17665
17647
17627
17606
17584
17559
17528
17494
17461
17427
17391
17357
17329
17301
17272
17249
17235
17221
17200
17179
17160
17137
17109
17087
17073
17058
17039
17025
17020
17015
17007
17002
17002
16997
16986
16970
16954
16935
16913
16896
16884
16873
16865
16861
16856
16844
16831
16823
16820
16814
16802
16791
16782
16771
16760
16754
16752
16752
16760
16780
16814
16864
16934
17028
17142
17273
17425
17610
17831
18085
18361
18646
18919
19167
19383
19560
19693
19785
19842
19862
19846
19798
19726
19632
19520
19400
19279
19153
19021
18891
18764
18642
18528
18424
18335
18261
18196
18141
18096
18055
18012
17968
17928
17894
17864
17838
17813
17786
17755
17726
17705
17686
17663
17639
17621
17610
17601
17598
17602
17604
17601
17599
17599
17594
17588
17586
17585
17585
17587
17595
17605
17610
17611
17609
17602
17589
17573
17557
17535
17508
17484
17464
17440
17409
17380
17352
17322
17291
17267
17249
17228
17196
17160
17126
17091
17054
17018
16985
16950
16916
16891
16873
16857
16839
16826
16819
16812
16804
16800
16797
16794
16790
16792
16797
16797
16789
16781
16769
16753
16736
16722
16709
16691
16678
16670
16660
16647
16640
16636
16627
16614
16604
16594
16582
16575
16574
16574
16568
16563
16566
16579
16600
16632
16683
16756
16848
16963
17098
17247
17409
17592
17806
18048
18298
18545
18783
19000
19183
19327
19434
19500
19525
19514
19475
19407
19313
19202
19084
18959
18830
18704
18590
18484
18383
18290
18206
18133
18070
18020
17982
17955
17933
17911
17886
17858
17833
17813
17794
17770
17744
17721
17695
17667
17643
17627
17611
17592
17579
17575
17573
17567
17561
17558
17552
17546
17547
17557
17563
17564
17570
17581
17589
17590
17591
17594
17595
17589
17582
17572
17555
17531
17506
17481
17455
17427
17401
17377
17351
17322
17294
17266
17235
17206
17180
17155
17126
17103
17088
17073
17053
17036
17027
17021
17011
17001
16992
16977
16958
16942
16933
16928
16923
16917
16908
16893
16873
16853
16837
16821
16806
16798
16797
16794
16790
16790
16789
16785
16784
16790
16799
16802
16802
16805
16810
16809
16800
16788
16776
16764
16758
16764
16778
16793
16809
16833
16864
16908
16976
17078
17204
17342
17495
17663
17845
18047
18271
18505
18731
18938
19119
19268
19377
19447
19480
19475
19433
19363
19278
19176
19054
18924
18796
18667
18538
18423
18327
18246
18172
18106
18049
17997
17950
17911
17884
17861
17837
17809
17785
17764
17741
17720
17702
17686
17666
17646
17632
17625
17615
17602
17593
17583
17572
17567
17572
17579
17584
17591
17600
17604
17603
17601
17597
17586
17570
17562
17560
17557
17554
17552
17547
17535
17519
17502
17484
17465
17447
17431
17415
17392
17366
17341
17316
17288
17257
17224
17189
17156
17127
17101
17077
17057
17044
17034
17023
17010
17008
17015
17023
17027
17032
17034
17033
17028
17019
16999
16969
16940
16917
16898
16881
16872
16869
16867
16862
16858
16854
16851
16843
16832
16818
16801
16781
16765
16752
16738
16722
16712
16711
16712
16716
16733
16770
16821
16892
16989
17109
17241
17382
17544
17727
17923
18134
18359
18585
18794
18979
19140
19273
19367
19422
19443
19434
19395
19329
19237
19126
19005
18882
18757
18634
18515
18405
18309
18222
18145
18081
18029
17984
17942
17901
17866
17839
17814
17791
17772
17753
17733
17716
17705
17690
17670
17649
17629
17606
17584
17569
17563
17562
17565
17575
17589
17602
17615
17631
17647
17656
17664
17676
17690
17698
17702
17700
17691
17679
17664
17643
17617
17589
17567
17547
17524
17499
17477
17458
17436
17409
17382
17356
17326
17294
17264
17231
17197
17173
17159
17149
17136
17125
17116
17106
17091
17078
17075
17075
17069
17061
17058
17055
17046
17034
17028
17027
17023
17013
17003
16993
16979
16966
16956
16943
16929
16919
16913
16909
16906
16908
16909
16906
16902
16901
16896
16881
16867
16862
16864
16864
16862
16863
16868
16877
16897
16937
16997
17076
17179
17305
17451
17610
17789
17994
18225
18473
18729
18978
19205
19402
19567
19697
19788
19835
19842
19822
19778
19709
19618
19513
19398
19271
19139
19010
18887
18774
18671
18577
18490
18413
18355
18316
18284
18257
18238
18221
18201
18179
18156
18126
18089
18054
18025
17997
17965
17937
17918
17904
17889
17880
17881
17882
17881
17884
17890
17892
17892
17896
17906
17915
17923
17934
17948
17958
17966
17973
17978
17977
17967
17951
17933
17910
17882
17853
17823
17791
17760
17730
17699
17665
17630
17599
17570
17539
17504
17474
17448
17420
17390
17362
17334
17308
17288
17273
17257
17243
17232
17225
17220
17214
17207
17199
17183
17162
17145
17134
17123
17116
17114
17109
17100
17089
17077
17062
17043
17025
17013
17001
16985
16967
16955
16948
16945
16948
16951
16948
16939
16929
16923
16919
16917
16918
16927
16941
16958
16984
17025
17081
17153
17248
17367
17504
17658
17834
18032
18247
18479
18728
18978
19206
19400
19560
19685
19766
19802
19802
19769
19708
19624
19528
19423
19306
19182
19060
18939
18818
18706
18611
18529
18453
18385
18328
18279
18233
18193
18159
18129
18096
18061
18029
18002
17977
17952
17929
17907
17888
17874
17862
17848
17834
17823
17811
17798
17788
17787
17793
17800
17809
17819
17828
17834
17841
17849
17853
17852
17850
17850
17848
17840
17831
17827
17821
17807
17788
17771
17757
17740
17719
17696
17670
17642
17615
17591
17568
17543
17518
17494
17472
17450
17432
17416
17401
17385
17371
17355
17336
17320
17307
17295
17282
17272
17271
17270
17263
17257
17257
17255
17250
17250
17251
17246
17237
17232
17235
17238
17237
17234
17234
17232
17226
17217
17209
17199
17188
17177
17169
17159
17148
17138
17133
17129
17127
17129
17141
17166
17211
17284
17377
17481
17602
17745
17906
18079
18270
18480
18699
18915
19122
19312
19469
19585
19665
19713
19722
19692
19634
19553
19449
19329
19206
19084
18960
18838
18726
18624
18529
18442
18371
18312
18259
18215
18184
18158
18129
18103
18083
18065
18041
18015
17994
17978
17964
17949
17936
17923
17908
17893
17878
17860
17845
17840
17841
17843
17847
17859
17876
17891
17903
17915
17930
17943
17953
17961
17966
17964
17955
17945
17932
17910
17880
17853
17836
17821
17803
17786
17774
17758
17738
17719
17700
17677
17648
17621
17595
17568
17539
17513
17489
17465
17445
17431
17418
17406
17402
17402
17396
17385
17376
17367
17354
17337
17320
17308
17294
17279
17271
17266
17260
17254
17258
17267
17272
17271
17270
17267
17254
17235
17221
17215
17209
17203
17202
17204
17202
17203
17214
17233
17264
17317
17400
17504
17624
17764
17925
18103
18302
18530
18779
19028
19267
19494
19697
19860
19977
20053
20094
20100
20073
20019
19946
19855
19748
19632
19511
19387
19266
19153
19048
18951
18861
18784
18719
18661
18609
18565
18527
18490
18455
18423
18397
18373
18354
18338
18318
18291
18262
18237
18212
18189
18173
18166
18160
18155
18157
18168
18181
18194
18208
18224
18236
18241
18243
18245
18244
18241
18241
18244
18242
18236
18230
18224
18215
18206
18196
18180
18156
18132
18112
18093
18071
18050
18031
18009
17983
17958
17934
17907
17882
17864
17855
17845
17829
17814
17803
17789
17775
17766
17759
17742
17721
17704
17691
17673
17656
17648
17643
17636
17628
17625
17622
17613
17600
17591
17581
17564
17543
17526
17509
17491
17475
17467
17465
17461
17454
17451
17445
17435
17430
17434
17443
17454
17474
17509
17561
17630
17719
17831
17960
18105
18275
18485
18729
19000
19284
19565
19826
20057
20253
20408
20521
20598
20644
20661
20643
20597
20532
20450
20356
20257
20157
20051
19938
19827
19726
19632
19542
19461
19391
19328
19268
19216
19174
19133
19089
19045
18998
18944
18889
18838
18790
18744
18705
18676
18650
18625
18603
18590
18583
18576
18572
18576
18582
18583
18582
18585
18586
18582
18577
18573
18570
18566
18566
18571
18573
18566
18555
18542
18521
18493
18465
18439
18412
18384
18357
18334
18312
18287
18263
18243
18222
18196
18174
18160
18145
18123
18098
18071
18041
18010
17986
17967
17945
17920
17901
17885
17865
17845
17835
17832
17826
17818
17808
17790
17767
17746
17730
17717
17707
17699
17694
17687
17677
17669
17665
17660
17652
17646
17642
17635
17626
17622
17621
17616
17608
17603
17601
17602
17608
17629
17662
17702
17755
17833
17936
18057
18200
18373
18579
18815
19080
19372
19671
19956
20217
20446
20635
20776
20871
20930
20955
20946
20911
20863
20803
20724
20628
20527
20419
20307
20198
20098
20005
19919
19839
19763
19694
19636
19587
19543
19500
19458
19416
19369
19318
19268
