19877
21415
21327
21113
20067
21621
21303
20281
20194
21689
21284
19687
21127
21577
21334
20203
21474
21785
21320
20375
21792
21786
20757
20396
21848
21532
20470
20975
21648
21543
20327
21570
22005
21414
20525
21764
22068
21278
20342
21959
21615
20872
20924
22003
21820
20631
21626
21952
21567
20389
21761
22298
21500
20488
22141
21950
20949
20612
21898
21698
20210
21409
22026
21797
20227
22014
22272
21643
20316
21951
21864
21130
20552
22129
21924
20937
21230
22290
21888
20293
21742
22073
21711
20135
22141
21946
21607
20675
22165
22081
20973
21091
22345
21989
20711
21801
22218
21873
20624
22144
21972
21800
20766
22124
21953
21164
20518
22090
21807
20538
21176
21683
21562
20090
21443
21700
21405
19885
21580
21755
20884
20155
21774
21570
20393
20635
21788
21294
19928
21375
21362
21269
19957
21619
21366
20973
20044
21625
21399
20630
20563
21653
21371
19877
21223
21873
21331
19790
21957
21548
21181
19974
21912
21884
20820
20568
21949
21503
20148
21222
21590
21466
19889
21753
21725
21553
20065
21723
21615
20834
20511
22102
21976
20633
21015
22086
21960
20582
21699
21891
21557
19990
21527
21779
20938
20416
21897
21757
20706
20571
21993
21535
20636
21679
22086
21581
20483
21783
21669
21605
20421
21932
21805
21021
20729
21995
21862
20684
21382
21949
21758
20350
21866
22053
21588
20438
21914
22112
21245
20694
21961
21875
20736
21053
21996
22219
20206
21802
21917
21976
20662
22027
22243
21300
20374
22101
22150
21113
20848
21779
22036
20216
21720
22028
21909
20248
21645
21899
21342
20245
21671
21441
21087
20396
21771
21638
20502
20806
21497
21021
19939
20997
21191
21189
19694
21414
21465
20853
20027
21573
21480
20132
20689
21677
21420
20023
21183
21427
21273
19876
21271
21671
21140
20109
21733
21621
20621
20663
21416
21590
20275
21251
22100
21500
20323
21665
21695
21385
20231
21862
21881
20998
20697
22179
22081
20402
21252
21990
21853
20366
21816
22037
21597
20602
21980
22209
21630
20519
22149
22072
20937
21176
22010
21991
20376
21857
22220
21908
20597
22117
21965
21768
20758
22208
22207
21089
20983
22236
21745
20656
21787
22217
22038
20818
22173
22495
22059
20719
22396
22532
21609
20996
22540
22709
20862
21552
22811
22076
20806
22251
22355
22089
20989
22330
22084
21940
21023
22565
22502
21148
21161
22448
21962
20724
21842
22059
21729
20705
21897
21702
21777
20579
21991
21839
20945
20831
21687
21677
20537
21233
21642
21470
20153
21602
21768
21495
20034
21684
21883
20906
20381
21853
21771
20702
20605
21439
21596
20041
21667
21900
21510
20138
21715
21750
21343
20283
22066
21957
20691
21129
21637
21885
20476
21567
21810
21744
19987
21956
22087
21641
20594
22010
22019
20933
20675
22121
21935
20568
21554
22152
21792
20316
22127
22088
21857
20488
22222
22045
21477
20829
22331
22000
20866
21332
22113
22045
20474
22026
22465
22137
20531
22204
22705
21780
20871
22316
22361
21228
21508
22255
22173
20657
21940
22292
22077
20726
22185
22321
21928
21110
22367
22435
21587
20923
22380
22405
20742
21911
22389
22212
20863
22372
22447
22259
20767
22366
22365
21872
21071
22418
22378
21281
21456
22570
22086
20777
22250
22610
22033
20565
22181
21866
21674
20523
22148
21999
20845
21111
22075
21712
20009
21487
21717
21565
19906
21649
21784
21338
20116
21717
21850
20877
20115
21910
21460
20178
20826
21526
21542
20291
21418
21725
21299
19743
21560
21589
20982
20395
21787
21530
20385
20654
21462
21570
20104
21475
21802
21445
20050
21621
21869
21293
20491
21952
21627
20468
20519
21631
21637
20606
21409
22191
21535
20426
21670
22003
21403
20608
21949
21893
21017
20410
22017
21785
20545
21258
22143
21737
20335
21559
21984
21715
20564
21698
22003
21396
20491
22031
21963
20943
21068
22113
21889
20232
21622
22197
21704
20448
21867
22326
21552
20524
22118
22083
21117
20834
21981
22113
20809
21651
22222
22043
20389
21984
21980
21870
20819
22058
22189
21416
20756
22559
22129
21034
21317
22520
21917
20478
21815
22178
21754
20516
21888
21901
21327
20480
21719
21729
20622
20839
21573
21456
20232
21206
21807
21391
20134
21413
21705
21111
19941
21543
21364
20501
20168
21541
21504
20096
20963
21656
21353
19967
21495
21372
21044
20197
21386
21571
20891
20347
21618
21418
20292
20728
21803
21384
20201
21215
21683
21324
19977
21447
21822
21196
20251
21712
21810
20554
20570
21662
21556
19910
21168
21749
21530
20054
21617
21718
21501
20351
21807
21899
20861
20449
21782
21934
20378
21489
21773
21658
20141
21731
21846
21624
20578
21960
22176
21429
20762
21891
22103
20642
21011
22057
21875
20487
21699
21705
21693
20291
21968
21900
21635
20311
22333
21646
20949
21303
22295
21987
20450
21850
21991
21774
20438
22041
22252
21938
20828
22189
22124
21440
20892
22173
22317
20276
21530
21952
21989
20397
21381
21993
21683
20271
21792
21736
21232
20395
21845
21770
20434
20920
21777
21602
19970
21599
21576
21375
20100
21756
21335
21251
20140
21808
21598
20758
20666
21947
21636
20184
21361
22039
21561
20288
21840
21984
21634
20545
21817
21872
21017
20625
22004
21554
20391
21281
22029
21653
20345
21751
21922
21720
20258
22174
21933
21538
20659
22304
21987
20932
20863
22104
21801
20653
21779
21956
21820
20461
22101
22085
21514
20829
22142
21856
21309
20833
22318
21951
20723
21679
22420
22017
20460
22115
22234
21859
20535
22145
22015
21467
20962
22200
21494
20740
21756
22227
22192
20312
22110
22284
21988
20298
22114
22062
21744
20830
22373
22385
20965
21229
22144
22054
20338
21733
22155
21751
20258
21810
22203
21643
20610
21781
21947
20800
20432
21709
21618
20553
21315
21833
21542
19874
21502
21753
21463
19923
21623
21399
20871
20223
21606
21707
20373
20756
21755
21481
19974
21384
21701
21494
20208
21868
21322
21426
20357
21889
21938
20812
20762
22112
21824
20597
21433
22068
21736
20306
21700
21889
21557
20203
21784
21969
21085
20696
22028
21844
20477
21389
21940
21906
20267
21841
21979
21780
20688
22042
22230
21584
20766
22241
22182
20772
21412
22322
22082
20582
22029
22422
22008
20593
22134
22335
21944
20824
22413
22138
21260
20966
22317
22241
20393
21875
22284
22071
20545
22139
22135
21869
20594
21882
22569
21383
21159
22320
22048
20924
21617
22157
22334
20647
22182
22317
22361
20395
22529
22551
21802
20772
22602
22270
21358
21720
22443
22202
20648
22037
22230
21822
20473
22063
22333
21566
20444
22134
21688
21029
20493
22036
21587
20301
21119
21739
21527
20381
21613
21695
21335
20073
21731
21601
20839
20379
21828
21706
20268
21004
21756
21370
19960
21475
21716
21281
20200
21537
21412
21079
20102
21614
21452
20607
20620
21674
21551
20079
21345
21748
21491
19934
21570
21500
21279
20445
21883
21604
21002
20480
22025
21857
20382
21447
22025
21717
20458
21844
22047
21573
20637
21928
22073
20937
20384
22086
21800
20786
21136
21888
21906
20260
22209
22107
21794
20355
21917
22191
21835
20577
21950
22165
20845
21310
22028
21897
20418
21594
22459
21756
20297
21861
22417
21946
20723
22402
22075
21127
20899
22238
22075
20699
21650
21991
22006
20666
22019
22479
21971
20802
22200
22044
21605
20285
22349
22088
20821
21483
22442
22068
20843
22165
22019
21886
20712
22287
22149
21463
20769
22354
22417
21041
21512
22289
22268
20989
21786
22215
21731
20368
21775
22050
21511
20562
21813
21791
20789
20522
21742
21538
20169
21182
21732
21513
19625
21416
21464
21199
19924
21590
21432
20978
20410
21572
21661
20183
20807
21463
21658
20031
21084
21859
21275
20006
21551
21578
21076
20033
21686
21575
20381
20484
22061
21432
20285
21346
21706
21599
20290
21382
21636
20893
20084
21739
21584
20888
20851
22137
21794
20292
21353
21757
21813
20450
21698
22064
21976
20191
21922
22045
21378
20962
22279
22157
21205
21114
22015
22093
19979
21886
22279
21922
20468
22162
22312
21767
20758
22340
22107
21065
21454
22367
22040
20671
22022
22316
22127
20750
21882
22377
21803
20794
22088
22054
21410
20485
22478
22237
21318
21894
22667
21810
20801
22026
22147
22040
20921
22586
22307
21924
20634
22435
22381
21067
21767
21861
22222
20933
22101
22354
22166
20612
22136
22385
21852
20944
22258
22232
21376
21125
22436
22077
20624
21678
22211
21875
20690
21792
22202
21772
20266
21872
21858
20697
20277
21813
21593
20301
21125
22135
21517
20024
21553
21633
21769
20418
21839
21664
20647
20662
21692
21868
20728
20717
21884
21642
20313
21719
21538
21554
20195
21809
21740
21174
20393
21871
21871
21005
20494
21921
21648
20239
21408
21818
21558
20314
21740
22058
21519
20259
21572
22313
21305
20444
21939
22205
20861
21339
22184
21844
20339
21875
22097
21772
20247
22096
22074
21570
20381
22286
21942
20889
20825
22183
22038
20202
21732
22010
21855
20600
22245
21644
21838
20635
22598
22040
21249
20946
22264
22043
20919
21455
22167
21784
20498
21937
21980
21781
20541
22133
21849
21438
20768
22183
21794
21021
21306
22164
22015
20900
21990
22151
21799
20702
21482
22038
21481
20529
22121
22004
20617
21094
21892
21618
19911
21692
21700
21580
20246
21652
21818
21341
20350
21750
21642
20917
20507
21810
21725
20306
21388
21781
21600
20258
21640
21910
21516
20070
22338
22010
21120
20851
21916
22032
20655
21076
22029
21890
20415
21736
21715
21678
20336
22046
21995
21595
20711
22006
21922
20935
20838
22075
21955
20454
21781
22182
21859
20405
21731
22313
21590
20587
22100
22369
21398
20862
22400
21869
20641
21431
22140
21912
20642
21833
22180
21658
20364
22066
22091
21441
20798
22153
21831
20892
21258
22210
21976
20459
21913
22035
21527
20588
22060
22179
21715
20589
22122
21969
21056
21241
22067
22034
20473
21824
22061
21811
20593
21917
22134
21923
20475
22036
22050
21297
20865
22174
21925
20714
21426
22493
21919
20453
21814
22066
21672
20356
21735
21840
21320
20382
21814
21652
20607
20801
21908
21613
20299
21439
21630
21253
19692
21535
21515
20968
19879
21296
21478
20461
20125
21825
21321
19976
21016
21586
21279
19640
21251
21533
21340
19846
21322
21384
20544
20246
21724
21424
20122
20766
21794
21215
19775
21393
21402
21185
20016
21516
21387
20986
20104
21618
21321
20256
20637
21747
21381
20172
21300
21657
21255
20002
21496
21611
21217
20255
21672
21786
20472
20525
21781
21606
20020
21341
21726
21524
19980
21373
21449
21261
20056
21750
21951
20802
20420
21892
21622
20557
21072
22147
21549
20192
21614
21747
21533
20290
21955
21877
21156
20520
21832
21554
20558
20934
21928
21705
20139
21609
21771
21712
20523
21617
21645
21447
20498
22012
21816
20996
20761
22048
21772
20414
21466
21865
21757
20278
21803
21831
21607
20342
21901
21687
21203
20483
21844
21983
20591
21397
21708
21638
20220
21478
21669
21235
19832
21522
21515
21024
20190
21557
21313
20263
20427
21488
21284
20275
21075
21522
21138
19843
21218
21410
20959
20144
21272
21054
20582
20267
21461
21423
19766
20848
21454
21315
19877
21289
21646
21067
20316
21787
21459
20835
20627
21460
21467
20085
20824
21395
21384
20045
21465
21823
21326
20070
21650
21833
21222
20466
21806
21758
20743
20633
21713
21530
20080
21469
21738
21569
20166
21853
21611
21299
20495
22112
21900
20903
20535
21849
21649
20489
21330
22041
21638
20362
21719
21923
21569
20504
21793
21817
21486
20760
22068
22030
20692
21222
22081
21867
20489
21981
22289
21742
20338
21989
21996
21599
20644
22140
21695
21071
21193
22086
21862
20325
21613
22124
21845
20534
21951
21989
21439
20666
22003
21793
21072
20611
22084
21562
20834
21108
21767
21457
20020
21614
21528
21367
19882
21659
21384
20809
20517
21433
21573
20448
20819
21677
21221
19854
21246
21593
21274
20184
21411
21597
20998
20077
21670
21549
20336
20603
21647
21349
20243
21300
21508
21394
20000
21586
21905
21254
20402
21824
21480
20723
20444
21770
21601
20274
21097
21789
21529
20165
21746
21826
21491
20190
21851
21825
21343
20514
22230
21891
20838
21477
21745
21601
20379
21534
21956
21813
20204
21945
21635
21711
20565
21978
21650
21122
20461
21751
21809
20948
21470
22053
21550
20417
21863
22192
21742
20684
21958
21693
21257
20678
22002
21752
21056
21154
21909
22024
20490
21868
21770
21347
20431
22398
22299
21528
20806
22247
22108
20981
21225
22090
21993
20586
21727
22210
21861
20427
22005
22259
21808
21024
22488
21883
21219
21181
22543
21994
20627
21530
22067
21749
20406
21759
21860
21476
19992
21776
21880
20855
20422
21777
21404
20468
21091
21545
21567
19876
21344
21505
21128
20236
21466
21497
20961
19919
21600
21415
20308
20308
21612
21446
19957
21272
21430
21217
19900
21360
21655
21014
20053
21601
21535
20615
20398
21588
21485
19877
21182
21596
21269
20296
21061
22101
21303
20022
21482
21474
20834
20348
21940
21723
20457
21007
21708
21668
20221
21516
21516
21362
20428
21696
22002
21317
20392
21765
21818
20411
20993
21788
21639
20108
21453
21861
21589
20207
21949
21864
21317
20123
21860
21759
20656
20729
22015
21713
20266
21452
21784
21735
20439
21781
21866
21879
20553
21959
22224
21225
20693
22230
22245
20508
21426
22025
21796
20591
21838
22173
21611
20551
21760
21653
21454
20804
22521
22011
20975
21009
22328
21895
20980
21500
22089
21714
20457
21876
22039
21767
20365
21969
22038
21097
20854
22170
22042
20451
21532
22098
21952
20307
21775
22106
21232
20294
21698
21855
20843
20415
21688
21613
20351
21019
21667
21331
19988
21388
21407
21232
20131
21446
21652
20940
20069
21623
21456
20325
20321
21587
21265
19440
21295
21472
21089
19870
21515
21586
21124
20228
21559
21514
20654
20318
21528
21388
20178
20954
21702
21349
20010
21546
21642
21316
20154
21643
21706
20956
20337
21712
21550
20250
21190
21948
21517
20192
21499
21982
21443
20025
21733
21658
21344
20188
21796
21781
20735
20893
21924
21687
20230
21726
22012
21688
20478
21833
22119
21486
20659
21888
21915
20991
20717
22012
22010
20492
21396
21992
21872
20426
21912
22303
21691
20939
22126
22202
21272
21134
22137
22350
21188
21919
22018
22175
20603
21855
22215
21927
20686
21976
22283
21697
20861
22308
21921
21111
21360
22276
21913
20645
21786
21952
21744
20410
21842
21716
21473
20114
22027
21682
20921
20698
21895
21879
20400
21200
21762
21650
20231
21699
21892
21473
20258
21797
21897
21341
20264
21759
21838
20584
21092
21773
21647
20134
21782
21750
21707
20057
21913
21832
21615
20605
22082
22107
20895
20917
22056
22380
20851
21596
21796
22017
20416
21952
21896
21751
20603
22084
22027
21105
20693
22235
22064
20402
21430
22202
21909
20656
21965
22243
21998
20856
22243
22213
21565
20790
22219
22106
21393
21258
22396
21922
20438
21898
22307
21868
20444
22154
22098
21783
20825
22296
22347
21217
21056
22275
22105
20471
21793
22291
22051
20581
22187
22256
22088
20948
22421
22201
21391
21038
22530
22133
21488
21577
22292
22018
20382
22156
22353
21996
20889
22291
22194
21536
20946
22365
22244
21076
21478
22477
22277
20573
22342
22413
22046
20678
22323
22281
22133
20682
22379
21974
21078
21014
22252
21899
20358
21539
21994
21850
20453
21785
21969
21489
20291
21980
21876
21029
20767
22525
22265
20339
21537
22237
21547
19729
21641
22435
21418
20552
21660
21705
21286
20580
21881
21872
20632
21055
21724
21861
20418
21749
22454
21462
20967
21880
22865
21625
20480
22002
22041
20926
20806
21994
21975
20676
21491
22172
21863
20303
21880
22062
21575
20419
21962
21865
21243
20572
22240
21847
20992
21527
22173
21829
20421
21823
22103
21653
20606
22029
22165
21550
20313
22190
22090
20889
20851
22188
22040
20254
21808
22161
22034
20792
22154
22190
21746
20889
22294
22138
21060
21307
22280
22128
20746
21765
22401
22056
20802
22020
22056
21755
20769
22293
22270
21327
20882
22361
22467
20980
21662
22252
22145
20665
22030
22530
22066
20821
22365
22194
21726
20758
22253
22290
20853
21398
22280
22118
20768
21934
22150
21745
20702
21889
21324
21662
20144
21845
21726
20715
20752
21817
21660
20203
21453
21686
21617
20245
21751
21464
21388
19875
21820
21593
21000
20400
21878
21897
20531
21072
21563
21552
20283
21706
21978
21617
20277
21773
22024
21331
20605
21905
21961
20718
21033
22010
21669
20673
21439
21804
21623
20189
21651
21800
21538
20277
21776
21768
20951
20812
21870
21845
20551
21494
22521
21423
20085
21794
21914
21675
20276
21967
21721
21450
20731
22514
21838
20658
21331
22390
21791
20388
21673
21886
21707
20203
21881
21905
21490
20523
21834
22024
20841
21054
22232
21868
20847
21772
22074
21775
20402
22156
21891
21702
20483
22148
21960
21051
20850
22155
21975
20713
21696
22060
21914
20723
22264
22283
21754
20736
21732
22252
21284
20711
22047
22037
20944
21334
22229
21964
20506
22086
22065
22007
20000
22563
22068
21767
20596
22229
22211
21413
21523
21972
22275
20653
21977
22281
22075
20882
21915
22344
21883
20629
22259
22171
21314
20928
22449
22152
20843
21682
22886
22118
20729
21828
22502
21743
20880
21976
22052
20896
20899
21817
21653
20706
20894
21778
21949
19867
21612
21591
21541
19931
21824
21878
21360
20331
21853
21733
20764
20512
21798
21604
20164
21390
21765
21470
20108
21661
21663
21528
20538
21803
22160
21197
20492
21845
21779
20469
21278
21685
21964
20127
21728
21968
21565
20053
21862
21804
21198
20405
21927
21971
20710
21171
21872
21783
20152
21725
22109
21714
20149
21981
21996
21572
20547
22100
22076
21044
21137
22367
21932
20242
21733
22108
21843
20616
22053
22245
21721
20651
22179
22228
21454
20744
22308
22049
20884
21559
22308
21960
20411
22061
22273
22249
20872
22258
22409
21680
20953
22311
22210
21021
21273
22344
22094
20440
21996
22335
22019
20525
22208
22274
21890
20797
22346
22248
21201
21432
22426
22063
21018
21884
22094
22047
20759
22242
22569
21998
20871
22286
22220
21380
20952
22394
22157
21199
21816
22702
22043
20743
22110
22160
21947
20687
22036
21990
21491
20534
22180
21798
20647
21022
21887
21602
20252
21693
21965
21749
20544
21898
21770
21456
20658
21845
22058
20966
20550
22075
21801
20082
21472
21802
21706
20504
21792
21752
21746
20314
21733
21994
21238
20612
22179
21989
20508
21001
22501
21781
20582
21969
22107
21767
20549
22090
22168
21444
20921
22213
22472
20861
20649
22190
22228
20883
21883
22017
21857
20495
21973
22434
21722
20638
22264
22211
21034
20785
22510
22049
20692
21739
22187
21921
20484
22148
22005
21673
20446
22156
22368
21506
20927
22115
22078
20533
21942
22049
22139
20720
21869
22336
22116
20639
22475
22325
21455
21233
22532
22207
20883
21374
22174
22320
20255
21897
22214
22148
20523
21798
21907
22245
20275
22807
22170
21377
20993
22648
22008
21028
21722
22341
21919
20554
21905
22168
21644
20089
21969
22001
21013
20645
21978
21643
20650
21468
22335
21727
20051
21842
21779
21446
20472
21424
21945
21184
20296
22015
22026
20262
21112
21466
21720
20034
21481
21437
21108
19976
22161
21795
21403
20570
21754
21769
20893
20524
22095
21643
20020
21462
21865
21771
20296
21790
22048
21633
20696
22056
21840
21095
20534
21860
21918
20398
21397
22156
21804
20577
21651
21777
21722
20483
21847
22050
21452
20821
22060
21920
20817
21137
21895
21906
20366
21829
22025
21471
20376
22008
22411
21423
20753
22122
22034
21167
20770
22279
22055
20650
21668
22150
21929
20560
21978
22189
21826
20433
22144
22301
21375
20652
22412
21984
20802
21570
21977
22018
20495
21932
22274
22037
20392
22043
22562
22000
20894
22254
22349
20935
21015
22521
22022
20773
21896
22199
21846
20435
22033
22195
21641
20754
22006
22159
20921
20829
22164
21835
20626
21450
22035
21688
20314
21649
21817
21395
20389
21668
21485
20910
20214
21714
21545
20456
21172
21742
21649
20099
21710
21647
20928
20046
21522
21609
21218
20138
21816
21643
20712
21055
21905
21628
20472
21512
21745
21578
20244
21693
21900
21538
20219
22004
21838
21022
20481
22120
21922
20594
21533
22060
21718
20263
21835
22125
21199
20418
21957
21850
21018
20242
21942
22078
20595
21315
21746
21886
20281
21783
22088
21827
20420
21992
22010
21505
20475
22130
21878
21013
20975
22416
21977
20801
21788
22253
21767
20566
21912
22214
21695
20505
22116
22152
21099
20922
22353
22269
20450
21654
22130
21943
20531
22064
22473
21966
20531
22240
22272
21649
20865
22803
22333
21143
21502
22550
22054
20916
22098
22266
21929
20723
22197
22268
21642
20731
22155
22047
20941
21242
22206
22028
20363
21637
22080
21687
20520
21790
21786
21595
20489
21848
21681
21016
20447
21843
21561
20231
21167
21444
21678
20213
21613
21871
21370
20312
21740
21605
20854
20312
21612
21744
20521
21056
21637
21636
20061
21521
21650
21623
20012
21766
22116
21414
20371
21894
22025
20419
21439
22165
21842
20503
21488
21852
21857
20216
22002
22202
21631
20512
22015
21809
21026
20583
22085
22186
20306
21494
22085
21831
20234
21926
22004
21677
20538
22125
21968
21603
20846
22335
21975
21108
21342
22436
22052
20882
21902
22170
21856
20715
22045
22190
21741
20664
22426
22299
20989
21400
22259
22258
20661
22020
22245
21955
20770
22100
22030
21903
20648
22322
22368
21249
20929
22655
22368
21216
21846
22261
22151
20621
22218
22235
22113
20796
21967
22388
21613
20930
22611
22421
21154
21708
22409
22098
20610
22002
22254
21986
20771
22128
21949
21623
20446
22235
21936
20900
20970
21981
21659
20597
21525
21910
21663
20360
21676
21805
21593
20283
21749
21913
20919
20518
21778
21580
20367
21178
21459
21532
20122
21599
21837
21549
20183
21861
21678
21063
20485
21956
21754
20496
20995
21775
21608
19946
21637
21937
21710
20268
21689
21752
21499
20537
21975
21765
20694
20937
21980
21967
20329
21677
22130
21869
20508
22037
21955
21786
20519
22078
22057
21261
20704
22175
22151
20774
21254
21891
21740
20547
22117
22159
21966
20450
22505
22133
21430
20997
22342
22065
21104
21363
22422
22068
20610
21982
22301
21883
20873
22171
22416
21919
20822
22378
22377
21306
21212
22467
22098
20887
21714
22411
22039
20526
22029
22097
21907
20462
22474
22088
21443
21007
22448
22190
20746
21704
22116
22099
20687
22171
22154
21964
20431
22142
22397
21546
20875
22368
22178
20776
21265
22072
21838
20451
21708
21986
21576
20535
21643
21787
21371
20474
21795
21475
20620
20484
21795
21645
20052
21163
21750
21440
20141
21738
21660
21453
20284
21722
21816
20977
20508
21927
21559
20349
21057
21559
21595
20314
21646
21796
21608
20409
21881
21782
21268
20482
21982
21890
20542
21031
21740
21840
20042
21685
21931
21695
20346
21944
21791
21690
20662
22518
22141
20942
20646
22041
21809
20696
21778
22054
21842
20483
21956
21968
21724
20579
22032
22227
21453
20779
22446
22111
20644
21542
22398
22070
20746
22117
22093
21934
20783
22298
22255
21677
20740
22368
22619
21295
21699
22351
22290
20535
22106
22491
22145
20971
22399
22419
21878
21054
22514
22467
21470
21380
22733
22227
21055
22014
22420
22253
20756
22085
22030
21609
20519
22238
22009
21307
20671
22252
22012
20616
21543
22039
21843
20441
21886
22126
21744
20328
22014
22214
21401
20705
22058
22082
20796
21113
22154
21797
20394
21639
22060
21942
20577
21829
22279
21498
20497
22079
21904
20997
20773
21908
21917
20269
21821
21977
21978
20475
22072
22263
21788
20714
22085
21958
21310
20933
22197
21860
20826
21500
22164
21931
20469
22031
22322
21876
20479
22343
22254
21624
20582
22345
22059
21199
21324
22313
22408
20687
21813
22449
22065
20969
22203
22220
21862
21129
21985
22088
21474
21467
22269
22203
20682
21780
22341
22072
20578
22193
22688
21926
20837
22395
22356
21535
21101
22458
22100
21056
21706
22546
22061
20722
22141
22329
22057
20878
22294
22238
21695
20872
22360
22539
21095
21483
22289
22176
20595
22143
22538
22208
20803
22464
22495
21874
20946
22502
22364
21338
21280
22686
22539
20693
22078
22131
22330
20477
22416
22324
21950
20611
22317
22445
21513
20815
22399
22216
20752
21487
22026
21832
20441
21829
22131
21722
20365
21893
21889
21295
20484
22113
22035
20555
20824
22225
21654
20381
21564
21907
21657
20115
21768
22049
21394
20219
21965
21437
20809
21263
22277
21833
20322
21421
22109
21778
20137
21481
21786
21614
20578
22175
22019
21173
20767
22294
22049
20471
21404
21930
21849
20381
21890
22014
21726
20670
22111
22151
21560
20207
22497
21761
21075
21262
22442
22028
20793
21937
22145
22019
20625
22061
22454
21757
20581
22290
22282
21175
21099
22395
22139
20885
21821
22449
22076
20576
22235
22618
21806
20893
22408
22519
21513
21092
22623
22305
20971
21660
22626
22173
20675
22177
22582
22221
21032
22467
22373
21495
21252
22570
22163
21213
21731
22870
22354
20529
22221
22595
22467
20828
22294
21898
21895
20989
22008
21906
21175
21070
22575
21824
20741
21717
21943
21797
20277
21854
22090
21641
20555
21958
22008
20899
20267
22046
21733
20402
21498
21804
21661
20158
21651
21845
21513
20237
21877
21692
21265
20424
22230
21995
20691
21034
22175
21843
20668
21643
22065
21663
20194
21872
22428
21582
20599
22008
22100
20878
20824
21911
21852
20498
21585
22041
21725
20391
22007
21806
21721
20446
22128
21948
21309
20787
22114
22049
20794
21425
22067
21969
20457
22032
22304
21862
20689
22115
22216
21516
20709
22321
22084
21116
21432
22345
22109
20767
21980
22360
21900
20858
22346
22306
21825
21105
22422
22167
21473
21164
22497
22233
20717
21994
22364
22135
20793
22243
22447
21826
21051
21949
22566
21813
20987
22632
22299
21299
21516
22586
22159
20797
22290
22473
22287
20888
22441
22348
22195
20979
22757
22213
21238
21581
22353
22393
20910
22258
22543
22252
20846
22443
22593
22169
21054
22576
22578
21296
21522
22727
22432
21063
21995
22735
22333
20778
22247
22549
22050
20866
22262
22336
21343
20804
22294
21756
20803
21764
22098
21977
20338
21772
22229
22050
20342
21956
22069
21485
20562
22172
21792
20798
21150
22102
21972
20225
21717
22069
21798
20534
21969
22052
21655
20646
22148
22223
21174
20892
22339
22259
20560
21783
22310
21982
20469
21989
22370
21735
20414
22192
22295
21333
20762
22364
22384
20858
21494
22232
22138
20522
22062
22368
22246
21041
22492
22297
21266
21041
22432
22284
20947
21157
22578
22197
20771
22078
22405
22130
20500
22276
22327
22045
20960
22338
22331
21405
21207
22508
22282
20965
21968
22223
22345
20898
22336
22624
22181
20803
22555
22398
21686
20923
22677
22632
21225
21739
22748
22373
20725
22410
22745
21835
20804
22854
22369
22006
20940
22859
22375
21203
21451
22361
22260
20789
22172
22394
22114
20690
22229
22209
21903
20811
22662
21953
21071
21017
21886
22105
20150
21722
21905
21895
20504
22217
21780
21778
20711
22034
21899
21130
20799
22310
21854
20348
21434
21920
22017
20356
21970
22150
21661
20719
22495
22416
21948
20591
22017
22014
20971
21758
22470
21657
20722
22007
22001
21867
20643
21951
22111
21404
21074
22085
22301
21105
21184
22186
22063
21027
21751
22304
22207
20763
22328
22165
22062
20668
22235
22013
21459
20865
22230
22350
20580
21512
22834
21986
20721
22383
22041
22302
20822
22503
22532
21481
20874
22762
22244
21311
21532
22112
22292
21164
22457
22329
21994
20865
22226
22628
22045
21140
22369
22551
21237
21392
22259
22464
20838
21998
22662
22238
20818
22397
22637
22080
20855
22491
22490
21624
21206
22710
22246
21282
21938
22552
22306
20722
22303
22566
22288
21085
22569
22485
21948
21019
22742
22740
21208
21665
22573
22393
21065
22294
22477
22263
20837
22557
22601
22160
21311
22696
22666
21620
21239
22719
22467
21090
22107
22816
22570
21043
22400
22850
22238
20916
22615
22556
21736
21445
22636
22436
21012
21952
22521
22365
20730
22437
22369
22200
20784
22427
22630
21696
21047
22435
22136
21013
21722
22370
22005
20404
21760
22066
21975
20409
21955
21600
21463
20330
22031
22068
20797
20683
21923
21731
19975
21457
22155
21986
20410
21714
21936
21691
20489
21912
21988
21094
20406
21961
21730
20315
21230
21883
21925
20373
21763
21865
21777
20319
22125
22036
21615
20672
22117
22156
21041
21085
22431
22055
20758
22059
22307
21759
20406
21929
22079
21799
20724
22125
22137
20725
21321
22561
22157
20816
21756
22329
21994
20586
22214
22283
21764
21033
21877
22216
21490
20719
22660
22283
20672
21805
22366
22095
20644
22221
22355
22031
20597
22358
22360
21880
20700
22553
22191
21089
21612
22213
22178
20695
22192
22369
22100
20688
22360
22209
21749
20940
22529
22794
21290
21062
22673
22586
20985
22087
22561
22328
20979
22452
22207
22282
20892
22571
22754
21626
21009
22718
22562
21005
21953
22789
22421
21128
22330
22596
22132
21132
22510
22623
21635
20732
22367
21950
20932
21579
22206
22227
20507
21975
21885
22017
20457
21941
22125
21557
20458
21964
21947
20885
21036
22184
21861
20571
21904
22271
21822
20414
21852
22113
21535
20551
22084
21762
20960
20836
22328
21908
20593
21465
22453
21906
20595
21983
22027
21824
20537
22144
22261
21532
20740
22305
21885
20884
21383
22099
22143
20425
22009
22074
21960
20514
22055
22054
21643
20594
22159
22176
20920
20974
22211
21997
20258
21875
22258
21920
20438
22202
22107
21813
20637
22179
22061
21053
20808
22220
21815
20521
21509
21996
21603
20303
21843
21600
21482
20343
21813
21554
21077
20296
22161
21542
20151
21048
21637
21525
20189
21610
21733
21456
20454
21762
21744
21312
20710
21953
21695
20724
21088
22156
21837
20583
21585
21854
21467
20154
21725
22005
21312
20251
21473
21640
20677
20244
21602
21601
20103
21480
21783
21318
19405
21509
21458
21315
19829
21607
21854
20804
20146
21657
21516
20088
20894
21717
21498
20097
21401
21715
21336
19964
22135
21356
21480
20371
21842
21783
20681
20939
22075
21645
20514
21677
22150
21798
20474
21960
22294
21574
20411
22008
21956
20903
20963
22169
22198
20593
21905
22193
22330
20361
21805
21872
21819
20839
22221
22089
21350
20961
22525
22076
20684
21571
22568
22324
20551
21895
22246
22144
20764
22642
22023
21906
21017
22410
21916
20717
21210
22701
22010
20633
21985
22423
21916
20393
22087
22181
21682
20447
22125
21884
20909
20924
22274
21959
20378
21484
21929
21562
20139
21918
21979
21615
20525
22014
22005
21120
20437
22110
21974
20525
21488
22312
21470
20260
21359
21957
21176
20256
21515
21828
20957
20318
21967
21533
20649
20630
21660
21446
19987
21832
21879
21408
20301
21182
21401
20871
20577
21656
21580
20574
20600
22313
21522
20166
21258
21666
21519
19974
21532
21479
21359
20047
21862
21508
20990
20523
22012
21554
20236
21309
21810
21682
20338
21650
22030
21544
20485
22006
21730
21202
20372
22166
21930
20076
21259
21874
21723
20659
21735
22234
21749
20498
21986
22088
21711
20476
22110
22211
21007
21117
22096
21904
20368
21749
22172
21803
20502
22010
22028
21660
20733
22206
21975
21092
20807
21983
21984
20292
21431
22028
21938
20465
21854
22099
21677
20616
22281
21752
21164
20414
22118
22012
20690
21372
21896
21796
20204
21907
21975
21663
20576
22151
21913
21629
20893
22466
22132
21383
21313
22604
22598
20635
22111
22347
22634
20991
22260
22179
22140
21446
22426
22332
21372
20931
22339
22112
20770
21792
22289
22036
20622
22141
22518
21835
20973
22225
22069
21353
21014
22377
22201
20639
21611
21997
22103
20587
22136
22298
21995
20662
22143
22170
21449
20739
22358
22023
20747
21152
22002
21871
20082
21805
22063
21756
20433
22020
22187
21691
20585
22195
22078
20979
20919
22501
22095
20946
21724
22041
21886
20279
22030
21966
21802
20732
22189
22394
21276
20997
22296
22054
20741
21578
22521
22001
20503
22044
22287
21762
20606
22120
22238
21459
20651
22268
21817
20533
21592
22068
22055
20875
22170
22407
22108
20919
22214
22540
21804
20794
22272
22361
21341
21488
22441
22252
20467
21935
22435
22086
21159
22272
22491
21939
20801
22411
22392
21525
20902
22333
22487
20796
21828
22407
22271
20800
22203
22304
22196
20491
22487
22431
22094
20807
22648
22278
20949
21609
22305
22085
20517
22100
22170
21939
20526
22351
21728
21495
20716
22150
22144
20587
20746
22218
21703
20328
21623
22083
21573
20185
21792
21837
21435
20164
22114
21822
20835
20609
22144
21747
20111
21397
21961
21749
20198
21780
21861
21529
20152
22019
22170
21110
20700
22053
22010
20897
21368
22197
21960
20533
21869
22150
21767
20550
22005
22033
21467
20793
22316
22007
20845
21156
22060
22009
20390
21954
22088
21907
20410
22092
22166
21788
20673
22345
22177
21140
21381
22279
22192
20763
21990
22339
22059
20701
22424
22482
21835
21139
22496
22647
21555
21102
22591
22351
21057
21852
22427
22312
20803
22374
22401
22390
20973
22963
22472
21879
20937
22457
22121
21274
21822
22515
22438
21043
22386
22562
22292
20813
22565
22294
22199
21170
22706
22763
21538
21548
22910
22425
20971
22234
22634
22319
20996
22578
22496
22490
20957
22453
22432
21478
21081
22354
22074
20484
21649
22028
21873
20421
21929
22284
21740
20497
21970
21749
21215
20576
21952
21561
20700
21045
21990
21593
20173
21638
21790
21479
20302
21817
21732
21311
20250
21851
21647
20587
20895
21897
21744
20096
21570
21794
21696
20352
21777
21829
21567
20414
21948
22073
21140
20669
21953
21867
20480
21551
21857
21963
20368
21962
21829
21730
20691
22088
22177
21317
20647
22317
22162
20648
21466
22102
21856
20448
21984
22104
21761
20588
22040
22105
21632
20783
22236
22306
21057
21486
22609
22105
20853
21954
22177
21904
20646
22261
21939
21955
20426
22000
22131
21282
21346
22616
22128
21087
21895
22615
22157
20640
22296
22317
22114
20736
22507
22313
21620
21118
22481
21931
21276
21616
22250
22036
20684
22052
22472
21892
20513
22238
22193
21573
20613
22132
21855
20641
21191
22124
21802
20333
21617
21892
21390
20169
21846
21956
21576
20556
21815
21977
20695
20852
21940
21615
19974
21157
21943
21483
20186
21888
21909
21474
20311
21887
21916
20830
20649
21924
21794
20461
21371
21964
21782
19808
21773
21848
21360
20529
21948
21881
21192
20594
22178
21895
20305
21111
22013
21640
20213
22172
22140
21885
20391
22072
21931
21614
20883
22267
22035
21107
21239
22309
22083
20728
21880
22170
21953
20689
22045
21998
21781
20655
22355
22376
21221
21152
22390
22143
20753
21792
22156
21677
20679
22622
22127
21965
20973
22580
22252
21448
21106
22564
22172
20910
21729
22199
22080
20731
22194
22092
22037
21195
21786
22302
21769
20839
22490
22343
21184
22031
22232
22237
20831
22260
22517
22155
20689
22385
22351
22026
20915
22580
22576
21369
21473
22420
22322
21153
21909
22315
22052
20710
22178
22181
21827
20750
22141
21875
21038
20562
22385
21709
20113
21281
21771
21535
20062
21673
21898
21335
20210
21676
21543
20849
20170
21842
21515
20529
20760
21832
21396
19712
21420
21451
21326
19858
21513
21578
21241
20117
21814
21560
20353
20779
21765
21485
20225
21273
21602
21365
19799
21531
21632
21171
19915
21802
21732
20671
20506
21772
21584
20094
21148
21639
21568
20090
21463
21751
21320
20444
21760
21774
20958
20307
22020
21597
20420
21226
21912
21495
20323
21715
21931
21607
20175
21945
21882
21353
20452
22150
21874
20683
21113
21965
21871
19936
21690
21906
21742
20233
21963
21637
21765
20455
22185
22121
21206
21005
22158
21906
20544
21720
22104
21743
20375
21993
22489
21637
20754
22000
22037
21095
20881
22226
22044
20602
21491
21976
22034
20678
22018
22303
21920
20380
22008
22149
21454
20548
21900
22430
20751
21505
21967
21556
20189
21564
21845
21499
20473
21627
21919
21111
20197
21581
21261
20308
20291
21419
21342
19840
20999
21208
21056
19650
21281
21212
20731
20052
21299
21248
20068
19818
21152
21351
19645
20835
21272
21139
19627
21236
21655
21060
19987
21277
21234
20546
19963
21554
21333
19972
20717
21626
21347
19845
21163
21494
21093
19812
21564
21391
21406
20227
21437
21600
20277
20687
21755
21478
20089
21260
21588
21356
19712
21553
21591
21164
20269
21766
21717
20678
20882
22046
21743
20145
21358
21812
21662
20110
21745
21845
21495
20405
21914
21710
21069
20362
22118
21855
20715
21387
22246
21662
20280
21720
22513
21566
20581
21991
22031
21188
20578
21940
21911
20593
21066
22093
21725
20228
21737
21985
21892
20130
21857
21976
21499
20428
22075
22065
20708
20983
22000
21923
20287
21729
22079
21908
20553
22031
21933
21663
20757
22086
21965
21107
20603
22182
21767
20520
21453
21954
21557
20112
21664
21579
21244
20178
21526
21433
20700
20150
21688
21323
20134
20503
21579
21100
19628
20964
21201
20732
19306
20969
20981
20434
19487
21054
20836
19848
19789
21004
20833
19455
20546
20837
20583
19268
20748
21081
20320
19310
20891
20795
19834
19458
20813
20701
19395
20261
20831
20498
19106
20564
20995
20446
19321
20748
20567
19812
19508
20606
20664
19615
20202
20979
20562
19262
20750
20813
20512
19437
20783
20905
20252
19266
20875
20853
19527
19918
21344
20809
19134
20807
21162
20684
19180
21064
20850
20636
19775
21337
21058
20297
20044
21335
21074
19484
21086
21470
21248
19948
21446
21409
21264
20038
21694
21480
20613
20364
21916
21807
20399
21136
22095
21615
20298
21687
21927
21482
20418
21945
22044
21427
20790
22154
22093
20886
20891
22478
21980
20470
22054
22190
21919
20643
22086
22238
21699
20755
22263
22150
21235
20906
22383
22176
20909
21955
22420
22009
20850
22276
22562
21946
20923
22414
22176
21324
21169
22481
22313
20860
21862
22112
22152
20947
22269
21974
21864
20579
22190
22116
21321
20765
22234
21936
20514
21069
21681
21536
20167
21434
21483
20866
20232
21306
21580
20953
19997
21550
21307
20144
20564
21506
21084
19640
20989
21280
21016
19651
21222
21121
20869
19937
21328
21134
20102
20305
21427
21166
19602
20775
21101
21153
19460
20955
21143
21098
19773
21435
21554
20475
20156
21673
21245
19984
20597
21369
21099
19758
21096
21418
21007
19948
21404
21278
20697
20098
21626
21397
20310
20876
21770
21362
20000
21308
21414
21210
19750
21719
21319
21073
20067
21638
21614
20338
20802
21853
21390
19983
21395
21670
21796
20308
21581
21960
21173
20040
21631
21375
20626
20244
21774
21684
20026
21180
21679
21575
20140
21702
22144
21415
20389
22086
21722
21200
20577
21990
21271
20760
21198
21850
21410
20189
21142
21896
21019
19595
21554
21426
21016
20103
21702
21146
19979
20316
21314
21177
19529
20892
21269
20841
19770
21010
21020
20693
19591
20992
21125
19890
20017
20901
20894
19363
20653
20987
20900
19408
20990
21067
20691
19726
21042
21025
20099
19753
21171
20967
19859
20302
21211
20960
19618
21378
21311
21044
19559
20715
21071
20611
19941
21215
21129
20100
20572
21411
21073
19699
21071
21266
21028
19823
21259
21118
20780
19732
21472
21309
20045
20097
21450
21214
20088
20987
21205
21147
19724
21295
21353
20975
20127
21453
21484
20290
20269
21636
21447
19905
21052
21366
21291
20019
21344
21637
21252
20169
21469
21678
20683
20013
21790
21321
20243
20820
21509
21413
19965
21546
21467
21353
20201
21689
21603
21403
20246
21957
21635
20510
20785
21958
21462
20019
21217
21863
21303
20002
21570
21642
21356
20391
21912
22141
20854
20607
22086
21797
20051
21443
21951
21476
20094
21702
21696
21517
19971
21917
21900
20927
20514
21960
21525
20402
21197
22167
21728
20374
21605
22020
21536
20066
21630
21626
21138
20131
21565
21386
20175
20628
21931
20984
19897
21191
21253
20755
19385
21017
20916
20490
19674
20854
20938
19825
19915
21001
20837
19283
20515
20977
20510
19148
20583
20871
20378
19110
20762
20771
19739
19489
20984
20660
19340
20231
20997
20547
19235
20583
20891
20339
19396
20869
20814
19998
19481
20848
20725
19387
20060
21052
20704
19198
20770
20894
20604
19379
20864
20996
20574
19347
21090
20607
19952
20251
21104
20900
19101
20759
20983
21246
19711
20733
20923
20692
19781
21181
21315
20126
20052
21391
21075
19711
20863
21261
21168
19908
21316
21454
21056
20004
21478
21313
20563
20246
21772
21366
20131
20699
21978
21522
19899
21380
21652
21333
20125
21695
21817
21057
20159
21971
21827
20496
20948
21847
21739
20124
21661
21751
21153
20277
21374
22021
21181
20365
21459
21603
20718
20784
21729
21645
20161
21239
21755
21388
19789
21424
21730
20939
20262
21412
21154
20257
19945
21426
20963
19682
20301
21152
20919
19449
20936
20960
20567
19263
21032
20825
20550
19668
21177
20729
19522
20298
21086
20873
19381
20772
20932
20649
19185
20975
20757
20526
19427
21022
20917
19771
20191
20987
21106
19219
20745
21032
20729
19583
20921
20925
20784
19658
21144
21183
19863
19713
21247
21014
19656
20731
21315
20897
19711
21114
21051
20922
19570
21250
21162
20450
20084
21448
21266
19990
20721
21772
21121
19632
21082
21414
21111
19817
21308
21351
20719
20053
21533
21383
20243
20472
21668
21127
19836
21135
21268
21107
19738
21232
21431
20912
19971
21496
21259
20285
20396
21549
21231
20010
21134
21762
21403
20117
21502
21690
21012
20257
21436
21526
20649
20349
21702
21274
20054
20809
21416
21286
19509
21528
21390
21127
19705
21255
21150
20371
19945
21339
20943
19701
20330
21353
20809
19513
20743
21001
20548
19315
20801
20880
20282
19170
20779
20934
19537
20331
20878
20659
18742
20457
20865
20559
19249
20742
20880
20518
19653
20881
20741
19822
19785
21285
20877
19658
20478
21129
20785
19206
20877
21146
20589
19453
21003
20816
20204
19618
21126
20740
19493
20336
21001
20885
19335
20957
21230
20797
19457
21055
21150
20626
19786
21225
21056
19725
20130
21202
21051
19762
20921
21296
20914
19586
21050
21241
20685
19646
21234
21258
20064
19854
21186
21202
19520
20760
21379
21032
19708
21132
21299
20999
19690
21320
21361
20354
19826
21523
21113
19657
20834
21628
21264
19629
21473
21249
21124
19742
21415
21194
20900
20206
21592
21292
20287
20700
21500
21762
19977
21320
21522
21278
20071
21533
21499
21023
20041
21474
21329
20246
20264
21469
21101
19856
20900
20990
20918
19566
20968
21166
20725
19709
20915
20757
19978
19535
20975
20653
19405
20318
20618
20749
19241
20658
20920
20481
19340
20715
20842
19649
19626
21063
20954
19330
20178
20944
20647
19213
20741
20775
20440
19699
20829
21146
20183
19502
20943
20794
19654
20011
21060
21003
19209
20665
20939
20664
19398
21042
21121
20662
19779
21117
20977
20053
19767
21472
20782
20053
20895
21485
20925
19351
21086
21245
20781
19764
21187
21102
20425
19894
21392
21322
20061
20944
21315
21092
19878
21267
21519
21033
19770
21403
21360
20853
20191
21643
21260
19992
20839
21697
21250
20086
21369
21723
21452
20324
21644
21722
21173
20403
21704
21722
20516
20578
21831
21535
20048
21573
21718
21497
19909
21561
21663
21319
20096
21649
21315
20672
20275
21494
21321
19725
20706
21099
21270
19599
21100
21123
20821
19592
21150
21177
20313
19729
21089
20996
19636
20685
20871
20701
18850
20511
20995
20537
19109
21377
21169
20416
19507
20689
20843
19735
19864
20889
20810
18970
20834
21035
20600
19440
21009
20794
20685
19599
21177
21033
19858
19711
21450
20968
19696
21125
21267
20909
19739
21341
21057
21086
19580
21049
21256
20357
20111
21735
21342
20161
20761
21406
21362
19907
21244
21272
21168
20186
21534
21864
20899
20472
21656
21407
20404
20975
21701
21384
20124
21417
21418
21300
20045
21967
21497
21173
20120
21518
21636
20498
20970
22163
21944
20039
21413
21803
21608
20499
21836
21409
21546
20400
21747
21615
20936
20464
21780
21828
20479
21294
21925
21755
20459
21863
22100
21703
20313
21959
21801
21228
20652
22381
22109
20250
21222
21809
21959
19957
21657
21829
22064
20353
21516
21877
20882
20271
21758
21787
20534
21009
21600
21234
19745
21135
21224
21318
19793
21116
21073
20955
19859
21191
20905
20111
19826
21134
20853
19635
20539
21229
20700
19416
20900
21404
20376
19784
21026
20922
20210
19655
21176
20664
19710
20461
21226
20782
19438
20804
21292
20818
19605
21020
20998
20491
19746
21143
20885
19935
20177
21341
20990
19787
20982
21172
20860
19906
21149
21001
20488
20006
21385
21220
20241
20460
21671
20888
19849
20829
21574
21152
19857
21408
21182
21115
20025
21539
21264
20609
20202
21779
21352
20041
21140
21396
21455
19857
21496
21523
21252
20248
21609
21429
20907
20329
21765
21604
20353
21091
21642
21488
19929
21626
21737
21304
20327
21740
21708
21163
20217
21964
21853
20493
20804
21714
21696
19886
21436
21772
21373
20193
21608
21685
21343
20245
21978
21484
20742
20195
21684
21386
19997
21069
21360
21171
20084
21317
21499
20846
19764
21091
21086
20420
19861
21178
21075
19608
20494
21215
20843
19368
20788
20848
20582
19559
20899
20855
20245
19481
21087
21070
19799
20109
20850
20530
19111
20620
20708
20564
19542
20855
20690
20431
19627
20949
21013
19917
20024
20951
20932
19375
20706
20835
20786
19500
20968
20937
20750
19348
20995
20934
20203
19948
21200
20885
19719
20647
21181
20922
19508
20840
21133
20862
19857
21222
20999
20739
20100
21283
21254
20062
20903
21315
21082
19733
21075
21329
21066
19781
21376
21395
20894
20147
21519
21414
20151
20738
21385
21336
19759
21161
21356
21137
19701
21396
21408
21150
20247
21391
21314
20531
20484
21623
21449
19987
21064
21604
21305
19988
21389
21574
21165
20370
21527
21730
20696
20528
21661
21551
20271
21077
21913
21507
20059
21397
21705
21353
20292
21688
21852
21204
20196
21810
21993
20514
21017
21765
21694
19992
21512
21839
21387
20215
21520
21233
21169
20265
21488
21534
20459
20274
21327
21086
19797
20748
21282
20826
19624
21033
21100
20683
19521
21129
20965
20376
20247
21134
20885
19629
20479
21233
20821
19523
20776
20896
20723
19636
20992
21097
20456
19749
21269
20969
19844
20247
21063
21085
19645
20984
21250
20883
19580
21194
21458
20865
19974
21303
21310
20084
20417
21455
21201
19989
21044
21461
21221
20039
21472
21219
20899
19837
21505
21421
20631
20499
21879
21308
20026
21170
21463
21428
19996
21403
21482
21184
19836
21611
21665
21006
20537
21757
21362
20296
20968
21810
21434
20065
21496
21840
21467
20012
21683
21692
21332
20310
21903
21679
20548
20852
21840
21685
20201
21610
21807
21590
20311
21935
21563
21515
20159
21907
21795
20897
20757
22124
21757
20570
21488
21796
21722
20283
21814
21969
21627
20278
21862
21732
20976
20605
21909
21686
20275
20985
21377
21304
19939
21384
21380
21030
19978
21410
21328
20806
20126
21433
21299
19943
20572
21319
20920
19471
21023
21268
20845
19688
21083
21170
20742
19944
21204
21221
20177
20037
21296
21218
19738
21049
21609
21048
19742
21265
21264
21022
19876
21583
21333
20681
20220
21706
21315
20168
21196
21879
21319
20149
21443
21426
21192
20128
21621
21561
21060
20310
21533
21558
20594
20965
21727
21468
19950
21508
21664
21320
20006
21778
21545
21299
20635
21892
21796
20635
21165
22027
21719
20378
21491
21890
21484
20313
21658
21802
21467
20341
21886
21577
20915
20817
22037
21673
20460
21435
21954
21621
20312
21932
21953
21533
20438
21864
21987
21208
20851
22110
21749
20504
21251
22131
21774
20253
21827
22149
21595
20259
21855
21819
21361
20851
22245
21705
20731
20828
22049
21895
20243
21667
21972
21712
20402
21924
21905
21474
20716
22149
22062
21152
20801
22066
21800
20557
21542
22285
21625
20725
21886
22208
21617
20563
22047
21927
21005
20792
22206
21741
20800
21580
22177
21843
20374
21805
21966
21473
20535
21865
21777
21219
20623
21883
21800
20457
20981
21834
21415
20089
21295
21509
21203
19868
21485
21393
20906
19985
21397
21189
20420
20403
21322
21318
19830
20993
21245
21113
19811
21165
21420
20881
19987
21263
20995
20297
20255
21464
21378
19909
20923
21277
21175
19644
21294
21467
21131
19840
21484
21202
20742
20479
21757
21460
20144
21043
21451
21386
19901
21410
21451
21210
20019
21614
21338
20997
20167
21531
21449
20477
20950
21823
21357
19882
21422
21759
21364
20201
21669
21813
21256
20306
21643
21701
20367
20614
21634
21223
20011
21362
21540
21578
20198
21866
21939
21389
20315
21817
21377
21138
20691
22147
21964
20061
21214
21590
21551
20347
21677
21850
21503
20610
21869
21779
21472
20533
21728
22123
20644
21049
22159
21795
20229
21686
22141
21780
20578
21998
21736
21568
20568
22464
21861
20706
20995
21833
21732
20290
21757
21590
21548
20347
21623
21595
21353
20336
21673
21666
20668
20391
21567
21407
20286
21018
21734
21526
20012
21442
21541
21154
19991
21573
21506
20840
20467
21759
21654
20288
20861
21646
21422
20168
21413
21511
21372
19839
21608
21672
21238
20257
21880
21643
20577
20718
22037
21658
20414
21571
21608
21460
20330
21799
21588
21446
20527
21830
21531
20868
20677
22092
21766
20455
21389
22162
21665
20372
21741
21889
21452
20850
22017
21889
21154
20784
22033
21771
20408
21360
21717
21720
20383
21984
22016
21651
20324
21979
22049
21156
21072
22149
22145
20984
21287
22256
22004
20770
21761
22302
21738
20517
22120
21951
21977
20875
22258
22305
21050
21185
22304
22002
20717
21892
22342
21875
20753
22091
21932
21796
20744
22046
22204
21177
20768
22221
22012
20848
21357
21781
21449
20184
21695
21678
21334
20150
21865
21681
21106
20422
21955
21692
20535
20906
21812
21546
20118
21518
21717
21589
20234
21687
21758
21208
20297
21786
21804
20616
20815
21823
21604
20157
21649
21758
21550
20622
21824
22108
21387
20646
21804
21986
20862
20529
22008
21777
20627
21571
22142
21738
20300
21943
21764
21299
20554
21886
21868
21195
20572
22174
21947
20578
21270
21852
21933
20616
21825
22030
21756
20332
22040
22370
21503
20673
22132
21989
20892
21311
22190
21956
20376
21936
22129
21779
20565
22024
22247
21689
20590
22124
21922
21003
20957
22381
22114
20780
21836
22236
21856
20770
22199
21875
21800
20692
22345
22253
21414
20756
22304
22006
20986
21472
22458
22007
20814
22170
22345
21969
20631
22255
22191
21558
20970
22335
22254
20896
21472
22080
22019
20593
21962
22068
21700
20629
21844
22096
21357
20594
21781
21731
20760
20876
21795
21576
20244
21464
21781
21328
20194
21586
21675
21129
20113
21643
21540
20744
20591
21954
21530
20317
20991
21749
21358
19978
21387
21622
21429
20151
21670
21508
20947
20697
21797
21406
20474
20983
22022
21542
20081
21478
21666
21508
20040
21692
21672
21260
20510
21919
21641
20678
20975
21770
21630
20096
21531
21758
21553
20399
21774
21985
21456
21009
21799
21759
20833
20762
22027
21729
20644
21525
22051
21773
20454
21881
21895
21680
20414
22047
22021
21137
20892
22128
21720
20755
21511
22070
21946
20441
21895
21902
21771
20518
22043
22084
21563
21213
22245
22272
20881
21358
22271
21897
20507
21946
22167
22112
20628
22121
22044
21667
21105
22249
21878
21095
21284
22221
22143
20623
21685
21870
21817
20448
21996
21872
21596
20550
21876
21602
20921
20528
21737
21611
20451
21140
22004
21413
20204
21525
21540
21349
20145
21498
21333
21154
20187
21759
21658
20555
20865
22134
21472
20225
21437
21730
21255
20322
21498
21757
21075
20583
21627
21571
20481
20864
21876
21478
20249
21429
21716
21421
20240
21633
21915
21354
20654
21713
21855
20705
20441
21879
21591
20526
21399
22017
21543
20340
21641
21669
21344
20561
21805
21690
20702
20283
21806
21760
20430
21037
21964
21525
20460
21646
21913
21722
20115
22054
21784
21394
20595
22051
21943
20774
20985
21985
21780
20392
21761
22076
21731
20527
22095
22067
21658
20881
22046
21936
21144
21010
22294
21941
20535
21740
21855
21837
20596
22066
22127
21784
20709
22141
22175
21328
20837
22429
22120
20875
21679
22085
21856
20763
22090
22223
21986
20433
22194
21943
21666
20824
22122
21969
20830
21287
22091
21818
20528
21791
21970
21637
20386
21461
21779
21235
20547
21847
21577
20702
20863
21677
21574
20234
21400
21673
21418
20111
21644
21934
21264
20658
21781
21979
20790
20488
21595
21594
20278
21231
21654
21562
20151
21587
21702
21363
20179
21672
21452
21096
20405
21884
21669
20650
21203
21744
21650
20157
21661
21771
21541
20529
22097
21906
21406
20530
21901
21789
20764
20999
22097
21690
20581
21827
22064
21694
20504
22034
21813
21634
20467
22130
22062
21081
20741
22011
21973
20598
21600
22328
21748
20383
21824
22055
21585
20673
22164
21950
21275
20887
22128
22082
20709
21366
22388
21860
20661
21867
22068
21694
20598
21937
22121
21463
20987
22166
21901
20942
21345
22259
22056
20487
21857
22111
21931
20620
22129
22342
21764
20986
22189
21967
21359
20931
22218
21928
20848
21896
22041
21688
20467
21861
21939
21494
20688
21842
21788
21136
20436
22054
21809
20382
21202
21781
21411
20044
21518
21540
21270
20209
21607
21739
21028
20443
21833
21619
20406
20737
21786
21274
19860
21511
21683
21386
20383
21596
21711
21222
20406
21804
21812
20593
20908
21945
21688
20472
21510
22079
21587
20299
21684
21507
21495
20338
21897
21780
21031
20614
22158
21914
20360
21493
21797
21752
20317
21624
21878
21533
20385
21986
21944
21480
20876
22069
21943
20764
21363
21961
21816
20564
21914
21905
21725
20702
21980
21788
21469
20731
22122
21883
20974
21171
22189
21838
20646
21684
22051
21667
20683
21834
21968
21618
20644
22240
21847
21077
21129
22183
21893
20501
21683
21961
21803
20487
21972
22187
21737
21050
22228
22022
21370
21078
22295
22086
20837
21733
22237
22067
20695
22153
22296
22053
20603
22396
22173
21739
21155
22236
22233
21154
21636
22557
22183
20881
22056
22473
22186
20705
22340
22464
21926
21130
22448
22241
21484
21393
22309
22129
20787
22197
22553
22042
20875
22331
22424
21929
20779
22027
22027
21507
21028
22396
21718
20858
21605
21981
21706
20350
21714
21896
21372
20367
21771
21724
21063
20424
21719
21549
20235
20873
21655
21483
19809
21442
21558
21355
20092
21526
21541
21645
20448
21676
21675
20679
20846
21728
21579
20507
21480
21717
21337
20418
21681
21967
21359
20613
21839
21584
20874
20678
21929
21169
20329
21215
21587
21633
20066
21761
21796
21618
20446
21699
22361
21209
20756
22092
21839
20604
21301
22091
21739
20281
21902
21944
21710
20237
21947
21653
21365
20835
22205
21955
21032
21515
22092
21737
20774
21793
21845
21714
20583
22138
22196
21660
20878
22176
22106
21080
21012
22252
22006
20319
21801
22093
21731
20656
22104
22154
21833
20637
22190
22033
21488
21110
22365
22039
20789
21560
22350
21918
20584
21976
22172
21953
20525
22157
22205
21589
20960
22226
21916
20922
21038
22199
21774
20118
21801
21738
21605
20347
21832
21765
21377
20350
21862
21834
20796
20793
21964
21910
20400
21290
22116
21548
20469
21776
21963
21286
20390
21792
21558
21052
20758
21847
21826
20579
21335
22003
21711
20226
21793
22061
21390
20697
21916
21915
21233
20498
22067
21683
20624
21309
22039
21981
20366
21855
22075
21787
20505
21999
21868
21492
20847
22104
22243
21041
21164
21958
21873
20485
21761
21898
21793
20514
21992
22169
21745
20974
22140
21980
21134
20850
22144
22022
20813
21830
22355
21919
20654
21950
22142
21656
20438
22102
22010
21387
20992
22154
21958
20746
21539
22385
21808
20338
21958
22081
21815
20479
22160
22210
21497
20811
22628
21946
21104
21317
22337
21960
20652
21934
21992
21697
20631
21939
21866
21586
20600
22014
21871
20815
20820
21970
21553
20213
21356
21685
21322
20091
21724
21648
21268
20198
21635
21439
20999
20549
21838
21757
20330
21296
21499
21375
20213
21543
21665
21367
20065
21768
21531
20754
20388
21740
21797
20568
20917
21874
21598
19776
21539
21750
21387
20230
21680
21384
21270
20262
21823
21596
20664
20766
21966
21542
20525
21368
21600
21535
20325
21733
21932
21305
20575
21815
21585
20974
20666
21864
21732
20296
21303
21797
21674
20251
21781
21733
21669
20338
21935
21930
21141
20674
21999
21952
20863
21223
21910
21655
19995
21893
21865
21764
20422
21968
21971
21446
20813
22153
21990
20786
20969
22194
21862
20747
21663
22035
21869
20647
22001
22274
21632
20740
22054
21827
21073
20906
22517
21989
20726
21584
22347
21657
20589
21975
22174
21630
20727
21881
21909
21390
20957
21963
21949
20478
21273
21916
21406
20184
21432
21578
21230
19977
21713
21421
20998
20363
21321
21321
20296
20371
21493
21156
20039
21156
21020
20983
19640
21171
21369
20791
20031
21243
21040
20168
20321
21227
20973
19859
20744
21200
20893
19451
21076
21284
20770
19268
21288
21237
20481
20197
21303
20849
19829
20634
21144
21104
19775
21115
21374
21094
19818
21234
21393
20619
20385
21551
21242
20231
20636
21242
21160
19565
21263
21221
21108
19825
21365
21339
21042
19989
21607
21335
20583
20314
21714
21442
20277
21348
21815
21285
20353
21586
21628
21060
20365
21612
21347
20639
20356
21694
21513
20216
21158
21482
21510
20203
21738
21799
21436
20513
21754
21590
21176
20790
21684
21556
20515
20935
21931
21817
20105
21611
21851
21573
20363
21780
21538
21319
20741
21931
21859
20743
20587
22043
21717
20223
21382
21494
21337
20144
21465
21164
21081
20053
21377
21229
20329
20090
21457
21072
20020
20702
21205
20864
19465
21005
21118
20719
19821
21251
20818
20367
20020
21089
20855
19840
20371
20981
20851
19091
21091
21251
20809
19866
21258
21405
20665
19770
21335
21290
20097
20051
21166
21003
19925
20936
21403
21149
19816
21233
21177
20943
19794
21415
21392
20459
20310
21617
21085
20205
20917
21624
21098
19849
21356
21173
21051
20024
21536
21483
20597
20333
21681
21404
20294
21034
21338
21264
19766
21409
21554
21286
19903
21600
21287
21076
20416
21745
21467
20450
21215
22185
21519
20148
21440
21469
21389
20121
21726
21632
21100
20406
21827
21636
20673
20953
21661
21670
20558
21376
21794
21413
20182
21721
21533
21495
19909
21797
21601
20883
20492
21945
21563
20307
21384
21739
21529
20271
21486
21760
21424
20326
21717
22183
21011
20337
21720
21633
20259
20813
21578
21157
20018
21167
21315
21004
19781
21220
21142
20854
19790
21204
21041
20157
19994
21073
20841
19477
20824
21105
20870
19873
20964
20963
20743
19667
21136
20976
20173
19892
21188
20983
19488
20686
21154
20885
19540
20972
21047
20911
19543
21237
21277
20795
19883
21159
21103
19955
20507
21317
21004
19901
20980
21288
20899
19612
21105
21168
20681
20162
21363
21011
20205
20444
21548
21121
20024
21089
21673
21086
19955
21300
21377
20835
20234
21459
21226
20395
20162
21527
21406
19811
20930
21209
21226
19892
21293
21543
21138
19937
21505
21329
20672
20659
21640
21596
20070
20883
21433
21335
19793
21349
21509
21176
19840
21518
21444
20992
20451
21626
21409
20384
20471
21493
21373
19993
21348
21632
21260
19923
21237
21410
20819
20152
21310
20895
20151
19842
21143
20919
19641
20660
21000
20794
19492
20867
21074
20578
19553
21126
20790
20191
19780
21124
20786
19775
20229
21025
20514
19304
20591
20734
20482
19150
20840
20574
20072
19730
20828
20405
19522
20300
21010
20662
19437
20586
20780
20409
19437
20802
20671
20309
19252
20754
20544
19847
19904
20963
20652
19469
20671
20955
20695
19576
20885
21167
20641
19710
21067
20669
20130
19637
21022
20647
19469
20519
20877
20746
19570
20954
21104
20707
19574
21116
20961
20382
19964
21300
21087
19957
20661
21149
20954
19798
20887
21062
20872
19685
21324
21296
20829
19969
21303
21362
20307
20374
21482
21072
19990
21112
21264
21133
19952
21300
21358
20872
19873
21451
21251
20112
19989
21451
21078
19777
20899
20963
20833
19655
21015
20979
20619
19416
20983
20955
20341
19758
20951
20821
19462
20318
20880
20646
19130
20584
20564
20568
19069
20661
20714
20256
19559
20914
20674
19759
20084
20957
20594
19256
20662
20816
20450
19252
20748
21032
20373
19396
21016
20788
19935
19590
20864
20653
19171
20576
20992
20809
19612
20691
20967
20590
19759
21036
21017
20208
19729
21233
20693
19575
20541
21144
20854
19639
20978
21122
20793
19606
21191
20818
20571
20004
21231
21215
20058
20312
21330
21065
19901
21072
21314
21009
19976
21316
21272
20754
20275
21383
21250
20386
20453
21440
21301
19706
21219
21441
21191
19971
21391
21624
20905
20258
21524
21717
20809
20518
21675
21225
20312
21221
21963
21478
20139
21699
21550
21293
20279
21641
21568
20987
20286
21778
21715
20636
21261
21901
21578
20200
21718
21903
21350
20430
21718
21879
21038
20565
21689
21509
20496
20642
21509
21248
19808
21014
21512
20956
19852
21110
20778
20960
19749
21058
20963
20114
19893
21132
20840
19547
20567
20998
20658
19265
20806
21033
20615
19426
20861
20928
20252
19964
21168
20913
19631
20402
20976
20668
19357
20695
20950
20670
19333
21017
20659
20478
19831
21156
20842
19950
20302
21210
20924
19467
20944
21001
20821
19620
21195
21230
20642
20054
21478
21094
20110
20046
21330
21102
19633
21108
21420
21200
19785
21269
21435
21011
20273
21375
21177
20541
20394
21728
21312
20157
20759
21337
21428
20280
21413
21888
21222
20309
21656
21747
21066
20714
21874
21748
20511
20989
21641
21606
20069
21564
21839
21600
20327
21916
21682
21426
20733
22024
21955
20737
20898
22054
21685
20299
21652
21727
21629
20416
21753
21684
21371
20582
21926
21609
20923
20564
21707
21385
20217
21103
21503
21255
19816
21297
21319
20810
19669
21272
21089
20582
20066
21502
21179
20049
20485
21430
21049
20004
21053
21076
20835
19720
21201
21187
20682
19951
21211
21111
20184
20496
21533
21291
19757
21065
21174
21026
19885
21487
21403
20921
20050
21411
21312
20637
20516
21600
21406
19996
21091
21608
21333
20147
21493
21594
21225
20383
21573
21329
20750
20375
21794
21650
20399
21265
21981
21519
19988
21552
21878
21553
20595
21808
21764
21185
20571
21936
21628
20626
21247
21998
21519
20084
21766
21774
21472
20344
21818
21557
21495
20719
21872
21897
21087
20752
22210
21958
20697
21610
21910
21593
20360
21867
21753
21679
20438
21965
21712
21092
20722
22280
21752
20680
21402
22146
21705
20650
21697
21822
21674
20562
21867
21754
21361
20825
22035
21823
20728
21299
21995
21562
20336
21416
21702
21268
20112
21446
21419
21125
20342
21413
21109
20397
20404
21336
21087
20279
20863
21048
21088
19738
21143
21284
20836
19953
21266
20958
20156
19979
21299
21125
19502
20700
21086
20803
19685
21020
21312
20986
19821
21198
21306
20738
20205
21403
21217
20002
20785
21090
21172
19574
21271
21460
21192
20128
21353
21345
20835
20276
21509
21309
20338
20468
21588
21333
20032
21323
21338
21127
20081
21283
21459
21081
20216
21521
21448
20637
20464
21589
21557
20211
21274
21443
21393
19867
21416
21412
21184
19974
21691
21360
20840
20588
21693
21367
20234
21070
21429
21545
20433
21575
21765
21391
20375
21770
21590
21210
20839
21883
21863
20679
20964
21811
21608
20294
21561
21709
21519
20484
21967
21669
21459
20699
21935
21713
20874
20649
21808
21678
20329
21559
21900
21543
20418
21618
21849
21282
20445
21669
21465
20844
20507
21641
21017
19989
21006
21395
21252
19902
21256
21219
20947
20114
21251
21411
20489
19736
21345
20777
19951
20271
21453
21021
19317
21009
21192
20740
19732
21156
21003
20685
19997
21191
21113
20073
20275
21263
21005
19685
20972
21042
21046
19850
21228
21429
21093
20190
21485
21168
20480
20409
21448
21310
20214
21168
21656
21345
20017
21716
21330
21148
20041
21501
21551
20878
20373
21562
21689
20324
20961
21413
21535
20468
21726
21767
21452
20272
21669
21563
21297
20538
21893
21635
20707
20984
21783
21517
20145
21691
22014
21580
20409
21738
21768
21614
20497
21867
21931
21083
21138
22188
21793
20566
21823
21546
21711
20448
21821
22109
21677
20570
22048
21962
21480
20871
22142
21794
20727
21293
21918
21816
20318
21839
22149
21599
20499
21748
21813
21225
20360
21748
21461
20492
20849
21579
21375
20151
21115
21345
21156
20012
21444
21398
21069
20090
21486
21296
20535
20485
21412
21288
20162
21513
21549
21281
19961
21488
21263
21189
20289
21598
21409
20860
20774
21647
21488
20179
21068
21504
21399
20004
21457
21829
21342
20313
21700
21436
21114
20660
21753
21444
20478
20890
21756
21558
20030
21554
21542
21472
20511
21831
21555
21177
20821
21817
21717
20892
20619
21875
21617
20214
21504
21565
21342
20393
21777
21761
21384
20683
21825
21679
21019
20833
22056
21526
20374
21529
21927
21826
20452
21973
21955
21585
20585
22025
21898
21447
20643
22086
21914
20667
21389
22054
21886
20582
22001
21836
21787
20419
22035
21893
21596
20963
22296
22059
21051
20850
22451
22080
20778
21939
22111
21925
20718
22159
21906
21699
20876
22254
22053
21388
21003
22279
21881
20656
21659
21959
21619
20335
21658
21799
21503
20301
21730
21767
20947
20594
21584
21376
20253
21016
21590
21219
20138
21337
21402
21014
19658
21441
21396
20890
20144
21666
21143
20360
20813
21324
21366
19849
21136
21536
21166
19952
21512
21714
21002
20448
21431
21491
20564
20529
21591
21310
20313
21307
21720
21461
20176
21550
21657
21252
20458
21633
21508
20615
20637
21683
21748
20227
21284
21538
21477
19965
21598
21750
21279
20357
21753
21940
21206
20704
21760
21676
20834
21297
22020
21652
20137
21591
21851
21609
20501
21830
21901
21383
20508
21889
21996
20836
21086
22050
21788
20310
21782
22094
21686
20525
21791
21560
21609
20482
21792
21763
21257
20795
22219
21970
20814
21605
21833
21863
20687
21970
21968
21824
21064
22091
21854
21513
20941
22111
21977
21195
21386
22365
21911
20598
21863
22099
21477
20757
21857
22021
21219
20645
21727
21535
20428
20760
21654
21390
20188
21111
21494
21033
19846
21246
21186
20899
20271
21209
20802
20332
20102
21304
20998
20050
20986
21506
20929
19740
21203
21227
20985
19805
21791
21302
20584
20227
21578
21205
20080
20860
21515
21336
19675
21517
21631
21152
20254
21521
21521
20895
20206
21549
21275
20388
20600
21451
21387
19654
21214
21491
21341
19975
21419
21600
21079
20464
21612
21604
20639
20469
21636
21390
20264
21189
21822
21319
19971
21529
21601
21318
20078
21695
21808
20797
20395
21948
21714
20438
21209
21931
21392
19988
21557
21742
21398
20443
21712
21805
21076
20547
21830
21720
20652
20938
21771
21684
20437
21656
21956
21487
20429
21802
21854
21408
20613
21885
21729
20973
20993
22006
21758
20695
21699
22214
21649
20390
21850
21714
21611
20242
22003
21809
21116
20870
21868
21643
20418
21177
21531
21224
19963
21392
21471
21048
19935
21404
21383
20664
20220
21336
21206
20026
20470
21275
20888
19470
20974
21036
20800
19589
21087
21226
20689
19867
21223
21012
20030
20374
21144
20999
19741
20933
21096
21026
19752
21140
21038
20884
19918
21313
21248
20360
20255
21300
20966
19935
20916
21567
21035
19770
21255
21481
21056
19832
21335
21223
20740
20149
21473
21247
20401
20841
21568
21293
20276
21350
21530
21262
20095
21607
21447
21059
20439
21740
21686
20441
20858
21620
21462
20213
21713
21589
21463
20144
21746
21647
21253
20555
21831
21668
20910
20804
22040
21785
20591
21504
21974
21677
20436
21821
21739
21553
20693
21846
21701
21199
20727
22088
21693
20841
21396
21803
21634
20185
21798
22038
21585
20829
21964
21825
21245
20541
21875
21574
20554
20734
21546
21387
20080
21451
21454
21427
20014
21311
21453
21254
20131
21308
21321
20303
20120
21374
21031
19615
21038
21222
20920
19661
21110
21242
20764
20129
21137
21273
20360
19883
21154
20897
19934
20755
21283
20978
20033
21141
21208
20955
19828
21313
21272
20808
20424
21454
21050
20180
21000
21266
21104
19990
21228
21584
21179
19963
21380
21616
20967
20369
21420
21523
20381
20355
21592
21520
19997
21191
21430
21293
20142
21434
21579
21115
20242
21763
21819
20896
20697
21844
21338
20340
21162
21619
21454
20074
21757
21801
21425
20546
21704
21435
21134
20443
21974
21473
20559
21152
21825
21614
20267
21727
21807
21427
20485
21738
21788
21284
20691
21887
21656
20780
20924
21885
21817
20369
21685
21932
21646
20558
21831
21899
21421
20766
21930
21973
21012
21065
21986
21984
20674
21496
21839
21739
20614
21717
21678
21332
20698
21835
21359
20866
20559
21694
21378
20384
20901
21604
21167
20118
21249
21313
21137
19790
21220
20977
20779
20236
21397
21129
20339
20420
21342
21143
19897
21087
21137
21050
19904
21136
21118
20854
20163
21362
21232
20390
20459
21315
21019
20269
21054
21546
21215
20022
21296
21385
21269
20320
21489
21285
20853
20342
21662
21337
20183
20857
21638
21244
20075
21302
21415
21297
20161
21614
21600
21002
20454
21643
21449
20685
20697
21799
21565
20208
21503
21494
21218
20339
21622
21696
21243
20357
21856
21573
20768
20772
21885
21511
20356
21539
21771
21426
20224
21775
21550
21431
20630
21588
21650
21273
20754
21979
21659
20472
21350
22007
21544
20190
21709
21779
21521
20502
21957
21815
21384
20936
21839
21606
20684
20927
21615
21555
20626
21772
21983
21675
20481
21955
21971
21547
20593
22167
22027
21012
20923
21826
21719
20489
21522
21606
21428
20435
21655
21628
21294
20182
21369
21357
20912
20265
21723
21280
20239
20842
21151
21023
19739
21180
21102
20815
19828
21241
21250
20549
20018
21124
21030
20091
20273
21193
20949
19713
21009
21227
20900
19781
21188
20941
20655
20059
21198
21005
20300
20310
21124
21367
19807
20827
21174
21181
19794
21531
20743
21012
20001
21347
21362
20490
20191
21448
21241
19841
20930
21316
21080
19715
21331
21244
20961
20250
21257
21489
21025
20549
21566
21468
20331
20900
21375
21241
20031
21382
21502
21151
20162
21473
21349
21022
20593
21665
21627
20480
20722
22015
21596
20517
21386
21753
21396
20203
21635
21511
21338
20330
22060
21887
20945
20632
22062
21838
20510
21389
21847
21587
20390
21676
21812
21586
20635
21863
21681
21197
20440
22027
21626
20578
21263
21948
21519
20126
21443
21480
21266
20011
21463
21552
20999
20395
21472
21234
20181
20604
21390
20972
20113
21256
21264
21001
19874
21216
21134
20928
19975
21321
21303
20525
20406
21310
21256
19753
21121
21397
21009
19897
21266
21202
20970
20110
21419
21378
20830
20344
21551
21304
20320
20872
21500
21223
19999
21360
21646
21376
20278
21459
21684
21071
20311
21649
21568
20556
20729
21793
21577
20052
21474
21535
21278
20349
21560
21638
21199
20476
21699
21919
20904
20847
21800
21377
20256
21395
21933
21517
20028
21546
21844
21220
20447
21699
21313
21203
20939
21802
21858
20505
21183
21673
21454
20245
21693
21739
21416
20601
21835
21958
21343
20619
21830
21555
20812
21098
21958
21678
20405
21676
21955
21539
20619
21877
21811
21479
20630
21861
21979
20931
20965
21968
21700
20768
21621
21989
21879
20595
21946
21775
21733
20943
22024
21832
21416
20825
22054
21915
20530
21392
21383
21626
19998
21631
21742
21101
20316
21406
21220
20875
20101
21326
21267
20167
20642
21306
21061
19613
21165
20807
20594
19988
21177
21070
20771
20022
21246
21183
20264
20130
21372
20906
19805
20991
21145
20902
19608
21039
21257
20743
20146
21158
20845
20521
20065
21368
21187
20133
20995
21131
21138
19922
21237
21276
21035
20033
21367
20993
20895
20340
21664
21153
20420
20866
21683
21227
20141
21209
21419
21251
20015
21474
21317
21195
20514
21603
21394
20566
20385
21668
21463
20160
21418
21679
21275
20042
21641
21512
21291
20400
21708
21682
21085
20895
21829
21531
20588
21373
21714
21596
20095
21614
21729
21403
20470
21898
21574
21148
20975
21761
21836
20526
21056
22030
21674
20412
21762
22003
21678
20601
21876
21746
21499
20796
21970
21943
21033
20954
22050
21849
20604
21780
21837
21864
20454
21876
22131
21659
20976
22125
21863
21206
21109
22122
22139
20592
21550
22008
21654
20284
21652
21737
21277
20409
21775
21515
20923
20739
21633
21633
20490
20874
21492
21102
19950
21175
21243
21081
19879
21190
21231
20724
20066
21253
21306
20266
20405
21374
21256
20118
21036
21213
20998
19988
21248
21329
20968
20228
21381
21225
20425
20721
21444
21238
20115
21182
22370
21223
20011
21420
21492
21165
20198
21453
21390
20937
20689
21637
21299
20436
21129
21653
21471
20117
21414
21558
21260
20336
21760
21631
21107
20866
21695
21614
20705
20721
21816
21520
21231
21455
21764
21570
20302
21685
21603
21315
20634
21860
21721
20942
21067
21939
22013
20561
21350
21955
21631
20398
21383
21743
21494
20684
21958
21534
21345
20825
21999
21704
20737
21393
22033
21830
20373
21555
21886
21579
20515
21680
21663
21248
20642
21603
21515
20662
20559
21419
21236
20086
21141
21235
21127
19921
21244
20988
20862
19828
21234
21093
20472
20101
21224
21103
19762
20873
20892
20913
19718
21018
21226
20838
19886
21133
21181
20479
19868
21126
21153
20122
20572
21619
21018
19740
21151
21303
20979
20022
21362
20971
20607
20329
21325
21065
20205
20309
21356
21126
19898
21072
21214
20988
20018
21214
21219
20919
20218
21489
21167
20462
20338
21558
21141
20084
21199
21566
21242
20069
21361
21485
21047
20054
21668
21691
20958
20791
21724
21544
20520
20902
21714
21369
20173
21429
21634
21384
19984
21745
21399
21095
20482
21732
21452
20790
20810
21957
21702
20405
21634
21839
21364
20574
21755
21674
21327
20521
21780
21745
21165
21033
21810
21765
20943
21578
21950
21689
20630
21855
21911
21469
20792
21778
21869
21328
20955
21942
22035
20685
21225
22019
21681
20616
21744
21980
21590
20635
21675
21630
21172
20554
21677
21313
20413
20793
21575
21183
20069
21203
21447
21069
20012
21279
21190
20927
20003
21364
21289
20599
20211
21245
21306
20057
20958
21546
21194
19789
21280
21370
21035
20186
21334
21346
20857
20388
21598
21354
20388
21107
21719
21187
20034
21345
21623
21192
20562
21368
21554
20956
20516
21613
21356
20748
20851
21693
21398
20122
21621
21577
21320
20391
21619
21694
21189
20653
21700
21505
20973
20829
21963
21487
20581
21444
21631
21547
20299
21760
21842
21338
20400
21653
21499
21216
20871
21986
21706
20751
21392
21903
21784
20435
21837
21710
21582
20572
21878
21904
21429
20949
22073
21903
20775
20992
22026
21785
20590
21751
21876
21811
20720
21988
21903
21557
20786
22360
21650
21044
21126
22041
21736
20852
21815
22007
21710
20712
21940
21901
21557
20725
21722
21777
21078
20943
21840
21607
20393
20989
21515
21274
19982
21388
21295
21106
19932
21110
21382
20401
20350
21673
21328
20300
20954
21292
21071
19951
21074
21425
20951
19937
21346
21333
20911
20202
21331
21283
20542
20478
21746
20844
19879
21389
21428
21177
19961
21392
21452
21198
20362
21589
21431
20935
20621
21679
21410
20417
21152
21597
21221
20232
21500
21447
21254
20379
21764
21703
21170
20781
21749
21494
20753
21142
21954
21670
20394
21618
21743
21485
20542
21332
21878
21330
20643
21788
21525
20972
21008
21971
21672
20461
21549
21822
21564
20566
21749
21919
21514
20523
21765
21583
21257
21042
21921
21639
20810
21392
21966
21692
20505
21781
21802
21647
20522
21846
22003
21239
20882
22003
21612
20878
21327
22108
21785
20528
21994
21913
21615
20626
22060
22006
21668
20920
22078
21787
21164
21127
22143
21916
20594
21717
22071
21848
20630
22018
22048
21745
20844
22123
22053
21321
21140
22067
21897
20788
21399
21820
21683
20266
21700
21553
21346
20213
21660
21549
20926
20387
21499
21342
20438
20530
21471
21216
20025
21156
21309
21021
19838
21070
21172
20756
19920
21267
21370
20297
20307
21413
21204
19746
20970
21286
20951
19976
21135
21318
20877
20031
21274
21401
20565
20258
21301
21150
20234
20703
21440
21229
20028
21388
21560
21176
20133
21331
21493
20865
20595
21562
21516
20317
20676
21489
21401
20271
21312
21692
21247
20247
21540
21489
21152
20573
21696
21344
20835
20683
21785
21423
20130
21406
21515
21481
20269
21705
21633
21377
20397
21676
21828
21143
20824
21927
21901
20584
21194
21777
21702
20359
21648
21842
21446
20472
22187
21737
21280
20566
21895
21887
20773
21538
22055
21738
20602
21833
22075
21766
20679
21852
21906
21563
20885
22051
21977
21028
21282
22118
21912
20653
21605
22052
21797
20299
21997
21920
21555
20496
22017
21501
21220
20616
