6214
6151
6087
6024
5973
5923
5869
5821
5781
5736
5679
5624
5580
5540
5498
5457
5420
5383
5346
5323
5315
5310
5307
5317
5339
5356
5365
5382
5404
5420
5434
5458
5491
5518
5542
5574
5603
5612
5609
5608
5597
5573
5549
5530
5505
5467
5425
5393
5360
5313
5267
5228
5188
5144
5106
5079
5054
5022
4988
4956
4917
4870
4826
4787
4746
4701
4663
4634
4598
4553
4515
4485
4452
4419
4397
4376
4348
4325
4316
4311
4300
4289
4289
4293
4287
4275
4262
4241
4204
4161
4123
4088
4053
4032
4030
4033
4035
4041
4049
4049
4043
4043
4058
4085
4118
4164
4233
4328
4459
4636
4856
5108
5390
5711
6063
6423
6785
7145
7489
7795
8061
8298
8496
8636
8735
8803
8832
8818
8770
8700
8609
8490
8358
8222
8070
7905
7743
7596
7454
7311
7181
7070
6963
6859
6772
6704
6633
6555
6488
6437
6384
6325
6266
6206
6135
6059
5997
5950
5902
5849
5801
5753
5704
5662
5635
5615
5592
5575
5576
5589
5604
5624
5655
5691
5718
5738
5773
5816
5849
5877
5904
5919
5925
5936
5954
5963
5954
5943
5935
5918
5888
5862
5841
5804
5749
5696
5648
5598
5551
5514
5477
5427
5377
5347
5324
5288
5241
5203
5176
5148
5122
5099
5067
5022
4979
4948
4912
4864
4822
4796
4770
4739
4711
4685
4652
4614
4584
4569
4559
4541
4522
4507
4490
4471
4453
4432
4401
4365
4340
4320
4297
4285
4289
4297
4294
4298
4333
4395
4474
4591
4763
4982
5238
5535
5882
6263
6649
7035
7418
7776
8097
8389
8652
8864
9013
9116
9188
9219
9206
9167
9107
9021
8913
8793
8663
8522
8371
8225
8089
7954
7827
7721
7628
7531
7438
7367
7312
7251
7187
7132
7075
7009
6940
6883
6832
6771
6709
6661
6612
6552
6490
6438
6387
6327
6276
6246
6221
6193
6173
6169
6172
6180
6202
6233
6259
6279
6308
6345
6373
6391
6417
6446
6463
6474
6494
6519
6533
6535
6531
6511
6467
6418
6385
6356
6314
6271
6238
6204
6163
6124
6092
6056
6004
5944
5889
5827
5758
5696
5647
5596
5535
5476
5428
5382
5331
5288
5257
5227
5192
5157
5122
5082
5040
5005
4972
4932
4897
4880
4872
4857
4841
4836
4837
4833
4819
4805
4784
4750
4715
4686
4656
4619
4583
4561
4550
4545
4559
4603
4669
4753
4874
5049
5270
5528
5830
6175
6538
6902
7277
7661
8033
8381
8709
9006
9249
9434
9575
9672
9719
9725
9700
9646
9559
9448
9325
9193
9046
8890
8743
8601
8459
8326
8206
8086
7961
7843
7740
7645
7552
7474
7412
7352
7293
7247
7211
7166
7103
7032
6965
6896
6821
6752
6692
6634
6578
6529
6491
6454
6418
6396
6388
6388
6395
6415
6441
6465
6491
6525
6559
6578
6601
6639
6676
6697
6709
6722
6730
6723
6711
6702
6691
6676
6668
6669
6666
6651
6633
6616
6590
6545
6494
6448
6397
6339
6291
6253
6205
6149
6101
6061
6012
5952
5908
5878
5840
5796
5755
5714
5663
5610
5571
5542
5505
5464
5436
5408
5365
5320
5280
5235
5186
5151
5140
5128
5106
5085
5071
5051
5020
4993
4981
4980
4981
4988
4993
4984
4961
4942
4921
4887
4850
4826
4804
4768
4727
4702
4688
4677
4687
4737
4817
4908
5021
5177
5377
5619
5917
6269
6656
7054
7461
7877
8278
8648
8994
9310
9571
9769
9913
10014
10074
10096
10089
10058
10002
9924
9829
9712
9570
9416
9265
9118
8964
8813
8681
8560
8435
8316
8217
8126
8025
7921
7834
7760
7679
7596
7523
7454
7381
7315
7262
7205
7135
7071
7030
6993
6940
6889
6858
6831
6802
6781
6766
6739
6701
6673
6667
6673
6683
6710
6746
6770
6791
6825
6867
6901
6932
6974
7020
7051
7063
7062
7047
7020
6989
6970
6957
6931
6899
6872
6838
6794
6753
6720
6683
6635
6585
6551
6523
6488
6456
6427
6386
6335
6286
6232
6163
6084
6014
5958
5905
5851
5810
5782
5747
5704
5667
5633
5585
5532
5495
5472
5441
5407
5380
5353
5316
5275
5245
5228
5213
5200
5194
5185
5170
5164
5169
5168
5152
5135
5125
5110
5083
5058
5033
4999
4965
4940
4922
4902
4882
4871
4869
4865
4861
4866
4871
4869
4872
4899
4946
5000
5078
5203
5374
5581
5828
6120
6451
6807
7187
7592
8000
8391
8768
9126
9441
9692
9891
10057
10181
10254
10283
10272
10224
10152
10069
9978
9870
9741
9604
9465
9319
9165
9012
8859
8710
8571
8448
8340
8236
8142
8068
8003
7927
7841
7763
7701
7643
7584
7534
7482
7414
7347
7298
7255
7199
7137
7082
7031
6977
6932
6906
6885
6857
6835
6828
6833
6850
6881
6918
6947
6965
6985
7011
7030
7040
7054
7073
7081
7082
7089
7098
7096
7081
7066
7049
7021
6984
6944
6896
6835
6770
6719
6673
6615
6554
6506
6463
6413
6366
6329
6287
6234
6181
6137
6091
6037
5989
5956
5924
5885
5851
5819
5776
5727
5683
5647
5610
5568
5535
5510
5481
5449
5428
5414
5394
5366
5343
5333
5315
5284
5255
5230
5198
5162
5134
5112
5089
5071
5070
5077
5080
5081
5086
5084
5071
5061
5060
5055
5037
5018
5009
5003
4993
4989
4998
5013
5038
5089
5170
5280
5427
5623
5860
6129
6432
6780
7160
7551
7950
8354
8747
9103
9412
9678
9899
10072
10202
10288
10321
10303
10247
10173
10080
9964
9836
9705
9565
9410
9255
9113
8976
8835
8701
8586
8470
8346
8228
8123
8023
7930
7845
7768
7688
7608
7539
7477
7410
7342
7285
7234
7172
7107
7062
7030
6992
6952
6922
6893
6854
6815
6794
6786
6778
6782
6811
6847
6877
6908
6945
6976
6991
7006
7031
7051
7062
7080
7107
7123
7124
7122
7112
7078
7023
6979
6954
6930
6895
6854
6812
6766
6723
6696
6673
6633
6585
6547
6514
6471
6425
6383
6332
6266
6197
6131
6061
5989
5928
5883
5845
5799
5753
5720
5691
5658
5631
5618
5600
5572
5549
5535
5513
5480
5452
5434
5413
5390
5370
5348
5312
5268
5239
5221
5195
5171
5160
5154
5140
5123
5117
5116
5110
5105
5109
5110
5106
5115
5144
5185
5239
5321
5441
5592
5770
5988
6257
6564
6892
7247
7625
8002
8366
8721
9057
9352
9597
9811
9999
10140
10230
10283
10295
10252
10165
10056
9933
9784
9621
9463
9311
9153
8994
8848
8705
8555
8406
8271
8148
8020
7901
7807
7723
7640
7567
7506
7445
7375
7305
7247
7192
7127
7061
6999
6934
6871
6824
6794
6764
6734
6717
6710
6694
6674
6670
6681
6686
6687
6699
6718
6729
6739
6760
6784
6800
6810
6824
6839
6846
6849
6852
6851
6841
6832
6826
6816
6795
6771
6752
6729
6689
6640
6593
6538
6479
6433
6401
6365
6319
6278
6244
6199
6136
6074
6019
5965
5920
5891
5864
5828
5789
5762
5742
5708
5657
5609
5563
5511
5466
5435
5413
5394
5378
5370
5358
5332
5303
5286
5275
5262
5251
5245
5232
5206
5185
5177
5161
5130
5107
5101
5093
5080
5077
5087
5109
5148
5216
5312
5436
5604
5836
6126
6452
6803
7185
7587
7984
8364
8726
9061
9350
9589
9787
9942
10039
10089
10109
10096
10041
9957
9857
9740
9605
9469
9335
9186
9020
8859
8712
8570
8431
8307
8199
8089
7977
7880
7797
7712
7627
7556
7493
7417
7329
7252
7189
7123
7059
7008
6965
6913
6852
6798
6754
6703
6651
6615
6587
6556
6537
6543
6564
6583
6601
6629
6656
6669
6686
6709
6727
6744
6767
6793
6816
6829
6843
6866
6888
6905
6918
6912
6877
6824
6770
6716
6652
6586
6536
6499
6460
6418
6382
6344
6292
6234
6188
6156
6121
6084
6058
6033
5995
5952
5916
5876
5829
5785
5750
5714
5670
5631
5607
5588
5563
5541
5525
5503
5479
5459
5444
5425
5403
5387
5376
5355
5324
5306
5300
5288
5266
5244
5219
5183
5145
5125
5120
5112
5107
5124
5147
5157
5171
5208
5266
5341
5450
5605
5795
6013
6266
6565
6903
7268
7657
8065
8467
8846
9202
9529
9807
10028
10210
10357
10452
10495
10504
10478
10412
10323
10222
10108
9974
9826
9679
9532
9370
9197
9035
8883
8733
8594
8476
8366
8259
8161
8079
8006
7929
7852
7795
7749
7694
7636
7583
7521
7452
7387
7325
7262
7201
7145
7097
7051
7005
6967
6943
6926
6917
6921
6939
6957
6979
7025
7081
7118
7138
7165
7203
7237
7268
7305
7331
7338
7337
7336
7329
7307
7278
7256
7231
7199
7171
7148
7117
7073
7029
6985
6926
6851
6781
6726
6677
6629
6587
6548
6508
6469
6437
6408
6362
6298
6235
6176
6109
6039
5981
5936
5892
5851
5823
5801
5768
5731
5706
5682
5642
5603
5574
5538
5493
5462
5452
5439
5410
5387
5382
5372
5351
5338
5339
5336
5323
5320
5325
5321
5297
5269
5247
5221
5193
5174
5162
5146
5129
5127
5138
5152
5172
5219
5313
5458
5658
5912
6202
6508
6832
7189
7576
7969
8360
8745
9102
9414
9683
9908
10080
10193
10266
10314
10329
10302
10251
10183
10086
9970
9848
9718
9574
9422
9275
9138
8998
8856
8730
8621
8521
8434
8365
8299
8227
8155
8094
8037
7962
7879
7811
7752
7685
7619
7563
7504
7432
7362
7308
7267
7225
7184
7157
7134
7105
7083
7072
7057
7041
7040
7053
7064
7065
7064
7068
7075
7083
7100
7127
7154
7177
7203
7226
7231
7224
7221
7217
7198
7175
7159
7139
7105
7068
7036
7007
6970
6924
6885
6851
6804
6752
6705
6660
6613
6570
6528
6480
6428
6380
6339
6297
6250
6206
6167
6122
6067
6014
5965
5908
5846
5795
5757
5713
5661
5622
5603
5580
5547
5528
5522
5512
5495
5476
5458
5439
5414
5389
5364
5333
5310
5305
5299
5278
5252
5232
5214
5191
5176
5175
5173
5161
5157
5163
5164
5157
5158
5172
5199
5246
5322
5432
5564
5722
5924
6166
6437
6746
7101
7486
7873
8259
8635
8973
9261
9509
9721
9892
10013
10090
10135
10145
10117
10058
9976
9867
9737
9598
9463
9329
9189
9053
8929
8804
8676
8559
8455
8353
8254
8172
8109
8045
7978
7914
7851
7781
7714
7666
7621
7558
7489
7431
7372
7303
7234
7183
7141
7087
7029
6983
6947
6913
6891
6893
6906
6914
6928
6957
6988
7008
7031
7065
7096
7112
7129
7153
7163
7160
7163
7164
7147
7125
7117
7126
7136
7133
7125
7115
7099
7080
7062
7036
6989
6931
6886
6857
6831
6804
6768
6719
6659
6598
6554
6524
6489
6453
6424
6392
6348
6309
6281
6249
6204
6160
6131
6108
6083
6064
6050
6028
6000
5977
5960
5941
5918
5900
5884
5857
5821
5793
5773
5751
5727
5713
5707
5692
5673
5667
5668
5655
5638
5631
5621
5595
5567
5556
5551
5544
5549
5582
5630
5685
5764
5872
6004
6162
6372
6644
6946
7258
7595
7953
8311
8663
9013
9346
9633
9866
10059
10213
10319
10382
10414
10409
10357
10271
10171
10058
9922
9770
9620
9465
9292
9115
8954
8808
8664
8530
8418
8313
8210
8126
8065
8010
7952
7902
7862
7815
7756
7705
7665
7614
7549
7492
7444
7393
7336
7281
7228
7175
7128
7103
7091
7075
7054
7048
7058
7066
7078
7105
7140
7169
7198
7241
7293
7335
7363
7392
7414
7422
7428
7445
7461
7461
7452
7451
7447
7425
7401
7384
7363
7334
7312
7305
7295
7269
7234
7199
7157
7109
7067
7025
6978
6931
6896
6870
6840
6804
6777
6753
6720
6688
6668
6650
6617
6572
6531
6495
6451
6403
6359
6315
6265
6221
6187
6147
6089
6024
5971
5925
5880
5846
5835
5835
5826
5815
5812
5801
5778
5764
5769
5770
5756
5741
5733
5730
5737
5767
5819
5897
6017
6190
6401
6632
6888
7179
7503
7840
8184
8537
8880
9192
9482
9751
9987
10173
10312
10417
10486
10510
10497
10458
10396
10309
10207
10104
9990
9857
9714
9575
9429
9276
9140
9025
8915
8812
8731
8667
8603
8535
8478
8428
8372
8312
8259
8205
8139
8075
8025
7976
7916
7854
7804
7758
7706
7660
7630
7603
7570
7536
7517
7511
7508
7519
7548
7580
7610
7641
7678
7714
7741
7767
7800
7830
7844
7853
7861
7858
7849
7846
7844
7822
7779
7740
7709
7669
7625
7590
7559
7518
7474
7434
7391
7336
7280
7235
7192
7138
7085
7044
7002
6949
6898
6859
6818
6773
6738
6716
6691
6660
6632
6610
6580
6540
6509
6491
6468
6437
6411
6391
6366
6334
6308
6286
6259
6231
6215
6201
6178
6155
6142
6135
6120
6100
6088
6080
6063
6046
6041
6041
6039
6039
6039
6033
6024
6023
6048
6095
6155
6238
6360
6518
6708
6937
7203
7495
7808
8140
8485
8829
9156
9472
9776
10049
10281
10483
10647
10759
10828
10864
10867
10825
10749
10651
10536
10405
10267
10136
10006
9866
9724
9592
9472
9347
9216
9102
9009
8915
8825
8746
8668
8587
8511
8447
8387
8331
8288
8260
8230
8184
8128
8069
8003
7933
7869
7814
7759
7707
7666
7637
7615
7595
7585
7580
7569
7560
7564
7570
7570
7568
7582
7611
7636
7661
7694
7727
7751
7766
7777
7780
7771
7760
7755
7745
7718
7693
7677
7651
7611
7571
7533
7489
7438
7397
7370
7339
7302
7273
7247
7211
7167
7124
7079
7020
6956
6911
6880
6836
6786
6747
6710
6667
6626
6592
6561
6526
6496
6476
6458
6433
6404
6379
6348
6303
6262
6235
6211
6184
6164
6146
6118
6085
6054
6025
5990
5952
5924
5908
5885
5856
5839
5835
5827
5816
5813
5816
5819
5834
5880
5955
6042
6148
6284
6447
6634
6858
7125
7425
7747
8086
8441
8795
9129
9442
9731
9979
10180
10344
10478
10573
10620
10638
10635
10599
10533
10456
10367
10251
10120
9988
9850
9700
9547
9409
9287
9171
9061
8966
8888
8812
8736
8675
8624
8566
8504
8448
8399
8348
8301
8265
8225
8175
8127
8085
8045
8004
7966
7939
7915
7882
7849
7830
7819
7812
7822
7844
7855
7857
7878
7920
7956
7977
8000
8026
8045
8059
8075
8087
8097
8110
8133
8155
8160
8156
8159
8161
8139
8090
8042
8003
7961
7926
7909
7893
7869
7837
7805
7773
7729
7677
7631
7580
7520
7467
7422
7370
7311
7262
7232
7207
7178
7155
7135
7106
7069
7037
7010
6980
6946
6920
6900
6872
6841
6825
6817
6799
6774
6751
6726
6692
6657
6638
6629
6617
6605
6603
6599
6583
6569
6568
6571
6567
6555
6547
6537
6518
6506
6505
6498
6488
6501
6539
6592
6664
6775
6928
7110
7318
7562
7840
8147
8486
8856
9235
9603
9960
10313
10643
10926
11161
11360
11518
11627
11690
11718
11714
11678
11615
11533
11438
11326
11203
11080
10955
10828
10704
10588
10480
10374
10273
10177
10074
9972
9889
9820
9749
9675
9611
9553
9486
9414
9355
9304
9249
9190
9138
9087
9027
8962
8909
8868
8818
8758
8706
8661
8613
8571
8546
8530
8511
8501
8514
8540
8571
8608
8653
8693
8722
8749
8782
8815
8843
8865
8881
8888
8882
8867
8845
8810
8762
8725
8704
8677
8636
8590
8545
8496
8435
8372
8309
8236
8159
8095
8042
7987
7933
7887
7850
7810
7766
7726
7681
7624
7569
7528
7491
7451
7417
7395
7372
7341
7315
7303
7292
7271
7250
7230
7204
7172
7147
7126
7097
7056
7019
6990
6955
6912
6868
6821
6762
6700
6646
6597
6549
6505
6475
6462
6449
6437
6445
6471
6497
6534
6599
6688
6802
6952
7148
7375
7618
7891
8201
8533
8875
9230
9589
9927
10234
10514
10766
10980
11152
11288
11393
11457
11478
11468
11430
11354
11245
11126
10997
10852
10705
10570
10443
10314
10192
10091
10005
9919
9833
9760
9692
9620
9555
9502
9454
9400
9344
9295
9246
9191
9138
9089
9032
8962
8891
8828
8761
8682
8610
8557
8507
8457
8425
8408
8389
8371
8377
8406
8427
8440
8467
8509
8545
8570
8597
8625
8645
8660
8675
8679
8663
8631
8603
8581
8558
8535
8518
8500
8474
8447
8422
8388
8347
8307
8270
8233
8192
8152
8114
8071
8020
7971
7929
7882
7820
7757
7698
7634
7571
7528
7503
7477
7444
7419
7401
7368
7328
7298
7277
7248
7213
7182
7151
7106
7055
7013
6976
6934
6888
6849
6812
6769
6729
6703
6680
6657
6646
6648
6652
6656
6670
6698
6729
6757
6793
6851
6928
7033
7190
7397
7635
7900
8198
8525
8860
9203
9560
9909
10227
10511
10765
10981
11147
11262
11344
11391
11393
11361
11308
11232
11137
11035
10938
10836
10719
10601
10504
10403
10278
10158
10062
9969
9871
9779
9695
9615
9537
9467
9409
9349
9281
9208
9131
9047
8956
8875
8807
8738
8664
8597
8536
8475
8413
8360
8322
8291
8266
8261
8269
8277
8290
8314
8338
8358
8384
8424
8468
8503
8533
8571
8611
8637
8654
8667
8668
8655
8642
8643
8651
8655
8658
8655
8636
8603
8571
8539
8499
8461
8441
8437
8420
8389
8359
8330
8292
8252
8224
8204
8176
8142
8112
8080
8038
7992
7949
7901
7845
7796
7770
7751
7722
7692
7668
7640
7605
7574
7551
7525
7492
7457
7425
7389
7342
7297
7264
7233
7207
7198
7202
7200
7197
7212
7250
7299
7368
7478
7632
7825
8063
8350
8667
8996
9346
9720
10100
10464
10801
11111
11386
11615
11806
11962
12073
12141
12180
12195
12172
12108
12020
11910
11782
11645
11508
11375
11239
11101
10974
10857
10738
10616
10497
10385
10281
10190
10117
10045
9956
9858
9780
9723
9666
9606
9554
9499
9430
9353
9282
9216
9146
9080
9028
8980
8930
8890
8864
8846
8828
8819
8829
8851
8872
8894
8919
8945
8970
9002
9044
9082
9111
9142
9179
9204
9214
9224
9239
9245
9235
9226
9223
9208
9181
9158
9134
9102
9074
9054
9039
9013
8978
8943
8899
8839
8779
8728
8677
8616
8555
8513
8478
8431
8384
8346
8302
8252
8204
8167
8130
8089
8059
8043
8024
7988
7953
7924
7885
7835
7788
7740
7683
7624
7576
7534
7487
7438
7397
7362
7335
7327
7347
7392
7459
7559
7707
7896
8120
8391
8706
9051
9415
9795
10192
10587
10961
11310
11630
11912
12152
12353
12515
12628
12695
12729
12734
12703
12640
12563
12479
12376
12253
12125
11995
11853
11702
11559
11431
11310
11195
11094
11008
10930
10862
10801
10736
10663
10594
10540
10491
10432
10362
10288
10216
10154
10105
10061
10011
9957
9912
9880
9852
9820
9791
9771
9751
9732
9725
9728
9731
9734
9753
9786
9821
9853
9890
9931
9959
9974
9994
10019
10028
10025
10025
10023
10007
9987
9979
9970
9943
9896
9844
9790
9723
9655
9595
9537
9476
9420
9377
9333
9276
9222
9180
9138
9089
9041
9000
8961
8923
8892
8870
8847
8818
8793
8764
8722
8672
8632
8601
8559
8513
8481
8457
8425
8392
8373
8360
8342
8328
8326
8319
8297
8276
8263
8250
8229
8205
8181
8157
8132
8116
8115
8118
8121
8149
8216
8318
8449
8624
8852
9124
9440
9799
10189
10590
10993
11399
11793
12151
12469
12757
13006
13200
13346
13464
13551
13589
13581
13545
13489
13409
13317
13226
13131
13023
12902
12780
12661
12538
12416
12310
12213
12113
12011
11913
11819
11725
11640
11573
11511
11445
11388
11338
11279
11212
11154
11105
11044
10969
10895
10824
10741
10661
10596
10532
10463
10402
10365
10340
10314
10289
10279
10281
10288
10305
10336
10375
10417
10465
10517
10565
10597
10613
10627
10643
10654
10668
10688
10687
10662
10629
10593
10549
10501
10463
10431
10385
10326
10266
10209
10143
10072
10008
9945
9872
9797
9737
9691
9640
9578
9518
9454
9375
9294
9219
9144
9066
8995
8940
8894
8845
8800
8766
8728
8678
8630
8599
8579
8551
8524
8505
8486
8460
8436
8416
8396
8376
8363
8355
8339
8316
8303
8300
8291
8270
8250
8234
8211
8189
8182
8176
8150
8116
8097
8090
8077
8061
8051
8046
8043
8050
8080
8130
8196
8294
8437
8627
8865
9161
9507
9880
10265
10666
11077
11475
11850
12208
12537
12820
13052
13246
13404
13511
13568
13597
13600
13566
13503
13426
13336
13223
13090
12960
12838
12713
12595
12500
12415
12327
12237
12147
12054
11957
11860
11768
11677
11577
11484
11411
11343
11267
11187
11108
11032
10955
10884
10822
10763
10703
10650
10598
10536
10468
10417
10382
10343
10301
10276
10264
10249
10234
10231
10236
10239
10243
10255
10278
10309
10347
10387
10413
10423
10429
10440
10444
10426
10399
10378
10356
10326
10295
10265
10227
10176
10127
10086
10038
9974
9911
9856
9799
9733
9664
9595
9524
9456
9400
9352
9297
9230
9166
9107
9038
8963
8904
8864
8824
8776
8724
8676
8631
8588
8556
8527
8492
8458
8433
8406
8367
8329
8310
8297
8267
8233
8217
8203
8179
8156
8134
8095
8044
8005
7988
7974
7950
7930
7913
7888
7857
7840
7839
7833
7808
7785
7769
7741
7710
7699
7707
7715
7724
7751
7799
7853
7931
8056
8222
8421
8663
8957
9295
9657
10042
10455
10864
11244
11605
11950
12256
12517
12734
12911
13047
13134
13180
13200
13185
13132
13056
12955
12824
12677
12536
12402
12255
12102
11964
11841
11718
11591
11471
11360
11248
11141
11053
10982
10911
10843
10783
10722
10653
10590
10540
10490
10427
10366
10326
10296
10256
10213
10179
10137
10085
10041
10008
9976
9946
9930
9924
9912
9891
9874
9865
9855
9850
9871
9915
9958
9995
10035
10069
10080
10076
10082
10092
10087
10072
10060
10046
10022
9996
9974
9939
9883
9822
9765
9710
9648
9584
9526
9470
9412
9361
9314
9256
9183
9113
9058
9007
8950
8907
8883
8859
8827
8787
8742
8696
8651
8615
8581
8542
8506
8482
8458
8424
8386
8359
8342
8320
8292
8271
8251
8220
8189
8163
8133
8098
8067
8051
8046
8031
8013
8009
8006
7988
7968
7958
7944
7917
7891
7870
7846
7824
7814
7810
7794
7766
7750
7752
7770
7811
7890
8013
8172
8364
8600
8879
9192
9541
9929
10332
10723
11099
11463
11802
12098
12343
12547
12705
12807
12862
12882
12863
12809
12740
12658
12549
12410
12265
12123
11974
11816
11669
11538
11412
11288
11170
11056
10943
10836
10743
10661
10578
10497
10428
10372
10315
10258
10202
10140
10073
10012
9968
9931
9881
9827
9785
9748
9704
9659
9622
9588
9549
9512
9494
9486
9482
9500
9544
9585
9613
9642
9675
9700
9715
9730
9752
9776
9797
9823
9853
9875
9884
9886
9877
9850
9806
9766
9731
9679
9617
9566
9521
9470
9420
9384
9352
9307
9245
9181
9123
9058
8993
8941
8893
8836
8783
8748
8720
8684
8655
8642
8624
8589
8552
8517
8476
8434
8405
8386
8365
8336
8306
8278
8239
8189
8141
8097
8052
8013
7994
7992
7986
7976
7978
7990
7990
7975
7954
7925
7884
7845
7819
7803
7788
7785
7806
7845
7889
7952
8056
8197
8373
8595
8856
9139
9441
9780
10155
10540
10923
11306
11673
11996
12270
12503
12688
12816
12894
12942
12958
12934
12880
12815
12737
12638
12522
12399
12271
12127
11974
11824
11676
11520
11371
11237
11107
10974
10851
10745
10640
10533
10442
10370
10307
10254
10208
10166
10120
10061
10002
9947
9891
9835
9788
9747
9705
9665
9636
9620
9602
9577
9556
9544
9537
9543
9568
9602
9633
9663
9704
9754
9791
9818
9850
9879
9894
9902
9909
9907
9890
9870
9863
9862
9850
9833
9814
9781
9738
9694
9652
9599
9536
9481
9437
9388
9330
9272
9214
9151
9085
9025
8966
8900
8830
8773
8728
8681
8636
8598
8560
8516
8474
8443
8419
8387
8355
8337
8319
8285
8246
8218
8193
8165
8144
8134
8125
8108
8091
8087
8079
8064
8056
8059
8055
8032
8001
7973
7943
7916
7905
7909
7919
7934
7973
8046
8148
8289
8487
8733
9011
9320
9665
10038
10416
10788
11158
11511
11828
12109
12361
12576
12746
12874
12967
13020
13025
12996
12948
12879
12784
12661
12516
12363
12206
12061
11931
11799
11661
11533
11417
11298
11180
11082
11000
10916
10832
10762
10696
10621
10544
10484
10445
10413
10380
10352
10320
10273
10213
10155
10099
10035
9967
9909
9860
9816
9783
9767
9763
9757
9752
9760
9781
9811
9850
9899
9946
9981
10013
10049
10081
10105
10125
10135
10126
10107
10095
10081
10052
10012
9978
9952
9921
9882
9841
9795
9737
9681
9640
9601
9547
9486
9430
9375
9315
9259
9208
9153
9090
9032
8992
8957
8916
8876
8841
8798
8747
8704
8677
8648
8605
8555
8511
8469
8434
8418
8411
8399
8377
8352
8331
8300
8260
8225
8200
8175
8153
8144
8141
8130
8110
8096
8084
8065
8048
8047
8051
8052
8060
8094
8159
8250
8380
8569
8809
9086
9400
9752
10132
10524
10925
11326
11700
12040
12357
12641
12877
13070
13228
13343
13405
13416
13387
13321
13214
13084
12955
12829
12701
12576
12459
12343
12213
12079
11955
11833
11706
11595
11508
11427
11345
11267
11199
11137
11073
11013
10957
10898
10829
10762
10709
10654
10584
10513
10443
10366
10294
10240
10203
10165
10125
10097
10076
10056
10036
10024
10016
10007
10010
10039
10080
10118
10152
10187
10217
10241
10268
10301
10333
10354
10372
10391
10402
10399
10388
10367
10329
10279
10230
10193
10159
10122
10078
10030
9978
9927
9878
9834
9790
9745
9704
9657
9598
9532
9471
9413
9348
9289
9252
9222
9181
9133
9099
9077
9049
9014
8979
8943
8902
8869
8848
8829
8798
8764
8742
8719
8680
8639
8609
8581
8547
8526
8522
8514
8492
8466
8444
8417
8381
8355
8341
8322
8300
8289
8290
8285
8277
8294
8340
8398
8481
8613
8791
9004
9261
9573
9928
10307
10701
11106
11500
11868
12214
12539
12833
13084
13290
13457
13581
13657
13697
13706
13678
13616
13535
13446
13341
13220
13096
12970
12832
12687
12553
12431
12304
12167
12037
11917
11801
11699
11621
11548
11471
11405
11355
11307
11248
11188
11139
11088
11028
10974
10931
10887
10830
10765
10705
10646
10583
10531
10493
10461
10435
10421
10417
10412
10396
10385
10393
10413
10445
10495
10551
10587
10603
10624
10652
10671
10678
10692
10709
10705
10687
10669
10645
10598
10541
10494
10453
10405
10354
10310
10261
10196
10133
10087
10045
9992
9938
9895
9855
9807
9760
9714
9654
9578
9506
9450
9393
9328
9272
9234
9200
9163
9130
9103
9067
9023
8990
8971
8949
8922
8902
8882
8841
8791
8758
8739
8713
8678
8643
8608
8572
8542
8524
8504
8469
8429
8403
8388
8372
8359
8358
8356
8345
8336
8334
8329
8314
8308
8315
8305
8274
8251
8245
8238
8232
8246
8290
8355
8445
8580
8753
8951
9189
9490
9847
10234
10645
11084
11528
11954
12354
12719
13030
13279
13471
13620
13728
13789
13813
13814
13786
13723
13637
13540
13425
13286
13141
13007
12868
12712
12559
12419
12289
12172
12067
11975
11886
11801
11735
11688
11642
11592
11542
11484
11409
11326
11247
11169
11087
11002
10924
10851
10778
10716
10670
10633
10592
10555
10536
10529
10519
10512
10516
10523
10524
10526
10537
10550
10557
10564
10574
10581
10584
10592
10606
10611
10605
10598
10594
10575
10539
10509
10485
10453
10417
10390
10368
10335
10289
10251
10218
10174
10125
10082
10037
9978
9908
9840
9774
9694
9612
9548
9495
9435
9382
9345
9308
9259
9216
9190
9163
9123
9082
9049
9013
8976
8948
8924
8892
8852
8817
8794
8768
8734
8701
8667
8630
8596
8578
8571
8559
8539
8527
8522
8508
8489
8475
8462
8441
8423
8410
8400
8381
8361
8352
8346
8334
8322
8316
8308
8289
8272
8275
8288
8296
8308
8340
8392
8479
8621
8822
9066
9344
9666
10037
10435
10843
11266
11692
12098
12475
12827
13147
13407
13595
13732
13830
13884
13898
13887
13853
13790
13706
13612
13505
13374
13230
13086
12939
12785
12635
12498
12364
12228
12104
12003
11913
11828
11759
11703
11642
11575
11515
11464
11405
11328
11248
11174
11094
11014
10943
10872
10796
10725
10676
10644
10613
10589
10586
10592
10588
10584
10599
10623
10635
10642
10662
10685
10701
10719
10740
10750
10744
10745
10766
10785
10785
10783
10788
10786
10769
10746
10725
10701
10671
10642
10611
10566
10514
10468
10424
10372
10317
10275
10235
10182
10120
10063
10002
9929
9856
9798
9750
9697
9640
9593
9550
9499
9450
9415
9376
9321
9267
9230
9197
9152
9109
9079
9045
8995
8948
8916
8887
8850
8819
8802
8783
8758
8743
8732
8705
8669
8647
8641
8630
8611
8600
8597
8587
8570
8556
8536
8503
8467
8446
8432
8409
8383
8371
8372
8375
8385
8410
8435
8452
8482
8550
8656
8791
8973
9223
9526
9865
10241
10648
11061
11476
11898
12315
12700
13035
13332
13589
13790
13935
14032
14085
14093
14060
14005
13938
13845
13727
13603
13477
13336
13187
13043
12896
12737
12577
12434
12301
12165
12041
11944
11854
11758
11671
11605
11545
11474
11403
11346
11280
11195
11114
11049
10992
10939
10895
10856
10818
10776
10740
10709
10673
10642
10631
10636
10635
10629
10635
10652
10663
10671
10686
10701
10711
10725
10753
10776
10778
10777
10784
10797
10806
10818
10835
10842
10828
10808
10789
10762
10719
10673
10639
10605
10565
10530
10498
10453
10399
10341
10282
10216
10149
10087
10023
9955
9884
9815
9752
9685
9618
9568
9533
9499
9465
9433
9395
9342
9284
9244
9220
9193
9167
9149
9128
9092
9056
9031
9008
8979
8956
8942
8924
8897
8868
8844
8814
8774
8739
8712
8679
8643
8622
8612
8596
8574
8553
8533
8509
8486
8476
8475
8466
8449
8441
8440
8439
8454
8499
8565
8647
8758
8927
9153
9422
9739
10117
10537
10966
11399
11832
12234
12581
12888
13174
13420
13612
13764
13888
13968
13993
13985
13953
13883
13777
13658
13541
13414
13280
13154
13027
12878
12718
12571
12430
12283
12135
12010
11907
11810
11718
11645
11580
11510
11446
11396
11345
11280
11210
11151
11097
11036
10975
10925
10871
10803
10740
10687
10633
10580
10537
10504
10472
10441
10426
10432
10442
10452
10470
10499
10532
10575
10637
10706
10754
10785
10818
10848
10861
10861
10861
10854
10827
10790
10756
10723
10679
10628
10586
10543
10487
10429
10374
10312
10240
10183
10152
10122
10077
10028
9987
9938
9868
9798
9743
9693
9640
9594
9561
9533
9502
9471
9442
9405
9361
9324
9291
9246
9193
9152
9119
9080
9038
9011
8992
8961
8929
8908
8886
8850
8815
8796
8782
8754
8725
8708
8694
8669
8648
8641
8629
8602
8579
8569
8558
8537
8518
8514
8512
8506
8503
8503
8496
8484
8475
8464
8442
8415
8410
8432
8460
8491
8552
8652
8791
8977
9219
9510
9838
10195
10588
11011
11438
11860
12272
12661
13009
13314
13576
13783
13931
14035
14111
14149
14140
14094
14023
13920
13789
13646
13499
13343
13182
13023
12873
12722
12570
12430
12308
12196
12092
12003
11924
11841
11756
11674
11596
11514
11439
11382
11335
11281
11222
11166
11109
11046
10992
10946
10901
10853
10812
10784
10754
10714
10681
10665
10664
10670
10686
10707
10725
10740
10763
10796
10823
10841
10867
10904
10941
10972
11002
11023
11027
11026
11029
11019
10991
10957
10922
10888
10843
10789
10745
10702
10646
10593
10553
10514
10467
10421
10382
10338
10278
10214
10159
10109
10057
10007
9962
9913
9856
9800
9750
9693
9630
9577
9540
9503
9463
9434
9413
9384
9349
9322
9300
9266
9228
9206
9195
9178
9156
9139
9117
9081
9046
9024
9013
9001
8979
8954
8927
8891
8857
8833
8804
8769
8744
8737
8730
8711
8694
8689
8678
8652
8622
8590
8553
8523
8516
8534
8565
8607
8672
8768
8892
9054
9273
9550
9864
10214
10607
11029
11452
11866
12273
12662
13012
13316
13578
13796
13963
14084
14161
14192
14181
14144
14100
14042
13956
13849
13732
13599
13453
13303
13151
12989
12821
12667
12532
12401
12274
12165
12070
11976
11889
11811
11733
11647
11561
11485
11412
11334
11255
11191
11138
11089
11048
11019
10989
10946
10892
10843
10803
10767
10741
10732
10730
10731
10744
10773
10806
10830
10854
10889
10929
10964
10999
11034
11062
11083
11106
11133
11150
11157
11164
11161
11130
11087
11052
11020
10969
10906
10850
10797
10736
10678
10627
10574
10515
10456
10408
10363
10311
10259
10208
10153
10091
10032
9986
9943
9890
9834
9787
9744
9699
9657
9622
9585
9538
9493
9457
9420
9379
9349
9328
9299
9267
9250
9246
9232
9208
9192
9188
9175
9155
9147
9145
9130
9110
9105
9109
9109
9108
9111
9110
9097
9081
9074
9069
9047
9021
9009
9001
8987
8990
9020
9065
9120
9212
9362
9554
9782
10058
10384
10742
11125
11535
11957
12360
12733
13081
13399
13675
13906
14099
14244
14333
14378
14396
14382
14326
14233
14119
13984
13827
13668
13518
13368
13215
13069
12941
12820
12692
12571
12469
12368
12265
12180
12114
12048
11977
11910
11853
11797
11737
11675
11615
11551
11485
11425
11367
11295
11223
11174
11143
11114
11090
11079
11073
11058
11046
11055
11077
11095
11110
11135
11158
11169
11187
11221
11255
11284
11318
11365
11408
11428
11440
11458
11468
11460
11447
11437
11424
11403
11378
11341
11288
11226
11166
11110
11045
10972
10909
10851
10786
10723
10673
10628
10573
10509
10455
10408
10354
10300
10255
10213
10165
10116
10079
10049
10015
9984
9961
9935
9896
9855
9821
9783
9733
9680
9645
9620
9589
9559
9537
9507
9466
9431
9404
9374
9346
9331
9327
9317
9301
9290
9277
9247
9212
9196
9198
9202
9207
9226
9261
9307
9376
9486
9628
9801
10019
10288
10603
10950
11325
11726
12138
12543
12933
13291
13604
13870
14105
14313
14474
14577
14642
14680
14671
14613
14533
14442
14330
14200
14062
13918
13764
13612
13475
13348
13220
13092
12978
12875
12775
12683
12606
12539
12468
12393
12329
12281
12234
12182
12126
12060
11980
11898
11823
11750
11677
11611
11563
11524
11483
11443
11409
11375
11349
11341
11346
11351
11354
11375
11418
11465
11507
11551
11594
11626
11654
11684
11713
11731
11748
11771
11793
11801
11786
11759
11728
11684
11630
11586
11550
11507
11459
11414
11367
11314
11268
11229
11179
11110
11040
10982
10927
10866
10809
10754
10693
10631
10579
10534
10489
10440
10396
10358
10310
10250
10202
10163
10118
10072
10042
10018
9985
9949
9918
9883
9840
9799
9776
9764
9739
9710
9692
9673
9645
9621
9610
9598
9570
9536
9515
9499
9471
9438
9416
9394
9363
9336
9321
9309
9299
9297
9312
9343
9394
9481
9605
9765
9970
10228
10532
10870
11249
11672
12122
12563
12980
13382
13758
14083
14358
14596
14793
14935
15033
15104
15137
15117
15065
14992
14887
14752
14605
14463
14315
14157
14009
13887
13773
13660
13559
13467
13367
13259
13158
13068
12978
12886
12813
12762
12708
12643
12575
12511
12441
12369
12309
12255
12187
12109
12037
11971
11899
11826
11769
11723
11673
11629
11613
11616
11614
11618
11638
11657
11669
11685
11710
11737
11755
11774
11804
11835
11859
11884
11908
11923
11926
11926
11921
11906
11882
11855
11826
11785
11738
11696
11649
11587
11521
11466
11416
11355
11286
11219
11151
11077
11009
10951
10889
10814
10736
10669
10607
10538
10469
10416
10368
10310
10250
10199
10153
10108
10077
10059
10037
10005
9975
9953
9928
9899
9879
9866
9840
9801
9770
9748
9721
9689
9663
9641
9617
9593
9579
9569
9549
9522
9510
9504
9484
9456
9429
9395
9356
9330
9324
9321
9303
9281
9275
9280
9278
9281
9303
9335
9376
9449
9569
9734
9944
10212
10547
10926
11338
11787
12254
12705
13129
13536
13912
14239
14518
14766
14980
15139
15242
15303
15319
15291
15240
15183
15112
15019
14908
14798
14680
14539
14389
14246
14101
13950
13813
13703
13606
13508
13417
13345
13274
13195
13126
13070
13007
12933
12864
12807
12743
12670
12604
12543
12476
12408
12353
12310
12262
12212
12170
12136
12101
12071
12052
12036
12011
11986
11981
11988
11993
12006
12042
12083
12114
12149
12195
12238
12263
12280
12298
12298
12273
12242
12217
12186
12145
12107
12073
12033
11984
11933
11877
11803
11718
11645
11580
11510
11438
11381
11328
11262
11185
11119
11065
11002
10929
10861
10795
10722
10653
10596
10543
10480
10412
10358
10313
10259
10203
10161
10121
10076
10047
10036
10019
9990
9963
9943
9922
9898
9876
9859
9837
9811
9792
9780
9760
9734
9715
9705
9687
9664
9652
9648
9627
9594
9566
9541
9506
9465
9431
9404
9371
9337
9314
9296
9272
9251
9242
9231
9207
9187
9191
9216
9255
9317
9414
9539
9691
9897
10168
10488
10848
11261
11723
12205
12683
13149
13591
13984
14330
14639
14903
15107
15255
15362
15429
15449
15429
15386
15316
15210
15087
14966
14838
14692
14538
14392
14251
14106
13963
13828
13699
13571
13452
13353
13266
13181
13114
13068
13024
12970
12923
12885
12843
12791
12739
12687
12619
12531
12443
12364
12283
12201
12133
12074
12013
11961
11930
11909
11885
11863
11859
11868
11872
11877
11901
11935
11965
11998
12033
12065
12085
12101
12123
12142
12145
12142
12142
12134
12110
12090
12079
12057
12016
11968
11920
11864
11797
11733
11675
11607
11527
11446
11365
11282
11207
11148
11090
11019
10943
10883
10832
10770
10704
10651
10602
10545
10495
10464
10432
10386
10334
10293
10255
10207
10156
10118
10081
10035
9995
9966
9933
9892
9854
9827
9801
9771
9748
9735
9718
9692
9668
9645
9612
9578
9560
9550
9525
9492
9476
9473
9465
9448
9431
9412
9383
9356
9346
9342
9324
9307
9303
9303
9294
9284
9289
9309
9348
9423
9551
9728
9946
10216
10542
10910
11305
11728
12170
12601
13007
13399
13773
14108
14396
14645
14850
15002
15100
15160
15190
15180
15132
15064
14978
14863
14731
14600
14463
14315
14162
14020
13884
13746
13616
13513
13428
13345
13269
13203
13132
13047
12970
12914
12858
12789
12728
12682
12627
12561
12500
12441
12375
12304
12238
12177
12112
12045
11988
11943
11896
11854
11825
11805
11788
11784
11801
11829
11849
11865
11883
11900
11913
11936
11969
11997
12012
12022
12039
12051
12039
12017
12008
12001
11979
11951
11929
11899
11856
11806
11754
11692
11621
11559
11506
11441
11367
11301
11242
11173
11094
11022
10962
10901
10836
10774
10708
10632
10557
10504
10469
10430
10387
10358
10334
10300
10268
10243
10220
10186
10151
10129
10108
10079
10053
10038
10025
10005
9987
9978
9963
9932
9899
9870
9836
9790
9747
9711
9680
9654
9640
9631
9610
9581
9556
9533
9503
9472
9458
9465
9487
9528
9607
9724
9866
10044
10281
10574
10907
11279
11684
12110
12538
12961
13379
13768
14098
14370
14600
14777
14898
14979
15030
15039
14999
14926
14835
14723
14592
14457
14319
14171
14011
13856
13714
13570
13418
13279
13154
13030
12915
12819
12740
12659
12576
12505
12437
12361
12294
12246
12197
12132
12062
12002
11949
11883
11814
11758
11704
11646
11600
11573
11542
11498
11460
11439
11421
11402
11398
11414
11435
11458
11488
11526
11563
11593
11624
11655
11672
11681
11700
11721
11730
11730
11730
11727
11712
11695
11684
11669
11642
11610
11575
11525
11460
11392
11338
11291
11230
11159
11095
11030
10955
10888
10836
10785
10722
10658
10603
10546
10482
10426
10378
10323
10264
10217
10180
10135
10083
10044
10023
9998
9971
9956
9942
9915
9886
9864
9840
9807
9775
9762
9756
9739
9715
9696
9676
9650
9624
9602
9575
9540
9510
9496
9492
9478
9459
9455
9449
9434
9431
9455
9501
9576
9701
9880
10104
10370
10689
11058
11454
11865
12290
12718
13123
13499
13853
14175
14445
14664
14843
14973
15044
15069
15077
15061
15004
14920
14820
14696
14544
14377
14214
14055
13889
13722
13572
13439
13321
13218
13130
13041
12950
12874
12815
12757
12694
12640
12594
12540
12477
12418
12355
12277
12194
12128
12071
12003
11929
11864
11804
11740
11681
11641
11618
11600
11593
11606
11625
11642
11670
11708
11747
11777
11811
11860
11904
11932
11955
11976
11984
11983
11986
11991
11988
11972
11951
11927
11894
11856
11824
11792
11747
11694
11648
11604
11552
11496
11449
11403
11342
11277
11222
11165
11091
11011
10944
10887
10827
10765
10717
10674
10624
10576
10536
10495
10442
10386
10342
10297
10243
10193
10152
10114
10078
10056
10046
10031
10001
9967
9938
9902
9860
9828
9803
9768
9726
9692
9663
9629
9590
9560
9540
9521
9505
9501
9500
9486
9464
9459
9476
9509
9574
9685
9838
10026
10264
10563
10911
11292
11706
12148
12588
13007
13408
13788
14123
14403
14647
14855
15010
15108
15167
15193
15173
15111
15038
14960
14855
14726
14591
14450
14294
14133
13981
13834
13679
13523
13384
13261
13143
13035
12944
12860
12775
12700
12647
12601
12544
12483
12431
12374
12305
12242
12188
12128
12062
12001
11949
11897
11837
11779
11734
11694
11657
11634
11622
11607
11593
11596
11614
11631
11645
11675
11717
11749
11768
11785
11799
11810
11824
11842
11856
11855
11845
11837
11823
11799
11774
11751
11719
11673
11629
11593
11553
11502
11445
11388
11330
11270
11215
11165
11108
11043
10986
10934
10874
10808
10756
10717
10665
10606
10560
10519
10468
10417
10377
10337
10281
10218
10168
10130
10085
10041
10010
9988
9967
9950
9939
9924
9893
9864
9848
9830
9801
9774
9753
9726
9691
9658
9633
9608
9581
9561
9548
9524
9486
9454
9437
9415
9385
9358
9343
9332
9331
9362
9434
9534
9665
9845
10075
10339
10639
10998
11409
11843
12288
12743
13186
13590
13953
14281
14557
14762
14913
15039
15132
15176
15178
15152
15089
14987
14863
14739
14608
14463
14328
14210
14085
13944
13806
13675
13543
13417
13310
13224
13137
13050
12982
12927
12864
12801
12750
12698
12634
12559
12492
12432
12365
12294
12232
12170
12103
12043
12003
11966
11914
11862
11828
11802
11774
11760
11769
11783
11786
11794
11816
11842
11867
11899
11939
11975
12004
12037
12070
12083
12084
12091
12101
12091
12062
12039
12022
11986
11931
11874
11817
11752
11688
11640
11597
11540
11475
11424
11381
11329
11277
11229
11179
11125
11080
11045
11007
10955
10900
10852
10796
10729
10666
10610
10547
10478
10422
10382
10341
10299
10265
10236
10198
10157
10135
10128
10109
10081
10060
10040
10009
9972
9940
9911
9872
9832
9802
9778
9746
9707
9678
9652
9617
9582
9563
9554
9543
9540
9551
9552
9529
9504
9491
9472
9441
9406
9374
9345
9320
9308
9315
9330
9356
9409
9499
9624
9798
10030
10312
10633
10988
11384
11810
12237
12660
13085
13493
13852
14162
14435
14666
14844
14973
15068
15129
15145
15122
15079
15011
14906
14784
14669
14552
14424
14298
14178
14047
13900
13757
13626
13497
13377
13283
13210
13138
13069
13022
12990
12947
12895
12852
12810
12754
12695
12647
12605
12551
12487
12427
12360
12276
12196
12130
12070
12009
11955
11928
11923
11917
11911
11920
11930
11935
11948
11982
12019
12039
12059
12092
12123
12149
12173
12186
12180
12152
12121
12093
12057
12015
11986
11960
11919
11867
11821
11781
11727
11664
11610
11559
11502
11445
11394
11346
11287
11218
11154
11092
11029
10967
10912
10856
10794
10741
10712
10685
10643
10593
10544
10489
10432
10383
10346
10307
10259
10215
10180
10138
10088
10044
10008
9971
9943
9936
9938
9932
9919
9911
9902
9882
9856
9839
9829
9809
9782
9763
9739
9701
9666
9648
9634
9611
9588
9583
9586
9576
9557
9542
9517
9474
9437
9422
9412
9388
9367
9362
9361
9358
9374
9416
9482
9579
9723
9917
10146
10409
10720
11072
11436
11809
12206
12619
13018
13391
13739
14052
14317
14533
14709
14830
14888
14905
14897
14859
14788
14700
14609
14503
14372
14235
14102
13966
13830
13706
13596
13487
13381
13292
13214
13131
13049
12985
12934
12876
12810
12754
12705
12642
12569
12500
12425
12341
12263
12206
12162
12109
12054
12008
11961
11910
11867
11836
11806
11767
11729
11709
11701
11696
11705
11731
11755
11758
11757
11772
11793
11812
11842
11881
11914
11932
11948
11962
11958
11937
11916
11888
11849
11810
11778
11751
11716
11672
11634
11597
11548
11489
11433
11376
11305
11233
11174
11119
11059
11006
10968
10930
10876
10810
10743
10673
10600
10538
10493
10448
10396
10349
10310
10272
10236
10209
10192
10173
10146
10124
10107
10084
10052
10021
9992
9954
9915
9890
9871
9843
9808
9779
9759
9739
9724
9721
9721
9711
9695
9687
9674
9648
9623
9609
9594
9567
9541
9528
9522
9509
9492
9476
9459
9446
9455
9487
9535
9595
9676
9792
9941
10123
10356
10644
10961
11295
11659
12040
12411
12767
13118
13450
13745
14003
14227
14404
14520
14592
14641
14652
14619
14560
14489
14397
14276
14140
14006
13859
13688
13514
13354
13209
13073
12959
12873
12797
12722
12659
12607
12552
12491
12432
12378
12318
12250
12184
12124
12061
11993
11930
11869
11804
11741
11688
11642
11593
11548
11519
11496
11469
11446
11440
11446
11460
11482
11520
11559
11581
11592
11612
11640
11663
11685
11714
11733
11727
11710
11692
11668
11637
11613
11602
11588
11565
11542
11523
11498
11459
11414
11363
11298
11231
11183
11146
11105
11066
11038
11009
10959
10893
10825
10755
10675
10592
10520
10457
10394
10338
10300
10269
10229
10188
10162
10136
10098
10062
10037
10018
10004
9996
9991
9982
9963
9940
9916
9885
9846
9811
9779
9743
9710
9691
9682
9664
9638
9628
9629
9616
9587
9558
9529
9492
9459
9445
9441
9429
9411
9401
9394
9378
9366
9370
9386
9406
9445
9526
9637
9764
9926
10137
10380
10649
10955
11295
11646
11994
12349
12707
13044
13350
13631
13880
14073
14210
14309
14370
14381
14349
14290
14216
14115
13990
13859
13716
13552
13385
13240
13107
12965
12830
12713
12596
12471
12355
12260
12177
12095
12021
11964
11908
11846
11787
11732
11667
11596
11534
11488
11449
11409
11369
11330
11283
11232
11192
11163
11135
11110
11105
11112
11115
11121
11137
11158
11174
11194
11227
11268
11301
11328
11361
11393
11418
11441
11463
11474
11471
11464
11459
11445
11411
11375
11353
11331
11304
11278
11253
11221
11180
11140
11104
11058
11000
10953
10919
10881
10836
10793
10752
10706
10659
10615
10570
10512
10451
10404
10359
10305
10254
10215
10183
10148
10108
10072
10039
10001
9962
9927
9890
9852
9823
9804
9783
9752
9723
9713
9710
9692
9672
9659
9646
9628
9618
9614
9602
9580
9567
9564
9551
9529
9524
9530
9530
9535
9566
9621
9686
9760
9863
10009
10193
10416
10684
10981
11289
11617
11969
12319
12643
12955
13263
13540
13755
13921
14054
14147
14198
14219
14224
14206
14159
14090
14006
13901
13780
13654
13522
13377
13227
13092
12959
12811
12666
12548
12447
12341
12241
12168
12113
12055
11993
11936
11877
11810
11742
11689
11644
11591
11535
11488
11443
11392
11348
11318
11291
11259
11233
11221
11216
11214
11224
11244
11255
11257
11266
11293
11325
11356
11388
11420
11447
11472
11501
11525
11532
11523
11516
11509
11486
11445
11402
11362
11319
11283
11260
11233
11194
11156
11128
11097
11054
11007
10961
10911
10858
10811
10769
10721
10661
10602
10551
10498
10438
10386
10345
10301
10250
10208
10181
10150
10111
10074
10040
10001
9958
9923
9898
9868
9831
9801
9776
9744
9708
9681
9665
9646
9626
9623
9632
9634
9630
9631
9625
9603
9582
9571
9563
9557
9570
9613
9675
9752
9866
10031
10238
10480
10763
11077
11403
11732
12075
12425
12756
13057
13337
13594
13807
13973
14098
14181
14213
14203
14173
14123
14038
13925
13808
13693
13573
13453
13338
13219
13083
12939
12800
12664
12526
12408
12319
12240
12168
12114
12081
12050
12007
11961
11918
11869
11815
11757
11697
11630
11559
11497
11443
11388
11333
11292
11261
11226
11196
11184
11178
11170
11168
11182
11203
11220
11246
11290
11342
11388
11423
11458
11489
11499
11496
11490
11467
11429
11394
11372
11352
11328
11306
11290
11270
11240
11208
11177
11134
11077
11023
10976
10925
10866
10815
10775
10733
10684
10643
10607
10563
10520
10494
10478
10450
10410
10373
10335
10288
10245
10213
10181
10135
10085
10048
10012
9969
9932
9913
9898
9875
9853
9849
9848
9835
9819
9806
9789
9768
9759
9760
9753
9732
9716
9719
9729
9742
9773
9828
9899
9991
10113
10268
10445
10656
10919
11223
11540
11871
12229
12591
12932
13253
13559
13833
14056
14235
14381
14487
14546
14571
14568
14524
14443
14341
14229
14104
13968
13831
13698
13560
13418
13286
13169
13055
12936
12826
12733
12642
12549
12471
12402
12330
12261
12210
12170
12124
12073
12030
11994
11944
11881
11827
11778
11721
11662
11612
11565
11514
11466
11438
11424
11406
11395
11403
11406
11396
11397
11417
11439
11458
11485
11524
11555
11568
11582
11601
11609
11607
11607
11605
11589
11563
11544
11529
11505
11475
11445
11411
11369
11324
11281
11242
11198
11147
11102
11064
11015
10964
10923
10880
10829
10786
10758
10732
10698
10658
10625
10585
10526
10464
10417
10371
10319
10275
10240
10199
10150
10105
10070
10032
9991
9949
9914
9887
9869
9861
9851
9826
9796
9779
9769
9746
9712
9688
9675
9658
9642
9641
9645
9643
9643
9659
9687
9708
9734
9784
9853
9936
10055
10222
10433
10683
10970
11293
11645
12011
12379
12745
13091
13406
13693
13948
14156
14313
14433
14524
14571
14578
14567
14538
14476
14382
14276
14159
14022
13878
13750
13635
13514
13392
13286
13193
13097
13009
12937
12865
12785
12710
12649
12589
12525
12462
12409
12355
12296
12245
12194
12131
12054
11979
11914
11852
11788
11732
11690
11654
11618
11584
11550
11511
11481
11478
11497
11519
11545
11584
11627
11658
11686
11722
11748
11751
11739
11734
11736
11734
11732
11740
11745
11737
11727
11715
11688
11643
11596
11555
11509
11449
11389
11338
11286
11227
11173
11125
11075
11025
10984
10952
10912
10864
10827
10801
10761
10706
10658
10612
10556
10498
10453
10416
10368
10318
10290
10277
10260
10244
10239
10233
10214
10194
10184
10173
10151
10134
10131
10123
10099
10076
10063
10046
10012
9980
9959
9940
9918
9905
9902
9896
9883
9871
9853
9823
9793
9776
9765
9748
9729
9729
9754
9792
9843
9914
9997
10085
10197
10359
10570
10816
11098
11422
11777
12142
12515
12897
13267
13606
13912
14193
14429
14602
14732
14832
14890
14903
14888
14849
14778
14674
14553
14425
14284
14132
13989
13857
13719
13585
13473
13379
13285
13198
13137
13096
13056
13011
12974
12938
12886
12826
12771
12715
12650
12582
12521
12460
12382
12300
12236
12174
12100
12040
12003
11967
11923
11891
11879
11866
11846
11838
11850
11866
11875
11890
11907
11921
11936
11963
11996
12015
12016
12021
12027
12014
11990
11980
11978
11959
11931
11909
11889
11859
11823
11789
11750
11700
11650
11609
11576
11538
11501
11476
11447
11397
11338
11286
11234
11179
11134
11093
11043
10983
10927
10884
10840
10789
10744
10704
10655
10598
10550
10508
10463
10423
10406
10405
10399
10383
10372
10370
10365
10355
10344
10325
10294
10256
10224
10200
10177
10158
10148
10136
10109
10079
10059
10038
10007
9984
9980
9975
9961
9954
9957
9953
9934
9916
9905
9890
9873
9870
9883
9898
9916
9957
10026
10112
10221
10369
10560
10783
11041
11344
11679
12015
12354
12708
13062
13397
13713
14010
14268
14475
14637
14763
14851
14887
14887
14871
14833
14764
14681
14587
14471
14333
14200
14083
13968
13849
13736
13632
13526
13425
13347
13290
13234
13176
13129
13086
13029
12969
12922
12873
12806
12738
12689
12648
12600
12541
12484
12424
12358
12302
12260
12219
12178
12147
12132
12120
12102
12089
12092
12101
12108
12121
12140
12159
12173
12192
12222
12251
12276
12307
12342
12361
12366
12372
12372
12349
12305
12262
12223
12175
12123
12085
12056
12023
11984
11951
11916
11864
11799
11740
11679
11606
11536
11481
11425
11361
11303
11266
11235
11191
11147
11115
11080
11042
11013
10991
10954
10898
10842
10793
10740
10684
10643
10616
10584
10552
10532
10518
10492
10462
10444
10435
10417
10386
10359
10338
10313
10287
10269
10253
10233
10213
10202
10197
10182
10161
10145
10128
10106
10087
10079
10069
10049
10032
10028
10025
10019
10022
10038
10053
10068
10105
10162
10227
10303
10409
10551
10729
10950
11226
11538
11863
12199
12553
12910
13251
13578
13893
14179
14412
14589
14730
14839
14905
14934
14939
14912
14848
14767
14684
14591
14472
14343
14224
14105
13973
13842
13725
13617
13515
13430
13364
13301
13237
13183
13141
13097
13047
12999
12948
12884
12813
12749
12690
12629
12567
12512
12466
12419
12378
12356
12336
12305
12276
12260
12248
12224
12197
12187
12186
12180
12178
12196
12221
12244
12275
12318
12357
12384
12414
12449
12470
12473
12472
12465
12444
12413
12385
12368
12348
12325
12306
12279
12226
12160
12097
12034
11960
11884
11821
11764
11699
11633
11579
11537
11493
11452
11417
11374
11322
11271
11230
11192
11145
11102
11072
11040
10985
10924
10872
10821
10769
10729
10705
10680
10655
10642
10637
10627
10612
10601
10595
10579
10554
10536
10521
10497
10467
10446
10429
10408
10390
10376
10357
10323
10288
10266
10248
10224
10203
10196
10195
10197
10219
10266
10323
10384
10466
10591
10756
10950
11185
11468
11782
12113
12458
12812
13162
13500
13828
14135
14397
14611
14793
14944
15043
15097
15123
15121
15080
15010
14930
14841
14733
14617
14509
14398
14274
14151
14036
13919
13797
13696
13627
13573
13514
13449
13386
13320
13245
13169
13098
13024
12942
12865
12800
12737
12671
12613
12567
12515
12455
12407
12374
12341
12304
12276
12258
12237
12221
12226
12245
12260
12272
12292
12317
12338
12362
12397
12435
12464
12485
12510
12537
12552
12560
12572
12580
12569
12550
12530
12495
12441
12387
12350
12316
12267
12218
12177
12125
12060
12001
11952
11895
11831
11776
11728
11675
11619
11571
11529
11479
11420
11362
11305
11241
11179
11135
11103
11063
11021
10991
10966
10937
10915
10905
10888
10856
10825
10806
10788
10760
10736
10724
10709
10685
10665
10650
10630
10601
10576
10562
10546
10529
10520
10516
10504
10489
10489
10500
10511
10531
10580
10656
10742
10854
11013
11214
11448
11729
12061
12423
12793
13168
13549
13923
14264
14565
14839
15074
15257
15399
15513
15591
15627
15631
15610
15553
15453
15334
15215
15086
14947
14814
14693
14571
14449
14341
14238
14136
14044
13969
13904
13834
13759
13701
13656
13602
13540
13480
13419
13349
13272
13204
13140
13063
12980
12910
12850
12790
12736
12693
12652
12609
12572
12545
12515
12480
12455
12452
12464
12477
12502
12547
12593
12631
12681
12739
12783
12813
12850
12887
12901
12893
12880
12866
12841
12807
12775
12741
12699
12661
12632
12597
12544
12485
12432
12377
12306
12231
12167
12106
12040
11976
11922
11870
11813
11764
11727
11687
11633
11578
11535
11496
11452
11413
11378
11334
11277
11227
11190
11149
11101
11059
11026
10996
10969
10950
10934
10911
10883
10863
10845
10816
10781
10756
10733
10698
10665
10642
10615
10582
10553
10539
10535
10526
10524
10547
10592
10656
10750
10890
11073
11292
11558
11877
12230
12604
13006
13427
13835
14220
14589
14925
15207
15440
15639
15803
15918
15983
16020
16024
15983
15914
15829
15721
15589
15447
15315
15189
15056
14923
14809
14707
14608
14519
14436
14357
14281
14207
14139
14072
13994
13922
13867
13817
13756
13691
13630
13562
13480
13401
13332
13257
13177
13107
13041
12969
12903
12864
12846
12826
12802
12795
12807
12821
12838
12867
12896
12912
12929
12961
12991
13004
13011
13031
13051
13057
13058
13067
13067
13050
13026
13004
12980
12952
12928
12912
12886
12835
12777
12722
12657
12581
12515
12461
12401
12340
12288
12242
12190
12133
12083
12036
11978
11911
11852
11801
11749
11697
11651
11610
11565
11519
11484
11449
11399
11345
11296
11245
11188
11136
11100
11067
11026
10988
10964
10946
10924
10900
10878
10851
10820
10796
10782
10763
10734
10713
10703
10684
10657
10643
10642
10636
10626
10630
10648
10667
10690
10738
10821
10929
11077
11277
11520
11791
12102
12463
12854
13252
13653
14062
14466
14836
15167
15468
15717
15904
16045
16151
16218
16244
16240
16216
16161
16068
15962
15858
15744
15618
15497
15388
15278
15166
15063
14967
14864
14756
14665
14590
14515
14443
14390
14347
14296
14239
14188
14141
14080
14001
13913
13822
13723
13626
13538
13451
13362
13290
13242
13203
13157
13115
13090
13066
13033
13008
13002
13004
13012
13036
13076
13121
13164
13215
13272
13317
13347
13379
13415
13436
13445
13456
13461
13446
13417
13388
13353
13296
13225
13165
13115
13055
12987
12928
12875
12813
12753
12700
12641
12563
12487
12429
12380
12320
12262
12213
12157
12085
12017
11965
11909
11848
11796
11753
11707
11661
11624
11588
11537
11477
11431
11397
11355
11307
11274
11252
11229
11208
11199
11192
11171
11140
11122
11113
11095
11073
11065
11058
11036
11017
11007
10989
10956
10923
10904
10885
10853
10825
10815
10806
10793
10787
10793
10796
10789
10784
10791
10798
10808
10837
10888
10956
11055
11214
11432
11688
11985
12342
12743
13160
13592
14040
14483
14893
15259
15594
15896
16142
16334
16490
16605
16667
16693
16694
16660
16589
16501
16412
16304
16170
16030
15895
15752
15598
15454
15326
15199
15069
14956
14868
14789
14705
14626
14557
14490
14428
14383
14341
14285
14223
14173
14127
14063
13987
13914
13841
13759
13681
13620
13573
13522
13468
13431
13409
13389
13378
13384
13387
13379
13382
13404
13431
13453
13478
13516
13552
13572
13588
13606
13610
13597
13590
13593
13586
13564
13542
13523
13491
13448
13408
13371
13329
13283
13238
13192
13135
13071
13019
12965
12894
12821
12758
12692
12610
12528
12466
12413
12349
12287
12240
12199
12153
12112
12078
12031
11963
11898
11846
11797
11744
11703
11680
11652
11614
11583
11560
11529
11492
11467
11454
11432
11398
11372
11347
11312
11279
11254
11224
11184
11146
11124
11109
11083
11053
11040
11034
11014
10992
10982
10974
10959
10944
10937
10922
10891
10866
10867
10873
10872
10885
10925
10982
11058
11172
11331
11531
11775
12073
12426
12810
13221
13663
14120
14554
14948
15313
15641
15915
16146
16342
16489
16581
16630
16649
16634
16576
16485
16386
16281
16154
16015
15883
15754
15618
15493
15386
15276
15160
15061
14980
14894
14798
14716
14660
14610
14552
14496
14444
14382
14317
14260
14207
14140
14060
13982
13907
13827
13747
13685
13638
13588
13542
13517
13501
13478
13458
13458
13467
13468
13470
13487
13510
13522
13525
13536
13551
13562
13578
13606
13628
13636
13645
13662
13670
13657
13640
13628
13603
13560
13520
13485
13440
13384
13332
13279
13217
13152
13098
13057
13009
12953
12904
12857
12794
12721
12657
12597
12532
12469
12418
12368
12305
12241
12193
12151
12100
12053
12021
11987
11939
11893
11858
11822
11776
11737
11714
11690
11656
11626
11606
11584
11562
11549
11541
11528
11515
11515
11522
11512
11482
11459
11441
11408
11366
11341
11330
11314
11295
11282
11265
11237
11214
11205
11208
11213
11234
11289
11371
11470
11620
11844
12115
12412
12749
13130
13534
13947
14368
14791
15193
15558
15893
16197
16448
16640
16795
16919
16998
17033
17048
17036
16977
16880
16770
16643
16491
16334
16193
16065
15931
15798
15681
15572
15454
15343
15253
15164
15072
14991
14929
14866
14787
14709
14645
14573
14484
14398
14322
14241
14155
14078
14014
13954
13902
13862
13826
13783
13739
13710
13698
13685
13667
13667
13690
13716
13746
13788
13827
13845
13855
13876
13899
13908
13910
13920
13927
13918
13905
13900
13890
13868
13844
13822
13794
13747
13690
13642
13594
13536
13482
13432
13367
13289
13220
13159
13084
12997
12929
12878
12824
12764
12711
12660
12599
12537
12490
12448
12392
12331
12283
12243
12193
12138
12099
12067
12030
11994
11962
11927
11885
11845
11817
11794
11759
11726
11709
11697
11674
11651
11637
11620
11600
11591
11597
11598
11587
11576
11566
11541
11503
11471
11446
11417
11390
11381
11388
11388
11386
11412
11471
11547
11639
11765
11928
12125
12367
12665
13003
13366
13758
14180
14611
15013
15386
15740
16058
16327
16554
16746
16894
16988
17041
17069
17065
17026
16962
16883
16780
16653
16515
16371
16211
16042
15886
15744
15603
15466
15346
15242
15134
15021
14926
14844
14758
14669
14594
14533
14467
14395
14335
14278
14211
14149
14099
14042
13969
13896
13833
13767
13691
13631
13598
13573
13553
13554
13571
13585
13595
13616
13655
13697
13732
13765
13794
13811
13824
13843
13860
13863
13862
13873
13892
13899
13891
13883
13875
13858
13831
13799
13756
13695
13627
13568
13511
13443
13374
13316
13259
13197
13142
13096
13042
12976
12913
12854
12788
12708
12629
12560
12495
12430
12373
12324
12272
12218
12178
12149
12114
12077
12055
12040
12009
11965
11926
11889
11850
11819
11804
11793
11771
11741
11721
11705
11676
11651
11649
11652
11638
11617
11596
11562
11517
11481
11460
11436
11399
11364
11343
11326
11305
11289
11283
11272
11263
11276
11311
11356
11422
11537
11712
11928
12182
12493
12859
13256
13676
14118
14569
15009
15424
15817
16175
16470
16708
16904
17051
17130
17158
17159
17122
17040
16934
16823
16702
16556
16401
16252
16090
15911
15742
15597
15463
15334
15221
15125
15035
14948
14870
14801
14729
14651
14579
14508
14427
14338
14259
14183
14090
13991
13904
13827
13742
13647
13563
13495
13431
13379
13348
13325
13298
13280
13281
13293
13302
13321
13363
13416
13466
13520
13576
13623
13657
13690
13727
13759
13778
13791
13802
13801
13782
13753
13717
13669
13614
13567
13521
13456
13383
13329
13292
13248
13198
13155
13107
13039
12959
12884
12815
12743
12677
12633
12590
12530
12461
12397
12337
12272
12210
12159
12104
12038
11981
11942
11904
11861
11827
11805
11781
11754
11732
11712
11687
11664
11656
11657
11650
11634
11621
11614
11595
11564
11539
11514
11474
11428
11399
11380
11351
11321
11305
11291
11261
11228
11212
11201
11179
11155
11148
11139
11108
11071
11051
11041
11031
11028
11039
11055
11076
11113
11178
11274
11408
11604
11865
12169
12508
12902
13341
13796
14255
14720
15176
15589
15949
16267
16543
16763
16929
17054
17131
17149
17122
17072
16997
16878
16731
16580
16417
16235
16057
15899
15754
15616
15490
15380
15272
15160
15049
14948
14854
14764
14690
14627
14562
14488
14425
14374
14315
14244
14178
14122
14056
13981
13914
13852
13783
13711
13655
13615
13576
13536
13516
13511
13504
13506
13527
13553
13572
13592
13622
13655
13681
13712
13752
13785
13798
13803
13811
13808
13788
13764
13748
13726
13694
13666
13644
13615
13576
13540
13507
13463
13409
13366
13335
13293
13233
13182
13146
13100
13036
12970
12897
12809
12719
12644
12577
12504
12430
12368
12309
12242
12175
12122
12072
12018
11975
11952
11930
11893
11851
11818
11789
11750
11711
11680
11644
11604
11577
11558
11532
11502
11484
11478
11461
11437
11426
11421
11402
11376
11362
11350
11326
11294
11274
11268
11258
11243
11237
11233
11216
11194
11179
11161
11133
11106
11099
11096
11082
11071
11074
11077
11081
11106
11162
11242
11339
11473
11661
11899
12182
12518
12907
13333
13782
14249
14716
15159
15569
15953
16296
16576
16797
16972
17098
17170
17192
17184
17151
17076
16968
16855
16730
16572
16398
16236
16078
15910
15740
15588
15447
15306
15179
15080
14992
14905
14834
14781
14731
14675
14623
14578
14529
14471
14415
14358
14286
14207
14135
14067
13989
13905
13838
13784
13725
13667
13622
13584
13547
13519
13509
13510
13512
13520
13544
13575
13594
13614
13654
13703
13744
13785
13829
13865
13888
13907
13931
13945
13935
13918
13908
13885
13842
13793
13740
13678
13614
13563
13517
13460
13393
13340
13300
13253
13196
13141
13084
13017
12947
12887
12834
12767
12688
12619
12555
12481
12410
12357
12310
12255
12208
12188
12178
12154
12120
12092
12060
12016
11977
11951
11923
11887
11852
11823
11792
11756
11729
11714
11692
11665
11647
11634
11608
11570
11541
11520
11494
11466
11456
11457
11445
11430
11432
11437
11423
11404
11392
11374
11343
11312
11298
11288
11266
11248
11251
11260
11264
11278
11309
11347
11391
11456
11557
11695
11871
12102
12396
12730
13096
13501
13941
14386
14828
15265
15676
16025
16317
16576
16796
16955
17053
17113
17137
17116
17061
16992
16905
16790
16660
16534
16403
16253
16095
15951
15814
15664
15511
15376
15253
15131
15020
14930
14844
14749
14663
14592
14513
14423
14344
14278
14213
14151
14094
14041
13982
13922
13883
13861
13829
13781
13739
13707
13670
13637
13625
13623
13612
13601
13610
13630
13647
13669
13714
13768
13810
13847
13892
13931
13952
13967
13981
13983
13970
13959
13961
13959
13941
13913
13883
13844
13793
13739
13683
13612
13529
13455
13392
13319
13237
13167
13111
13049
12983
12931
12886
12836
12787
12751
12718
12673
12621
12579
12540
12487
12434
12393
12351
12299
12251
12217
12189
12159
12130
12106
12068
12011
11958
11927
11900
11864
11835
11822
11809
11792
11783
11781
11768
11740
11713
11687
11649
11605
11572
11544
11504
11462
11437
11425
11406
11379
11364
11359
11346
11330
11327
11334
11352
11395
11475
11590
11725
11889
12107
12367
12657
12995
13384
13798
14218
14646
15070
15469
15833
16163
16455
16699
16889
17033
17137
17191
17194
17165
17108
17010
16885
16750
16604
16438
16258
16085
15925
15762
15600
15454
15320
15187
15064
14967
14888
14809
14729
14660
14591
14514
14444
14399
14358
14305
14254
14210
14160
14099
14036
13979
13918
13848
13780
13719
13652
13585
13544
13531
13526
13528
13547
13579
13607
13636
13686
13751
13805
13851
13910
13970
14013
14052
14091
14113
14114
14105
14098
14089
14065
14030
14007
13986
13949
13902
13855
13792
13714
13644
13587
13526
13459
13396
13334
13262
13181
13109
13048
12980
12903
12834
12772
12708
12642
12584
12537
12488
12442
12414
12397
12376
12349
12330
12318
12298
12270
12251
12231
12199
12167
12146
12125
12094
12067
12050
12027
11991
11964
11952
11934
11903
11876
11859
11839
11812
11790
11775
11753
11728
11713
11705
11688
11663
11648
11648
11648
11649
11668
11713
11780
11879
12038
12257
12513
12813
13176
13586
14017
14466
14927
15372
15781
16156
16507
16816
17064
17266
17437
17565
17641
17677
17676
17630
17541
17428
17301
17156
16992
16826
16669
16508
16344
16193
16055
15908
15760
15635
15532
15434
15340
15262
15197
15131
15066
15008
14946
14871
14800
14739
14677
14605
14531
14470
14411
14339
14263
14205
14153
14089
14030
13988
13957
13937
13940
13966
13998
14027
14066
14118
14166
14203
14244
14289
14327
14366
14419
14474
14512
14539
14568
14588
14587
14567
14546
14521
14476
14418
14358
14293
14217
14135
14060
13994
13924
13856
13802
13753
13696
13638
13584
13522
13445
13361
13279
13195
13117
13059
13019
12978
12935
12899
12870
12832
12784
12737
12693
12639
12580
12538
12510
12471
12423
12383
12351
12305
12255
12220
12193
12157
12125
12113
12108
12093
12078
12074
12066
12040
12015
12001
11985
11955
11925
11905
11887
11860
11830
11810
11789
11764
11749
11741
11729
11719
11732
11774
11832
11910
12038
12227
12460
12738
13080
13484
13927
14401
14899
15396
15863
16292
16691
17052
17354
17596
17793
17942
18029
18063
18068
18038
17969
17878
17781
17663
17516
17361
17218
17076
16923
16771
16633
16493
16343
16201
16075
15954
15836
15738
15662
15588
15511
15447
15397
15341
15281
15229
15175
15103
15020
14938
14857
14760
14656
14570
14502
14432
14367
14322
14281
14240
14216
14219
14225
14225
14239
14279
14327
14364
14400
14445
14487
14521
14561
14609
14642
14653
14660
14668
14664
14647
14633
14618
14583
14533
14485
14436
14365
14278
14199
14130
14051
13968
13897
13838
13777
13714
13664
13617
13555
13489
13429
13368
13297
13229
13177
13124
13057
12993
12941
12895
12846
12797
12756
12717
12670
12625
12586
12543
12492
12441
12397
12353
12313
12285
12269
12248
12215
12187
12169
12142
12104
12071
12040
12000
11967
11957
11956
11941
11917
11905
11899
11881
11859
11848
11835
11805
11778
11765
11744
11698
11650
11624
11604
11581
11569
11566
11554
11532
11517
11519
11523
11521
11530
11563
11612
11689
11819
12001
12222
12497
12846
13256
13694
14151
14635
15126
15600
16050
16470
16848
17169
17433
17654
17833
17952
18016
18043
18031
17974
17890
17794
17674
17524
17361
17201
17034
16856
16683
16531
16385
16242
16117
16010
15907
15809
15732
15674
15614
15546
15484
15430
15368
15299
15236
15174
15100
15020
14953
14889
14808
14714
14630
14560
14491
14432
14397
14373
14346
14327
14330
14348
14363
14383
14422
14462
14494
14531
14579
14617
14636
14652
14669
14678
14680
14689
14705
14708
14693
14679
14668
14645
14614
14587
14560
14516
14459
14409
14367
14309
14233
14158
14082
13996
13907
13826
13747
13657
13566
13491
13423
13342
13257
13185
13116
13037
12965
12911
12852
12778
12708
12654
12595
12519
12448
12395
12344
12290
12244
12206
12163
12116
12084
12067
12046
12020
12010
12005
11986
11960
11941
11924
11894
11858
11839
11834
11825
11814
11813
11812
11795
11774
11760
11746
11720
11694
11687
11685
11669
11650
11634
11611
11579
11555
11543
11528
11502
11481
11475
11476
11478
11499
11547
11609
11695
11826
12002
12214
12473
12802
13194
13620
14074
14558
15054
15526
15960
16361
16726
17034
17277
17469
17608
17683
17709
17705
17665
17581
17464
17332
17179
17000
16816
16641
16459
16268
16090
15933
15785
15642
15515
15413
15317
15217
15132
15071
15015
14955
14901
14846
14771
14688
14623
14577
14522
14452
14378
14305
14228
14155
14100
14056
14010
13972
13954
13939
13913
13890
13880
13875
13866
13870
13898
13928
13949
13975
14015
14055
14089
14125
14168
14205
14229
14251
14274
14283
14275
14263
14248
14217
14175
14142
14117
14081
14031
13981
13926
13854
13778
13712
13650
13585
13519
13463
13402
13318
13225
13147
13075
13002
12938
12892
12848
12789
12727
12676
12630
12571
12509
12455
12401
12343
12299
12270
12237
12199
12174
12164
12144
12107
12076
12057
12035
12012
12005
12007
12002
11989
11985
11996
12001
11998
12001
12001
11989
11974
11965
11954
11929
11900
11877
11850
11810
11772
11752
11737
11716
11705
11714
11729
11744
11774
11834
11911
12000
12125
12294
12488
12713
12993
13326
13684
14063
14475
14908
15324
15717
16096
16444
16737
16976
17172
17315
17397
17432
17441
17417
17354
17263
17160
17036
16883
16716
16557
16394
16214
16030
15864
15711
15557
15413
15291
15178
15066
14974
14908
14847
14788
14742
14706
14662
14608
14562
14523
14470
14405
14344
14289
14228
14159
14097
14041
13982
13928
13898
13884
13866
13850
13850
13861
13873
13897
13939
13988
14029
14076
14135
14186
14221
14259
14307
14342
14358
14373
14398
14417
14419
14422
14430
14427
14405
14384
14364
14327
14275
14223
14169
14105
14038
13986
13950
13913
13871
13834
13798
13754
13712
13681
13645
13594
13535
13485
13438
13374
13302
13247
13197
13131
13062
13012
12968
12918
12877
12852
12830
12802
12774
12752
12727
12692
12660
12638
12615
12585
12555
12529
12494
12454
12427
12408
12371
12318
12281
12261
12236
12211
12199
12188
12170
12163
12177
12204
12233
12273
12344
12443
12553
12691
12880
13115
13389
13716
14103
14527
14968
15423
15884
16326
16728
17095
17428
17701
17904
18058
18176
18246
18268
18252
18199
18101
17973
17839
17700
17543
17374
17211
17052
16884
16722
16587
16466
16350
16251
16178
16115
16046
15980
15930
15882
15818
15750
15694
15630
15549
15471
15408
15335
15241
15148
15073
15009
14951
14913
14896
14884
14877
14883
14894
14899
14897
14908
14935
14954
14966
14999
15051
15101
15143
15189
15230
15254
15269
15290
15314
15320
15311
15305
15294
15266
15234
15205
15164
15102
15039
14987
14931
14864
14800
14752
14706
14645
14582
14528
14472
14411
14358
14313
14259
14194
14133
14077
14016
13953
13900
13856
13810
13763
13729
13702
13663
13614
13578
13552
13519
13481
13452
13419
13370
13318
13283
13255
13219
13184
13164
13146
13120
13099
13086
13070
13050
13035
13034
13036
13027
13016
13008
12992
12963
12937
12924
12912
12907
12924
12958
13003
13069
13184
13357
13574
13840
14175
14566
14987
15436
15914
16399
16868
17311
17723
18084
18379
18615
18805
18950
19048
19110
19145
19143
19095
19022
18944
18853
18740
18616
18491
18354
18205
18062
17926
17785
17643
17520
17412
17304
17198
17111
17039
16960
16881
16821
16775
16725
16671
16624
16575
16504
16422
16355
16296
16227
16158
16097
16034
15962
15899
15852
15810
15765
15730
15720
15722
15722
15731
15760
15796
15828
15862
15904
15939
15963
15988
16018
16037
16044
16059
16075
16076
16067
16064
16062
16039
15996
15953
15913
15860
15797
15736
15675
15605
15535
15486
15447
15393
15330
15277
15220
15146
15072
15009
14939
14856
14782
14730
14679
14618
14568
14530
14487
14433
14383
14342
14298
14248
14203
14164
14122
14080
14054
14034
13998
13953
13926
13913
13893
13864
13845
13832
13812
13796
13791
13789
13776
13760
13753
13740
13710
13681
13661
13630
13582
13539
13522
13521
13527
13559
13631
13743
13902
14118
14393
14719
15086
15501
15956
16430
16903
17377
17844
18280
18672
19020
19316
19549
19727
19865
19962
20007
20007
19986
19946
19874
19782
19690
19586
19458
19318
19179
19037
18885
18737
18608
18490
18368
18261
18181
18114
18045
17981
17927
17874
17818
17775
17744
17697
17630
17565
17507
17436
17348
17258
17171
17075
16982
16908
16850
16790
16729
16685
16662
16646
16639
16652
16670
16681
16699
16733
16770
16802
16834
16882
16933
16966
16991
17024
17053
17064
17067
17072
17062
17031
16997
16972
16935
16881
16827
16772
16702
16621
16548
16480
16398
16307
16231
16169
16098
16020
15947
15866
15772
15684
15619
15573
15525
15472
15430
15391
15336
15268
15199
15124
15042
14968
14906
14847
14782
14730
14710
14699
14679
14660
14651
14632
14599
14572
14553
14523
14483
14447
14414
14376
14333
14297
14274
14252
14228
14211
14195
14176
14160
14159
14167
14162
14150
14151
14162
14175
14209
14284
14398
14546
14743
15015
15360
15752
16186
16667
17169
17665
18152
18624
19052
19429
19769
20077
20329
20514
20646
20739
20787
20788
20758
20701
20611
20505
20401
20298
20181
20049
19919
19795
19662
19519
19386
19261
19138
19028
18941
18866
18789
18717
18661
18612
18553
18488
18428
18360
18274
18182
18094
18001
17900
17803
17715
17622
17519
17425
17349
17284
17226
17187
17167
17149
17139
17149
17173
17190
17201
17228
17273
17315
17349
17385
17422
17452
17483
17522
17557
17573
17576
17577
17570
17536
17495
17464
17430
17383
17335
17287
17230
17163
17098
17045
16989
16910
16822
16740
16655
16562
16481
16415
16340
16257
16192
16151
16105
16048
16001
15963
15914
15855
15806
15766
15715
15664
15629
15602
15569
15530
15501
15480
15453
15423
15400
15374
15344
15322
15310
15295
15267
15236
15215
15196
15169
15143
15126
15105
15079
15062
15057
15049
15033
15023
15017
15006
14995
14998
15018
15047
15100
15196
15337
15514
15735
16018
16361
16749
17183
17666
18168
18653
19108
19536
19927
20263
20548
20788
20974
21103
21183
21224
21222
21178
21105
21016
20907
20771
20630
20496
20359
20212
20069
19937
19803
19673
19556
19443
19328
19216
19124
19051
18981
