32528
32527
32527
32523
32510
32498
32489
32474
32451
32428
32409
32392
32371
32346
32320
32284
32238
32190
32146
32104
32064
32025
31991
31961
31930
31896
31862
31826
31797
31779
31759
31731
31705
31689
31680
31665
31643
31616
31586
31553
31518
31489
31466
31447
31431
31418
31402
31383
31363
31347
31333
31320
31311
31306
31303
31297
31287
31272
31253
31225
31192
31164
31143
31121
31101
31094
31100
31103
31103
31104
31100
31085
31064
31041
31015
30984
30951
30925
30915
30915
30910
30896
30880
30866
30854
30843
30835
30835
30844
30867
30907
30968
31056
31174
31318
31490
31692
31913
32147
32391
32641
32886
33120
33340
33539
33709
33848
33960
34047
34107
34143
34161
34162
34143
34112
34081
34053
34022
33986
33947
33904
33859
33817
33784
33757
33729
33704
33689
33682
33678
33674
33673
33673
33672
33669
33664
33654
33633
33605
33577
33542
33493
33432
33371
33312
33247
33179
33118
33064
33014
32970
32937
32912
32893
32878
32869
32862
32852
32845
32842
32838
32828
32817
32810
32806
32802
32798
32797
32796
32796
32794
32790
32782
32766
32745
32717
32685
32650
32612
32569
32522
32477
32436
32394
32354
32320
32288
32254
32219
32187
32159
32129
32098
32065
32032
31996
31957
31924
31894
31860
31827
31808
31798
31786
31772
31761
31749
31733
31717
31707
31698
31683
31672
31668
31662
31646
31623
31603
31583
31558
31533
31512
31493
31473
31450
31431
31415
31397
31381
31369
31357
31341
31324
31310
31298
31281
31256
31234
31214
31190
31162
31137
31113
31086
31061
31039
31017
30992
30967
30946
30930
30930
30952
30991
31047
31127
31234
31365
31518
31696
31893
32104
32323
32554
32794
33031
33251
33454
33640
33803
33933
34031
34106
34161
34193
34203
34200
34193
34181
34158
34123
34081
34032
33982
33938
33898
33861
33825
33792
33767
33754
33751
33757
33760
33759
33756
33747
33733
33716
33696
33665
33624
33582
33542
33498
33451
33406
33363
33320
33276
33228
33181
33138
33101
33069
33042
33015
32990
32971
32955
32938
32920
32910
32904
32893
32881
32873
32865
32859
32856
32858
32859
32854
32850
32849
32846
32830
32804
32774
32740
32698
32651
32605
32558
32509
32461
32418
32378
32337
32298
32269
32244
32215
32186
32156
32121
32078
32030
31987
31949
31911
31875
31850
31836
31821
31803
31788
31769
31739
31711
31690
31668
31643
31617
31594
31577
31561
31546
31533
31518
31502
31486
31466
31446
31427
31410
31393
31376
31361
31350
31335
31315
31290
31265
31242
31220
31204
31193
31183
31174
31168
31161
31149
31135
31122
31105
31084
31063
31046
31025
30999
30972
30945
30913
30877
30848
30828
30812
30799
30799
30816
30848
30902
30985
31100
31238
31395
31576
31783
32006
32240
32484
32728
32958
33170
33367
33551
33715
33851
33959
34041
34096
34125
34140
34147
34144
34126
34094
34055
34009
33961
33915
33872
33834
33801
33775
33755
33734
33710
33692
33678
33666
33655
33646
33635
33618
33596
33576
33551
33515
33472
33423
33362
33296
33232
33169
33101
33034
32976
32927
32883
32847
32828
32823
32820
32811
32804
32800
32793
32784
32776
32767
32752
32739
32732
32729
32726
32724
32728
32735
32736
32734
32727
32716
32698
32673
32648
32622
32592
32560
32530
32503
32475
32448
32424
32402
32374
32340
32309
32284
32256
32225
32195
32165
32135
32104
32082
32069
32058
32045
32031
32021
32018
32017
32009
31993
31975
31957
31928
31891
31858
31835
31813
31790
31771
31754
31738
31723
31712
31705
31697
31681
31662
31647
31631
31617
31611
31609
31604
31598
31591
31584
31570
31556
31549
31545
31533
31514
31496
31481
31469
31455
31441
31421
31399
31377
31357
31341
31323
31304
31290
31286
31293
31311
31353
31428
31529
31654
31805
31976
32161
32360
32573
32795
33011
33216
33412
33600
33775
33929
34067
34189
34287
34354
34398
34422
34425
34413
34395
34370
34335
34297
34255
34213
34171
34128
34085
34048
34016
33986
33951
33914
33882
33858
33839
33823
33806
33788
33765
33734
33701
33662
33612
33558
33507
33459
33407
33352
33299
33248
33194
33141
33095
33056
33016
32975
32941
32919
32901
32882
32869
32860
32852
32846
32846
32844
32840
32840
32845
32850
32851
32847
32844
32840
32829
32810
32784
32751
32717
32684
32656
32624
32593
32563
32534
32503
32468
32437
32406
32366
32321
32280
32246
32213
32175
32139
32114
32097
32076
32051
32027
32000
31970
31937
31906
31877
31854
31838
31827
31820
31814
31809
31804
31798
31795
31792
31781
31765
31747
31733
31717
31700
31683
31666
31647
31622
31595
31574
31555
31535
31519
31511
31505
31492
31480
31477
31474
31461
31443
31429
31420
31409
31395
31381
31369
31361
31359
31361
31361
31373
31403
31451
31515
31606
31727
31875
32047
32244
32460
32682
32901
33111
33311
33496
33665
33820
33960
34076
34162
34225
34271
34297
34304
34301
34295
34280
34252
34213
34173
34137
34100
34060
34014
33966
33919
33880
33848
33821
33799
33779
33755
33721
33681
33639
33593
33542
33490
33439
33388
33335
33284
33232
33177
33122
33078
33043
33007
32972
32947
32938
32941
32949
32963
32983
33004
33020
33034
33048
33061
33068
33071
33074
33077
33083
33088
33087
33077
33058
33033
33005
32978
32951
32924
32890
32854
32825
32801
32774
32745
32719
32698
32675
32646
32616
32582
32543
32505
32474
32453
32434
32413
32390
32372
32359
32346
32334
32323
32312
32295
32271
32251
32235
32219
32204
32196
32192
32187
32183
32182
32180
32176
32170
32159
32139
32117
32094
32070
32051
32040
32033
32017
31990
31958
31932
31909
31887
31869
31860
31863
31868
31875
31888
31908
31933
31966
32026
32120
32241
32392
32574
32778
32994
33212
33430
33650
33868
34075
34264
34432
34579
34704
34811
34898
34965
35015
35048
35064
35065
35054
35032
35002
34972
34943
34909
34868
34830
34793
34756
34723
34699
34678
34653
34623
34594
34570
34550
34532
34520
34511
34498
34479
34455
34423
34382
34335
34283
34225
34161
34097
34037
33977
33918
33865
33827
33800
33774
33751
33734
33724
33714
33706
33705
33711
33711
33703
33699
33698
33696
33693
33695
33698
33692
33679
33668
33662
33653
33641
33626
33608
33587
33560
33526
33488
33453
33425
33399
33374
33352
33330
33305
33272
33238
33207
33175
33139
33104
33076
33054
33033
33013
32998
32985
32973
32958
32945
32932
32918
32905
32895
32883
32869
32859
32853
32842
32832
32828
32824
32813
32800
32789
32779
32761
32740
32726
32719
32708
32692
32678
32667
32654
32636
32618
32601
32578
32549
32520
32492
32468
32453
32449
32457
32478
32519
32582
32666
32773
32908
33068
33247
33443
33652
33871
34094
34315
34530
34737
34927
35089
35225
35341
35437
35504
35542
35556
35555
35540
35521
35504
35481
35450
35421
35393
35368
35346
35325
35306
35287
35271
35259
35247
35231
35215
35205
35201
35196
35188
35182
35174
35161
35149
35137
35114
35073
35018
34959
34903
34842
34772
34699
34626
34552
34482
34425
34383
34353
34331
34316
34302
34294
34292
34293
34292
34294
34300
34304
34301
34293
34288
34284
34279
34271
34260
34249
34234
34217
34199
34181
34158
34129
34100
34070
34037
34002
33967
33931
33893
33855
33817
33779
33739
33699
33662
33628
33599
33577
33556
33532
33508
33487
33467
33450
33436
33426
33413
33394
33373
33354
33338
33321
33303
33284
33267
33247
33222
33195
33172
33153
33133
33116
33099
33079
33062
33050
33038
33024
33014
33008
32995
32973
32950
32928
32904
32880
32862
32848
32830
32811
32793
32775
32752
32727
32702
32679
32657
32638
32624
32615
32613
32620
32637
32662
32700
32757
32842
32954
33085
33237
33414
33612
33827
34055
34295
34531
34753
34960
35149
35314
35452
35569
35664
35732
35775
35801
35813
35809
35794
35780
35766
35741
35709
35679
35653
35624
35598
35581
35569
35561
35553
35548
35545
35543
35542
35541
35537
35531
35524
35518
35508
35484
35448
35405
35351
35289
35225
35162
35100
35043
34992
34943
34893
34843
34794
34750
34714
34682
34657
34641
34636
34639
34644
34646
34649
34652
34655
34655
34651
34648
34647
34647
34640
34630
34617
34595
34561
34522
34488
34459
34426
34390
34355
34321
34277
34224
34175
34133
34090
34044
34005
33974
33945
33919
33891
33860
33829
33798
33765
33725
33685
33653
33622
33589
33557
33535
33524
33517
33510
33504
33498
33485
33464
33440
33418
33392
33363
33342
33327
33311
33297
33287
33274
33253
33232
33215
33197
33173
33145
33120
33100
33080
33063
33044
33022
32998
32973
32950
32933
32922
32910
32896
32877
32856
32833
32804
32768
32733
32710
32692
32672
32653
32638
32618
32585
32547
32513
32480
32449
32423
32416
32436
32481
32552
32654
32786
32941
33115
33310
33524
33744
33964
34185
34404
34612
34804
34982
35148
35291
35405
35492
35555
35596
35619
35625
35615
35596
35573
35542
35501
35464
35437
35411
35379
35347
35319
35291
35260
35228
35204
35186
35170
35155
35141
35127
35110
35089
35061
35025
34978
34925
34873
34821
34764
34700
34640
34587
34536
34484
34433
34387
34340
34291
34243
34202
34170
34145
34126
34110
34094
34082
34069
34055
34050
34055
34058
34055
34053
34054
34053
34044
34031
34011
33985
33952
33918
33888
33854
33816
33782
33750
33707
33658
33615
33578
33536
33490
33447
33409
33373
33336
33300
33267
33235
33201
33173
33149
33122
33097
33079
33063
33045
33022
33000
32978
32955
32934
32916
32897
32873
32849
32830
32814
32796
32777
32764
32756
32745
32730
32717
32709
32702
32690
32677
32666
32654
32643
32631
32612
32587
32563
32543
32523
32503
32483
32461
32439
32421
32409
32396
32383
32375
32371
32365
32349
32331
32317
32304
32287
32274
32264
32244
32217
32188
32162
32144
32128
32116
32115
32126
32148
32184
32245
32335
32450
32595
32771
32976
33201
33438
33677
33907
34124
34326
34509
34670
34807
34924
35018
35088
35139
35176
35198
35200
35188
35166
35134
35094
35050
35011
34977
34937
34891
34847
34810
34776
34745
34720
34694
34667
34642
34620
34598
34574
34549
34522
34490
34452
34415
34375
34326
34272
34222
34173
34123
34076
34036
33999
33962
33927
33903
33887
33872
33862
33862
33871
33881
33889
33899
33911
33920
33923
33924
33923
33920
33914
33909
33901
33884
33859
33837
33821
33807
33789
33764
33732
33695
33657
33620
33585
33557
33531
33503
33468
33431
33397
33364
33326
33286
33252
33219
33185
33154
33132
33115
33098
33081
33067
33051
33030
33009
32994
32982
32964
32942
32923
32910
32896
32877
32860
32848
32837
32824
32812
32802
32788
32772
32761
32756
32748
32733
32716
32697
32676
32656
32633
32603
32569
32534
32499
32470
32451
32438
32424
32405
32386
32377
32375
32378
32395
32432
32487
32562
32664
32798
32961
33143
33340
33552
33771
33987
34197
34401
34598
34777
34935
35075
35193
35287
35359
35413
35443
35455
35456
35443
35417
35387
35359
35325
35284
35243
35204
35166
35126
35090
35065
35046
35024
35000
34981
34964
34947
34934
34927
34916
34893
34857
34818
34779
34733
34682
34633
34583
34526
34464
34405
34358
34320
34288
34260
34236
34215
34199
34190
34183
34175
34167
34164
34167
34175
34188
34201
34208
34214
34221
34224
34218
34206
34189
34163
34131
34102
34082
34063
34038
34008
33976
33945
33915
33888
33861
33826
33785
33745
33707
33665
33621
33582
33549
33517
33485
33457
33436
33422
33409
33392
33375
33354
33323
33285
33253
33222
33189
33159
33137
33124
33120
33123
33126
33124
33114
33097
33076
33050
33024
33002
32981
32961
32949
32943
32939
32936
32932
32922
32903
32880
32860
32845
32833
32821
32807
32791
32776
32761
32743
32726
32713
32701
32698
32717
32758
32823
32918
33047
33204
33382
33579
33790
34009
34235
34467
34699
34919
35122
35306
35462
35593
35705
35800
35875
35925
35958
35971
35960
35932
35900
35870
35843
35819
35800
35789
35779
35761
35735
35710
35690
35670
35650
35631
35611
35593
35585
35588
35598
35609
35616
35617
35609
35590
35565
35531
35487
35436
35379
35315
35246
35180
35120
35062
35006
34952
34907
34866
34821
34773
34733
34706
34684
34668
34662
34661
34659
34653
34651
34653
34656
34655
34648
34636
34625
34617
34607
34589
34566
34546
34526
34503
34480
34457
34428
34389
34343
34295
34248
34202
34163
34129
34095
34057
34014
33969
33929
33896
33869
33847
33826
33800
33771
33746
33727
33705
33678
33650
33625
33601
33580
33564
33551
33539
33524
33507
33488
33470
33449
33417
33379
33352
33340
33331
33322
33317
33319
33320
33311
33291
33270
33253
33237
33219
33202
33188
33173
33162
33154
33145
33126
33100
33074
33049
33024
32997
32973
32956
32947
32947
32958
32980
33020
33087
33183
33305
33454
33629
33821
34026
34246
34484
34730
34970
35196
35407
35599
35763
35899
36012
36100
36163
36204
36230
36249
36253
36239
36219
36198
36173
36145
36113
36080
36048
36022
36003
35986
35971
35965
35963
35958
35953
35949
35941
35927
35914
35905
35899
35887
35867
35841
35812
35774
35728
35675
35614
35545
35471
35404
35346
35287
35228
35176
35126
35078
35038
35014
34996
34972
34952
34941
34931
34919
34911
34908
34907
34905
34906
34908
34899
34882
34868
34857
34844
34828
34816
34802
34782
34753
34720
34683
34639
34589
34538
34489
34441
34393
34346
34303
34265
34228
34192
34153
34111
34072
34040
34010
33980
33955
33933
33907
33877
33849
33827
33806
33783
33762
33746
33728
33702
33674
33655
33641
33627
33615
33607
33598
33588
33576
33566
33558
33551
33545
33534
33519
33507
33502
33497
33486
33472
33461
33450
33434
33417
33403
33391
33375
33360
33344
33323
33298
33275
33256
33239
33222
33205
33190
33176
33160
33140
33121
33101
33074
33043
33016
32998
32991
32992
33005
33035
33093
33189
33317
33471
33651
33854
34078
34315
34557
34803
35051
35289
35509
35712
35896
36053
36182
36287
36365
36416
36449
36472
36483
36479
36467
36453
36432
36404
36375
36344
36306
36267
36231
36198
36163
36130
36108
36094
36077
36057
36041
36033
36019
35995
35972
35954
35933
35903
35868
35830
35786
35734
35676
35613
35547
35484
35428
35374
35324
35284
35257
35236
35215
35196
35178
35158
35136
35120
35114
35111
35109
35106
35104
35099
35091
35087
35091
35089
35078
35062
35047
35026
35000
34978
34961
34944
34920
34891
34857
34817
34773
34726
34677
34625
34576
34530
34485
34440
34402
34370
34340
34311
34287
34265
34236
34203
34173
34145
34116
34083
34054
34035
34020
34004
33987
33970
33952
33931
33912
33894
33873
33849
33828
33817
33810
33802
33798
33798
33795
33786
33770
33750
33722
33684
33648
33615
33580
33547
33525
33506
33485
33471
33463
33456
33449
33441
33427
33405
33381
33363
33345
33322
33297
33284
33282
33283
33280
33271
33254
33231
33205
33179
33158
33139
33118
33104
33101
33111
33147
33213
33311
33438
33590
33773
33986
34218
34463
34715
34970
35219
35458
35683
35888
36068
36225
36361
36470
36551
36611
36649
36663
36655
36636
36610
36572
36528
36489
36452
36410
36369
36335
36309
36284
36255
36229
36209
36188
36164
36145
36136
36131
36126
36117
36098
36067
36032
35997
35959
35916
35872
35829
35782
35728
35673
35621
35570
35521
35482
35456
35436
35415
35397
35383
35370
35353
35336
35327
35325
35324
35326
35333
35340
35341
35336
35328
35320
35309
35294
35277
35256
35236
35219
35201
35176
35148
35121
35085
35036
34979
34928
34886
34850
34820
34794
34771
34742
34707
34672
34638
34597
34551
34510
34476
34446
34421
34400
34379
34353
34326
34302
34279
34258
34242
34225
34207
34192
34185
34180
34170
34158
34150
34141
34127
34109
34095
34085
34069
34046
34025
34008
33993
33976
33962
33956
33947
33932
33916
33891
33859
33831
33806
33780
33753
33733
33714
33692
33671
33657
33644
33623
33600
33588
33586
33587
33597
33627
33678
33753
33857
33991
34145
34314
34498
34700
34917
35141
35370
35605
35834
36049
36246
36421
36570
36689
36779
36840
36874
36882
36870
36848
36817
36773
36722
36673
36626
36578
36531
36493
36465
36439
36414
36392
36368
36341
36315
36292
36270
36242
36211
36178
36140
36094
36045
35996
35947
35899
35852
35806
35757
35708
35663
35621
35583
35557
35544
35535
35530
35538
35556
35576
35593
35614
35641
35663
35679
35691
35706
35717
35721
35723
35727
35725
35712
35693
35677
35666
35652
35633
35615
35596
35572
35545
35520
35496
35470
35443
35418
35393
35368
35343
35314
35284
35261
35244
35221
35191
35161
35134
35109
35088
35073
35057
35038
35017
34998
34978
34949
34917
34894
34880
34870
34863
34857
34855
34852
34843
34831
34817
34793
34754
34706
34656
34606
34559
34515
34473
34431
34392
34364
34341
34321
34302
34283
34262
34241
34223
34210
34201
34187
34172
34161
34153
34154
34181
34233
34301
34388
34507
34665
34858
35076
35320
35580
35845
36108
36368
36613
36832
37020
37181
37320
37433
37515
37576
37622
37649
37653
37638
37613
37583
37550
37514
37469
37419
37372
37327
37282
37238
37198
37167
37144
37122
37101
37084
37070
37054
37042
37035
37025
37006
36982
36954
36922
36880
36830
36774
36713
36649
36585
36526
36470
36417
36374
36341
36315
36298
36288
36279
36268
36257
36250
36244
36234
36225
36220
36219
36215
36208
36204
36199
36190
36182
36180
36178
36172
36161
36144
36120
36087
36048
36014
35986
35950
35910
35877
35849
35820
35790
35761
35729
35690
35650
35611
35574
35536
35502
35475
35455
35440
35429
35415
35398
35383
35366
35346
35327
35317
35318
35319
35318
35318
35317
35313
35304
35295
35288
35280
35271
35263
35258
35255
35249
35241
35232
35219
35204
35193
35191
35196
35198
35192
35182
35169
35151
35132
35118
35098
35066
35031
34999
34965
34931
34907
34898
34895
34900
34922
34961
35016
35098
35212
35356
35528
35729
35960
36210
36470
36735
37000
37265
37524
37766
37988
38190
38360
38498
38613
38707
38774
38814
38828
38817
38787
38743
38689
38633
38580
38534
38494
38460
38428
38395
38362
38328
38304
38289
38273
38248
38222
38195
38167
38137
38108
38077
38036
37986
37931
37874
37814
37751
37688
37624
37553
37479
37407
37337
37266
37195
37133
37085
37046
37015
36995
36988
36994
37006
37021
37036
37041
37032
37018
37004
36987
36969
36952
36937
36925
36915
36907
36898
36882
36857
36828
36795
36755
36708
36662
36620
36580
36540
36503
36465
36419
36367
36316
36267
36212
36155
36106
36058
36007
35952
35899
35853
35810
35774
35747
35721
35695
35670
35647
35620
35589
35552
35510
35467
35429
35399
35376
35355
35336
35325
35318
35310
35301
35292
35280
35261
35238
35221
35207
35180
35143
35107
35071
35034
34999
34967
34936
34902
34867
34839
34817
34799
34779
34758
34736
34717
34703
34693
34688
34698
34725
34778
34864
34986
35145
35336
35551
35791
36055
36328
36601
36875
37145
37398
37629
37837
38017
38163
38276
38361
38422
38462
38478
38472
38455
38426
38380
38316
38244
38173
38107
38045
37992
37947
37912
37884
37859
37838
37825
37809
37780
37744
37708
37680
37657
37635
37611
37584
37546
37489
37419
37349
37277
37196
37113
37042
36984
36933
36889
36859
36841
36827
36810
36795
36783
36775
36768
36767
36770
36775
36784
36795
36804
36810
36817
36824
36825
36818
36801
36773
36732
36692
36660
36630
36596
36558
36520
36482
36437
36386
36333
36281
36234
36192
36152
36111
36061
36006
35954
35903
35854
35811
35779
35749
35718
35688
35663
35641
35620
35599
35577
35551
35526
35508
35497
35486
35480
35477
35472
35463
35451
35436
35416
35389
35359
35334
35309
35277
35238
35197
35160
35122
35083
35052
35025
35003
34990
34986
34985
34994
35020
35072
35155
35265
35406
35578
35775
35989
36223
36476
36735
36991
37240
37482
37710
37910
38077
38211
38315
38389
38433
38451
38448
38426
38391
38343
38287
38229
38167
38098
38029
37968
37917
37870
37823
37779
37745
37722
37700
37672
37641
37612
37576
37531
37487
37446
37398
37344
37292
37239
37178
37112
37052
36997
36944
36890
36840
36798
36761
36729
36705
36691
36684
36680
36680
36680
36683
36688
36695
36700
36705
36709
36707
36705
36708
36709
36701
36688
36673
36656
36631
36596
36557
36519
36477
36431
36387
36347
36299
36243
36189
36142
36097
36054
36016
35984
35951
35914
35875
35834
35794
35753
35720
35693
35662
35628
35594
35563
35530
35498
35478
35467
35451
35431
35418
35406
35390
35373
35358
35342
35317
35287
35259
35231
35200
35174
35154
35136
35109
35076
35047
35022
34995
34965
34936
34911
34893
34883
34881
34891
34922
34980
35068
35184
35331
35510
35714
35941
36194
36464
36732
36984
37216
37435
37631
37792
37926
38038
38119
38167
38190
38197
38190
38166
38125
38072
38009
37939
37862
37786
37712
37641
37584
37542
37504
37466
37434
37410
37388
37362
37334
37309
37284
37252
37216
37176
37125
37063
36996
36931
36865
36798
36736
36683
36632
36586
36548
36516
36487
36461
36445
36436
36430
36429
36438
36453
36467
36481
36499
36514
36527
36543
36556
36553
36534
36515
36495
36465
36436
36414
36396
36373
36344
36312
36274
36228
36171
36105
36039
35976
35914
35861
35820
35784
35750
35716
35682
35647
35614
35583
35549
35516
35489
35469
35449
35423
35396
35368
35334
35297
35265
35240
35221
35198
35175
35157
35142
35124
35107
35097
35086
35066
35046
35029
35010
34987
34964
34949
34940
34927
34908
34887
34866
34843
34816
34785
34752
34726
34706
34683
34653
34619
34585
34553
34527
34517
34531
34567
34627
34720
34845
34999
35180
35390
35633
35901
36176
36449
36719
36977
37211
37415
37590
37732
37841
37927
37991
38028
38038
38024
37988
37933
37867
37796
37724
37652
37588
37528
37465
37402
37348
37303
37261
37222
37193
37169
37145
37119
37097
37073
37042
37006
36965
36916
36853
36775
36693
36612
36533
36458
36397
36355
36321
36288
36261
36244
36233
36228
36232
36247
36263
36277
36291
36309
36324
36335
36350
36373
36396
36410
36417
36418
36408
36388
36364
36332
36293
36250
36208
36165
36121
36080
36039
35994
35950
35910
35875
35835
35786
35739
35694
35646
35599
35559
35522
35482
35439
35402
35371
35342
35315
35293
35282
35276
35266
35249
35225
35200
35179
35166
35156
35142
35121
35099
35078
35054
35026
35000
34976
34948
34916
34890
34870
34843
34803
34758
34715
34672
34632
34606
34594
34591
34601
34634
34697
34788
34909
35062
35244
35450
35679
35930
36191
36449
36702
36952
37185
37390
37566
37714
37828
37909
37965
38000
38016
38016
38005
37981
37942
37889
37830
37768
37706
37649
37597
37547
37496
37449
37409
37376
37343
37312
37285
37258
37230
37201
37170
37136
37098
37058
37019
36977
36929
36875
36820
36763
36708
36659
36609
36557
36509
36467
36431
36404
36388
36384
36387
36396
36412
36433
36450
36460
36468
36476
36484
36487
36485
36479
36470
36455
36439
36427
36411
36389
36365
36339
36301
36256
36212
36172
36124
36070
36016
35968
35917
35863
35813
35765
35712
35657
35609
35573
35545
35523
35510
35502
35490
35471
35456
35450
35448
35445
35441
35431
35412
35387
35361
35332
35297
35261
35231
35207
35185
35160
35140
35128
35115
35096
35072
35045
35010
34971
34935
34903
34876
34862
34867
34891
34938
35020
35136
35285
35470
35688
35933
36193
36463
36740
37013
37273
37519
37751
37957
38131
38281
38402
38486
38534
38557
38559
38540
38505
38459
38408
38352
38289
38227
38174
38123
38074
38033
37999
37968
37943
37927
37914
37899
37883
37871
37858
37842
37824
37805
37785
37757
37719
37675
37621
37553
37481
37412
37348
37287
37229
37172
37115
37056
37002
36959
36930
36910
36899
36891
36886
36882
36877
36872
36867
36858
36848
36843
36837
36826
36813
36803
36790
36773
36756
36741
36721
36693
36663
36633
36599
36557
36511
36460
36405
36348
36292
36239
36191
36146
36102
36056
36004
35953
35907
35863
35815
35771
35736
35705
35676
35653
35636
35614
35585
35558
35537
35521
35504
35488
35474
35460
35443
35427
35408
35382
35350
35322
35296
35272
35252
35236
35220
35199
35175
35154
35133
35109
35084
35061
35036
35006
34973
34940
34905
34869
34841
34825
34820
34824
34844
34891
34967
35077
35228
35419
35636
35871
36125
36401
36685
36963
37230
37484
37719
37925
38105
38261
38388
38482
38550
38595
38616
38614
38597
38570
38533
38485
38429
38370
38314
38269
38235
38207
38178
38145
38117
38094
38073
38055
38041
38025
38002
37974
37945
37911
37874
37840
37804
37760
37709
37660
37610
37547
37473
37402
37344
37287
37230
37178
37128
37076
37025
36982
36952
36933
36922
36917
36914
36907
36899
36895
36894
36889
36877
36865
36856
36843
36825
36813
36805
36787
36759
36734
36710
36680
36646
36615
36581
36536
36481
36427
36377
36329
36282
36233
36180
36125
36066
36007
35953
35904
35858
35815
35775
35738
35708
35677
35645
35615
35589
35561
35527
35495
35469
35443
35415
35391
35372
35351
35330
35307
35284
35263
35242
35222
35206
35192
35175
35156
35138
35119
35096
35073
35054
35039
35022
35000
34979
34959
34935
34908
34883
34856
34825
34799
34782
34765
34743
34720
34695
34669
34643
34617
34590
34561
34533
34507
34481
34452
34421
34396
34381
34382
34408
34466
34552
34666
34812
34999
35221
35465
35730
36012
36302
36590
36868
37133
37383
37609
37803
37961
38083
38175
38242
38283
38296
38285
38258
38216
38162
38100
38040
37983
37927
37877
37835
37792
37750
37717
37695
37677
37661
37651
37646
37636
37622
37613
37598
37568
37526
37483
37437
37381
37320
37264
37208
37146
37085
37028
36972
36913
36855
36804
36756
36704
36653
36609
36571
36538
36517
36506
36498
36497
36503
36520
36544
36565
36575
36580
36580
36573
36559
36543
36527
36508
36488
36472
36449
36410
36359
36309
36258
36199
36138
36083
36032
35979
35928
35885
35847
35807
35761
35718
35682
35643
35607
35575
35544
35513
35483
35453
35421
35388
35355
35330
35311
35296
35281
35267
35248
35224
35203
35182
35155
35127
35104
35087
35069
35049
35033
35018
34998
34976
34959
34942
34918
34889
34862
34837
34810
34779
34747
34717
34692
34669
34649
34627
34605
34588
34573
34560
34551
34545
34532
34512
34490
34474
34460
34441
34417
34390
34358
34325
34298
34276
34256
34237
34223
34217
34211
34197
34187
34189
34205
34244
34318
34432
34574
34742
34944
35177
35431
35697
35975
36260
36538
36799
37041
37254
37431
37571
37682
37765
37813
37826
37813
37784
37744
37694
37643
37592
37536
37473
37412
37356
37301
37247
37200
37160
37122
37088
37064
37045
37014
36973
36932
36897
36867
36833
36797
36760
36720
36674
36625
36574
36514
36444
36372
36306
36246
36190
36141
36100
36065
36039
36022
36011
36004
36001
36003
36003
36001
36001
36004
36004
36002
36004
36009
36012
36011
36002
35983
35953
35917
35876
35826
35769
35712
35659
35613
35572
35537
35506
35475
35443
35417
35397
35366
35321
35269
35219
35170
35119
35070
35026
34987
34950
34915
34882
34850
34822
34794
34764
34730
34700
34684
34680
34666
34638
34609
34579
34547
34519
34496
34471
34443
34413
34386
34365
34340
34312
34289
34267
34241
34214
34191
34165
34138
34116
34101
34087
34074
34062
34049
34033
34014
33996
33985
33977
33969
33959
33946
33923
33895
33868
33841
33807
33774
33744
33710
33675
33649
33633
33618
33601
33587
33574
33557
33542
33530
33522
33520
33527
33550
33594
33659
33749
33872
34031
34223
34441
34680
34932
35185
35436
35685
35928
36150
36340
36502
36638
36738
36803
36841
36859
36861
36847
36822
36788
36739
36678
36615
36552
36480
36405
36338
36281
36227
36174
36129
36090
36051
36011
35974
35937
35893
35844
35793
35735
35669
35598
35528
35458
35385
35316
35255
35199
35148
35108
35080
35057
35040
35030
35025
35023
35026
35043
35066
35087
35107
35130
35148
35156
35161
35165
35159
35148
35141
35140
35135
35120
35098
35072
35039
35002
34969
34937
34897
34852
34813
34781
34747
34712
34678
34645
34606
34564
34527
34496
34466
34438
34411
34382
34350
34321
34300
34280
34255
34234
34217
34197
34173
34152
34135
34114
34090
34070
34055
34036
34013
33994
33980
33965
33949
33934
33921
33905
33884
33863
33848
33840
33838
33836
33834
33833
33826
33811
33791
33772
33748
33722
33700
33679
33654
33631
33613
33596
33577
33562
33549
33534
33519
33508
33500
33499
33508
33534
33577
33639
33727
33853
34013
34200
34409
34640
34886
35143
35405
35664
35901
36113
36309
36483
36623
36725
36796
36846
36871
36871
36854
36822
36780
36729
36673
36616
36557
36495
36439
36392
36350
36308
36271
36239
36204
36168
36135
36106
36075
36038
36002
35966
35925
35881
35836
35786
35727
35666
35611
35562
35512
35459
35412
35377
35347
35320
35302
35294
35286
35282
35288
35297
35301
35306
35317
35329
35335
35340
35347
35352
35350
35346
35345
35343
35335
35321
35301
35273
35240
35210
35183
35154
35123
35089
35050
35002
34949
34902
34862
34817
34767
34721
34680
34641
34604
34575
34551
34526
34501
34478
34454
34428
34402
34378
34351
34322
34297
34278
34260
34241
34226
34211
34196
34185
34181
34179
34171
34160
34148
34133
34116
34101
34089
34077
34064
34051
34035
34013
33986
33964
33945
33924
33896
33868
33844
33822
33801
33786
33774
33762
33752
33742
33734
33730
33721
33709
33705
33713
33736
33786
33873
33998
34156
34348
34569
34807
35054
35308
35566
35823
36077
36320
36543
36737
36905
37050
37166
37254
37319
37360
37376
37370
37351
37321
37276
37222
37172
37125
37077
37030
36993
36964
36936
36910
36891
36876
36857
36836
36811
36785
36765
36756
36752
36741
36719
36689
36656
36619
36574
36523
36471
36419
36368
36321
36277
36230
36182
36146
36119
36093
36067
36039
36011
35981
35949
35919
35905
35902
35901
35898
35898
35904
35909
35907
35906
35907
35904
35895
35885
35870
35846
35818
35789
35756
35715
35671
35626
35576
35523
35470
35421
35376
35334
35298
35268
35236
35203
35174
35146
35116
35089
35071
35056
35034
35005
34976
34947
34918
34891
34862
34828
34790
34761
34740
34719
34697
34681
34671
34660
34648
34644
34643
34637
34625
34612
34593
34571
34552
34541
34531
34515
34496
34477
34456
34437
34422
34407
34388
34362
34336
34319
34302
34279
34257
34235
34209
34177
34145
34115
34086
34060
34040
34025
34019
34023
34043
34089
34166
34270
34403
34570
34768
34989
35228
35486
35757
36026
36289
36547
36794
37024
37228
37400
37543
37657
37742
37797
37822
37825
37812
37784
37744
37695
37647
37599
37546
37491
37439
37394
37356
37326
37300
37277
37254
37233
37216
37198
37180
37166
37154
37136
37111
37089
37065
37031
36991
36949
36901
36839
36772
36708
36644
36581
36527
36486
36450
36414
36378
36345
36316
36289
36266
36253
36245
36239
36236
36239
36240
36237
36233
36230
36228
36224
36221
36218
36213
36199
36176
36151
36125
36096
36068
36043
36017
35989
35956
35918
35875
35824
35767
35715
35668
35620
35576
35537
35494
35443
35393
35350
35312
35278
35247
35218
35184
35146
35113
35089
35069
35048
35032
35019
34999
34970
34942
34916
34891
34868
34849
34829
34808
34786
34769
34755
34738
34719
34701
34683
34662
34642
34627
34613
34596
34582
34574
34568
34555
34542
34527
34505
34478
34451
34427
34400
34373
34350
34335
34321
34304
34285
34268
34253
34234
34214
34193
34166
34136
34110
34087
34059
34034
34021
34017
34015
34013
34021
34045
34091
34162
34267
34413
34592
34801
35041
35306
35579
35853
36128
36394
36641
36871
37083
37267
37420
37545
37645
37716
37760
37781
37785
37772
37746
37709
37661
37604
37544
37485
37428
37371
37320
37278
37240
37207
37187
37176
37164
37149
37135
37126
37115
37101
37085
37065
37033
36991
36948
36903
36850
36793
36739
36689
36636
36586
36542
36501
36461
36424
36394
36368
36342
36319
36301
36284
36268
36262
36267
36277
36286
36296
36309
36319
36320
36314
36306
36295
36280
36264
36249
36232
36209
36183
36154
36116
36071
36027
35983
35932
35881
35835
35793
35753
35717
35685
35654
35622
35591
35563
35534
35500
35463
35429
35395
35360
35327
35299
35271
35240
35207
35179
35153
35123
35094
35076
35066
35053
35032
35012
34997
34976
34946
34919
34896
34869
34839
34810
34781
34757
34740
34733
34729
34720
34708
34696
34682
34666
34651
34632
34607
34585
34574
34570
34561
34540
34511
34475
34437
34408
34392
34383
34371
34358
34343
34321
34297
34279
34266
34252
34235
34218
34200
34179
34158
34138
34115
34091
34068
34049
34032
34010
33991
33984
33990
34007
34036
34085
34162
34271
34416
34599
34814
35054
35310
35575
35844
36107
36358
36600
36826
37030
37207
37356
37476
37564
37623
37659
37673
37662
37635
37602
37567
37524
37474
37426
37377
37328
37284
37250
37216
37179
37149
37124
37092
37058
37024
36990
36954
36920
36891
36863
36831
36796
36759
36717
36667
36613
36560
36506
36451
36402
36360
36321
36280
36238
36202
36171
36143
36119
36105
36097
36092
36092
36098
36105
36103
36095
36091
36092
36093
36094
36102
36111
36113
36109
36103
36092
36070
36037
35997
35950
35897
35840
35782
35730
35683
35642
35607
35573
35538
35501
35463
35423
35380
35338
35305
35274
35244
35216
35188
35153
35115
35084
35059
35031
35004
34982
34963
34943
34919
34897
34876
34853
34830
34814
34801
34780
34752
34728
34708
34684
34659
34642
34628
34611
34593
34574
34555
34535
34511
34489
34465
34442
34421
34400
34379
34357
34340
34333
34329
34327
34324
34317
34303
34285
34270
34257
34242
34228
34220
34213
34196
34166
34135
34108
34080
34050
34022
33995
33964
33934
33912
33894
33873
33849
33826
33801
33775
33750
33730
33710
33696
33698
33722
33772
33851
33966
34117
34296
34500
34728
34975
35231
35491
35753
36008
36246
36467
36670
36845
36985
37094
37177
37238
37276
37295
37298
37280
37242
37194
37139
37077
37011
36945
36880
36816
36757
36705
36656
36607
36567
36538
36510
36481
36453
36430
36408
36385
36358
36326
36286
36238
36186
36134
36079
36018
35959
35908
35861
35820
35788
35764
35742
35723
35710
35703
35694
35679
35669
35669
35673
35682
35698
35717
35733
35745
35759
35773
35782
35786
35790
35792
35787
35775
35755
35726
35688
35641
35593
35547
35499
35451
35405
35361
35318
35275
35236
35199
35163
35126
35092
35061
35027
34992
34960
34928
34895
34866
34843
34820
34794
34772
34749
34719
34685
34657
34638
34619
34601
34588
34572
34549
34528
34507
34483
34458
34438
34423
34409
34394
34382
34373
34361
34345
34328
34313
34302
34295
34293
34298
34300
34291
34273
34255
34238
34221
34206
34193
34174
34140
34099
34065
34035
34006
33981
33959
33939
33919
33901
33887
33878
33870
33863
33855
33848
33848
33864
33901
33964
34058
34190
34356
34548
34760
34987
35221
35459
35698
35936
36162
36367
36550
36714
36857
36970
37053
37113
37150
37164
37165
37156
37134
37101
37060
37013
36961
36905
36848
36796
36749
36702
36653
36605
36559
36517
36483
36453
36425
36401
36379
36354
36322
36283
36242
36196
36143
36087
36031
35972
35911
35857
35815
35779
35750
35733
35721
35709
35697
35689
35682
35672
35665
35673
35693
35710
35718
35726
35736
35741
35743
35748
35751
35748
35737
35726
35717
35698
35670
35639
35604
35564
35523
35488
35453
35413
35372
35334
35295
35247
35196
35153
35114
35076
35042
35012
34984
34955
34926
34905
34891
34876
34855
34834
34813
34795
34776
34756
34737
34712
34680
34649
34625
34605
34590
34582
34573
34563
34553
34547
34538
34522
34501
34484
34465
34438
34406
34376
34349
34332
34322
34315
34310
34301
34290
34278
34261
34240
34221
34203
34183
34160
34142
34129
34111
34089
34066
34044
34023
34005
33988
33972
33956
33947
33949
33959
33977
34012
34072
34163
34294
34467
34670
34894
35137
35393
35656
35918
36174
36418
36646
36849
37027
37185
37322
37433
37520
37585
37626
37635
37623
37604
37577
37538
37496
37456
37418
37378
37335
37292
37247
37204
37170
37146
37127
37111
37097
37088
37082
37075
37068
37058
37048
37037
37026
37006
36973
36932
36883
36826
36765
36705
36648
36597
36552
36509
36469
36432
36399
36370
36347
36329
36311
36292
36280
36278
36279
36282
36291
36305
36314
36321
36334
36350
36360
36359
36350
36336
36319
36297
36277
36256
36228
36199
36174
36144
36106
36069
36033
35993
35948
35905
35858
35807
35755
35707
35666
35629
35597
35570
35545
35520
35501
35487
35474
35459
35446
35433
35415
35391
35373
35361
35346
35325
35305
35291
35279
35266
35255
35242
35220
35195
35173
35152
35125
35094
35068
35048
35028
35008
34985
34957
34930
34907
34887
34866
34845
34828
34817
34810
34803
34794
34783
34773
34763
34751
34739
34727
34712
34692
34672
34653
34627
34599
34575
34555
34534
34518
34517
34535
34570
34630
34731
34870
35036
35228
35453
35709
35979
36253
36529
36799
37053
37287
37502
37694
37854
37986
38097
38175
38221
38242
38244
38233
38212
38187
38164
38137
38101
38060
38020
37974
37923
37877
37838
37804
37776
37757
37750
37742
37731
37722
37713
37699
37685
37678
37675
37669
37659
37645
37621
37583
37536
37483
37423
37351
37274
37199
37130
37070
37020
36975
36931
36892
36864
36844
36823
36806
36801
36805
36808
36807
36808
36813
36820
36825
36830
36829
36818
36800
36781
36766
36748
36725
36700
36671
36633
36587
36549
36520
36487
36451
36418
36383
36339
36289
36236
36183
36131
36077
36018
35956
35893
35839
35797
35762
35736
35715
35693
35672
35654
35639
35624
35607
35589
35570
35547
35518
35490
35468
35448
35428
35409
35394
35384
35377
35374
35374
35368
35352
35332
35309
35285
35262
35242
35226
35213
35200
35191
35188
35184
35176
35168
35160
35147
35132
35120
35109
35096
35083
35073
35061
35046
35032
35019
35003
34980
34953
34927
34898
34868
34847
34838
34829
34817
34807
34811
34836
34887
34973
35099
35265
35466
35693
35943
36213
36485
36757
37031
37303
37564
37807
38028
38218
38371
38490
38580
38642
38679
38697
38696
38681
38652
38611
38563
38513
38464
38419
38377
38340
38307
38280
38257
38235
38213
38197
38187
38177
38164
38157
38151
38138
38120
38102
38081
38050
38011
37973
37941
37902
37857
37813
37771
37727
37679
37631
37585
37543
37506
37476
37450
37428
37412
37405
37402
37398
37396
37397
37393
37388
37380
37368
37353
37342
37337
37334
37327
37320
37319
37314
37298
37276
37250
37218
37178
37136
37093
37047
36993
36939
36888
36840
36793
36751
36713
36669
36617
36564
36510
36460
36421
36392
36364
36335
36310
36294
36278
36258
36235
36214
36192
36166
36144
36128
36111
36090
36069
36049
36027
35999
35967
35935
35902
35873
35850
35826
35795
35761
35735
35718
35701
35680
35660
35646
35634
35619
35606
35599
35591
35581
35571
35559
35540
35511
35476
35437
35396
35358
35328
35306
35281
35254
35234
35218
35199
35176
35152
35130
35109
35087
35069
35057
35054
35067
35111
35185
35291
35431
35606
35809
36035
36280
36540
36800
37060
37324
37583
37826
38050
38257
38437
38579
38683
38754
38798
38817
38814
38794
38760
38711
38654
38594
38535
38475
38419
38371
38330
38289
38246
38208
38179
38151
38121
38096
38075
38049
38021
37993
37965
37935
37900
37861
37820
37771
37716
37662
37610
37558
37507
37451
37392
37342
37308
37283
37260
37246
37242
37238
37232
37229
37238
37254
37271
37288
37308
37329
37340
37345
37346
37342
37329
37312
37299
37286
37268
37244
37220
37196
37165
37123
37080
37036
36987
36935
36885
36835
36783
36732
36684
36638
36593
36548
36510
36481
36457
36432
36402
36367
36331
36299
36272
36249
36234
36224
36210
36188
36164
36140
36118
36099
36085
36074
36061
36043
36023
36006
35988
35969
35956
35950
35942
35926
35906
35886
35865
35838
35811
35787
35760
35729
35703
35681
35656
35626
35600
35577
35552
35527
35506
35486
35461
35433
35409
35385
35360
35344
35343
35357
35390
35452
35549
35684
35847
36039
36260
36499
36745
36995
37252
37506
37744
37963
38162
38339
38483
38593
38677
38735
38764
38770
38760
38736
38696
38647
38597
38545
38487
38426
38368
38315
38264
38217
38175
38139
38107
38083
38065
38045
38017
37985
37949
37908
37867
37826
37786
37739
37682
37626
37577
37527
37471
37415
37362
37311
37269
37242
37228
37218
37211
37212
37219
37225
37230
37241
37260
37283
37308
37336
37357
37363
37362
37363
37359
37343
37316
37285
37255
37220
37183
37147
37106
37058
37012
36973
36936
36897
36858
36818
36779
36743
36709
36672
36630
36583
36535
36488
36443
36404
36375
36354
36332
36308
36284
36265
36249
36234
36225
36218
36207
36195
36188
36187
36182
36171
36160
36152
36138
36121
36100
36075
36049
36019
35987
35957
35929
35906
35890
35872
35853
35835
35817
35795
35772
35755
35743
35731
35720
35717
35721
35739
35782
35854
35952
36082
36250
36453
36682
36932
37204
37488
37768
38037
38296
38536
38746
38926
39089
39233
39348
39428
39483
39522
39540
39533
39511
39480
39436
39377
39313
39252
39196
39147
39106
39067
39023
38979
38950
38935
38925
38919
38917
38919
38918
38908
38895
38881
38855
38813
38758
38692
38617
38541
38472
38411
38350
38291
38241
38200
38160
38121
38086
38056
38030
38007
37990
37977
37971
37972
37972
37971
37975
37981
37984
37981
37978
37973
37966
37955
37944
37934
37919
37898
37874
37850
37822
37786
37746
37705
37660
37610
37557
37506
37457
37405
37347
37290
37231
37168
37109
37062
37022
36983
36950
36926
36904
36880
36852
36823
36794
36768
36748
36735
36727
36721
36716
36707
36690
36670
36651
36629
36604
36580
36558
36531
36498
36469
36446
36423
36397
36371
36349
36329
36307
36281
36255
36230
36202
36169
36137
36104
36068
36035
36008
35981
35951
35923
35905
35898
35900
35919
35964
36035
36138
36276
36443
36635
36853
37102
37372
37653
37944
38238
38525
38796
39050
39282
39481
39642
39770
39868
39936
39976
39992
39991
39976
39949
39913
39876
39839
39793
39743
39697
39659
39625
39594
39573
39559
39547
39536
39531
39526
39516
39504
39491
39470
39438
39397
39352
39307
39261
39212
39157
39094
39025
38959
38894
38824
38757
38695
38631
38571
38523
38487
38454
38425
38405
38393
38384
38375
38371
38372
38376
38376
38378
38383
38386
38382
38373
38362
38347
38329
38313
38303
38294
38280
38261
38240
38211
38173
38126
38076
38022
37968
37919
37871
37824
37775
37727
37678
37623
37565
37508
37453
37399
37351
37305
37259
37213
37174
37145
37117
37088
37060
37036
37009
36977
36947
36920
36889
36852
36820
36791
36763
36740
36724
36713
36703
36688
36671
36650
36628
36609
36591
36568
36535
36501
36474
36452
36431
36410
36393
36374
36350
36324
36296
36262
36220
36180
36148
36121
36093
36067
36045
36021
35991
35963
35944
35937
35940
35952
35984
36044
36133
36256
36416
36610
36830
37074
37343
37629
37922
38212
38495
38762
39006
39223
39412
39567
39687
39779
39847
39892
39918
39928
39921
39901
39872
39833
39785
39733
39684
39643
39604
39564
39529
39499
39467
39437
39416
39399
39379
39359
39341
39322
39297
39266
39236
39205
39164
39115
39065
39017
38963
38902
38839
38777
38712
38642
38577
38521
38466
38417
38374
38338
38306
38276
38254
38243
38239
38237
38239
38248
38255
38253
38248
38243
38232
38218
38207
38195
38175
38152
38131
38110
38080
38045
38012
37978
37937
37892
37848
37803
37753
37701
37650
37597
37544
37490
37433
37379
37329
37280
37231
37184
37145
37116
37091
37066
37045
37026
37005
36984
36968
36957
36944
36927
36910
36894
36870
36840
36810
36774
36734
36696
36665
36639
36609
36581
36563
36553
36544
36533
36521
36505
36484
36459
36439
36422
36400
36373
36351
36336
36319
36299
36279
36259
36238
36217
36196
36175
36149
36116
36080
36046
36015
35991
35969
35942
35907
35869
35833
35798
35760
35721
35685
35653
35626
35613
35616
35633
35669
35738
35845
35979
36142
36343
36579
36838
37110
37395
37687
37976
38247
38496
38726
38929
39093
39221
39315
39379
39417
39432
39430
39415
39395
39374
39351
39315
39268
39221
39177
39132
39085
39045
39007
38972
38946
38929
38910
38888
38870
38856
38839
38821
38809
38801
38791
38775
38753
38719
38669
38611
38551
38486
38416
38347
38285
38228
38176
38135
38102
38072
38039
38008
37987
37972
37958
37948
37949
37954
37955
37957
37960
37964
37969
37972
37974
37972
37964
37952
37937
37913
37881
37841
37799
37757
37711
37664
37618
37568
37515
37465
37426
37389
37348
37304
37258
37210
37158
37107
37063
37021
36983
36949
36914
36874
36833
36795
36758
36717
36675
36639
36611
36582
36548
36514
36484
36456
36432
36414
36405
36393
36377
36362
36348
36329
36307
36289
36271
36246
36220
36202
36190
36176
36160
36148
36140
36129
36112
36091
36067
36039
36017
36010
36003
35982
35952
35919
35883
35844
35804
35767
35730
35692
35657
35629
35608
35594
35592
35607
35642
35706
35807
35941
36103
36291
36505
36741
36990
37251
37521
37786
38039
38273
38484
38668
38825
38954
39056
39129
39173
39192
39190
39166
39129
39085
39034
38975
38912
38850
38792
38734
38681
38635
38590
38547
38514
38493
38478
38465
38455
38446
38431
38402
38361
38313
38252
38178
38102
38028
37953
37875
37799
37731
37669
37613
37566
37535
37517
37504
37494
37490
37491
37494
37500
37512
37525
37541
37562
37580
37588
37590
37587
37579
37562
37542
37525
37507
37485
37466
37449
37430
37402
37364
37322
37284
37243
37197
37155
37117
37074
37026
36981
36935
36884
36832
36785
36741
36698
36660
36631
36608
36587
36572
36564
36556
36547
36537
36525
36507
36486
36461
36430
36391
36352
36320
36295
36274
36253
36235
36221
36200
36176
36151
36122
36091
36064
36045
36033
36022
36006
35988
35971
35952
35932
35914
35895
35872
35846
35819
35794
35765
35736
35714
35699
35689
35685
35697
35729
35782
35863
35979
36129
36310
36517
36746
36992
37249
37512
37772
38026
38271
38501
38706
38887
39042
39169
39261
39319
39352
39365
39359
39339
39313
39283
39241
39191
39144
39104
39064
39026
38992
38962
38923
38881
38849
38821
38787
38749
38721
38707
38692
38672
38660
38653
38643
38624
38599
38562
38510
38444
38372
38300
38226
38153
38084
38021
37963
37909
37867
37841
37821
37798
37780
37772
37765
37757
37755
37759
37764
37765
37770
37780
37782
37775
37770
37766
37757
37743
37728
37707
37674
37634
37592
37545
37495
37445
37394
37342
37284
37223
37163
37102
37045
36997
36953
36910
36873
36843
36813
36777
36742
36710
36677
36640
36604
36567
36526
36486
36457
36438
36421
36403
36388
36375
36358
36341
36327
36317
36300
36276
36256
36241
36226
36204
36182
36167
36150
36128
36109
36093
36077
36056
36033
36013
35994
35969
35941
35912
35878
35840
35804
35769
35737
35710
35687
35671
35659
35655
35667
35692
35735
35810
35925
36076
36256
36471
36718
36982
37254
37533
37816
38093
38356
38600
38819
39007
39167
39304
39417
39499
39547
39569
39577
39570
39551
39522
39486
39443
39396
39348
39303
39264
39231
39205
39185
39169
39154
39141
39128
39111
39093
39078
39065
39051
39036
39022
39003
38977
38946
38914
38877
38829
38773
38707
38634
38558
38484
38409
38336
38273
38223
38184
38151
38120
38088
38056
38027
38006
37992
37980
37969
37961
37963
37977
37985
37981
37979
37981
37975
37964
37957
37951
37935
37911
37886
37861
37824
37774
37722
37669
37612
37553
37499
37450
37397
37342
37292
37247
37201
37157
37118
37080
37040
37000
36961
36924
36886
36853
36828
36804
36779
36756
36733
36710
36687
36668
36648
36626
36603
36582
36560
36533
36507
36484
36458
36430
36408
36390
36372
36351
36329
36308
36284
36258
36238
36223
36207
36188
36176
36172
36167
36156
36143
36131
36115
36094
36076
36060
36036
36003
35972
35947
35919
35886
35854
35829
35812
35802
35805
35827
35870
35939
36041
36181
36353
36557
36795
37059
37338
37629
37932
38234
38524
38800
39055
39280
39468
39620
39742
39834
39897
39934
39952
39954
39939
39908
39868
39820
39767
39715
39667
39623
39590
39565
39545
39527
39513
39505
39499
39493
39488
39486
39481
39465
39448
39431
39407
39369
39322
39272
39220
39162
39102
39044
38983
38915
38844
38778
38720
38663
38605
38558
38524
38495
38462
38427
38396
38371
38352
38335
38316
38298
38286
38276
38267
38264
38265
38266
38265
38263
38261
38257
38249
38239
38229
38211
38178
38134
38087
38039
37986
37929
37875
37827
37779
37732
37691
37656
37615
37567
37521
37479
37435
37384
37334
37292
37253
37208
37165
37135
37111
37082
37049
37024
37005
36988
36969
36948
36927
36903
36874
36844
36813
36783
36755
36726
36694
36663
36633
36602
36574
36554
36533
36505
36476
36449
36422
36395
36377
36366
36355
36340
36328
36318
36306
36288
36271
36255
36232
36206
36180
36153
36124
36095
36070
36045
36016
35985
35959
35936
35912
35890
35878
35876
35882
35910
35972
36064
36183
36336
36532
36758
37010
37290
37593
37904
38209
38508
38794
39057
39290
39492
39661
39794
39896
39974
40024
40041
40028
39999
39961
39913
39858
39804
39753
39701
39647
39592
39542
39492
39438
39392
39359
39329
39299
39274
39254
39234
39214
39197
39180
39152
39115
39077
39036
38983
38921
38860
38803
38745
38687
38634
38585
38534
38482
38434
38392
38353
38318
38291
38272
38256
38243
38239
38240
38243
38248
38256
38267
38277
38285
38290
38287
38278
38265
38251
38234
38220
38203
38178
38147
38113
38074
38027
37970
37911
37856
37801
37739
37675
37618
37566
37517
37474
37436
37398
37361
37328
37295
37258
37218
37186
37159
37130
37100
37074
37050
37024
36998
36979
36965
36944
36922
36908
36902
36895
36884
36875
36863
36846
36832
36821
36809
36791
36769
36743
36712
36678
36646
36623
36606
36593
36582
36569
36549
36528
36511
36498
36480
36455
36429
36404
36376
36348
36324
36305
36287
36270
36268
36286
36326
36390
36490
36630
36803
37005
37237
37495
37771
38055
38340
38621
38893
39146
39375
39576
39744
39879
39981
40052
40089
40093
40076
40050
40012
39962
39904
39843
39777
39710
39644
39580
39517
39457
39406
39360
39314
39273
39242
39214
39182
39148
39114
39076
39034
38989
38938
38876
38812
38750
38688
38623
38557
38498
38449
38407
38371
38344
38323
38305
38297
38298
38298
38295
38297
38305
38318
38331
38347
38368
38387
38400
38408
38413
38413
38398
38368
38336
38306
38268
38226
38186
38148
38104
38056
38011
37973
37935
37893
37848
37804
37756
37708
37661
37608
37558
37519
37489
37460
37435
37411
37382
37352
37327
37307
37287
37263
37241
37223
37202
37177
37156
37135
37107
37077
37051
37030
37011
36991
36973
36956
36938
36920
36907
36895
36882
36870
36862
36853
36840
36824
36805
36784
36760
36732
36701
36667
36633
36599
36569
36545
36520
36498
36476
36448
36423
36416
36436
36481
36555
36667
36822
37016
37244
37504
37792
38092
38397
38705
39011
39307
39582
39828
40049
40239
40393
40514
40605
40666
40695
40699
40688
40665
40627
40578
40523
40464
40401
40343
40292
40248
40214
40182
40144
40098
40053
40016
39987
39957
39926
39895
39866
39836
39806
39778
39752
39720
39682
39638
39585
39524
39459
39398
39341
39281
39218
39159
39108
39066
39032
39008
38986
38962
38946
38946
38955
38967
38982
38993
38995
38994
38998
39003
39006
39008
39006
38997
38979
38956
38930
38895
38856
38819
38781
38733
38675
38618
38572
38530
38484
38437
38391
38340
38279
38214
38154
38095
38035
37979
37935
37901
37867
37832
37803
37776
37742
37709
37688
37673
37651
37622
37593
37563
37526
37486
37444
37400
37357
37324
37297
37275
37257
37246
37239
37228
37213
37200
37188
37171
37154
37143
37131
37116
37097
37075
37049
37014
36976
36942
36910
36878
36857
36844
36824
36795
36767
36742
36713
36683
36660
36644
36629
36617
36617
36633
36664
36720
36808
36933
37098
37308
37559
37837
38134
38443
38761
39082
39395
39696
39980
40240
40466
40658
40815
40935
41019
41070
41099
41106
41088
41054
41012
40964
40907
40840
40772
40706
40634
40562
40501
40446
40393
40344
40308
40284
40270
40264
40261
40252
40234
40217
40203
40183
40152
40117
40078
40027
39966
39906
39845
39781
39717
39653
39589
39522
39458
39401
39350
39303
39266
39243
39224
39207
39200
39202
39206
39211
39216
39219
39220
39214
39203
39189
39175
39165
39153
39133
39102
39066
39029
38993
38957
38921
38885
38850
38809
38763
38717
38673
38627
38572
38514
38460
38412
38367
38325
38283
38237
38189
38145
38104
38060
38013
37971
37935
37898
37860
37827
37796
37762
37730
37704
37681
37654
37622
37594
37572
37550
37530
37516
37500
37478
37455
37433
37408
37383
37359
37333
37300
37267
37240
37217
37194
37170
37153
37137
37117
37094
37068
37037
36999
36958
36920
36883
36847
36817
36789
36757
36728
36712
36701
36682
36658
36637
36619
36598
36577
36561
36553
36551
36560
36590
36646
36736
36864
37035
37242
37476
37734
38017
38318
38629
38947
39261
39560
39835
40080
40291
40467
40603
40702
40776
40827
40852
40853
40836
40801
40749
40688
40628
40567
40501
40432
40369
40313
40259
40210
40168
40127
40090
40064
40049
40033
40015
39999
39979
39950
39917
39879
39832
39775
39710
39647
39590
39536
39479
39420
39358
39296
39238
39186
39137
39089
39048
39020
39002
38989
38975
38965
38960
38955
38949
38948
38951
38956
38967
38982
38990
38990
38986
38975
38955
38928
38898
38864
38827
38788
38747
38702
38655
38607
38556
38501
38446
38391
38340
38296
38252
38206
38165
38124
38079
38036
37999
37961
37919
37877
37839
37802
37764
37727
37690
37652
37617
37593
37577
37562
37538
37508
37482
37458
37430
37401
37380
37366
37350
37328
37307
37288
37265
37241
37220
37198
37172
37145
37121
37100
37078
37060
37045
37026
37005
36990
36979
36965
36954
36945
36927
36900
36872
36853
36837
36817
36795
36769
36734
36691
36651
36615
36577
36539
36509
36486
36467
36448
36428
36409
36388
36362
36335
36316
36309
36308
36322
36360
36424
36515
36644
36816
37026
37267
37539
37834
38134
38434
38734
39025
39297
39548
39776
39975
40136
40264
40361
40424
40455
40459
40446
40418
40377
40326
40268
40205
40138
40076
40019
39964
39913
39871
39833
39793
39754
39724
39698
39672
39647
39626
39604
39581
39554
39525
39491
39450
39399
39341
39277
39207
39136
39067
38997
38922
38855
38803
38761
38724
38690
38661
38634
38608
38588
38583
38587
38593
38596
38600
38604
38611
38619
38626
38629
38624
38615
38602
38586
38562
38531
38495
38453
38402
38348
38299
38252
38203
38155
38110
38065
38015
37966
37921
37874
37824
37776
37730
37685
37640
37597
37559
37525
37497
37474
37451
37423
37391
37364
37342
37318
37291
37266
37248
37230
37207
37182
37153
37115
37074
37043
37018
36993
36969
36949
36932
36912
36892
36875
36854
36829
36809
36796
36783
36765
36743
36719
36695
36671
36651
36633
36612
36585
36562
36545
36528
36507
36486
36463
36432
36395
36360
36329
36297
36266
36240
36215
36185
36157
36136
36115
36087
36056
36023
35985
35945
35912
35887
35862
35838
35824
35826
35849
35904
35997
36128
36294
36494
36729
36992
37268
37547
37829
38105
38368
38615
38843
39049
39221
39360
39471
39550
39592
39601
39591
39565
39520
39460
39399
39338
39274
39206
39141
39079
39019
38963
38915
38871
38828
38790
38756
38725
38691
38658
38632
38605
38573
38534
38490
38438
38379
38317
38254
38193
38133
38071
38005
37937
37875
37828
37792
37766
37747
37735
37730
37732
37746
37771
37798
37823
37845
37867
37886
37898
37905
37908
37905
37892
37873
37851
37830
37811
37793
37771
37743
37715
37686
37653
37616
37577
37541
37501
37459
37419
37382
37343
37297
37250
37208
37171
37133
37094
37061
37034
37007
36982
36965
36948
36927
36908
36888
36861
36828
36798
36773
36751
36732
36719
36708
36692
36672
36657
36642
36619
36595
36575
36558
36540
36525
36513
36498
36479
36462
36449
36434
36411
36386
36363
36338
36309
36281
36258
36233
36206
36180
36156
36133
36109
36084
36066
36052
36041
36034
36041
36066
36106
36163
36247
36363
36508
36680
36884
37118
37368
37625
37884
38138
38374
38592
38792
38970
39123
39249
39349
39421
39460
39477
39480
39468
39443
39408
39369
39325
39276
39223
39169
39109
39042
38975
38914
38857
38810
38778
38760
38745
38726
38704
38675
38636
38594
38552
38502
38442
38378
38316
38251
38179
38110
38049
37994
37945
37906
37873
37846
37831
37830
37837
37847
37862
37882
37906
37929
37953
37978
37998
38009
38012
38015
38016
38010
37997
37979
37957
37927
37894
37866
37841
37810
37776
37745
37714
37682
37647
37609
37571
37532
37489
37443
37392
37338
37286
37239
37196
37155
37120
37091
37065
37034
37005
36985
36968
36948
36935
36927
36913
36894
36879
36867
36853
36838
36825
36816
36806
36793
36781
36771
36754
36732
36709
36685
36658
36632
36614
36598
36578
36552
36528
36503
36473
36445
36428
36417
36403
36389
36379
36377
36387
36424
36498
36606
36748
36925
37130
37359
37607
37869
38136
38399
38651
38897
39132
39342
39521
39674
39807
39913
39989
40040
40071
40078
40065
40041
40008
39965
39918
39876
39836
39794
39754
39723
39699
39674
39647
39627
39611
39593
39575
39559
39540
39521
39504
39489
39474
39458
39440
39415
39383
39339
39283
39216
39139
39062
38991
38923
38859
38805
38765
38729
38696
38674
38660
38649
38640
38639
38644
38650
38652
38653
38654
38649
38638
38628
38622
38616
38611
38610
38606
38592
38574
38560
38546
38526
38500
38474
38443
38402
38359
38317
38272
38217
38154
38093
38040
37990
37942
37904
37879
37854
37823
37792
37762
37727
37688
37654
37625
37597
37572
37549
37527
37507
37492
37482
37469
37452
37437
37427
37415
37397
37381
37371
37356
37337
37323
37312
37294
37273
37253
37234
37217
37203
37189
37176
37157
37132
37104
37077
37049
37021
36999
36975
36948
36928
36915
36909
36920
36960
37033
37134
37267
37437
37636
37854
38095
38360
38641
38920
39192
39458
39715
39952
40165
40351
40508
40627
40707
40758
40785
40788
40775
40752
40719
40680
40643
40611
40581
40552
40522
40498
40483
40467
40451
40445
40445
40444
40440
40441
40447
40445
40432
40419
40411
40396
40369
40337
40301
40257
40206
40152
40093
40028
39958
39890
39825
39758
39694
39642
39596
39554
39518
39491
39471
39457
39453
39454
39457
39455
39455
39463
39477
39490
39498
39504
39503
39494
39485
39474
39457
39434
39408
39379
39345
39310
39277
39244
39204
39158
39109
39053
38995
38941
38893
38840
38784
38733
38689
38647
38607
38577
38552
38523
38487
38452
38426
38398
38361
38322
38287
38254
38223
38197
38180
38168
38156
38144
38137
38128
38114
38097
38076
38051
38020
37992
37966
37937
37911
37890
37874
37858
37844
37833
37823
37805
37784
37765
37744
37718
37688
37658
37630
37605
37581
37558
37535
37512
37489
37459
37425
37390
37357
37324
37295
37276
37270
37275
37294
37337
37416
37528
37674
37863
38089
38339
38601
38873
39155
39438
39717
39991
40250
40480
40678
40849
40994
41106
41185
41241
41277
41289
41280
41260
41233
41197
41152
41110
41072
41030
40984
40941
40908
40883
40863
40853
40851
40845
40837
40834
40834
40830
40822
40810
40792
40762
40720
40671
40618
40560
40497
40435
40370
40299
40227
40161
40103
40048
39994
39943
39897
39860
39833
39817
39809
39812
39823
39836
39840
39835
39836
39841
39842
39838
39834
39825
39808
39789
39775
39759
39733
39701
39670
39641
39609
39572
39532
39484
39425
39362
39306
39256
39201
39142
39087
39037
38988
38943
38906
38872
38836
38795
38751
38705
38655
38609
38570
38533
38493
38454
38416
38379
38339
38303
38277
38257
38236
38214
38192
38173
38154
38136
38121
38107
38092
38076
38060
38042
38024
38007
37988
37969
37954
37943
37933
37918
37902
37886
37862
37832
37808
37789
37771
37757
37746
37734
37715
37686
37648
37608
37569
37529
37489
37453
37420
37391
37368
37357
37360
37375
37411
37473
37562
37686
37847
38041
38265
38514
38783
39063
39347
39631
39910
40174
40417
40636
40827
40983
41102
41191
41255
41293
41311
41316
41305
41277
41235
41190
41144
41094
41043
40997
40955
40912
40871
40839
40814
40790
40771
40758
40746
40731
40716
40704
40693
40669
40627
40573
40506
40423
40337
40259
40190
40123
40055
39993
39940
39896
39859
39829
39803
39778
39756
39742
39737
39738
39745
39756
39769
39783
39794
39804
39807
39802
39797
39795
39787
39773
39761
39755
39747
39726
39696
39659
39615
39562
39504
39450
39393
39330
39267
39207
39149
39089
39029
38975
38921
38870
38826
38789
38756
38724
38699
38679
38657
38634
38618
38606
38591
38568
38547
38529
38510
38492
38477
38460
38435
38407
38387
38379
38372
38359
38341
38318
38290
38262
38238
38214
38190
38168
38146
38121
38091
38061
38033
38004
37973
37942
37907
37870
37839
37811
37785
37761
37738
37721
37713
37713
37725
37757
37819
37912
38040
38208
38408
38628
38863
39115
39379
39643
39904
40166
40414
40629
40814
40966
41086
41178
41247
41290
41303
41293
41271
41232
41178
41114
41050
40988
40926
40869
40822
40778
40737
40704
40678
40655
40634
40614
40593
40565
40532
40500
40466
40423
40371
40314
40251
40177
40100
40031
39973
39917
39866
39829
39807
39789
39776
39772
39771
39768
39764
39763
39767
39774
39788
39805
39818
39826
39830
39831
39830
39824
39821
39820
39809
39789
39766
39742
39711
39677
39647
39620
39583
39534
39481
39428
39371
39317
39268
39222
39175
39125
39076
39031
38985
38946
38919
38897
38870
38841
38815
38790
38766
38748
38735
38719
38698
38675
38651
38622
38592
38564
38542
38523
38507
38498
38494
38492
38487
38480
38472
38459
38438
38411
38385
38356
38319
38277
38241
38209
38178
38152
38128
38104
38075
38046
38018
37987
37955
37935
37937
37960
38006
38083
38191
38333
38512
38721
38956
39217
39498
39794
40101
40405
40697
40970
41218
41437
41625
41785
41915
42015
42090
42144
42173
42174
42155
42126
42090
42051
42010
41970
41929
41883
41835
41788
41741
41698
41666
41643
41625
41611
41607
41614
41623
41629
41627
41614
41589
41555
41518
41471
41413
41349
41278
41200
41117
41034
40958
40891
40831
40777
40733
40694
40655
40623
40603
40585
40569
40558
40556
40561
40565
40567
40570
40573
40577
40581
40583
40577
40560
40538
40517
40493
40460
40429
40407
40383
40345
40300
40253
40201
40142
40084
40032
39979
39927
39881
39841
39800
39761
39726
39698
39670
39640
39611
39584
39551
39507
39461
39419
39379
39344
39321
39306
39288
39266
39249
39236
39218
39197
39178
39157
39134
39115
39103
39098
39098
39099
39103
39111
39117
39117
39111
39100
39090
39081
39068
39045
39016
38991
38967
38938
38911
38888
38863
38838
38818
38802
38786
38766
38752
38748
38751
38762
38792
38846
38922
39032
39184
39371
39584
39818
40076
40357
40648
40937
41225
41504
41763
41993
42195
42366
42499
42598
42669
42714
42731
42728
42712
42684
42643
42596
42548
42500
42451
42404
42364
42330
42299
42275
42260
42250
42237
42221
42214
42213
42211
42206
42199
42184
42161
42129
42089
42041
41983
41919
41854
41785
41708
41627
41548
41466
41383
41307
41243
41187
41137
41097
41071
41051
41035
41025
41016
41008
41001
40994
40991
40986
40977
40965
40953
40939
40927
40918
40905
40885
40860
40836
40812
40777
40734
40689
40643
40594
40540
40482
40417
40346
40275
40210
40152
40096
40040
39992
39955
39919
39880
39835
39788
39741
39696
39652
39611
39577
39549
39523
39496
39472
39452
39432
39407
39383
39361
39336
39306
39276
39247
39219
39188
39154
39120
39079
39032
38995
38967
38940
38917
38899
38883
38866
38844
38819
38789
38751
38710
38678
38652
38625
38596
38565
38532
38495
38460
38429
38399
38367
38335
38308
38289
38271
38249
38228
38205
38173
38138
38113
38096
38078
38065
38062
38063
38070
38093
38141
38218
38326
38473
38664
38893
39154
39441
39745
40053
40358
40657
40952
41232
41486
41712
41911
42075
42197
42282
42340
42374
42386
42378
42352
42313
42262
42203
42144
42080
42011
41944
41886
41837
41801
41780
41767
41753
41739
41729
41723
41712
41696
41682
41663
41629
41584
41537
41483
41415
41338
41265
41198
41130
41059
40991
40928
40864
40797
40738
40691
40650
40616
40592
40576
40563
40555
40558
40560
40553
40543
40537
40535
40534
40534
40532
40523
40506
40490
40475
40453
40423
40392
40358
40315
40265
40217
40173
40125
40071
40018
39966
39912
39863
39823
39786
39749
39713
39678
39637
39591
39548
39511
39477
39444
39411
39377
39337
39295
39256
39218
39179
39142
39112
39087
39063
39037
39015
38996
38974
38954
38943
38939
38935
38933
38936
38938
38934
38926
38919
38908
38887
38859
38834
38813
38791
38771
38756
38740
38721
38699
38678
38662
38648
38634
38616
38584
38542
38503
38468
38429
38387
38356
38341
38327
38315
38311
38322
38344
38380
38443
38534
38655
38810
39000
39218
39454
39709
39979
40256
40535
40817
41087
41330
41541
41724
41873
41981
42053
42097
42112
42102
42074
42036
41991
41936
41873
41809
41746
41674
41602
41541
41488
41437
41394
41356
41318
41277
41239
41204
41171
41133
41089
41042
40985
40921
40854
40782
40707
40629
40556
40490
40422
40354
40294
40248
40214
40193
40186
40191
40199
40204
40212
40229
40248
40264
40282
40302
40321
40339
40358
40374
40383
40385
40381
40366
40341
40315
40288
40255
40215
40172
40130
40086
40035
39982
39929
39872
39812
39752
39698
39649
39605
39569
39538
39503
39465
39429
39401
39380
39359
39339
39323
39305
39281
39254
39227
39202
39174
39145
39120
39097
39072
39047
39022
38998
38971
38943
38920
38900
38880
38860
38843
38827
38809
38793
38779
38760
38737
38714
38690
38658
38620
38585
38558
38532
38506
38484
38471
38466
38477
38512
38577
38673
38799
38965
39171
39405
39657
39933
40229
40530
40830
41124
41402
41651
41865
42048
42196
42307
42385
42434
42452
42437
42403
42365
42323
42272
42216
42158
42099
42038
41982
41937
41899
41865
41832
41799
41763
41730
41707
41687
41660
41632
41614
41599
41576
41544
41510
41475
41430
41374
41315
41252
41183
41113
41044
40978
40910
40848
40797
40752
40708
40668
40637
40620
40612
40608
40608
40608
40612
40621
40632
40637
40635
40634
40632
40621
40602
40580
40557
40528
40495
40462
40430
40392
40351
40311
40267
40219
40167
40112
40053
39987
39922
39862
39801
39737
39677
39627
39579
39532
39495
39465
39433
39400
39372
39347
39320
39292
39268
39244
39214
39183
39159
39138
39112
39083
39058
39034
39011
38998
38989
38973
38950
38927
38903
38879
38858
38847
38840
38830
38818
38808
38797
38779
38754
38726
38694
38659
38622
38584
38545
38508
38473
38443
38420
38410
38420
38456
38531
38647
38800
38992
39220
39474
39746
40035
40334
40635
40932
41221
41499
41754
41976
42164
42314
42423
42501
42556
42585
42586
42563
42526
42487
42444
42396
42351
42310
42269
42230
42197
42165
42130
42096
42069
42050
42033
42017
42004
41996
41989
41980
41966
41938
41902
41862
41813
41756
41694
41632
41569
41503
41435
41369
41304
41238
41172
41110
41053
41000
40951
40907
40866
40827
40789
40760
40742
40727
40712
40703
40702
40697
40686
40676
40665
40643
40617
40599
40580
40551
40514
40473
40429
40381
40330
40281
40225
40166
40111
40058
40003
39945
39894
39847
39801
39756
39714
39671
39622
39574
39529
39484
39442
39409
39381
39344
39304
39268
39234
39195
39157
39127
39101
39068
39032
39004
38982
38953
38919
38889
38863
38838
38813
38794
38778
38754
38727
38704
38686
38673
38662
38653
38642
38630
38617
38599
38576
38550
38521
38492
38463
38433
38401
38368
38333
38295
38261
38236
38216
38191
38161
38132
38102
38067
38030
38002
37984
37975
37988
38035
38120
38244
38412
38616
38848
39108
39396
39700
40006
40310
40609
40890
41145
41376
41576
41738
41865
41965
42038
42079
42094
42093
42075
42036
41982
41924
41868
41811
41750
41692
41639
41590
41545
41503
41466
41429
41388
41352
41324
41297
41267
41237
41208
41181
41150
41113
41068
41011
40945
40875
40805
40731
40648
40562
40486
40415
40348
40292
40248
40209
40175
40150
40131
40108
40086
40070
40061
40060
40066
40076
40090
40101
40105
40103
40094
40081
40068
40051
40025
39995
39968
39940
39904
39866
39833
39800
39759
39711
39662
39611
39554
39491
39432
39383
39336
39289
39242
39196
39154
39115
39079
39040
38997
38953
38912
38875
38835
38794
38756
38725
38694
38660
38629
38604
38581
38561
38544
38522
38492
38460
38431
38403
38374
38351
38337
38321
38297
38275
38261
38246
38225
38202
38179
38158
38137
38119
38101
38083
38067
38048
38022
37993
37969
37952
37937
37919
37902
37887
37871
37849
37823
37793
37758
37724
37693
37665
37643
37629
37628
37653
37711
37799
37919
38081
38281
38506
38752
39021
39306
39594
39874
40135
40374
40590
40783
40953
41092
41196
41266
41307
41327
41329
41313
41279
41223
41154
41085
41016
40946
40882
40826
40770
40711
40653
40601
40554
40508
40467
40430
40389
40343
40296
40242
40180
40114
40050
39987
39920
39849
39782
39721
39660
39602
39556
39519
39487
39461
39446
39439
39435
39434
39439
39452
39469
39485
39504
39524
39541
39559
39580
39601
39612
39610
39608
39609
39606
39593
39574
39557
39537
39510
39483
39454
39416
39369
39325
39276
39216
39154
39100
39056
39014
38972
38935
38904
38874
38842
38809
38778
38746
38714
38682
38650
38615
38578
38546
38517
38491
38471
38455
38435
38414
38397
38384
38373
38360
38340
38320
38299
38278
38261
38244
38225
38208
38198
38189
38174
38152
38132
38114
38095
38073
38053
38035
38012
37983
37959
37937
37910
37883
37862
37848
37840
37844
37863
37900
37961
38057
38194
38369
38575
38809
39066
39339
39623
39915
40204
40478
40729
40958
41166
41346
41492
41610
41702
41760
41786
41792
41782
41753
41711
41664
41613
41549
41478
41412
41351
41293
41244
41210
41185
41164
41147
41138
41132
41117
41094
41069
41038
40997
40957
40922
40882
40832
40773
40709
40643
40574
40506
40442
40379
40318
40264
40215
40166
40119
40080
40048
40023
40009
40006
40010
40016
40022
40030
40040
40045
40045
40044
40042
40041
40037
40033
40029
40015
39986
39952
39916
39874
39829
39785
39738
39687
39633
39580
39530
39481
39432
39383
39334
39285
39238
39193
39147
39103
39064
39027
38989
38951
38920
38892
38857
38814
38775
38744
38717
38690
38670
38661
38649
38627
38604
38584
38560
38532
38508
38490
38470
38446
38424
38408
38392
38375
38359
38343
38324
38305
38284
38262
38239
38215
38188
38160
38133
38110
38093
38077
38062
38053
38049
38041
38026
38010
37994
37971
37941
37928
37945
37985
38056
38173
38342
38553
38801
39081
39383
39692
40003
40305
40587
40849
41093
41315
41505
41657
41779
41869
41926
41960
41975
41966
41944
41919
41892
41859
41819
41777
41731
41674
41613
41562
41523
41489
41457
41428
41401
41371
41337
41309
41291
41278
41259
41233
41202
41167
41129
41086
41042
40992
40933
40866
40799
40737
40677
40615
40554
40496
40443
40396
40358
40329
40302
40281
40268
40256
40248
40246
40243
40234
40224
40215
40203
40190
40186
40191
40193
40187
40181
40175
40162
40138
40110
40082
40047
39998
39945
39897
39847
39790
39731
39674
39620
39562
39502
39450
39402
39350
39298
39253
39213
39175
39140
39112
39085
39055
39027
39000
38970
38940
38913
38884
38845
38803
38773
38752
38732
38713
38696
38676
38656
38640
38627
38613
38597
38582
38566
38546
38523
38501
38484
38461
38430
38403
38383
38361
38340
38328
38316
38298
38279
38266
38252
38228
38199
38173
38149
38122
38096
38079
38064
38043
38018
37997
37977
37952
37928
37911
37896
37876
37857
37848
37850
37867
37907
37982
38091
38234
38416
38641
38898
39174
39465
39766
40062
40348
40623
40879
41101
41290
41454
41595
41702
41776
41822
41844
41846
41833
41808
41770
41724
41674
41624
41570
41515
41462
41413
41369
41323
41277
41231
41187
41150
41122
41103
41090
41076
41054
41025
40991
40947
40895
40841
40782
40713
40641
40570
40497
40426
40365
40312
40259
40212
40177
40147
40117
40094
40079
40067
40051
40032
40011
39986
39960
39943
39934
39929
39922
39913
39906
39902
39899
39895
39884
39862
39830
39794
39757
39721
39684
39647
39608
39565
39517
39464
39410
39356
39304
39252
39202
39157
39109
39052
38994
38940
38886
38835
38793
38755
38713
38676
38650
38629
38603
38573
38539
38502
38466
38434
38402
38370
38342
38318
38296
38271
38243
38215
38187
38155
38118
38086
38062
38041
38020
38002
37979
37953
37924
37895
37865
37838
37818
37805
37792
37775
37762
37751
37737
37721
37706
37690
37669
37645
37625
37609
37589
37567
37543
37516
37483
37454
37430
37408
37393
37388
37400
37429
37477
37555
37675
37834
38030
38260
38516
38790
39076
39362
39644
39909
40148
40357
40540
40698
40828
40930
41009
41067
41103
41117
41117
41099
41065
41020
40970
40918
40864
40810
40761
40712
40662
40613
40567
40525
40488
40454
40423
40394
40366
40338
40307
40270
40227
40179
40125
40064
40000
39938
39873
39809
39752
39703
39660
39622
39593
39576
39565
39558
39560
39569
39581
39595
39613
39634
39657
39683
39709
39727
39735
39735
39730
39719
39702
39685
39668
39645
39621
39600
39582
39557
39518
39475
39435
39390
39343
39301
39264
39222
39176
39135
39099
39059
39015
38971
38932
38891
38849
38808
38771
38738
38708
38681
38657
38641
38625
38607
38588
38566
38542
38522
38504
38484
38465
38447
38433
38419
38405
38392
38378
38360
38343
38329
38314
38298
38282
38268
38253
38232
38209
38188
38169
38147
38124
38103
38083
38061
38043
38030
38016
38004
38000
38003
38018
38054
38125
38234
38373
38540
38738
38967
39219
39486
39762
40034
40291
40532
40760
40967
41143
41289
41409
41503
41570
41614
41639
41647
41639
41623
41603
41575
41537
41495
41454
41410
41363
41317
41277
41237
41198
41166
41137
41103
41069
41042
41020
40998
40970
40941
40909
40867
40814
40761
40705
40642
40575
40516
40463
40412
40366
40329
40299
40271
40248
40228
40209
40190
40173
40163
40154
40146
40146
40155
40166
40172
40177
40186
40191
40187
40180
40174
40164
40149
40129
40103
40061
40012
39970
39936
39899
39858
39815
39767
39711
39650
39594
39538
39483
39432
39388
39351
39320
39293
39268
39240
39209
39180
39153
39127
39101
39073
39045
39018
38991
38963
38933
38904
38873
38839
38808
38784
38765
38752
38747
38746
38743
38742
38745
38745
38738
38724
38706
38686
38666
38651
38632
38603
38566
38534
38505
38472
38436
38406
38377
38351
38335
38325
38311
38302
38304
38324
38369
38446
38558
38710
38895
39113
39356
39618
39892
40171
40447
40714
40966
41191
41386
41559
41712
41839
41937
42012
42068
42100
42112
42114
42102
42077
42045
42015
41988
41957
41924
41892
41858
41827
41806
41791
41776
41762
41749
41733
41712
41689
41669
41652
41636
41617
41597
41572
41530
41471
41412
41351
41283
41214
41147
41080
41011
40945
40887
40839
40795
40760
40736
40718
40706
40702
40705
40707
40708
40712
40714
40716
40716
40713
40709
40703
40694
40685
40675
40658
40633
40611
40596
40576
40542
40501
40456
40403
40348
40295
40244
40191
40137
40088
40045
40004
39965
39929
39891
39848
39808
39770
39729
39687
39645
39604
39566
39530
39498
39471
39445
39417
39390
39369
39352
39334
39312
39291
39271
39251
39232
39212
39192
39172
39155
39135
39108
39079
39060
39046
39031
39009
38983
38954
38916
38876
38846
38828
38812
38794
38773
38749
38724
38701
38683
38662
38642
38626
38614
38600
38592
38605
38646
38710
38797
38918
39083
39283
39506
39746
40001
40263
40521
40772
41013
41239
41441
41621
41778
41909
42010
42085
42135
42159
42160
42143
42114
42071
42017
41965
41917
41867
41821
41785
41758
41732
41708
41688
41669
41649
41635
41628
41618
41605
41594
41586
41578
41568
41551
41523
41478
41425
41368
41304
41234
41162
41092
41025
40964
40917
40876
40838
40803
40775
40758
40750
40749
40755
40770
40784
40793
40801
40817
40837
40851
40860
40866
40862
40846
40826
40805
40779
40741
40696
40650
40605
40558
40510
40468
40429
40382
40332
40289
40251
40213
40175
40144
40113
40068
40017
39971
39928
39884
39847
39817
39792
39767
39742
39715
39683
39648
39619
39595
39569
39546
39531
39519
39506
39492
39480
39465
39448
39432
39416
39398
39377
39360
39350
39336
39317
39298
39277
39250
39221
39196
39173
39145
39112
39079
39046
39012
38977
38947
38924
38898
38877
38867
38867
38884
38929
39004
39108
39242
39409
39609
39831
40074
40339
40615
40890
41158
41415
