19282
20739
19915
19385
19792
19850
20405
21788
20366
20238
21212
21484
20335
21338
21550
20603
21247
21488
20397
22085
21500
20035
21948
19963
20435
19580
21310
21668
19607
20573
20440
21074
21564
21108
22210
20613
20703
20322
20925
19665
20551
20243
20302
20505
21498
21340
20130
21385
20579
22005
20757
20462
22000
21705
22200
20527
22501
21406
20306
21188
20478
20192
21711
19713
21434
21096
21331
22073
22686
20642
20005
20190
20092
21988
20065
21670
21808
21485
20165
21719
20775
21034
20951
20396
20799
19330
20915
21237
20148
20378
20643
20561
19558
19740
20825
21556
19605
19992
19816
20595
18740
20682
20829
20625
19808
21195
20007
18840
18459
19935
21134
19462
20762
18662
20051
20437
19866
19602
20077
19874
19463
20921
19595
18666
18880
20015
18477
20942
20837
21175
18637
19914
21293
20719
19337
20222
19336
20929
18757
20646
19238
18866
18898
21388
21305
20748
20098
19655
20943
19679
19809
20210
20030
19092
21277
20377
19486
18832
21523
21072
19747
19773
20456
20677
18618
21090
21778
21382
18795
20180
19831
21414
21274
19666
19469
20907
19721
21320
20486
19626
20252
22208
21328
19026
19973
19620
21469
20146
20413
20885
20679
20351
21069
21769
19498
20860
20185
20840
20664
21073
20030
21434
20419
21142
22395
20198
20438
21654
21032
20756
20708
21285
21492
20074
20637
20828
20692
21649
20449
21780
20613
22299
21454
20525
20042
22423
21493
21810
20979
20673
20833
20635
21559
21463
23206
22732
21001
23018
22563
21796
19596
21601
22034
20190
20199
23038
21894
20481
21442
21150
21223
20138
20727
21985
21466
20848
21624
20851
20173
21023
21496
21692
20863
21305
21917
20634
20275
19921
20384
20037
19633
22294
21803
20975
21572
20895
20169
20286
20841
21642
20602
20950
21518
22022
20069
18907
22375
21156
19518
19572
20424
21439
19799
20210
19907
21490
21760
21640
20181
21397
20870
21054
19305
21710
18999
20663
19983
19771
19812
21395
22121
20507
20135
21844
20167
21039
21839
20540
21624
19809
22346
22455
21922
19979
20455
20971
19012
21649
22240
21459
19113
21734
20258
22157
20927
21481
20000
20301
20647
21940
21558
20403
21811
20695
21539
19886
22051
20598
21543
20818
21525
23353
20283
22721
21455
21555
21653
22253
21721
23218
20951
21024
23679
21996
21333
21458
20985
21312
21155
23485
20873
20534
20485
23522
22400
22887
22352
21503
22400
20314
22446
22225
22094
22259
23031
22455
21206
20666
22377
22523
22429
21482
21159
22983
22868
21228
22953
21191
21863
21639
22473
22572
22889
22925
23195
21553
21104
22926
23188
21107
22886
23039
21312
22928
23347
23193
22882
20808
23284
23508
23061
21422
23219
23273
22344
21775
21014
22632
21583
22427
23836
22454
20914
21402
21762
22950
22841
22637
21650
21160
22273
22723
22802
22101
22907
21827
20867
20556
23243
22338
21932
21356
20733
21997
19765
20996
21250
22443
20385
21713
21494
21424
20178
20243
22230
20646
19966
21391
21807
20856
20202
21211
21029
20857
20812
19712
21173
21620
20592
21305
21479
20954
20483
20437
19659
19841
22162
21471
22180
20675
22170
21485
21528
22396
21468
20787
20558
21281
20575
21545
19899
22665
22475
21566
22144
21148
21397
20985
22004
22658
21379
20093
21212
22805
21202
21578
21910
22480
22385
21264
20974
21838
20624
21830
22773
21014
20044
21422
23024
21757
20830
21549
21537
22304
21235
21846
20755
22618
21452
22975
21912
22159
22172
22269
21796
21512
22002
22117
22013
20885
22950
21774
22430
20593
21025
22426
21741
22181
21565
21953
22342
22190
23229
22259
20086
22151
21551
21083
21590
23358
21739
21468
22153
23221
21945
20798
22558
21037
21380
20293
21141
21948
20729
20939
21929
22756
20595
21769
23715
22244
20088
21227
20987
22129
22223
21376
22525
21779
20677
20921
21823
21011
22775
21768
22472
19244
20895
22231
22288
21229
23374
21540
21028
22698
23607
21728
20928
22982
22763
22089
21737
22478
22656
22123
20737
22531
24784
22595
22441
22195
22482
22534
20958
21764
21118
21230
21419
20661
21270
19759
20922
22940
20775
22183
21078
21937
20610
20710
21307
22546
20870
21086
21922
20385
18057
20403
22050
21307
21664
21811
22153
21963
20473
22255
21909
19400
20790
21225
21566
20727
20940
20392
20654
20644
21457
21019
21419
20512
22276
21436
21301
21093
21039
20575
21625
20107
22189
20385
19664
20646
20415
22299
19925
21397
22407
20934
22382
22372
20381
20667
20634
19903
21121
21007
21757
20473
21485
21950
20750
22584
22657
21621
20364
20809
20103
21820
21246
21335
20502
20575
22214
21142
21163
21799
22651
22723
19727
20658
22536
21352
20815
22435
20921
22051
20842
22868
21673
21308
21589
24051
21808
20249
21625
21153
21211
19996
21792
22446
20619
21823
21289
21827
22351
21797
22608
22030
22492
22991
21345
21744
20523
20658
23039
20428
22026
21756
20914
20457
21301
21321
21515
21155
21273
21973
20790
22342
23246
23359
21991
21423
21945
23469
21488
21671
21825
22413
22270
23091
23207
21922
21845
22257
22507
22664
21590
23363
21466
22026
22135
21106
22255
22042
22512
21503
22824
22851
22158
22302
22433
21767
23559
21500
21336
21961
23097
22334
22288
22518
21928
21463
21425
22696
22785
22602
21408
22125
22089
22418
20937
22430
21160
21025
22602
22500
21471
20671
20575
21836
21501
21737
21243
20822
22226
20413
21152
22020
19499
20524
21987
21264
21729
20939
20567
21220
19909
21043
21712
21570
20872
21376
21940
21444
20626
22355
20967
20748
21838
22389
21564
19439
21324
21600
19981
20600
20417
20915
22090
21780
22166
22064
19959
19879
21912
21319
21759
22433
22433
20331
20311
21104
21068
20159
19684
20470
21931
20061
20224
22841
21788
19763
21415
20974
21883
19581
21839
22394
21765
20927
22429
22418
20444
21084
21654
22172
22514
22095
22927
22028
20446
22780
23155
22151
22616
22730
22779
20641
20642
21461
22327
21284
21510
23282
22422
20006
22234
22692
22362
20476
23172
23456
22956
22608
22875
21468
21920
22541
22779
23087
22861
22362
22960
23102
21979
20922
22112
23096
20645
23262
21911
21989
20779
23025
23037
22913
22605
23422
21881
23191
22669
22184
21568
22514
22419
21032
22612
22677
22329
21048
21587
21340
23466
23278
22038
21783
23547
21663
21690
21253
21232
23134
22318
23221
22184
22217
21730
22236
23204
21460
22582
21880
22184
23052
22700
22621
22421
21864
22249
20916
21785
19550
22360
22552
22228
20727
22341
20984
19382
20213
21817
21850
21379
20583
20936
21248
19496
22196
22663
21430
19964
21146
21611
20451
20647
20469
21426
19152
20874
20029
19863
21596
21361
20142
20269
20548
20302
21552
20535
20924
20743
21025
22004
20797
22366
20353
19880
20659
22487
21942
19909
20957
20924
22164
20217
20693
20654
20666
22011
20618
20574
21736
21191
22828
19810
20974
22296
22754
20370
21501
22220
20819
20871
20845
21211
22346
20147
22118
21303
20706
20069
22252
22161
21090
19378
21212
20840
21716
21196
21734
21588
21962
21574
21677
21172
21095
21652
21973
21193
21014
22051
21168
20686
22429
20549
21553
20802
21924
21565
21769
22022
21993
22478
22030
22209
21114
22219
21757
22236
21327
21192
22020
21910
22654
22094
22060
20674
22904
21259
21460
20611
21264
20944
20074
21241
22201
20272
21525
21167
22434
20977
21323
22340
21670
21867
22869
22476
20968
21463
22382
21687
20156
21802
21977
22160
21150
22286
23021
22058
22501
22188
21721
21805
22562
21341
23471
21726
20547
21123
21294
22161
22745
20861
21132
22250
21194
20963
23124
22442
21525
22954
20396
20539
22631
22100
21070
20989
23286
20856
20035
21264
22953
20927
22223
21308
20666
21034
21207
20053
20675
19630
20489
19790
21300
20293
21867
21924
20485
20444
20836
22286
19451
20648
21604
19513
20416
19218
19599
21289
19730
20352
20106
20205
19143
21604
20600
19821
21445
21463
21674
20843
21636
21765
20873
20695
20181
19554
19928
19242
21361
20901
20316
19796
21010
22632
20151
19454
21092
20208
21133
21278
20574
21186
19137
20871
21068
21603
19472
20183
21518
19556
19701
21723
21761
19624
20807
22369
20776
21930
20689
22293
20530
19365
20562
21431
22096
21315
22570
21628
20297
19744
21866
22461
21831
20417
22647
21176
21394
22216
22582
20929
21543
22589
20405
20274
20189
22370
20787
21732
22626
22932
21690
20525
22493
22765
22428
20556
22423
20820
21350
22585
21133
22427
20676
21151
20697
21735
19973
21048
21609
21467
21614
22402
21847
20731
20381
21051
20500
21774
20913
21684
22703
20811
20813
22384
23021
20651
22552
23191
22008
22414
23393
21238
22920
20485
23650
22973
23110
22808
22707
22293
22384
22507
21851
23280
21168
22129
24197
22685
21126
22335
23474
22604
23057
22370
21938
21554
22580
21511
22668
20229
21626
21542
21788
21525
21781
22196
22737
22562
23372
22532
22505
22318
22800
22169
21495
22777
21509
22127
21759
20332
20692
21296
20016
21175
22602
21059
22196
22304
20748
20964
21534
22495
22650
21641
20542
20714
22434
20105
20881
21406
22235
20266
21027
21263
20732
21329
22788
21917
19655
21381
20863
20927
22639
23006
20890
21071
22871
22100
21115
20484
22249
20985
21099
20754
22608
23215
22115
21329
21456
20708
20831
20307
22248
21956
20483
21321
22033
21908
22557
22058
21679
22123
20914
23234
23645
20935
21176
22499
23046
20854
20901
22496
21991
20261
21632
21098
22653
22873
21468
21398
23129
20421
22947
21314
23208
21031
21763
22679
22818
22217
21917
21605
22568
22942
21715
23140
22191
21965
21451
22590
22669
21295
23636
20729
23059
23402
22232
20395
22183
22145
22461
22004
22157
23485
21797
22826
22190
23116
22084
22893
23849
22655
20776
22654
22773
22975
23399
22969
21720
23328
23159
23721
23490
20873
22169
23162
23402
22116
23278
23673
22901
21287
21577
22542
22093
21134
22825
23473
22740
22690
22735
22901
21331
21863
21739
22519
22640
22452
24428
22130
22161
21809
21347
22206
22758
23172
22864
21297
22188
22032
22696
20778
21649
23274
21927
20337
22058
21680
20871
19906
21454
22131
20175
20715
20968
21690
20510
20223
22606
22259
21675
22637
20555
20433
20591
22045
21060
21094
20485
22336
20548
20419
22056
21430
22339
20337
20448
20866
21424
19625
21126
20993
21402
20825
21275
21398
20844
20599
21279
21860
20255
21152
21530
21507
20158
21665
21503
21775
21074
21947
21670
21325
19940
21720
21328
19668
22787
21995
21507
19492
21976
20613
22767
20119
20254
22476
21631
20448
22320
21008
21788
22149
22981
20766
20622
22211
21437
20572
20870
21025
22675
21554
22283
21055
21952
21828
21249
22848
21955
20360
21366
21439
22118
22690
21814
24122
21705
20777
21268
21086
20638
20593
22237
22237
22433
20841
21960
21354
20449
21946
21058
20823
22453
23245
23126
22759
20166
21722
23354
20696
20377
22125
21564
20735
22237
23220
22448
22120
21051
22047
21976
20960
20881
20991
21161
21148
21057
21666
22505
21706
22373
22844
21612
21916
22786
22174
21055
23635
21938
22918
20730
22877
22415
20698
21805
21669
22047
21622
22890
21654
22279
22338
21653
22352
22985
21544
22726
22691
22049
22317
21285
22697
20643
21978
23001
21650
21613
21177
21009
20841
22895
20679
21175
20527
19876
22488
20655
22157
20822
20627
20409
20902
20328
21620
21905
20270
20175
22558
22065
20015
20498
21740
21341
20532
19712
21942
20356
19840
21124
19564
19281
22396
22483
20400
21091
21576
21737
20245
20669
21034
21228
19218
20429
21164
21350
21389
20693
19843
21593
20638
22315
20364
21713
20134
20232
22393
21175
20080
20300
22270
19500
20275
20240
21279
20219
20946
22419
20684
20870
20783
21909
20749
20197
22065
21767
21838
21326
22629
21684
21839
21473
21227
21719
22004
22254
22329
21753
20340
21759
20313
21139
22099
22363
20502
20800
20554
21000
22676
21132
20807
22913
22278
22161
23323
21943
19753
21675
20545
21604
20374
21585
22650
21555
20959
22038
21711
21984
21314
21682
22176
20855
21703
20994
21613
21991
20961
22782
20838
21366
23230
21641
23115
21118
21002
21705
21119
22836
22493
23139
21726
22929
22648
21884
22170
21961
23019
22802
20793
21322
23394
22293
20934
22287
23195
20713
22085
22569
22410
24626
21536
20953
22320
20157
22263
21682
21229
21099
21786
22308
21730
21939
21298
22454
21188
22902
22656
21490
20868
21350
22717
20674
21547
21019
21047
21902
22275
22511
21392
21365
20713
22710
22461
20957
22383
20836
22590
20597
21955
22301
20324
20263
21347
21723
21363
20162
22338
21583
20610
20964
20093
20016
20926
20395
20492
20031
21770
20985
21503
21699
19513
21435
20334
19198
19924
20604
20123
19894
20033
21947
20643
19004
21243
21008
20407
20085
20746
20892
21000
20908
20158
20804
21055
21422
20847
19749
21616
21502
22428
21101
19773
21075
22363
20160
21654
21615
21769
20075
22132
22285
21965
19703
21188
21957
21129
20647
21529
20990
21828
21732
21839
21467
21135
21478
20213
21728
19970
22424
21018
21169
21794
22077
21883
20268
21670
21098
21788
19660
21422
21313
21417
22130
21879
21780
20697
20726
20998
20742
19815
20598
22150
22211
19833
21628
20951
21768
21946
20601
22576
20444
22381
20469
20272
21951
19657
22957
21031
21733
20779
21034
22415
20602
20947
20514
22764
22497
22047
22723
20813
20895
21720
22598
21435
21970
22541
21621
21408
20986
22431
22079
21267
21900
20510
22113
20857
23156
22706
20390
20584
21670
23019
20961
22675
21691
22871
21351
22502
22485
21052
20412
23250
21436
20544
20857
21487
21561
21478
20836
22796
22055
21992
22023
23910
22923
21953
21603
22459
22188
21906
22073
22776
21394
21679
20383
22078
21166
21349
22324
21701
22099
21667
20965
20285
21916
20590
22869
19670
20653
22131
22255
19251
21046
21032
20199
19255
21446
21204
21929
20546
20568
21750
22333
21673
20220
20121
20451
20310
22080
21381
19131
20672
22646
21398
21272
21122
20460
20697
20369
20663
21932
20394
20889
21842
20873
20661
21459
20371
20401
21385
22093
19562
22026
22077
22854
20741
21986
22124
20681
20415
20260
20361
21004
21177
21472
21710
19784
22269
20044
21325
21249
21520
19456
22340
22452
20383
20015
21205
21480
20550
21061
21331
22100
21173
20464
21782
22421
21042
20409
21507
21906
21545
20480
21836
21214
21129
22293
21408
19733
21460
22742
21578
21976
21221
22079
20066
20728
20396
21527
22085
21728
21969
22043
21886
22613
21544
21140
21703
21787
23115
22129
22051
22003
21166
21700
21032
21685
22277
21082
22454
21492
21842
22343
21016
21512
22947
22682
22490
22234
21551
20982
22712
22752
21996
22173
22679
21689
22584
21217
20813
22315
21822
22554
22314
22013
21127
21456
21633
21341
22017
22459
22001
22193
22702
23074
21362
21786
23306
21886
22725
22460
22376
22498
19846
21225
21905
21888
20548
21825
20425
21303
19424
21864
20073
21439
20535
20718
21974
20501
20325
21999
20848
21471
20144
21244
20935
20548
21303
19751
20289
21423
20649
22124
19330
21561
21059
20259
21395
21285
19611
20687
18860
19827
20651
20039
19961
21751
21792
21679
18507
20821
21183
19622
20651
19302
21666
18845
19709
21456
21287
20873
19295
19971
19627
19212
19780
21635
21729
20843
21964
20271
20768
20524
22147
20806
19852
20912
21328
20635
20629
19949
20695
21706
22013
21016
21853
19016
20063
21454
21911
20297
21266
21189
21188
20639
20107
21969
19562
19329
21575
22236
20993
19480
20160
21757
22055
20749
22914
20433
18976
21980
22462
21331
21441
22620
21402
21027
21327
21669
21296
22183
21188
20150
21252
19097
21430
20634
22169
19703
22237
20136
22217
21122
22059
20056
22378
21090
21669
21603
19916
20523
20870
21216
21912
20187
22226
20501
19515
21786
22293
19747
21601
20899
20768
21505
22282
22772
22357
21238
22393
20566
20749
22097
20814
20573
20086
22194
20902
21881
22557
20821
20808
22169
21446
20617
21480
20434
20555
21738
20879
21158
20181
21769
21196
21297
21521
22278
21636
22489
22316
21950
22252
22317
20804
22956
21497
19358
21203
22282
20097
20169
20432
20657
19628
21366
20219
21870
21590
20828
19321
20306
19514
20110
22108
21191
18875
21054
19550
20137
21129
21080
20051
18719
19821
20674
20754
19863
20682
21061
20306
21296
20800
20227
20969
19907
20445
20278
21251
20070
19672
20037
19047
20737
20934
20727
20673
20192
19871
19089
19780
19656
20428
19994
20716
19647
21366
20872
20312
20676
19339
18916
21024
20762
21096
20890
19980
20763
20706
21026
21208
21568
20855
20805
20994
19291
20004
21011
19804
19352
18944
21223
20527
19882
21053
20892
20167
20804
20296
20658
21124
19483
21015
21503
20129
21220
21140
22246
19863
19781
20100
20960
19417
21044
21488
20623
21029
22174
21007
20128
21174
19968
20513
20854
21983
20027
20940
20973
21429
20140
21566
20819
21559
22627
21932
21268
20523
21084
20952
21401
20433
21278
20105
20575
22605
21518
20429
21087
21268
20359
21537
20072
20356
19859
21959
21850
22606
20782
21136
21743
21568
21786
21466
23002
22151
20251
22465
22553
20344
21673
22825
21242
21987
21414
22752
22686
22271
20884
22617
22317
20129
22000
22822
20160
21818
20665
21364
20627
21946
22277
22498
20414
22583
20819
20920
20114
21406
20607
22587
21787
20275
21235
22704
20834
22173
20334
21537
21525
20908
22102
21514
21197
20381
20911
20157
21037
20267
20960
21851
21691
19873
19300
18374
20986
20745
19294
20726
20601
19970
21114
20723
20563
20425
18070
19864
19033
21222
18784
19998
19601
18772
19996
20848
20210
20832
20723
21776
20507
19964
21151
19800
20651
19076
19877
19644
20843
21472
20929
21553
18431
20227
20045
20713
21043
20352
20840
20736
21064
19953
20856
21253
21699
20009
21699
20815
21182
20142
20484
19835
21558
19596
20922
21214
21759
20646
21385
19856
20048
21723
19016
20747
21712
20702
19805
20558
20778
21144
20342
21237
22310
20000
21035
21475
21293
20547
21246
22144
21255
19126
20715
23107
22115
19796
22378
22068
21396
20569
22091
21962
21710
19664
21092
21911
21979
21261
20815
20764
22048
21787
20317
21048
20891
20403
22608
21309
20102
20697
21577
21663
22407
22730
20530
21243
22763
20969
20399
21314
20582
23299
22320
21433
20800
20299
21854
23096
20845
21937
20359
21382
23350
21738
21891
21614
21373
21527
21195
22486
22268
21515
21316
22408
22276
22815
21813
22729
21782
21783
21336
23176
22493
22686
22297
21303
20885
22426
21910
21855
20997
20673
21326
22632
20885
22122
23035
20854
21607
22273
23471
21779
22081
21584
21891
20114
20205
22869
21343
19712
20486
21843
20984
19887
19945
20231
19972
20187
21324
19734
19322
21084
21528
20475
19099
20304
20781
20565
21515
21330
20408
19521
19831
19749
21622
19429
21053
21620
21125
21277
19584
22272
21192
19976
20764
21418
21864
20666
21063
21951
20901
19841
20062
20782
21228
20197
20629
20956
20585
21390
22687
21487
20914
21714
20011
20626
18670
21390
19679
19554
20884
20586
19874
20110
20496
22292
20597
20276
21093
22351
21404
20346
22652
21249
20305
19886
22375
22456
20963
20839
20339
21195
20143
21639
20917
21379
19780
20176
21295
21367
20358
22341
22489
21781
21603
23022
22122
19730
21908
20291
21278
19924
21092
19551
21630
21350
20822
20565
21394
20456
20452
21323
20767
21780
21880
21857
19687
21296
20527
22485
21224
20539
21073
21424
19437
22558
21634
21079
19740
20622
22100
22102
21599
22507
20234
19704
22901
22898
20420
21539
22743
23213
20179
19607
21858
22831
20146
21895
20585
22413
19936
21515
21310
20832
20611
22291
21746
22264
21095
22206
21492
21323
21070
22811
21751
22008
21710
20591
22078
21804
21764
20272
22554
22133
21467
20527
20661
21693
21595
20557
21299
19965
21350
22357
21901
20561
21454
19858
20793
19834
19810
20372
20188
20826
20318
20398
20220
20589
20756
20028
21711
22434
20460
19165
19946
19692
19748
20620
21902
20623
19216
20317
20890
20401
19717
20133
20588
20275
21047
21526
20997
21310
18620
20175
19470
20124
18966
20031
19759
19527
19760
19212
20756
19075
22116
20625
20983
19009
22369
22229
19914
19513
21041
20587
19339
20453
20187
20346
20581
21809
20773
22032
21236
21022
20376
21049
21389
21534
20181
19870
20453
22485
20467
17986
21204
22381
20772
19219
21602
20041
20248
20863
21660
20835
20587
20480
20012
20675
20669
21273
22922
20865
20006
21267
20038
19585
21741
20023
21987
22000
21739
20682
19741
19956
21478
21851
22291
20766
19995
20337
21165
20092
19920
23054
21395
21128
21229
21061
21182
21005
20660
21231
20262
20926
21825
20887
20634
21368
22609
21386
20708
21424
21464
21539
20188
22563
21020
19686
21733
22738
21994
21154
20252
20266
19926
21233
20174
22567
22217
20165
22320
21509
21778
20163
22676
21023
21581
22304
21252
20579
21904
22758
20836
21001
21214
22818
22792
21874
21485
20177
21326
19263
21745
21026
20939
19397
21097
22873
20696
20153
20350
21345
19938
21930
22151
21461
21081
20077
19732
20527
18783
22098
19928
21270
21222
19778
21513
21189
21024
20027
19530
18876
21007
21684
21357
18957
21660
21558
20919
21529
21852
20286
21219
19647
21357
20773
21018
20163
21479
19770
20988
20611
20156
20199
20457
20979
18868
19447
19496
22068
21272
20546
19423
19415
20613
18614
20629
20097
20906
19117
20107
22209
19903
20133
22068
21047
19165
18987
19613
20294
19688
20978
19896
20774
20987
21922
21846
21069
19223
20758
19429
20561
19095
21974
20582
20538
19627
22087
20614
19696
20362
21659
20523
20266
20646
20612
20758
20069
20576
21289
19950
20046
20167
20724
20942
20749
21285
19689
21117
21137
22136
19469
21886
21403
22306
19387
18594
22111
21413
19660
21693
22361
20707
21278
21897
20475
20084
19870
22105
20444
21154
20808
21291
21089
20459
20387
20506
20943
20781
20767
21576
20961
21415
20918
23029
22543
19614
22114
20969
20944
21875
22629
20950
21893
20651
20322
20604
21986
20583
21913
21785
21612
20542
22667
20492
21410
22035
21367
19880
21832
22634
21576
20162
22290
19988
20226
22230
22496
22225
20550
22424
21531
21248
22813
20384
21838
22232
22187
21517
21028
21670
19622
22822
20817
22824
22767
22605
22829
22179
20607
22418
21902
19753
20567
22653
22024
21676
20198
20141
20387
21897
19959
21750
19784
21853
22404
20352
19953
21394
19856
20647
20771
19912
21989
20588
18742
19482
21478
20040
19989
21545
21222
21296
20600
21364
20901
19825
20172
19259
20229
20187
19910
21420
21567
18667
21587
19428
20822
20717
20283
21728
20455
19884
21377
19966
21117
21526
20533
21219
19550
20499
20850
21825
20645
21949
21607
21455
21336
21272
22359
22575
21483
20305
21884
20439
22493
21061
22699
21117
22382
22565
20983
22840
22408
21587
22590
22335
20834
22806
20979
21065
21818
20236
20051
21770
21460
20641
21841
22179
22409
20880
21644
22623
22101
21954
22510
22737
21024
22070
21812
21548
20208
20969
21221
22987
21970
21575
20363
22632
20473
22965
22396
20386
21414
21468
22717
20665
20550
22157
22829
21064
21836
20868
21618
20243
21239
22958
21328
19759
22686
22063
20084
20418
22027
23529
22063
22230
21915
21770
22230
20579
24053
22189
22245
22969
22341
21951
21600
21664
21139
20072
20216
21906
21006
21419
20501
22155
22057
21962
21766
21122
20637
22051
20977
22611
19884
20860
22503
21995
22586
22325
22266
21645
19691
21603
20949
22289
23404
21367
21719
20460
19557
20932
21048
19224
21304
20393
20675
20474
20404
21536
21793
19951
21394
19815
21293
20603
19986
19879
21248
20642
21426
20408
20121
20427
22206
20666
19434
20673
22050
20337
18744
19297
19383
21703
19646
21639
20698
19676
20131
19565
21010
20911
19849
21987
20119
20252
21589
19900
20248
19773
19960
21037
20062
18783
20709
20958
19016
19738
20216
21502
21284
20585
20789
19196
20693
19283
21157
21203
18924
21675
20713
19169
20253
19775
20604
18708
20320
22083
19808
19867
21418
21554
21042
20506
21241
20660
19617
20663
19489
21548
21604
20600
21993
20706
19549
22321
21432
22462
19257
21599
22222
20013
22167
22610
20429
21335
20175
22523
20384
21171
21102
21894
20138
20220
20115
21247
20316
21601
21716
22327
20032
19807
20966
21266
19634
20519
20416
20628
21307
21676
22157
20726
20472
21146
20984
20595
20420
21603
20898
19013
20916
20167
20481
20429
19943
21485
21680
20137
20403
20730
19007
19384
21929
19875
19976
21259
22042
22045
20225
21747
21649
22231
19349
22149
22423
20838
19931
21213
23343
19642
21302
20501
22185
22513
21606
21623
21958
20078
20612
20549
21647
21848
21327
21011
19855
20383
21005
20812
20076
20694
20002
20236
18665
21921
21454
22176
18850
20208
21641
21332
18456
21322
20525
20909
20106
20765
20146
21318
20873
20031
19546
20765
20154
21251
20104
20436
19118
19746
17946
20371
20174
20563
17821
20038
19395
20373
18344
19233
21095
20790
19467
18589
20125
20713
19753
20509
19527
19265
19712
20415
20141
17964
19876
20485
20183
20447
21462
21046
18426
18008
20021
19400
19466
19741
19587
19064
18256
20131
18427
19163
19527
18996
21272
19440
20504
20431
20021
18728
20777
21304
19527
20957
20740
19908
19952
18360
19887
20094
19923
18790
20780
20184
18672
19008
19128
20010
21050
20039
21088
20744
20984
20587
21490
20667
21263
19240
20695
20794
20913
20948
20014
20752
20128
22127
21087
19461
19560
20920
19575
21330
20855
21733
21199
20274
21383
22112
20721
21063
19510
20975
20461
20877
20555
20758
20606
21308
22354
19365
21432
20314
21836
20998
20777
22399
21763
19000
20227
21052
20485
18546
21404
22224
21152
20703
21182
20883
20186
20616
21688
20867
20450
20591
21778
20943
19035
21129
22458
21453
21011
20846
21724
21062
20068
22053
21164
20209
21320
22026
19916
21161
19119
20957
19339
18801
21141
19578
18479
19741
21151
20323
18969
19424
19456
19153
19277
18879
20934
20497
19186
20112
18904
18461
17843
19498
20785
20451
20164
20314
20037
17508
18844
21339
19288
18411
20149
19081
18856
19275
20863
18982
19587
18449
21181
20949
20713
20454
21404
20338
19743
20643
20454
19811
20887
19422
21084
19966
18996
20913
19228
18938
21239
21200
20606
20589
21156
20995
19733
20822
19891
19877
19003
18939
21709
19758
19126
20797
21077
20614
20297
20728
22205
19733
19239
20642
19013
19569
19872
21691
21421
19245
20367
19560
21411
19181
21525
19480
20729
19973
20102
20287
19928
19985
21871
19562
21662
20575
19400
20390
20971
19417
21943
20486
18918
20629
20019
21188
21567
21551
20837
19537
18865
21873
21249
20082
19737
21621
21280
19222
19463
20169
20853
20660
20530
21304
19624
20117
21723
20902
20187
21259
21063
21997
20213
20073
20072
21082
18393
20246
21560
20201
20879
20243
21972
21064
21059
20889
20197
21302
19473
21734
20346
21217
20415
20097
20589
21639
21565
21797
20359
19355
22227
19149
19925
18627
19690
19821
20964
18819
20892
19704
20324
21358
21706
19467
19902
21039
20559
21203
17852
19521
19978
19151
20023
21015
21279
19940
20449
20209
21245
20802
21567
21257
21975
20999
19797
20062
19908
20281
19933
20766
20124
21453
20202
20525
21259
20830
19926
19965
20263
21078
22097
19617
19941
20082
20348
20704
20726
21782
21044
20064
20282
21173
19654
19192
20561
19800
20394
20880
20072
20186
20371
21202
19507
20626
20499
21563
20339
19326
19767
19248
20801
19450
21142
21839
19128
20037
18828
19880
20427
19926
19414
21836
20133
20730
20223
22664
19856
20809
19546
21298
20200
21124
20814
20542
20211
20077
21042
20847
20597
20312
21956
20843
19232
19188
19884
21097
18878
20915
21576
18955
19719
19685
19966
20756
20155
21467
21489
19227
19158
19767
19125
20061
21498
21550
19279
20313
20747
21052
18567
20374
19278
20297
19635
20577
20893
20265
19059
19588
18902
19160
18742
21613
19950
21837
20753
20080
20327
20810
21100
21571
20025
20899
21868
20622
19912
21721
19912
20371
20604
19313
20855
20083
20825
21501
22156
20031
21818
20141
21161
22171
19201
20930
21959
21384
20351
21803
19736
18708
20424
21855
20166
21238
19774
22144
21782
18444
20365
19754
21078
21547
20333
20346
21230
20736
20793
20878
20493
20948
21730
19009
20889
19865
18743
19616
21223
20694
19339
19820
20168
19456
19971
17943
19621
19153
20844
18349
19418
19357
18955
18902
18971
20333
19076
19622
20306
20568
20552
20092
20991
19888
19472
19874
21928
20083
18214
21270
19490
20914
20845
20050
20737
19303
19687
21021
20154
18816
20182
21622
19138
18582
19083
21429
18760
19937
19655
18695
19068
18517
19087
19534
17848
19577
18838
19731
19862
20241
18994
21121
19001
19447
18979
19280
20721
20564
19380
18413
18289
20537
19599
17736
21007
21473
18964
19340
18882
21732
19010
19955
20723
19091
19808
20492
18837
20117
17894
20004
19417
19639
19920
19670
19074
19832
18433
20304
20262
19526
20419
18837
20579
20340
19061
21527
19205
18533
20576
21078
20132
20853
20886
20192
18963
18108
19418
19819
18668
19079
20714
20443
17857
20806
20433
19968
19804
21475
21358
21215
20633
19951
20481
19138
19763
21750
19800
20638
20034
19159
19365
18872
18934
20441
18811
20506
21124
22454
20211
19450
21101
19266
19646
19509
21027
19464
19102
19831
20711
21657
19978
20017
21642
19464
21111
19892
19027
19794
18226
19738
20237
17959
19702
19855
19442
19633
20126
18833
18594
19176
19008
17857
17186
19776
18495
19467
17466
18338
20921
19014
19298
20238
18375
19076
19960
18811
19481
18289
18062
19370
19561
17185
18832
20451
19619
17314
18820
17869
19778
19863
18309
18929
19723
19312
20394
20179
19414
18108
21024
19820
17684
18994
21207
19261
17272
19148
20182
18302
19534
20189
18689
20359
18676
18489
21041
18333
20322
20320
18744
19226
19696
20148
19502
18960
20081
19575
19940
20041
19536
20559
19502
21546
21675
21582
20218
20265
19519
21690
21531
19495
18532
20457
20897
20724
20484
20576
20092
19063
20671
18595
20521
19795
20404
18986
21230
19816
19673
19574
20670
20205
19849
18937
20876
21089
18442
19842
19645
20863
18406
20248
19959
20710
18737
20961
21330
18917
19986
19915
21697
18408
21116
19933
19142
20655
21402
19247
20767
20937
21224
21817
19821
20281
19501
21739
18370
19952
19450
20439
18952
20080
19299
20233
19042
20230
19518
20353
18411
20940
19154
19416
20120
21395
20389
20669
19654
21978
20042
19388
21312
19023
19490
19535
19516
19798
19555
19616
20446
19022
20403
19777
18976
19371
18256
19644
21349
19745
17637
18186
19247
18200
17767
19516
20174
19509
19109
18450
19102
19633
18668
17802
19996
19316
19821
18986
17790
19649
19326
20268
18919
18276
17803
17834
17534
19367
19812
19792
17604
17906
18814
19479
17542
18101
19409
19536
16973
18460
19512
18522
19723
19701
19498
17360
19180
18620
19817
19457
19119
19182
18211
19146
18255
19046
18209
18579
19521
19066
17043
18890
20345
19001
19530
19373
20365
18435
19837
19899
20491
17923
20184
18814
19955
19169
18601
20809
19876
18511
20453
20980
18992
19924
20912
20996
17974
20311
18943
21133
19272
18983
18836
20421
19362
19934
21166
19356
19578
19435
19072
18916
18263
19432
20263
19995
19576
20409
20349
20467
19592
20642
19605
17985
20368
21290
20078
18642
20890
20755
19163
20910
20504
20111
19451
20801
20554
20727
18776
21216
19123
19818
19438
21480
21546
21121
18755
21474
18629
18766
21388
19538
20946
19740
20007
19814
21064
18592
21538
20268
19881
18762
21447
21699
19359
20610
21922
20563
18494
19239
19621
19653
20999
20339
21214
21119
18582
21231
20588
20024
19813
20744
20472
21225
20110
19360
20815
18448
19448
20396
18752
19564
19176
19341
18456
20173
19218
20360
20829
20255
20631
20034
18673
20161
21438
21205
18898
20287
19409
21554
21262
19093
19976
19875
21007
21185
19628
20725
20529
19009
19749
20829
20141
19215
18813
21040
20855
20688
18752
20913
21418
20754
19937
20035
21150
19239
20522
19090
19815
21111
18641
20750
18933
20613
19051
20502
18878
20104
19428
20093
20056
18785
19698
18424
18725
19477
20654
21448
20505
17849
19149
18974
20367
19024
20181
19467
18660
18911
19762
20471
20173
19082
20174
19671
19673
18730
19678
19729
20544
18776
19497
18455
19426
18715
18968
17794
20373
20967
20660
18388
19055
17929
19708
18826
20249
19332
18621
18729
19971
20409
20097
20641
19171
20160
19026
19409
19605
19957
21438
20171
19393
19437
20966
20243
19003
19095
20211
20888
19342
19293
20633
19699
19889
19517
19419
20333
20095
20539
20267
20600
18556
20083
18763
20229
20090
19676
21650
19992
20835
21297
20017
19669
18342
19932
21000
20349
18945
21930
19739
18171
19494
18556
19384
18757
19219
20839
19717
18353
20118
18426
18416
18145
20908
20007
18572
19943
18748
19033
17064
20355
19731
17828
16671
19037
19777
17600
18696
19373
18062
18486
18101
20171
18413
17008
18900
20582
20047
17957
19070
20285
19254
19233
19696
18565
17502
19177
20290
20563
20704
18595
17017
18830
18079
18858
19452
18517
20680
20349
20022
18308
18572
19338
21104
18265
20715
20237
19309
19885
21381
19862
19539
19270
18724
19598
20406
20075
19287
20769
17959
20088
21415
19554
20474
20597
18583
20293
19900
19708
20299
18768
18929
20694
19699
19142
19740
20920
19766
18267
20109
19897
20830
20994
20691
20869
20741
18057
20719
18466
18150
18285
19234
20132
18727
20093
20375
19871
19417
20356
20532
18281
18086
20977
20091
18648
18131
20680
20660
19138
19748
19684
19681
18794
19626
19426
19774
18519
19690
19869
19956
19085
20596
20076
20139
19338
21188
19537
20545
20179
20143
19834
20639
20878
19007
21081
19022
19416
19907
20258
17742
20678
19384
20630
19708
19860
18720
19333
19862
18887
20759
21414
19872
20314
20092
20743
20381
20113
17870
19515
19580
19978
18017
20038
21035
19862
18547
20331
20813
20376
18632
20836
20939
18362
18353
18622
20089
20139
19140
19896
19023
19424
18551
19190
19532
17575
17876
19685
18505
18052
18597
19094
17498
18477
19846
19331
17776
19880
19183
19402
18582
19064
19410
18214
17832
20015
18754
17128
18128
19760
18241
17343
18425
19129
18730
19248
19577
18118
19003
19150
18598
19312
18262
18820
17531
19725
17855
18740
18827
18837
19552
17612
20201
19783
18223
19564
18801
17759
19771
18350
17905
16826
18730
20371
18956
17098
20408
19394
20299
17716
17776
18261
17470
18476
19971
19138
19150
18797
21039
19223
19852
19907
20278
19144
19323
19244
18984
18940
18982
19104
20144
19824
18067
21268
19720
17841
18581
18321
18742
18348
20704
20582
17899
18035
19302
19838
19954
18177
18447
19632
19945
20212
19895
18803
20569
21248
18716
18930
17746
18709
18820
20481
18928
20715
19434
20345
18661
18655
19746
20434
19116
18932
19986
18562
20048
20953
19143
20097
20285
20148
19034
19157
21703
19695
18807
19641
21920
20747
18005
19262
19410
20033
20203
19890
20931
19501
19808
19914
19965
20065
20731
19760
20825
19149
21171
19349
18699
20406
18495
18498
20541
18359
20744
18862
19403
18627
20699
18914
19927
19065
17445
18024
19524
19903
18503
18931
19032
20430
19541
18355
18435
18993
18481
16954
18986
20078
18777
18236
20067
19433
17447
17570
17717
20715
17291
18745
19275
17411
19050
18949
19385
17883
18807
18743
19930
17958
18707
20142
18105
18931
20019
18614
18366
18398
19840
20889
19488
19023
18670
18879
18896
20542
20330
20276
19873
17786
19159
19522
18530
19701
20082
20132
18459
18490
20093
19326
18696
20546
18490
20881
18854
20069
20198
19904
19414
20862
20840
18705
18924
20355
20852
18556
18993
19056
21250
20758
18820
20697
20088
20516
20121
19185
20652
20130
21620
20411
18495
19696
19545
19368
20621
21280
20763
19538
18095
20278
19687
20541
19768
19606
19774
19373
20299
21330
21026
20279
22100
20820
19094
19218
20723
21373
21150
19563
20457
19705
20374
20357
21112
19989
18812
22036
20149
19688
18779
20921
20521
21852
20675
21063
19494
18936
20274
22211
20996
18766
19370
22343
20646
21025
20001
19099
21729
20688
19735
19284
20832
20459
19710
19832
20574
20177
21847
21127
20292
20363
19060
19094
17578
20391
19678
18120
20780
19296
19656
20003
17660
20194
20078
20019
18607
20289
17734
18392
18112
18235
17547
17474
19724
18355
18483
19140
20319
18737
19635
18465
20151
18788
18653
20509
18343
18212
20111
17997
19646
17421
18274
18970
18810
19348
18987
19568
19765
20297
19318
18607
18081
17545
20570
19784
19902
20195
20553
18166
19533
18089
18144
18791
17735
19360
20087
20297
20318
18195
20787
18250
18060
19892
19850
20648
20390
19718
19561
20237
20253
19744
20087
21036
20831
20704
20767
19298
20793
20648
20792
20069
22593
21326
20498
21748
20179
21377
21761
20231
23063
20041
20678
22851
21097
19987
20843
20846
20679
20323
22211
20832
22050
21487
20900
21741
22154
22101
22944
22272
20020
19093
22002
20112
21505
19928
20487
20596
20309
22507
22929
22349
20433
22540
22467
21994
22109
19780
20374
19937
19955
20251
21593
19683
20755
20318
21917
19034
22032
21543
19392
20632
19545
20910
21907
19551
21003
21695
20507
20620
20215
20648
19604
20694
20896
20540
21190
21943
21554
21414
19843
20455
19583
19226
20585
21272
21511
19645
21379
19617
20806
18748
19487
18830
19070
19920
18387
20202
18093
17797
19538
18828
20335
19346
18651
19940
19818
19142
17844
17682
18527
19662
19827
18172
18441
20242
18830
17253
19097
20074
18951
19531
18653
17913
18478
18508
20613
20032
18472
17061
20107
18020
19163
19969
18377
19949
19230
19821
20788
20175
17964
18986
19828
18225
18509
20508
18612
19387
19914
18103
19447
19641
19369
20668
19224
20262
20501
18622
19345
20283
20767
18918
19801
19606
20160
18849
17222
19293
18650
19386
17153
18292
20297
19836
17582
18001
19992
18839
18522
19615
19876
19315
18092
21178
20357
17599
19032
19652
20030
17415
18260
20832
20156
18117
19847
20212
18468
19675
20160
18756
19724
18515
19970
19831
19180
18875
19975
19019
18438
20738
20992
19812
19439
20608
20920
20522
18576
19186
19122
20456
19104
19583
19066
20133
19855
19217
20570
17627
19849
18277
19305
20144
21027
19462
19210
20196
20257
19586
20524
19985
20274
20035
19448
20096
20451
19948
19268
19439
20474
20284
19915
20481
20187
18964
20831
20323
20772
17492
21480
18451
20702
20004
19618
19856
19684
20575
21963
19856
20795
19754
20592
20343
19562
19407
17803
20724
17673
19847
17653
17822
19889
21224
19003
17573
18665
18182
19465
16907
19450
19557
20120
18396
17842
20731
17718
19634
18708
20148
18880
19500
19716
18966
20479
18663
17982
19993
17460
18430
18217
18686
17848
20359
18721
17226
18964
20684
18781
17325
19199
17906
20251
20224
20042
20396
17928
16843
20772
21109
20412
18062
19375
20145
19598
19252
20458
19358
18843
18701
20093
18182
19019
20888
17761
18404
20647
21065
20488
17974
19688
18432
19848
18371
18705
20144
18489
18832
18649
20724
20710
20886
20042
19971
20054
17977
20166
19288
19186
21335
19608
18753
20798
19102
19652
20723
19047
19726
20178
19925
20125
19467
20348
18536
20514
22107
20262
20799
21359
19016
21048
20069
21912
19090
21022
18446
19899
19461
19434
20222
21090
20848
19786
21507
21787
21227
20702
21445
20875
19365
20401
19973
21284
21802
20744
21456
20452
19101
20244
21068
19575
19782
21734
21480
21643
21286
21388
21842
19841
19464
21225
19938
21108
20419
19405
20139
19047
21847
20279
21325
21402
19588
20974
20703
19018
20156
19914
19468
20209
19972
20670
20633
20388
17842
19649
17783
19678
19208
19517
17198
18176
19967
19087
18053
20230
20242
19562
19826
19523
18857
18617
20418
18119
18654
18697
19565
18325
18446
19046
19607
19230
17441
19042
18677
19377
19018
19291
18300
19080
18265
19410
19240
19851
17560
19987
18990
17642
19184
19571
18572
18958
19508
18396
20462
18962
19811
18325
19341
19579
18310
19232
18354
20315
20454
18588
19907
20539
18517
18317
17747
19059
20711
19415
19540
19044
20047
18371
19421
19147
20490
18193
19568
19082
20139
17682
20173
21288
20416
20276
20344
19910
20647
20161
20835
20033
17969
20155
19180
19074
20487
20280
19624
20844
18393
19467
18092
21932
18909
19384
21124
18940
20820
20600
19298
20128
19168
20679
20440
20677
18869
19240
18494
20411
19047
21206
19678
19301
21424
20750
18622
19454
19487
20104
19128
18996
21592
19209
19769
20436
19452
19501
20007
19772
18788
19188
20326
18472
20884
18110
19843
18874
20990
18413
20383
19725
20607
20319
21357
20858
18388
21433
21939
21145
20845
19821
19562
21121
20580
20871
21675
19120
21149
21551
21238
20088
18049
21383
20830
17687
18910
20634
18572
17867
18412
17717
20381
17742
20870
21340
20515
19005
18622
18914
19616
19285
18022
18962
19063
19473
20816
19907
18060
18579
19362
18457
17889
18436
19759
18321
17915
20563
18581
17209
19100
18433
19781
17593
18006
19216
19083
19635
18273
18703
18900
20574
18815
20145
19054
19598
20338
19223
18479
20776
18910
17876
19441
19432
19656
19356
18482
19905
18862
20174
20306
18541
19610
17967
18993
19312
18825
19654
18948
19943
19870
19671
20278
18623
18999
20503
21082
19720
19964
19411
18772
18991
18505
19258
20278
21147
20584
19120
20338
19074
18607
20724
18203
19541
20359
18657
18710
17426
19799
19485
19620
19645
18822
20028
20227
18310
20602
20358
18316
19655
22176
20315
18617
20245
19447
20140
19685
19925
19565
19682
18904
20875
20184
21140
21112
21233
20267
20253
19200
21201
21776
19545
20446
20743
18757
20897
19416
19532
20675
19058
21660
19423
20359
20543
19329
20378
21558
20197
19475
20744
21082
21861
21728
21200
20845
19636
18987
21371
20600
22628
20476
18413
20279
22227
20400
20496
21320
19220
20335
21187
20855
18872
19843
18542
20366
19621
18720
19391
18979
19769
18672
21686
19841
19199
20554
19225
19841
19823
18627
21373
20364
19791
20120
19209
20428
18098
20215
21551
18541
18975
21727
19735
20518
19335
21319
20780
21061
19524
19703
19551
20157
21041
19371
20963
20540
18432
18822
20889
20256
20126
20942
17828
18454
19761
19680
17384
20207
19085
20350
19306
19171
19911
19146
18696
19850
19285
19312
20348
18839
19788
19461
18773
19320
19043
21645
20944
18912
19084
20276
21308
18570
18513
18746
19909
20404
18042
19228
18220
19691
19196
19551
18609
19441
20247
19369
19071
19351
20639
19435
20571
19878
19006
18866
19160
19423
20089
19386
20758
18734
19770
20114
20942
18496
18972
21537
20456
20327
19494
21659
18554
20150
20601
20352
20122
19365
19483
18588
21182
18942
19697
20812
19014
19363
20297
18854
20120
20602
19781
18430
20560
18767
19752
21071
19758
19295
21242
18615
21530
21573
18879
20276
19972
19956
20084
20655
19164
20753
20392
21783
19402
21877
21537
20727
19344
21106
21812
21883
20505
18770
20707
20701
19825
20235
19525
19482
20734
18158
19527
19136
21228
18109
19622
20645
19295
19672
19964
19944
18393
19694
20403
19747
20028
19657
19789
19496
18715
19608
19452
18327
19206
18988
20262
18474
19686
20159
18624
18352
18567
20901
20635
20496
21094
19294
18152
19362
19397
18227
17615
20465
18423
18508
18113
20114
20484
20914
19189
21351
19729
18644
18779
18999
20361
20132
19361
19946
19651
18300
19710
21214
19393
17347
19111
20132
18193
19152
19989
18054
18976
17906
19685
19705
18624
19898
18757
20516
19767
18230
20458
20892
19937
19486
19254
20441
20502
18701
20498
19636
20881
20091
20631
19206
21358
20821
21194
18789
21343
20570
19850
18554
21189
19963
19890
19548
18808
20757
19087
19672
21674
19859
21124
21604
20909
20802
20599
21526
20906
20216
19228
19151
19554
20999
21197
21322
20062
18683
21747
20348
20221
20093
20622
19540
18810
21456
19646
20705
18990
19129
18350
19107
21577
21715
21944
20611
19319
21753
19976
20740
20632
21669
20429
21102
20074
19853
20751
18558
19737
21535
21187
21317
19944
21160
20605
19377
21296
19285
18778
19654
20165
20969
19584
21795
19318
21520
19275
18648
19422
20660
20444
18729
18962
19511
19580
20860
20090
19740
19378
18597
20223
20162
19028
18176
18167
18152
20983
19016
20059
18195
20891
18844
19370
19081
18974
20070
17578
19785
19678
19043
19454
20792
18564
19884
17104
18896
20091
17721
18639
18727
19720
20285
19079
18499
19818
19609
18721
18675
19128
17682
19077
19985
18444
18215
19348
18028
20517
19888
20986
18356
19318
18595
18535
21005
17562
21274
20553
17941
18354
19286
19503
18123
19205
18890
19526
19634
20050
18628
19323
18021
20408
20320
18519
19093
19151
18807
20254
19479
18545
20115
19586
20513
18770
20083
20385
19682
20166
20144
19771
19584
19969
19617
20776
19390
19972
20253
20660
19525
19495
20110
18512
20830
20252
21223
19838
19055
19840
18066
20092
21240
19078
18902
20727
19848
20759
20591
21476
19792
20302
19689
19182
20002
18810
19670
19398
19179
20004
20674
20439
19987
19746
18867
19509
19199
19079
20642
18720
19984
21536
19606
20702
19596
19125
20271
20575
19507
18838
19787
21385
19878
20034
21183
19381
19944
21360
19967
18673
20946
20376
20971
20900
20232
19197
18004
19873
20496
19737
20316
19213
19996
19438
19703
18872
19232
19066
18106
19236
20157
18296
18841
20731
18627
20480
19441
18232
18871
19569
18969
19499
19539
18057
18351
19763
17693
19905
20616
19391
19804
18279
19919
18038
19798
20453
19338
19622
17821
19010
18798
17072
18509
18566
20180
17520
17972
20466
20495
18418
20547
17500
17343
17334
19041
20426
18999
18530
19744
19242
18256
20086
20927
19231
19951
19821
17612
19387
19250
19295
20731
18563
19538
18357
20014
20154
19302
18975
20165
19798
19775
19248
19860
19066
20586
21194
19712
19381
20099
20610
17477
19313
20630
20147
20331
19233
21715
19428
19594
20764
18036
18338
18220
19113
20479
19547
19602
18969
19767
18249
19450
20822
19844
18606
18490
20820
21400
18810
21555
21265
20498
20237
21351
18884
19420
18834
21327
20638
20390
20683
19233
21452
20661
19061
19194
21267
19138
19064
19617
17632
19466
21132
20041
19989
20214
21480
20683
19848
20674
22014
18606
19935
20902
19825
21260
20741
21676
20642
21052
19626
20496
20299
18837
20798
21998
19412
20003
20903
19336
20448
19325
21237
21231
18052
19755
19818
20899
20933
19890
21779
19440
18265
21394
20592
19259
20404
18870
19787
20417
19016
20857
19119
18043
20249
19862
20903
19820
20989
20149
17911
17982
20329
19739
19869
19130
17637
18797
18195
18413
19651
20163
17166
18040
20680
17762
19930
20180
18477
17555
18036
17945
18552
18401
19887
20812
19365
17452
19834
18308
19056
18484
20851
20644
20148
19303
20531
20564
20428
19450
18650
20516
19203
19421
21893
19670
20956
18594
20956
18657
18774
20318
20858
20949
19070
21495
19395
20830
19914
19001
20292
19169
21046
20648
19417
20890
21198
20203
20112
21039
21041
19247
19483
20742
21135
19197
17537
20695
20632
18376
20264
20152
18881
20363
19501
19261
19829
20668
20349
18468
20799
18287
19520
19144
19691
18787
19896
19340
21120
18362
19130
21009
19811
19020
20302
19206
19364
20154
21360
21181
21079
19725
21734
20268
20792
19276
20968
19095
19691
20817
20399
18408
19064
20955
19746
20750
19168
20090
19635
18437
19802
20436
19685
19835
19797
19730
19524
19672
18141
19917
17608
20625
19691
18646
18624
19540
20770
20871
17985
20776
18177
16348
20577
17646
19879
17823
18491
21135
18860
19401
18570
19769
18701
20032
20492
18691
18463
19719
19135
19925
17035
18593
19265
17882
19804
20543
18937
18716
17301
17655
19421
17670
20208
18160
19633
19303
17992
19339
17944
17546
18049
19545
17833
17323
18892
19377
20051
18185
20400
18517
19493
18940
20016
19152
20213
18910
17733
18728
17554
20758
19027
19003
19879
20325
19457
18831
20758
18666
20506
19112
18598
19074
18957
17986
20758
18487
18119
17371
18235
19270
17914
18934
21100
20141
18846
19555
21521
20103
19025
19616
18447
19613
18421
20847
20171
19375
18665
19368
18723
19083
19645
19305
19557
17634
20099
19297
19662
19059
20668
18313
19523
17725
19149
19491
19337
20826
21289
20384
20216
18770
19922
18842
20507
18626
19163
19999
17027
18327
19040
19841
18422
20169
19128
20369
20488
22014
19364
20695
21116
20283
19432
20074
20785
20334
18683
20285
20487
20970
21606
19342
21574
20623
20845
20351
21587
19954
21098
20438
19243
20185
20210
20921
19857
18672
18496
20474
21159
21012
19911
19080
20752
19294
21725
21725
20185
18573
19513
20934
18509
19109
20825
21750
18414
19968
20992
20080
19363
20813
19112
21040
16166
18710
18489
19805
19319
20268
17747
18801
19106
18888
18949
18391
19925
19227
18975
16672
18716
19994
18149
18579
19595
18819
18249
17582
17885
18480
16734
17000
18084
19555
17752
17434
18414
16944
16159
16868
18047
16556
17493
17877
17153
18737
18259
18043
18016
18526
17405
17072
16762
16666
16812
16460
17230
16478
19451
17764
16406
18528
18869
18905
16707
18005
18120
18564
16861
18802
17377
19769
16965
20174
18677
17225
17769
17932
17851
18901
18139
17659
18279
18131
18567
17784
18801
18647
19633
17989
19190
19656
17900
18370
16617
18676
19358
18904
20419
19029
18247
17575
18803
17680
18968
19777
19994
18487
19049
19285
18854
17595
18552
19029
18702
20049
19808
18475
18399
18248
20190
19067
20541
19618
18206
20112
21173
18676
19028
20530
19516
20359
18008
21138
18124
18767
20603
20412
19122
19549
17488
19939
19574
20519
19652
19111
20189
17253
20323
21137
18963
18476
19901
19112
18678
18176
20362
19088
17486
19526
19329
18981
19731
19397
20478
18454
19730
19098
19289
20868
19363
20013
18444
18550
18071
21319
19914
17790
18282
21446
20038
18359
18700
20942
19786
18404
20325
18130
18910
20178
19704
17643
16195
19163
18381
20096
19133
18331
18670
20085
20145
17530
20641
17080
18135
19025
18570
17444
19072
20085
19411
18073
18087
18880
19936
18875
19125
20313
17239
17318
18750
18094
18856
19142
17303
18970
17326
18538
20068
18292
17134
18750
18686
20381
19471
20299
19403
17669
18446
21023
19868
18838
20137
18414
18225
19073
18136
20128
20243
18444
18171
19662
18681
18007
18351
19263
19137
19223
18819
20281
17103
19719
19861
17551
20356
20381
20529
20391
17001
20518
18226
19908
19145
18090
19183
18465
19347
18370
20146
18995
20127
20582
18815
17898
20553
18870
19856
18774
18294
18665
17584
19193
18055
19337
20074
18883
18606
19495
18303
20092
19576
19422
19823
20829
18630
19140
19179
19369
19687
19530
19743
21065
19327
20637
21338
20263
18074
19700
19255
20112
17986
18011
21240
18768
20302
20926
19699
18486
20474
21024
18252
18432
17911
20828
21083
18508
20603
20947
20720
20906
21065
20262
19492
19993
20850
21862
20309
19817
19760
20177
19297
20533
21348
19188
19192
19327
20957
21008
17631
20563
21490
19643
19441
20712
19817
19650
19251
18373
20416
17624
18764
21338
19162
20787
18551
20874
19072
20096
18503
19873
17962
17856
20712
18486
18132
19583
17731
20242
18386
20179
20196
17818
18443
20429
18329
20448
19669
18762
19487
19505
17706
20331
20140
20054
18771
20822
19661
18027
19850
20428
18300
16879
18730
19644
19084
18360
18904
19754
20503
19814
19873
20046
19311
20013
20249
17684
18746
17766
20390
18575
20385
20157
17725
17645
18284
18753
18953
18154
19536
20245
18899
19868
19668
20020
19595
19000
18886
18548
19531
19007
17966
18643
18399
18608
17924
18430
19265
19460
20712
18827
20405
18297
18631
19071
19829
20647
18935
16865
19359
18593
18620
20133
19219
19730
20083
19512
18087
18390
19643
19313
19071
18391
18450
19179
18679
20266
19847
19369
19288
20733
19009
20722
21412
19928
19377
21402
19595
19774
19908
18747
19261
18550
19307
19562
20033
20569
18796
20599
20283
17138
20769
19096
19856
20847
21318
21247
19969
20094
20949
20679
20021
18698
20500
19328
17843
18632
21609
19287
18205
20601
21351
21029
20386
19618
20670
20468
20003
18450
19324
17815
19111
19434
18550
17790
19347
17903
17844
19532
18045
20177
19111
18388
18312
18785
16872
17609
19956
17300
17781
18916
18007
17459
17205
19538
17690
16825
18978
19556
17821
16386
17362
17633
19721
19605
18816
16975
17339
18254
18523
17561
17879
18398
17407
18671
17632
18138
17524
18627
19111
19206
18417
19992
18132
20280
20545
17256
19387
18858
19433
16585
19706
19844
17931
17116
18028
18994
19818
19649
19166
20574
18466
18469
18309
17473
17572
17740
18684
18391
18802
19479
19033
17408
17849
18173
18785
19059
16937
18379
18145
17099
18293
20760
18998
17162
19371
18177
20093
19775
18938
18482
18346
18592
20529
18589
19274
20032
19716
19629
17500
18760
20831
18037
19234
19434
19888
20560
20545
20446
18809
19975
17747
18685
19094
19337
19541
20044
19984
17883
19650
19635
19193
18631
19888
18607
20727
20288
20155
20921
18241
20614
18688
19594
17428
19950
20792
18751
19614
18787
18665
18396
18859
19807
19505
19766
18836
21367
18773
20237
19389
18516
18721
20189
19401
17697
18474
20001
20656
18505
19406
19814
19931
18835
17833
19986
19952
18713
20187
18048
20235
17572
19719
19169
17888
19507
17446
19449
19382
19973
19529
18627
17749
18585
18674
18661
19092
17717
20146
17079
19010
18436
19435
17396
16834
18429
19208
18330
19354
18234
19497
18415
16670
19690
17621
17013
16293
18165
16495
18961
16886
19164
17284
17376
17520
17559
17993
16766
18809
16702
17391
16731
17546
19778
17127
17934
18215
18033
18756
18130
18035
18471
16652
18407
18780
17486
18011
19986
18896
19616
17047
19453
17485
18458
17539
19986
18769
19291
19520
18548
17686
17447
20141
19039
18068
18163
18258
19430
18970
19893
19823
18171
17311
18973
19468
19031
19482
19264
18151
19240
18964
19346
19828
18020
18386
18522
20449
18465
18420
18964
20012
20974
20712
18946
19988
17608
18462
18672
20836
19284
19448
18528
19383
20096
19327
19940
18203
18561
18808
20075
18913
19195
19777
18669
19008
19731
21228
19547
19551
18681
19628
18765
19620
21126
20267
21025
19571
20082
21207
19203
19610
18555
20099
18036
20974
19756
18541
21065
20295
20291
21008
21363
20512
19968
21065
20746
21055
21323
17821
21016
18364
20103
20693
20192
18821
19466
18921
20822
18110
19630
20338
18853
18554
17943
18720
18898
17558
16512
18055
19876
18166
18169
20101
18782
20124
19195
19053
19609
18465
19049
18281
18152
18513
19328
18905
17926
18205
19276
18674
19862
18739
20242
19733
19296
18438
18279
19481
16683
19966
18981
17846
17765
18158
20267
18738
18258
19666
18544
18989
20876
17811
18034
17197
20453
18549
18293
20418
18208
19874
18252
18824
20279
18108
19971
19958
21415
18684
18637
19919
20149
18279
19741
18599
19795
17419
18816
19699
19417
19572
20381
20845
19227
19262
19345
19310
19299
19532
18917
19044
20286
18731
18148
19624
19644
18890
20310
19955
18947
18386
17862
20640
18909
18750
19309
18918
18160
18531
20533
19150
18618
19108
18922
17667
19092
19039
20750
20438
18751
19682
18272
20110
20316
19396
17981
18389
20112
20371
17439
20270
20922
18433
18247
18408
19691
21051
20293
18782
20531
20998
18365
18188
19869
21089
20388
19608
19000
19252
19676
21144
19177
19447
20150
19579
20494
18072
18627
19266
19082
18898
18670
20742
20080
20671
20953
17642
17601
18667
19325
17683
20528
20341
18958
16978
17696
17246
19687
17382
17908
19716
17461
19222
17170
17807
19687
16759
19934
18031
16451
17477
17794
18222
19274
18469
16480
18478
16743
19072
19392
17985
18353
19397
18190
18689
18086
19392
18516
17931
18776
18596
18371
18091
19599
15937
20236
19701
17987
17273
17599
17088
17939
17968
16416
17995
18209
19485
19856
17580
17288
18586
19960
20101
18403
20313
19740
19261
20446
17182
17755
20243
19250
21923
19108
20894
19801
18454
18046
20140
18127
19641
18112
18310
19558
18005
20388
20036
19921
18765
20088
20522
19509
18224
18731
18260
18658
20280
18426
19149
20339
18718
19564
18708
18633
19129
19557
16597
19121
19418
19325
17401
19370
20217
17849
17684
19035
19145
18400
20354
20397
19172
18067
19112
20049
19448
17981
20692
20195
19003
18390
19168
19113
19440
18721
18418
18526
20416
19276
18699
20262
19976
18466
20856
18039
18044
18223
19306
20197
18741
20919
18791
18865
19362
18819
19929
17514
20879
20947
19168
17995
18514
18857
18646
18576
19715
19600
20330
19568
20744
19591
20110
18483
19289
19257
18489
19521
19534
17262
19655
19630
20598
17401
17228
20054
18380
19916
18845
17757
18963
17024
19525
19698
18291
19043
17228
18425
19072
19363
19745
18785
16387
17340
19879
18818
17642
17601
17002
19552
18628
17397
17462
16983
16943
19533
16916
19123
17821
16685
19006
16065
16831
16968
18137
17895
17919
19582
18547
16352
17343
19068
17669
17228
17610
19506
17303
18354
19501
18515
17880
17313
19205
17279
16326
18150
19588
17517
18975
19432
19043
18585
18416
17407
17164
17091
19531
18572
17059
19333
19455
18263
17315
18005
19344
19797
16580
18617
17512
17915
18744
19073
20045
18446
19579
20050
19326
19842
17625
18255
17983
19159
18142
17743
18193
17897
18314
20244
19235
16546
18508
18607
17390
16829
20797
20414
18821
17274
20258
19375
17457
18989
18667
18787
19679
20707
19170
19976
19117
19072
20289
17742
17540
18704
20763
20283
18507
18962
19509
18851
19319
20658
19284
19439
18958
19081
17971
19529
20616
20335
18057
19482
18791
20371
20753
19689
17999
19301
19832
19138
21036
20961
20017
18628
21423
20260
20080
19894
19314
19262
20506
19526
20016
18777
21381
20589
18490
19485
19533
20529
18302
20344
18456
18494
18983
18579
20280
18815
18751
19152
19605
19071
17183
19170
19631
18316
18565
19118
19426
19452
18392
18933
19448
19202
17790
17398
18917
17086
19064
19322
19406
17382
19338
17160
18766
19661
17819
18712
17223
17980
19054
20144
18689
18243
17874
17933
18494
18323
21319
19818
18475
18330
20240
17031
19399
20750
18176
17600
19554
18601
20167
19494
20677
19641
19951
19720
20024
19518
19568
19156
18123
19108
17586
20236
20747
18974
18577
18997
20648
20233
17842
18860
18832
19230
18435
20750
20161
18915
19134
19131
19906
18477
20439
20368
18118
21082
21166
18459
17750
19464
19076
20516
18633
20360
19062
19277
20562
19962
18886
18785
18131
18506
18706
19989
20675
19991
18944
18023
19910
20973
20668
20327
20618
19690
20373
17656
21419
19588
18635
18572
19135
19784
19914
19671
21555
21005
20005
20968
19421
20977
19525
18939
21854
18828
19960
20816
21179
19268
18289
21178
19439
19941
18693
20356
19546
19108
21163
20408
21220
20770
20038
19858
20223
20710
19385
19335
20334
18981
19684
19322
20497
20188
18910
20068
17853
18568
21430
18359
20837
19347
19256
19015
18580
19896
19443
19308
18959
17732
18522
17122
18067
19382
18545
19173
18720
19555
17061
19611
19509
18396
16854
19600
18553
17874
19891
19522
18500
17406
19794
19779
19089
19914
17285
18542
20446
19727
17312
17645
18246
18174
18918
18007
19102
19707
19665
20467
18781
18550
20016
19843
17758
16964
18530
18870
19942
18491
20706
19516
19548
19955
20328
17698
16884
20597
20063
17294
20317
19703
18798
18967
19148
19194
18034
19425
20311
20147
19878
18001
17955
17709
18509
20601
18695
19837
16681
17517
18538
18846
20042
18575
17654
18701
17122
18652
19571
18718
18893
19683
18936
18490
19001
20376
19236
20039
19513
20463
18871
17055
18304
18059
19044
17392
17950
20814
20195
19472
18985
18031
18839
20258
20491
20321
18294
19425
20913
20659
19133
18212
19321
20083
20333
18708
20129
17722
19964
19358
19480
18143
19780
20078
19082
19096
19880
19456
18573
19435
20360
19387
20310
19195
18310
19944
18027
19573
20965
18766
20561
19785
18613
20812
19325
19372
19093
18915
18201
20464
19573
18221
20037
20096
18635
18503
20347
19474
19640
17226
19193
18518
17468
16841
19752
17359
17670
19102
17976
18558
18355
17250
19171
18991
16798
18118
18997
19300
16927
19903
19305
16892
18697
17357
18802
17746
18252
16708
18614
17495
17762
17016
17537
17222
17774
17503
17655
19005
20388
19210
16696
18435
19724
18433
17408
19348
19034
18665
17919
17901
18044
18427
19081
18138
19170
18609
18411
18360
17432
18272
19404
18591
18778
18611
17828
18560
18856
16736
19060
17786
18438
17841
20386
18367
19118
19508
18159
17490
19830
17335
18492
20262
17004
19137
18517
17638
18395
18533
19307
18724
18704
19392
18836
18211
19080
18878
18852
18665
19184
19937
18774
19023
19866
20096
18907
18418
19812
19274
20143
18860
18069
17774
20619
20760
18910
18177
18241
19516
20000
19147
18159
18894
18815
18499
19512
19530
18846
18575
19667
19994
17665
18726
17993
21228
17873
20241
20996
20152
20541
19752
20248
19777
18556
19422
18106
19564
18373
20395
18770
19908
19861
19264
19358
19368
18745
21223
19557
18622
18746
18769
20368
19478
18680
20885
20458
20731
18732
18722
19712
20881
19972
20422
19240
19708
19588
18982
19861
20674
20706
20620
17144
19940
18563
18279
18744
20265
20330
16798
17952
19488
18404
18564
19371
18852
18514
18914
19466
17960
17647
17545
19091
17864
19359
17633
17689
18395
18728
18116
18591
18222
19098
18483
18226
18947
18331
17976
17685
17766
20049
19757
19458
16870
17331
18900
20070
19666
18887
17196
17804
17616
17730
18262
18979
19774
18537
19035
18990
17698
19476
19487
19631
19525
20506
17578
18889
20388
19854
18410
19548
20115
19909
17761
19073
19497
18823
18304
19862
19499
19417
19785
19041
20278
20069
18148
19507
20265
17239
18823
19382
19540
17120
19331
20031
19237
18780
20257
21124
20009
17676
18526
19243
19495
18518
20822
20254
17366
19792
17660
19415
20630
20309
18819
20034
20699
19033
18463
20663
18577
19108
20388
18061
19005
19079
20700
17852
20326
19314
18198
18106
20207
20164
21141
18612
20147
21273
18619
19189
18386
20316
20602
20825
18526
19387
18034
21303
19148
20748
19992
21263
18758
18958
20591
19853
18792
18661
19439
19828
20270
19527
21583
20350
19155
21099
18753
21636
19750
19402
21328
18772
18343
19657
20305
19801
20119
19013
19637
19679
19034
19027
19178
19024
18859
19270
20418
18264
18268
19444
17893
19394
17666
19608
18622
18765
18804
19218
18973
18130
18780
19416
18063
18813
18746
19105
18402
18441
18461
18802
18931
18539
18857
18701
18310
18277
18385
18145
19285
19684
20197
18215
19404
19186
18484
18273
19161
18651
19458
17933
19106
19622
19064
18521
19773
18207
19054
19669
18274
18115
18359
19865
20216
18310
17901
18352
19080
19522
17714
19046
19183
19066
18715
19177
19834
18132
18683
19017
18886
16963
18667
20650
19697
18355
19695
21391
20175
20400
20263
20577
19312
20416
19314
19097
20541
17947
20107
18079
18729
18151
21030
18081
19589
18742
20782
18854
18532
16927
19555
17781
19385
18302
19259
20166
18178
18531
20741
19409
21153
18583
19798
20209
19376
19125
21093
20083
18783
19570
20258
19620
21402
17895
20365
20862
19512
19812
18474
19352
20589
19016
19645
19929
19555
19658
20298
19931
20922
17607
18767
19244
21175
17916
20945
18601
20066
19182
19819
19810
19704
19207
19024
18647
17765
19294
19899
21225
18038
21363
21141
18166
20044
18853
19783
18124
19142
19340
19331
18617
19324
18912
19007
18533
18737
18942
18613
17752
19037
18623
17954
20020
19219
18787
16992
18509
19383
18178
19875
19774
19438
17225
18520
18820
17666
18188
19795
18932
18661
18189
17344
18362
19180
16129
18416
18617
18340
18245
19016
17817
17312
19288
18726
20578
18621
18555
18674
18425
17535
19630
18129
18751
19186
18528
18949
19137
18657
19103
19074
19269
19062
19480
18777
18575
19085
18878
18962
18519
18925
18908
18639
18044
19067
18285
18487
18871
20942
18861
16879
18276
18107
18586
18227
20121
19484
18944
19588
19607
20517
18568
18790
19982
18463
18623
18144
20259
20149
16948
20109
18072
19679
17821
20288
19498
17650
18108
19560
19945
17837
20717
20063
20203
18332
19703
21051
19844
19368
19546
21537
19722
18573
19550
20414
19752
19022
18927
19648
16926
20051
19145
20852
18935
18569
19767
20393
19022
20903
18295
18165
18188
19218
17724
17939
18828
19537
18879
17535
19758
18251
20759
19564
19316
20540
18385
19629
19795
19810
19940
19584
20768
20425
18825
19506
21208
18418
21016
20263
21165
19118
17829
20951
19265
17393
18796
19022
19608
19043
17839
19450
17775
16621
20558
19359
20353
17623
17990
17504
16797
19436
17066
19925
18695
17758
17532
17983
19085
19752
17635
19750
16642
18954
16820
17669
17398
19043
18956
19032
18571
18924
18486
17389
19238
17687
17079
16573
19456
18419
18103
18020
18724
19104
18186
17038
19033
20204
18028
18685
20460
19730
18558
18107
18640
17275
18735
18867
19597
17639
17983
20231
18351
19745
19079
18564
18902
18070
18973
19657
19215
18829
18398
19085
18082
18980
18418
19333
19408
19158
18399
18960
17330
19099
17799
19069
18962
18945
20507
20461
20612
18316
18531
19563
18848
19948
18077
18714
19304
19488
20317
18374
19611
19194
19127
21114
18464
20452
18306
17780
18055
18264
19270
20134
18394
19491
20047
19032
18030
19852
18179
20918
19516
19480
19453
19698
19650
18766
19172
19637
19599
18994
18793
19765
20369
19403
19169
19187
19290
19035
20837
18482
18004
20288
21144
19839
17599
19460
20418
19752
19576
20078
20437
20009
20011
20502
19607
19412
19466
20526
20174
19398
20192
18647
19082
21033
20766
20633
18535
18159
20177
19579
20784
18739
20545
19357
19200
18273
20129
20333
19927
18291
18514
18650
19723
21267
18788
19649
18400
19844
18549
19830
18419
19827
19166
19557
20184
20609
20511
19424
20813
18939
18656
17799
19042
20575
19044
18931
19948
18564
17773
17894
20297
19288
19828
19675
21078
18397
17739
18478
20331
19364
18776
19436
20023
17704
18709
19062
19434
18417
19203
21003
18812
17498
20388
20184
18598
18232
19872
18411
17253
19768
18375
19430
18535
18725
18311
17812
18424
20707
20186
19785
17473
21228
19532
18223
20604
18726
19509
18120
19661
21366
18669
19567
19817
20835
20486
18833
20565
20907
17995
17797
19535
18913
17718
19961
19395
20278
17140
18426
19188
18876
18131
20125
19578
19617
19056
19437
19440
19023
19081
19422
19230
18872
19748
19736
19446
18374
19527
19598
20174
18461
18310
20379
19113
18553
19686
19942
18759
19244
19919
19648
19971
19704
19796
19650
19429
19756
20314
19276
19401
20711
19944
20588
19145
21011
19839
19321
19287
19181
19598
19416
19573
19861
18279
21227
20770
22026
19658
17706
20415
19542
17851
19440
20147
20931
19014
18537
19747
20149
19087
19740
19288
19102
19036
19525
19388
18483
20539
19725
18476
18387
17826
19296
20488
20318
20661
20318
19539
19083
18527
18806
19100
19129
19137
19314
17901
18406
19162
18350
18592
19283
19240
19497
18160
19511
17637
18823
17800
19497
18444
17940
18697
18917
18774
17895
19448
19234
17820
19701
20815
18232
18379
18544
20462
19186
18280
19079
18563
18915
18065
19353
19367
17910
18199
19209
18772
17946
18871
20225
18126
18461
18454
20358
19495
17394
19263
17995
18128
19827
20507
18775
17705
20560
17961
20567
17652
18028
19975
19827
17038
20228
18489
18845
18649
20354
19163
20688
19706
20941
20485
20323
20433
21348
18870
19910
18793
19873
18006
20079
20342
20641
19625
17644
18833
21073
20998
17953
18802
19205
19789
18113
20291
20164
17788
19625
19953
18825
21009
21121
19074
19185
20000
18707
19258
20493
19328
19186
19321
20703
19840
19820
19700
17853
20576
19461
18180
18287
19041
18518
20588
20156
21621
19095
18091
20497
18991
20204
20466
21599
19919
19810
21290
19241
21847
20845
18099
19133
21648
20065
18530
18485
19782
17909
21148
21822
19286
20192
18943
21066
20142
20369
18373
20438
19284
17933
19589
19421
19238
20244
18997
19520
19200
17870
20213
18680
17694
20217
18089
17555
18968
20310
18830
16755
19134
19667
18827
18343
19627
20024
19155
16975
18906
20082
19539
18298
19658
19275
19578
19449
20485
19191
16691
18062
20924
17040
17486
18095
18712
19945
18273
18088
18412
17763
17338
19463
19395
18783
19126
17353
17215
18186
20272
17976
17354
18105
19248
17548
19213
17080
17710
20028
17431
18669
18235
18250
18865
20745
17384
18032
16973
18067
18596
17786
19105
20156
18912
17547
18659
19282
19221
17780
19243
19129
18167
19761
19304
17892
18658
18025
20348
19335
18863
19405
18208
19595
19932
19712
20078
19044
19176
21021
20022
19148
17593
18530
21258
19909
20269
19522
20980
20279
19520
19710
19529
20304
20116
18560
20588
17354
21408
20293
18334
20341
20243
20490
20929
19415
19778
19963
21199
19614
21070
18845
18871
18290
19118
20215
18894
20967
20190
19776
18685
21560
20979
17844
19965
21230
19376
20447
21270
17960
21073
19566
21843
20239
18594
19487
21992
19407
19071
21019
21213
19069
18709
20953
21435
20762
21736
18976
20743
21374
20612
21518
18459
18596
19665
21126
19089
19624
20962
20247
18304
19305
17825
17533
17451
19963
19139
19928
19756
19672
19778
18761
19879
18926
20719
19147
19485
20086
19121
18391
19686
20019
19824
17684
18054
19198
18753
17995
19478
20543
19501
18466
19172
20881
19249
20556
20809
20854
18335
18552
18523
19105
18052
20268
18650
18566
18515
20395
20410
21200
19937
18862
20371
19585
18839
21041
20617
18330
19101
18614
19158
19500
19843
19087
19495
19613
19496
19505
18883
19670
19383
20901
19580
18962
19476
20414
17863
20651
21115
20718
17956
21135
19620
20298
17559
19793
18579
19857
20350
20116
18558
20798
18472
21227
19108
20669
20394
19212
20783
20552
21327
20008
20612
20968
18938
18741
20597
21233
19063
20380
19656
20024
21113
19523
18677
19651
19392
18991
21322
20537
20051
18585
19701
20785
19321
18450
20812
19081
20632
19986
19200
20239
20404
18073
19056
19889
21087
18037
19250
21281
20662
20681
21360
19223
19430
21385
18430
21380
18531
20399
20677
18400
21334
20755
20317
18620
19199
20184
20786
19318
19082
21118
19098
20819
20086
19185
20383
20510
21332
19430
18161
17634
18373
20423
20267
19229
18822
20311
16803
18557
19987
18330
20164
17894
19558
19487
19598
18225
19294
19502
18930
20667
18973
18948
18980
19696
17802
20087
18391
19031
18486
19817
18564
19471
19120
20296
18760
18391
17801
19050
17771
19069
18735
17460
17898
20006
20082
17916
19040
18518
19074
19316
19617
18543
19647
20163
18259
17735
17879
19060
18796
18752
17501
18934
19056
20069
18647
20910
18514
18160
18910
18348
19093
20332
18331
17924
19387
18690
19533
20800
20422
19012
19195
19944
16956
18381
19985
17458
17702
19527
17703
19036
19287
20482
19910
19766
19017
20682
17743
18256
18534
19507
18489
19151
17865
19415
20220
19300
20901
19197
19607
20382
18212
20255
20248
18878
18034
17391
20305
18372
18619
20717
18565
18568
20773
17901
20310
20973
20057
20285
19487
19757
20056
20401
20978
18465
20645
19907
19132
19704
17980
19853
20683
20366
20849
19159
19909
18598
20691
21160
19664
18362
18589
19412
20911
17705
19977
19518
19118
17315
18658
20481
20574
18854
20039
20641
19744
20452
19458
19847
18909
20152
19127
19364
17610
20243
20996
19550
18593
21138
19597
18914
18694
19912
19049
16648
18664
20980
18714
18365
19622
17143
17811
18971
18678
17381
18596
16812
18649
18150
17036
17540
18052
19167
17553
19275
18575
19748
16865
19849
17801
17660
19313
19654
19113
17121
19321
19910
18790
18530
18415
19856
17964
16973
17770
17879
17884
16498
20395
18731
19358
19172
19414
18942
16737
18427
18932
19085
18323
18569
17184
17427
18947
20616
19523
18357
19327
18613
17525
19367
19722
17996
18734
17708
17899
19377
18299
18501
19754
19158
19463
19202
18679
18134
18766
20471
21282
18219
17124
19644
18610
18394
18544
18975
20542
18815
18813
19255
18928
19019
18939
20439
18433
19129
19631
18186
18437
17396
19829
18421
17699
17507
21336
19912
20360
19624
19479
20537
19260
20384
20640
19147
18723
18525
20216
20899
20345
18058
18143
18984
18358
18598
19810
19838
18269
18050
20113
20078
19671
20967
19667
20286
19171
20488
19660
17425
19003
19036
20272
19934
20706
19399
18200
19597
19427
20973
20660
19411
21219
20877
20334
21325
18871
17941
17741
20780
18709
19742
17844
19841
20555
18876
20269
20970
20821
18970
18535
20233
18391
16846
18303
18935
18800
18463
20739
18821
18095
18928
19382
18487
17819
18780
17082
19524
17210
17473
16860
17768
19732
18104
19797
16388
18863
19263
19565
16781
18604
17858
18416
18018
17927
20041
17244
19198
20154
19603
17263
17942
20051
18130
17783
17953
19010
17919
19672
19981
20524
18450
17253
20361
20030
18906
18638
18991
19525
17314
19682
19475
17698
18513
18240
17330
17220
16592
19117
17922
19087
17004
20837
20430
17795
19191
18880
18622
19993
19666
18205
19822
19534
18597
18712
20327
19310
20706
18852
20455
20206
19399
18944
20052
18124
20363
19186
19523
18684
19369
20563
19774
19455
19917
19576
20408
19996
18087
19504
18186
19038
18288
18256
18311
20494
18389
20430
18476
19607
19520
18897
19356
19682
20280
19212
20361
20037
18968
19244
20997
19861
19126
20894
19865
19885
19578
20532
19619
19173
21166
20019
20749
20324
21531
21263
19454
19678
18318
19531
20569
20088
21056
21715
20687
21497
21464
19041
19268
20431
19038
19167
19597
21444
19392
19611
20175
19088
21703
20161
20915
20019
19482
18238
20290
20736
19527
19533
19323
20773
18525
17293
21247
19558
20490
19956
20193
21022
17372
18037
18170
19785
17136
19474
18785
18526
18829
19922
18032
17983
17386
18382
18468
19048
18477
18521
19748
16616
19391
20647
19674
17931
20186
17342
18953
16982
18952
18082
17067
18803
18135
20074
19183
19789
16649
19050
14869
18293
19902
19736
16557
17927
19635
17977
18791
18428
20389
20149
18750
17883
19655
18390
19696
20316
18174
18604
19683
18687
19212
17362
18915
20249
19335
20563
20213
18317
19465
18539
20410
19242
16914
19462
20305
20276
18124
18296
19430
19095
19117
20512
19181
19213
19238
17273
19465
17993
18600
17715
19419
17661
20333
18292
18311
19308
19969
19963
17149
19571
20789
19141
18273
20648
20207
18766
17478
20630
19677
19807
17623
18544
18056
19765
18208
17854
19400
19616
19099
19514
19571
20470
19675
17622
20733
20415
19562
18911
17969
18536
19176
18994
19686
19460
19853
19561
19208
18655
20023
19403
18433
20890
19023
20095
20092
20568
21070
19123
19003
18052
19992
19735
19439
20616
19624
19280
19770
19555
19235
18894
19786
19503
19150
18385
19520
19383
18847
18744
18995
19202
18688
19045
18405
19104
16878
18169
19865
17006
19858
18351
19285
16779
18311
17941
18182
17860
19428
17639
18193
16686
17430
17073
18776
16666
17578
19653
17126
16370
17125
18515
17704
18614
19012
17535
17199
19782
19827
17334
16952
18320
18288
17229
19083
19972
19243
19284
18468
17129
18198
16854
17728
19935
17473
17667
17716
19820
17193
19518
18418
17392
17784
18122
18821
18237
18910
18263
17869
20259
19607
18955
18202
18300
17223
17434
17791
19503
18652
18166
17964
19872
19410
20450
18916
18205
19552
18437
19429
19568
18514
18997
18429
18334
18636
17830
19327
18975
19388
19046
16525
20142
17863
17742
18616
19670
19937
20039
18513
19207
17930
17921
20206
18872
19541
18208
17757
19600
19541
18373
18012
18261
18797
17882
20106
17622
18510
18967
17938
19049
19481
19040
20868
19125
17805
18965
20903
19130
18092
18482
19837
19407
17928
17954
18840
18293
19533
18272
19811
20171
20746
20036
20937
17830
19004
17581
19465
20388
20692
19565
19914
20374
19002
18487
18348
19315
18551
19645
18154
19973
20423
20033
17159
17406
17412
18352
18349
18380
18427
19283
17824
16489
17159
18707
18613
18489
18786
17729
17605
17384
18656
16892
18458
18869
18583
18786
17017
18013
16969
19222
17261
19439
19243
18545
18060
16624
17896
19112
19535
18448
17480
17558
18168
16782
18901
17029
17283
19327
17773
18088
18569
16562
20015
19129
17371
17013
17921
18576
17688
17647
20669
19272
17272
17943
19547
19717
16837
18289
19456
17838
17965
17996
18012
20346
18410
18347
18136
18137
18022
20242
18010
18499
17983
19220
19565
17080
19124
18160
19579
19531
17693
19444
18391
19369
21089
20275
16407
19536
18058
18946
17759
19671
18201
18142
16573
18517
18618
