30019
32280
34331
32364
31611
34350
35056
32877
33030
35001
33593
30719
31898
34227
32946
32091
34726
35868
33625
32981
34813
34464
32431
33500
35682
34346
32727
34882
36831
35173
33992
35707
35971
33567
33283
35540
35620
33833
34517
36650
36212
34847
35708
36330
34590
33946
36002
36644
34365
33867
36534
37414
35540
35563
37254
36203
34105
35540
37643
36125
34648
36559
37875
36385
35855
37371
37236
35728
36814
38608
36860
34844
36800
39036
37497
35685
37052
38108
36736
36915
38894
38287
36301
37309
39396
38430
36409
37030
38347
37789
37358
38246
38073
36704
37296
39449
38977
36604
36920
38715
38027
37064
38671
39277
36754
35939
38451
38709
35599
34845
36926
36523
34186
34786
36261
34196
32120
33895
35156
32703
31075
33072
34264
32479
32140
34265
34002
31484
32076
34853
33884
30878
31830
33969
32490
31559
33884
34370
32158
32625
35364
34827
32080
32609
34661
33684
32518
34558
36020
34433
33852
35754
35927
33881
33826
35580
35284
33747
34751
36901
35949
33910
35104
36486
34290
32928
35322
36220
34007
34413
37383
37047
34620
35345
37139
35754
34164
35935
37109
35029
34579
37242
37878
36027
35920
37057
36098
34588
35800
37539
36593
35632
37306
38522
36997
36084
37470
37325
35306
36179
38601
37284
34921
36900
40006
38977
36802
37808
38632
36597
36109
38405
38454
36222
36717
39039
38585
36979
37855
38865
37461
36684
38408
39116
37229
36815
39088
39503
37283
36898
38186
37143
35473
36839
37715
34851
33176
35352
36189
33829
32735
33993
33990
32800
33467
34160
32118
30977
33357
34910
33001
31537
32722
33325
32507
33519
35322
34059
31806
32801
34757
33653
32027
33508
34936
33303
32293
34228
35090
33153
32879
35478
35588
32480
32150
34893
35255
33842
34743
35919
34369
33468
35338
35918
33838
33259
35124
35852
35054
35633
36546
34977
33678
35874
37560
35052
32922
34926
36287
34428
34388
36728
36319
34354
35419
37359
36189
34423
35451
36396
34916
34840
37460
38171
36061
35618
37201
36570
34417
35284
37538
36843
35562
37375
39120
37406
36003
37968
38674
35862
35032
37641
38132
36049
36549
38986
38491
36845
38246
39378
36763
35319
38030
39162
36527
36324
39560
39870
37207
37323
39135
37815
35885
37578
38849
36226
35036
37686
38236
35301
34521
36285
35329
32660
33557
35542
33760
32038
33999
35100
32889
31906
33654
33802
31913
32351
34282
33344
31328
32469
34504
33478
31973
33301
34056
32133
32065
34674
34609
32019
32447
35135
34847
32970
33848
35125
33516
32547
34627
35415
33366
33426
36104
36224
34118
34534
36351
35661
34473
35847
36383
33826
33146
36058
36858
34262
33675
36047
36617
35202
35895
37242
35453
33754
35900
38066
36507
34628
35778
37080
36261
36187
37575
37164
35274
35661
37636
37106
34867
35120
36960
37062
36670
37788
38241
36686
36460
38712
38724
35666
35298
38050
38354
36665
37529
39169
37856
36647
38390
38876
36107
35299
37944
38660
36764
37360
39609
38759
37034
38402
39531
37306
35901
38167
39417
37228
36577
38914
39230
37189
37279
38592
36780
33993
34986
36873
35224
33651
35483
36618
34607
33483
34678
34065
31629
32108
34089
32932
31423
33581
35628
33994
32490
33856
34331
32520
32389
34210
33875
31949
32748
35137
34426
32427
33757
35460
33492
32253
34919
35989
33316
32957
35764
35854
33549
33877
35552
34656
33440
35100
36196
34096
33467
36417
37597
35294
34525
36436
36423
34351
34816
36881
36186
34708
36024
37400
35916
34913
36761
37404
35329
35287
37411
36862
34941
36264
38604
37550
35529
36347
37336
36115
36142
38429
38460
35803
35865
39054
39319
36458
36430
38557
37713
36067
37571
38708
36854
36615
39097
39018
36294
36199
38438
38547
37284
38297
39590
37894
36618
38879
40477
38389
36663
38143
39212
37839
37539
39092
38852
37286
38089
39880
38712
36604
37511
38650
36854
35856
37330
37027
34784
35142
37141
35729
32451
32898
35277
34429
32401
33303
34746
33688
33105
34933
34835
31895
31769
34610
34592
32565
33619
35612
34171
32687
34702
35794
33193
31993
34324
35065
33093
33576
36297
36112
34408
35733
37285
34998
32957
35130
36652
34428
33964
36898
37597
35795
36271
37771
35998
33841
35861
37989
36005
34888
37515
38622
36667
36315
37822
37130
35097
35793
37813
37402
36248
37561
39222
38166
36850
37994
38455
36527
36277
38369
38229
36108
36771
39355
39005
37080
37848
39058
37417
36440
38610
39419
36954
36401
39002
39450
37321
37480
39262
38419
36842
38336
39622
37567
36697
39179
39918
37646
37061
38757
38710
37397
38633
40545
39053
37107
38835
40747
38715
36583
38221
39356
37311
36923
38721
37514
34782
35937
38317
36340
33164
34168
35651
33752
33230
35721
35249
32057
32750
35904
34910
31817
32513
34699
33896
32870
34549
35208
32863
32399
35155
35507
32593
32068
34412
34726
33309
34210
35619
34094
33164
35844
37214
34236
32175
34400
36224
34895
34598
36481
36181
34121
35010
37202
35452
32723
34800
37566
35862
34731
37228
37710
35103
35131
37506
36671
34010
35108
37636
36498
34777
36533
38169
36818
36424
38398
37829
34607
34777
37881
37730
35259
36135
38860
38406
36931
38223
38834
36145
35100
37724
38554
36450
36901
39529
38997
37017
38172
39482
37175
35407
37803
39433
37142
36429
39391
40285
37986
37584
39297
38686
36645
37562
39597
38506
36998
38793
40599
39071
37818
39439
39592
36900
36664
38668
37480
34984
36194
38226
36688
34665
35617
36188
34106
33190
34780
34750
32434
32363
34896
34994
32635
32720
34467
33817
32774
34107
34424
32139
31963
34624
34920
32721
32783
34606
34262
33045
34290
35526
33781
32676
34854
36089
34222
33493
35354
35508
33789
34640
36454
34946
33418
35549
37255
35446
34135
35875
36958
35645
35542
37070
36505
34507
35136
37236
36470
34305
35207
37346
36765
35501
36444
37155
35744
35601
38041
38206
35194
34840
37536
37726
36109
37184
38721
37029
35752
37922
39013
36586
35432
37414
38139
36755
37295
39003
38010
36619
38323
39477
36920
35276
37904
39771
37655
36567
38667
39004
36959
37526
39900
38580
35625
37007
39526
37794
36333
39173
40864
38421
37466
39786
39374
35916
36273
39367
38397
35733
37277
39712
38119
35930
36716
36860
34530
33961
35695
35174
32920
33684
36145
35200
32647
33219
34465
32725
31559
33579
34322
32069
31886
34420
34431
32361
33100
34894
33347
31667
33847
35079
32030
30897
34255
35668
33417
32978
34942
34603
32735
33783
35569
34084
32903
35232
36769
34979
34051
35636
35644
33633
34137
36452
35632
33149
34397
37706
37268
34600
35045
36391
34861
34129
36247
36462
34263
34696
37094
36574
34613
35368
36810
35903
35310
37043
37538
35191
34665
37509
38487
36104
35307
37102
37408
36348
37371
38698
37216
36243
38533
39645
37015
35414
37399
38501
37063
37295
39024
37948
36064
37797
40014
37897
35140
36812
38969
37505
36768
38759
38828
36938
37796
39952
38491
35787
37001
39104
37607
36246
38255
39184
36961
36528
38872
38319
34714
34219
36648
36351
34087
34552
35972
34161
32256
34147
35394
32494
30840
33307
34334
32283
32642
35158
34390
32214
33663
35551
33284
30956
32954
34685
32671
32019
34715
35329
33271
33635
35672
34422
31995
33499
35618
33774
32613
35622
37309
34865
33661
35646
35725
33463
34175
36485
35195
33245
35275
37498
36069
34828
36260
36154
33793
34348
37345
36933
34139
34753
37386
36789
34897
35901
37078
35479
34771
36957
37554
35067
34718
37507
37869
35386
35415
37534
36950
35141
36506
38361
36858
35797
38150
39207
36718
35725
37853
38068
36205
37287
39252
37301
35471
37754
39387
37399
36335
38119
38501
36833
37520
39690
38622
36178
37184
39436
38379
36398
37577
39166
37996
37167
38715
38996
36743
36457
39105
39118
35846
35300
37310
36488
34553
35776
36766
34286
33047
35279
35546
32447
31552
33780
34191
32621
33186
34481
32964
31592
33273
34108
31877
30867
33115
34340
32814
32624
34497
34295
32408
33032
34926
33730
31610
33068
35037
33805
33305
35383
35428
33274
33915
36455
35634
33003
33943
36208
35015
33405
35173
36610
34886
34206
36426
36533
33523
33108
35864
36265
34264
34770
37075
36622
34979
36060
37203
35427
34570
36629
37038
34996
35632
38327
37663
35463
36834
38623
36047
33505
35810
37839
35665
34963
37965
38851
36911
37084
38637
37282
35129
36620
38770
37199
35573
37645
39416
37713
36535
38058
37888
35506
36297
38999
37994
35956
37650
39447
37748
36590
38409
38825
36576
36348
38538
38441
36382
37050
39530
38961
36585
36726
37591
35995
34757
36215
36523
33627
32391
34874
35757
33151
32097
33662
33410
31676
32589
34222
32730
31291
33095
34243
32228
30970
32500
33249
32257
32862
34163
32583
30803
32859
35365
33859
31682
33059
34507
33048
32733
34585
34211
32376
33545
35842
34800
32698
33789
35547
34697
34069
35441
35292
33067
33351
36142
35747
32639
33125
36145
35752
33920
35354
36807
34799
33744
35951
36519
34137
33644
35834
36386
34782
34907
36526
35864
34364
35988
37964
36027
33819
35518
36915
35242
35365
37907
37656
35671
36450
37875
36309
34719
36484
38065
36336
35331
37554
38785
37060
36430
37983
37498
35123
35772
38178
37394
35580
37243
39535
38237
36547
37937
38321
35625
35307
38262
38353
35832
36818
39927
39029
36264
37056
38220
35412
33333
35739
37085
34156
32772
35158
35689
33374
33166
34424
32819
30774
32453
33855
31318
30132
33031
34165
31709
31039
33101
32989
30713
31183
33538
32950
31085
32289
34184
32767
31191
32913
33682
31460
31716
34282
33304
31092
32979
35444
34130
32527
33649
34320
33199
33496
35208
34645
32410
32834
35289
34986
32765
33294
35140
34464
33659
35395
36056
33770
33335
36140
36826
34436
34077
35905
35559
34280
35854
37168
34859
33688
36576
37987
35403
34075
36065
36725
35140
35689
37531
36240
34264
35961
38127
36501
34426
35910
37562
36214
35525
37254
37504
35775
36196
38203
37109
34407
35559
38417
37854
36477
37932
38785
36668
35897
38081
38131
35348
35415
38174
38162
36519
37582
38849
37122
36345
38669
38973
35714
34543
36774
37082
34653
34363
35973
35091
33203
34084
35057
32794
30693
31923
32888
31341
31242
33384
33453
31787
32223
33378
31859
30256
32083
33735
31701
30367
32825
34507
32828
32059
33652
33015
30308
31110
33833
32842
30965
32986
35156
33642
32458
34257
34668
32338
32088
34314
34070
31802
32633
35618
35427
33363
34120
35386
33534
32408
34733
35550
33028
32787
35573
35795
33762
34325
36040
34800
33058
34686
36342
34390
33052
35592
37264
35275
34215
35993
36118
34333
35368
37416
35565
33348
35439
37683
35896
34240
36049
36903
34834
34875
37260
36706
34520
35847
38375
37148
34908
36123
37550
36169
36071
38327
37604
34213
34572
38104
38183
35488
35822
37979
37455
36313
37585
38056
35812
35395
38002
38359
35878
35834
37950
37229
34902
35695
37317
35707
34173
35631
35960
33265
31910
33328
33393
31524
31757
33429
32549
31094
32760
34356
31972
29590
31488
33423
31860
31267
33105
32679
30525
31463
33749
32543
30115
31267
33538
32724
31390
32894
34510
33602
33210
34934
34599
31805
32029
34702
34033
31750
33359
36019
34532
32588
34579
35856
33032
31778
34552
35254
32750
33328
36449
36006
33753
34754
36215
34171
32224
34015
35650
34095
33640
36252
37021
34757
34354
36213
35594
33442
34595
36624
35062
33794
36343
37894
35577
34406
36492
36702
34295
34863
37368
36221
34069
35977
38288
36661
35184
37194
37900
35172
34588
37259
37363
34799
35276
38105
37946
36118
36900
38125
36690
35683
37418
38033
35588
35001
38092
39058
36199
35523
37959
37851
35720
36548
37750
35317
33699
35849
36637
34113
32877
34023
33653
31838
32358
33878
32490
30556
31761
33319
31904
30424
31644
32406
31168
31601
33295
32073
29906
31194
33400
32385
30645
31665
32896
32011
31789
33271
33120
31135
31457
34051
34041
31699
31971
33963
33392
32206
33727
34756
32630
31787
34413
35244
32550
31852
34184
34352
32584
33690
35603
33816
31928
33974
35657
33536
31794
33503
34944
33795
33588
35386
35292
33338
33689
35386
34031
31960
33871
35929
33919
32941
35715
36598
34388
34530
36824
35889
33045
33912
36370
35319
33682
35586
37402
35808
34690
36264
36055
33352
33622
36497
36185
33993
35381
38156
37243
35297
36229
36895
34893
34190
36358
36992
35025
35284
38168
38402
36152
36440
37851
35839
33691
36020
38044
35542
34015
36270
36659
33985
33453
34940
33526
30514
31098
33280
32030
30014
31490
33271
31837
30729
32361
32301
29720
30230
32662
30974
28252
30423
33490
32037
29870
31242
32457
30929
30672
32748
32716
30606
31077
33395
32922
30958
31574
32896
31917
31348
33272
34042
31933
31400
33904
34641
32578
32286
33961
33687
32655
34236
35353
32904
31533
34115
35397
32928
31772
33775
34235
32703
33708
35559
33711
31685
33721
35780
34238
32727
34064
35103
34110
34177
35651
34957
32695
33448
36339
35707
32515
32958
35654
35380
34321
35655
36063
34182
34264
36549
36127
33503
33752
35973
35814
34756
35872
36477
34344
33730
36455
37136
34211
33482
36214
36903
34981
35633
38130
37227
34850
36158
38144
35987
33762
35933
37557
35401
34968
37336
36793
34154
34551
36049
34201
31577
32424
34027
32734
31507
32786
33326
31666
31036
31959
31129
29218
30045
31842
30849
29746
31811
33628
32119
30789
32069
32145
29995
30265
32695
32153
29903
31008
33457
32558
31055
32700
33559
30850
29865
32687
33332
30682
31130
34578
34664
32191
32439
33970
33009
31868
33471
34408
32106
31028
33618
34986
32991
32198
33916
33828
32147
33232
34955
32923
30967
33287
35408
33483
31954
33826
34443
32346
32851
35373
34162
31541
33393
36626
35556
33201
34329
35667
34188
33951
36089
35683
33127
33821
36417
35480
33007
33952
35976
35138
34100
35585
36337
34506
34237
36671
36955
34444
34078
36026
36052
34996
36306
37397
35299
34212
36828
38251
36102
34996
36775
37336
36121
36775
37630
35206
33308
35379
36921
34819
33338
34820
35068
32841
32674
34437
33301
30596
31484
33946
32428
29133
29802
32270
31738
30573
32026
32847
30700
29966
32559
32779
29236
28628
31762
32227
30313
31217
33028
31546
30238
32366
33172
30289
29469
32235
32630
30569
31949
34856
33627
31635
33547
34877
31954
30057
32619
34175
31971
31611
34588
35310
33374
33481
34955
33828
31786
32707
34317
33073
31947
33889
35463
34004
32890
34088
34066
32204
32819
35199
34708
32925
34065
35982
35032
33770
34970
35156
32972
33317
36318
36131
33402
33829
36130
35434
33994
35580
36673
34370
33263
35572
36204
33787
33724
36316
36327
34478
35229
36763
35492
34282
36171
37133
34722
33968
36565
37312
35324
34952
36331
36036
34899
35991
37416
36044
34627
36254
37813
36300
34927
36227
36562
34430
34083
35427
33930
31198
31900
33849
32618
30497
31313
32419
31069
30418
31890
31788
29797
30090
32399
32287
30391
30764
32287
31654
30579
31713
32710
31232
30398
32251
33016
30998
30239
31999
32522
31304
31788
33219
32246
30932
32561
33933
31825
30207
32309
33850
32467
32586
34704
33993
31638
32659
34932
33350
30773
32422
34789
33159
31633
33560
34438
32356
32359
35365
35521
32391
32106
34326
34014
32928
34531
35581
33808
33394
35663
35628
32993
33307
35768
34878
32767
34565
37086
35679
34020
35450
35834
33417
33113
35706
35936
33736
34464
37165
36599
34680
35950
37430
35304
33428
35392
36906
35012
34559
37481
38215
35616
35389
37580
36209
33056
34686
37522
35455
33658
36655
38512
36106
34781
36225
35922
33771
34113
35585
34024
31933
33221
34804
33188
31667
32847
32768
30126
29905
32378
32017
29346
29913
32537
31831
29616
30612
32128
30383
29105
31252
32286
29947
29503
32484
33175
30645
30370
32412
31942
30205
31527
33115
31265
30062
32375
33583
31740
31251
33140
33222
31702
32579
33865
31897
30506
32908
34641
32996
31955
33444
33999
32675
32744
33961
33205
31837
33109
34923
33603
31595
32754
34214
32982
32528
34316
34220
32184
32788
35182
34515
32098
32519
34415
34229
33577
34759
35363
33678
33085
34863
34857
32388
32288
34914
35454
33894
34384
35765
34643
33695
35666
36557
33919
32454
34863
36541
35253
35116
36671
36053
34463
35389
36649
35210
33932
35746
37248
35550
34390
36221
37335
35867
35473
37119
36603
33861
33842
35777
34898
32892
33844
35282
33659
31846
32730
32897
30561
29893
31730
31595
29529
30114
32518
31783
29447
30318
31694
29485
28040
30629
31933
30033
30576
33435
32834
30275
30857
32272
30636
29237
31389
32787
30429
29493
32537
33937
31569
30667
32597
32623
30877
31999
33958
32088
30032
32244
34596
33128
31794
33550
34174
31897
31594
33842
33662
31526
32059
34017
33249
31696
32974
34137
32495
32000
34180
34412
32277
32711
35252
34758
32364
32888
34514
33314
32140
34107
35452
33655
33157
35618
36007
33473
33306
35633
35488
33751
34707
35914
34069
33210
35636
36570
34499
33742
35174
35273
34256
35221
36330
34480
33056
35278
37102
35212
33666
35524
36649
34915
34816
36955
36568
34346
35212
37757
36889
34190
34599
36383
35730
34805
35803
35836
34047
34122
35928
34721
31323
31275
33525
32853
30783
31514
32633
30850
29790
32041
32908
30127
28786
30944
31959
30384
30339
32055
31807
30752
32083
33062
30702
29012
31230
32750
30789
30221
32567
32854
30882
31346
33323
32253
30192
31652
33370
31492
30521
33080
34285
32779
32865
34254
32867
30512
31835
34226
32866
30813
32868
35794
34749
32827
34041
34498
31720
31149
34141
34524
31975
32559
35648
35510
33481
34226
35329
33369
32204
34528
35569
33230
32798
35513
36057
34060
34162
35542
34425
33114
35012
36285
33845
32802
35811
37292
35191
34661
36662
36176
33801
34872
37225
35650
33696
35752
37605
35743
34488
36398
36910
34770
35068
37397
36427
33958
35176
37755
37143
35537
36307
37069
35963
35874
37327
36678
34192
34548
37487
37431
34361
33629
34963
34291
33116
34135
34255
31585
30706
33074
33225
30167
29691
32176
32109
30040
30886
32616
31067
29766
31925
32896
30344
29534
32074
32268
29773
30662
33517
32337
30110
31954
33984
32013
30136
31898
33374
31867
31371
33430
33674
31353
31419
34047
33563
30630
31568
34589
33807
32100
33802
35055
33213
32752
34850
34389
31304
31226
33842
34037
32717
33889
35462
34089
33050
34973
35504
32587
31397
33981
35330
33592
33148
34781
34743
33709
34874
36126
34496
32963
34486
35627
34042
33793
36318
37115
35423
35284
36479
35240
33193
34403
36077
34562
33888
36684
38154
36251
35523
37156
36751
34358
34746
36740
35985
34804
36512
37800
36240
35435
36809
36549
34559
35153
37587
37063
34470
34831
37359
36946
34649
35089
36269
34501
33198
35098
35499
32272
31146
33856
34390
31708
31514
33435
32170
29925
31602
33068
30393
29404
32743
33858
31129
30484
32545
32193
30265
31553
33435
31338
29378
31533
33388
31938
31097
32636
32973
31577
32052
33616
32547
30716
32201
34599
33391
31081
32206
34075
33231
32821
34507
34236
31778
32256
35467
35627
32887
32585
34332
34167
33556
35169
35978
33722
32767
35230
36136
33650
32716
34757
35443
34102
34521
35935
34576
32858
34928
37122
34940
32688
34753
36459
34675
34435
36754
36232
33837
35138
37754
35784
32747
34678
37007
35046
34578
37555
37404
34652
35646
38145
36373
33435
34842
37457
36530
35062
36712
38186
36480
35329
37095
37264
34604
34545
37220
37007
34868
35876
38018
36963
35554
36806
36807
33851
33112
35664
35770
32842
32685
35028
34407
32080
32621
33491
31044
29230
31373
32551
30212
29997
33000
33043
30271
30646
33081
31993
29550
31208
33586
31448
29312
31887
34185
31985
30181
32112
32808
30488
30636
33149
32568
30682
32252
34317
32984
31623
33010
33367
31335
31391
33896
33929
31739
32300
34805
34275
32201
33213
34940
33498
32256
33995
34370
31795
31662
34780
35608
33738
33567
34741
34165
33223
34437
35299
33518
32626
34730
35855
34192
33379
34767
35189
34306
34964
35897
34368
33324
35529
37066
34894
33324
35497
36862
35069
34806
36451
35450
33586
35321
37540
35788
33490
34818
36329
35045
34680
36678
36724
34479
34856
37530
37039
34171
34454
36881
36725
35411
36434
37315
35127
33762
36007
36810
33642
32322
34825
35279
32744
32724
34472
32988
30760
32197
33428
30561
28372
30522
31949
30146
30410
33104
32419
29705
30711
33089
31333
28500
30052
32492
30969
29578
31957
33404
31155
30208
32482
32620
29764
29793
32415
32096
30351
31804
33856
32693
31620
33452
33732
30734
30160
33007
33452
31550
32423
34675
33852
32423
33783
34456
32174
31419
33678
33982
31706
32180
34876
34307
31988
33041
35074
33558
31650
33433
34921
32660
31555
34367
35791
33693
32819
34412
34309
32731
33781
35550
33784
31829
33954
36242
34500
32680
34366
35308
33395
33607
36038
35326
33099
34554
37129
36059
34039
34905
35708
34326
34492
36592
35889
33157
33944
37051
36616
34060
34701
36608
35642
34671
36464
36928
34288
33897
36895
37240
34040
32994
34590
34268
32681
33509
34368
32085
30528
32373
33162
30910
29887
31563
32041
30571
30798
32275
31330
29628
30886
32671
31097
29086
30516
32048
30852
30813
32685
32157
30352
31615
33584
31904
29418
30531
32527
31851
31191
32781
33404
31688
31556
33893
33931
31333
31374
33746
33446
31672
32718
34418
33126
31959
33737
34423
32018
31292
33568
33945
32041
32681
34901
34164
32627
33996
35004
32717
31231
33435
34930
33082
32412
34725
35401
33652
33922
35701
34265
31656
33279
35865
34205
32537
34824
36544
35064
34400
35623
34973
32988
33956
36251
35358
33568
35304
37817
36689
34863
36109
36558
33768
33124
36075
36459
33715
34146
37529
37505
34879
35289
36829
35142
33914
36411
37452
34671
34123
37119
37522
34991
34875
36230
34641
32701
34430
35632
32750
31075
33250
33865
31457
30708
32087
31685
30079
30810
32042
30352
28843
30861
32803
31344
29784
30907
31591
30280
30481
32244
31639
29714
30732
33145
32442
30334
31149
32708
31793
31324
32847
32582
30474
31139
33862
33476
31142
31863
33865
33014
32035
33762
34252
31827
31657
34529
34707
32048
32052
34244
33786
31960
33131
34940
33433
31995
33921
35068
32776
31400
33294
34356
33027
33228
35068
34395
32518
33849
36020
34172
31604
33537
35889
34099
32978
35311
35780
33270
33336
35908
35291
32574
33619
36214
34987
33201
35147
36678
34578
33675
36259
36692
33614
33220
35951
36026
34350
35629
37344
35754
34641
36661
37339
34970
34166
36000
36252
34614
35227
37403
36962
35398
36318
37160
34924
33257
35141
36280
33938
32877
35192
35794
33231
32332
33540
32262
29926
31294
32899
30361
28971
31988
33301
30772
30239
32505
31900
29028
29961
32956
31893
29245
30684
33256
31871
29887
31485
32394
29927
29532
32215
31915
29481
31126
34471
33251
30542
31842
33648
31838
30592
32745
33453
31064
31251
34599
34819
31885
31747
33746
32939
31279
32954
34476
32416
31429
33830
34510
32419
32455
34489
33767
31801
33329
35158
32837
31185
34007
35869
33656
32459
34517
35187
33560
34166
36045
34566
32190
33687
36119
35024
33318
34681
35932
34618
34314
36059
35878
33960
34598
36760
35870
33488
34143
36298
36147
35011
35503
35988
34720
34392
36335
36848
34793
34280
36160
36578
35264
35634
36753
35536
34341
36102
37418
35430
33905
35602
36673
35097
34848
36485
35546
32781
33141
35360
34258
31443
31907
33400
31846
30408
31688
31972
30191
30542
32791
31849
28869
29775
32542
31472
29522
31411
33355
31583
30287
32220
32676
30079
29647
31976
31969
30160
31278
33595
32488
30706
32334
33362
30535
29403
32684
34066
31565
31527
34509
34449
32125
32790
34327
32353
30410
32527
34112
32021
31573
34334
34698
32519
32785
34544
33529
31829
33422
35067
33110
31793
34008
35154
33214
32787
34996
35060
32763
33141
35298
34481
32650
33879
35561
34466
33512
34923
35215
33310
33295
35326
34985
32832
33545
36179
35851
33862
34604
35972
34487
33468
35658
36762
34534
33871
36314
36799
34571
34378
36174
35915
34662
35946
37295
35407
33996
36128
37512
35519
34353
35996
36471
35172
36068
37752
35919
33588
35082
36659
34234
31996
33641
34405
31525
30463
32486
32124
29818
30652
32800
31395
28914
30077
32165
31134
29791
31110
31922
30090
29538
31873
32019
28978
28659
31337
31442
29964
31224
32558
30803
29972
32015
32133
29430
29157
31828
32458
30863
31473
33404
32499
30920
32592
34171
32011
30432
32785
33911
31342
30912
33739
33930
31668
32091
34019
33005
30896
31737
33230
32111
31487
33667
34774
32990
32586
34649
34208
31371
32031
34682
33577
31640
33649
35781
34477
33676
35345
35166
32736
32938
35151
34483
32513
33991
36486
35203
33312
35094
36254
33385
32166
35135
35849
33005
33385
36758
36576
34179
34925
36470
34886
33579
35608
36464
33921
33602
36856
37625
35284
35129
36903
36067
33999
35158
37214
35647
33525
35160
37202
35661
33943
35162
35307
32720
32380
34206
32915
30298
31523
33717
31852
29164
30288
31796
30457
30136
31848
30832
27984
28979
32198
31804
29572
30352
31915
30737
29780
31279
31510
29391
29473
31868
31789
29847
30338
32178
31837
30589
31222
31953
30747
30465
32673
33506
31416
30363
31972
32810
32036
32669
33919
32645
31179
32921
34703
32707
30329
31699
33616
32662
32150
33987
34263
32081
32063
34491
33921
30866
31513
34303
33678
32372
34020
34684
32715
32784
35075
34519
31893
32264
34428
34034
32809
34151
35516
34120
33384
35312
35596
33020
32567
34911
35068
33108
33909
36203
35156
33155
34714
36464
34374
32662
35042
36632
34473
33887
36470
36772
34565
34850
36696
35497
33404
34909
36654
34649
33488
36254
37728
35594
34944
37017
36570
33597
33804
35994
34840
32879
34548
36175
33941
31856
32936
33013
30576
30326
32371
31629
29121
30066
32639
31631
29515
30896
32397
30260
28821
31016
31830
29143
28699
31899
32702
30311
30202
31979
30911
29092
30941
32722
30538
29295
31868
32942
30840
30582
32838
32839
30877
31619
33587
32205
30228
32143
34545
32910
30638
31782
32892
31467
31562
33526
32822
30915
32483
35019
33798
31486
32396
33790
32760
32550
34245
33727
31355
32150
35145
34771
32045
32160
34122
33971
33122
34156
34768
33209
32928
35113
35456
33218
32993
35061
35134
33660
34561
36087
34396
32590
34590
36441
34333
32592
34785
36352
34554
33951
35691
35412
33898
35324
37290
35183
32450
34187
36440
35111
34714
36865
36499
34248
35275
37588
36169
33514
34405
36310
35480
34722
36464
37176
35141
34493
36354
35811
32446
31773
33652
32972
30870
31816
33572
32013
30314
31884
32446
29494
28540
31423
32055
29451
29870
32988
32553
29906
30650
32580
31004
28977
30650
32265
30493
29741
32144
32966
31231
31325
32917
31746
29624
31149
33266
31518
30078
32666
34568
32739
31707
33420
33257
30836
31536
34275
33411
31047
32333
34582
33496
32170
33793
34334
31894
31545
33959
33684
31429
32574
35354
34739
33010
33957
34709
33037
32740
34986
35066
32285
32195
35235
35563
33128
33373
35459
34604
32903
34589
36080
33885
32851
35490
36530
34354
33584
35085
35154
34155
35374
36799
35011
33279
34999
36697
35362
34216
35548
36199
35009
35370
36877
35862
34071
35566
37831
36295
33853
35355
37523
36251
35277
37139
37342
34652
34268
36812
36749
33921
33515
34991
34078
32390
33241
33877
31640
30572
32828
33226
30059
29213
31861
32182
29975
30505
32317
30917
29434
31358
32319
29730
28697
31392
32429
30384
30714
33332
32510
29801
31112
33944
32213
29203
30890
33121
31208
30425
33248
33723
31272
31562
33748
32784
30514
31621
33655
32653
31542
33336
34447
32543
31911
34311
34505
31422
31059
33884
33989
31707
32481
35155
34683
32945
33999
34751
32388
31647
34399
34874
32252
32846
36225
36113
33827
34521
35703
33553
32160
34762
35871
32984
32615
36138
36794
34254
34350
36260
34991
32743
34335
36406
34541
33158
35761
37465
35549
34544
36082
35877
33797
34483
36605
35405
33355
35146
37699
36345
34195
35304
36217
34549
34693
37036
36241
33536
34572
37162
36032
33815
34559
35272
33442
32678
34436
34410
31522
30831
33284
33557
30909
30176
31546
31163
29936
31134
32458
30802
29608
31746
33067
31053
29996
31721
31840
30032
30830
32379
30190
28243
30856
33299
31540
29886
31565
32620
31131
31217
33149
32545
30443
31449
33812
32808
30532
31577
33464
32530
31723
33257
33529
31606
31820
34251
33787
31006
31416
34043
33862
32387
33599
34903
32891
31594
34190
35378
32362
31377
34404
34887
32216
32747
35166
33837
31942
34125
35909
33476
31777
34038
35178
33162
33468
36478
36209
33519
34145
36401
34944
32162
33269
35497
34372
33339
35635
36959
34791
34022
36397
36226
32978
33280
36176
35251
33089
35119
37499
35767
34197
36086
36735
34286
33942
36160
35776
33939
35490
37792
36197
34210
35645
36290
33439
32067
34107
34318
31641
31544
33970
33372
30802
31352
32938
31081
28878
30571
32267
30217
28931
31205
32314
30567
30296
32044
31635
29735
30703
32654
31124
29093
30861
33145
31996
30461
31589
32209
30615
30652
32630
32149
29951
31011
34079
33633
31272
32351
34048
32282
31619
34189
34098
31204
31808
34688
33986
31640
32313
33726
32860
32603
34570
34810
32233
31820
34610
35542
33830
33594
34575
33610
32528
34402
35983
34092
32779
34753
35681
33555
32482
34174
35052
33925
34003
35485
35168
33873
34762
36282
35060
33178
34229
35886
35270
35043
36362
35988
34158
34748
36772
35802
33449
34553
36698
35454
34073
35966
37081
34932
34273
36911
37271
34233
33853
36467
36360
34330
35356
37388
35988
34257
35859
36756
34229
33085
35075
35089
32656
33114
35383
34080
31538
32635
34051
31584
29349
31377
33167
31218
30192
32352
32960
31040
30953
32504
31591
29737
31077
32775
31133
30200
32523
33446
31510
31293
33262
32909
30512
30703
32736
32423
31152
32738
35044
33983
32101
33278
34067
31891
31676
34475
34411
31803
32453
34918
34106
32493
34052
35289
33244
32240
34387
34828
32265
32149
35050
35442
33436
33812
35434
34353
32787
34233
35394
33311
32469
35250
36233
33466
32667
35265
35489
33188
34148
36635
35204
33328
35484
37282
35187
33787
35717
36326
34363
34823
37075
35933
33618
35140
37371
35764
33916
35761
37193
35324
34749
37058
37133
34397
34438
37357
37387
34961
35387
37298
36289
34966
36629
37442
35111
34586
37256
37593
34787
34125
36060
36220
34701
34990
35818
34298
33061
34464
34744
32005
30780
33047
34121
32305
31906
33252
32266
30326
31489
33330
31596
29237
30590
32384
31059
30344
32202
32515
30740
31238
33357
32231
29561
30763
33099
31743
30605
33022
34017
31704
31505
34102
33929
31194
31240
33417
33249
32013
33323
34982
33662
32551
34518
35182
32299
31418
34167
34578
32088
32918
36303
36044
33748
34569
35839
33586
31781
34047
35563
33431
33101
36197
36861
34449
34253
35943
34861
32629
33823
35746
34364
33487
36017
37280
35134
34447
36460
35991
33071
33653
36549
35813
33629
35170
37381
35857
34132
35792
36788
34761
34380
36735
36593
33794
34106
37378
37626
35261
35527
36974
35481
34085
35974
36886
34576
34223
37082
37697
35545
35375
36708
35680
34000
35238
36448
34229
32572
34537
35691
33522
32181
33425
33340
31412
31748
33413
32071
29984
31473
33681
32302
30130
31167
32703
31689
31082
32407
32320
30592
31153
33528
33091
30664
31108
32959
32252
31438
32929
33256
31443
31761
34212
33902
31472
31914
34093
33573
32167
33554
35002
33204
31950
34189
35087
32214
31336
34286
35103
32989
33406
35321
34102
32618
34541
35818
33512
31973
33768
34758
33283
33474
35549
35173
33451
34598
36462
34774
32541
34087
35693
33875
33313
36022
36649
34296
34350
36715
35962
33229
34119
36390
35017
33450
35739
37452
35360
34449
37066
37486
34333
33815
36241
35703
33451
35027
37841
36590
34553
36079
37313
35180
34148
36288
36822
34569
34749
37613
37552
35101
35609
37304
35373
33256
35331
36575
33724
32955
35732
35543
32607
32699
34374
32720
30351
31947
33920
31758
29808
31928
33498
31360
29966
31551
31692
29531
29895
32074
31159
29181
30786
33239
32292
30701
31718
32180
30359
30326
32542
32242
29827
30345
32960
32821
31215
32115
33363
32027
31321
33275
33770
31486
31441
34316
34555
31917
31765
33756
33287
31801
33322
34898
32909
31570
34028
35571
33541
32159
33447
33946
33032
33822
34948
33185
31774
34289
36532
34391
32239
34135
35547
33767
33790
35909
35020
33087
34628
36172
34060
32521
34628
35946
34300
34081
36222
36108
33723
33958
36366
36000
33680
33886
35610
35455
34836
36145
37092
35326
34281
36533
37456
34543
33394
36017
36698
34701
35220
36904
35466
34312
36695
37797
34994
33452
35607
36593
34750
34734
36645
35593
32930
33709
35840
34214
31333
32186
33890
32369
31238
33127
33804
31659
31015
32599
32082
29858
30424
31995
30542
29321
31496
32698
30505
29761
32134
32401
29704
29361
31419
31041
29363
30891
33519
32810
31366
32676
33147
30493
29770
32671
33475
31170
31529
34224
33577
31183
32282
34209
32321
30297
32494
34465
32557
31635
33883
34380
32513
32784
34608
33789
31882
33031
34764
33190
31631
33333
34895
34025
33773
35028
34414
32289
32964
35399
34956
32886
33462
35266
34627
33470
34805
35543
33635
33373
35651
35411
32848
33359
36176
36012
33924
34222
35342
34468
34196
36141
36425
33861
33512
36446
37005
34297
33818
35881
35700
34145
35365
36812
34912
33677
35997
37231
35174
34138
35762
36288
35056
35575
37079
35892
34042
35332
37125
35549
33539
34739
35843
34265
33775
34911
33552
31220
32468
34654
32830
29881
30820
32789
31759
30806
32414
32823
30690
30539
32965
32511
29190
29051
31686
31654
30242
31603
32965
30949
29727
32131
33156
30653
30038
32580
32844
30666
31262
33334
32283
30941
32972
34209
31588
29965
32355
33942
32340
32218
34458
34200
32001
32777
34956
33574
31181
32735
34610
32496
31234
34063
35628
33654
33182
35130
34412
31623
32449
35063
34031
32393
34829
37267
35479
33701
35214
35445
32747
32585
35288
35132
33078
34418
36775
35153
32894
34415
35956
34079
32805
34559
35289
33715
34127
36515
36450
34836
35417
36429
34988
33614
34997
36060
34273
33441
35885
37170
35226
34613
36791
36837
34180
34135
36292
35611
33750
35136
37188
35914
34641
36638
37300
34478
34053
36554
35961
33572
34687
36631
34945
32836
33907
34702
32820
32057
33630
33306
30669
30437
32782
32769
30687
31014
32266
30849
29936
32083
32568
29779
29499
32455
32774
30426
30410
32080
31621
30480
31806
33064
31252
29912
31976
33345
31500
30778
32868
33064
31211
32475
34946
33231
30927
33022
35279
33312
31206
32737
34232
32913
32449
34362
34752
32969
33069
34851
33883
31477
32764
35366
34218
32369
33836
35023
33199
32570
34904
35254
32672
32472
34729
34579
33198
34509
35914
34281
33298
35129
35500
33281
33032
35253
35537
33921
34674
36773
35807
33786
35113
36889
34926
32826
34589
36153
34360
33721
35998
36387
34572
35235
37153
35266
32306
34039
36678
34855
33357
36102
37681
35455
34737
36867
36513
33741
34277
36698
35666
33991
36016
37824
35978
34722
36381
36422
33783
33432
35622
35294
32710
32771
34903
34518
32778
33353
33737
31294
30276
32686
33155
30223
29819
32646
32880
30795
31477
33076
31069
29080
31596
33522
30744
29218
32036
33322
31298
30905
32606
32225
30714
32077
33920
32202
30496
32646
34764
33354
31937
33165
33672
32089
32144
33847
33198
31284
32407
34873
34041
31946
33039
34368
32675
32332
35040
35242
32496
32735
35614
35473
33265
33701
35108
34057
33197
34791
35153
32846
32627
35273
35420
32844
32856
35097
34862
33341
34681
36390
34688
33266
35390
36550
34036
32675
34742
35386
33483
34005
36376
35627
33742
34982
36536
34887
33234
34652
35885
34689
34545
36314
36098
34083
34636
36870
35869
33149
34052
36326
35157
33620
35426
36677
34658
34069
36745
36744
33086
32787
36051
35976
33542
34478
36256
34458
32965
34844
35400
32573
31245
32952
33248
31177
31070
33007
32442
30253
31043
32802
31095
29089
30945
32427
30375
29942
32689
33007
30739
31063
32982
31663
29091
30261
32606
31361
29745
31854
33980
32518
31339
33066
33152
30435
30595
33377
32913
30773
32283
34870
33762
31989
33283
33748
31427
31690
34729
34018
30824
32047
35517
34692
32196
33277
34822
33140
32109
34277
35048
32575
32170
35019
35441
32899
32814
34809
34045
32044
33329
35181
33490
32116
34609
36396
34465
33297
34897
34791
32857
33973
36050
34132
32123
34370
36382
34687
33389
34829
35225
33685
34206
36040
34946
32897
34160
36179
34893
33157
34630
35983
34518
34039
35865
35847
34047
34794
37017
36300
34280
34884
36205
35304
34471
35783
36338
34303
33440
35523
36041
33479
32720
34725
34726
32584
32649
33725
32038
30524
32592
33638
30199
27932
30718
32806
30920
30305
32121
31383
29302
30896
33364
31347
28609
30573
32644
30587
29959
32585
32411
29951
31003
33430
31957
29302
30371
32695
32048
30515
31744
33730
33078
32243
34006
34261
31164
30603
33381
33330
31385
32847
34918
33450
32334
34143
34651
32657
32250
33927
34068
32598
33209
35454
35059
32927
33553
35128
33385
31552
33541
34754
32575
32814
36167
36089
33157
33268
35102
33855
31816
33467
35759
34313
32683
34713
36516
34741
33595
35686
36121
33541
33584
35823
34754
32710
34547
36632
34816
33134
34705
35130
32948
33379
36377
35907
32952
33800
36909
36205
33684
34572
36300
34839
33546
35476
36612
34627
34076
36460
36980
34756
34070
35031
34338
33112
34215
35144
33193
31958
33826
34618
32319
30989
32245
32480
31193
31644
32461
30542
29161
31320
32924
30997
29536
31163
32052
30588
30706
32415
31597
29597
30674
32821
31809
29991
31279
32754
31529
31182
32991
32552
30053
30813
34061
34026
31556
31886
33910
33394
31953
32960
34198
32791
31833
33727
34341
31793
31071
33537
34145
32494
33165
34845
33474
32068
34091
35365
32988
31697
34010
34900
32717
32725
35118
34478
32037
33054
35420
34147
32034
33701
35462
33488
32462
34949
35683
33238
33064
35586
35090
32163
32879
35555
34468
32412
34323
36628
35181
33774
35400
35696
33059
32692
35291
35486
33414
34230
36983
36570
34601
35405
36113
33651
32868
35863
36496
33844
34307
37074
36473
34767
36013
36991
35173
34154
35731
36067
33726
33127
35649
36583
34646
33989
34888
33398
31066
32420
34375
32238
30102
31911
33282
31353
30512
32356
32032
29343
29889
32367
31200
29200
31331
33734
32005
30128
31596
32414
30550
30315
32427
32279
30130
30783
33371
33059
31296
32322
33712
32113
31144
33304
33895
31056
30513
33774
34819
32458
32010
33758
33309
31785
33118
34606
32620
31234
33724
35271
32995
31683
33608
34205
32630
33414
35340
33804
31773
33550
35501
33914
32551
34310
35095
33165
33198
35349
34663
32427
33558
35899
34708
32407
33463
35439
34724
33769
35078
35816
34202
33823
36035
36096
33139
32760
35363
35750
34441
35341
36305
34312
33263
35699
36482
33481
32545
35472
36471
34385
34568
36702
35743
33613
35103
37052
34955
32757
34741
36518
34805
34368
36728
36680
34239
34569
36518
34950
32039
33040
34998
33359
31916
33604
33998
31729
31592
33672
32658
29572
30380
33024
31668
29343
31233
33682
32219
30577
31950
32033
29381
29481
32475
32252
29677
30709
33636
32947
30936
31949
32867
30780
30029
32512
33150
31093
31657
34272
33884
32106
32896
33944
32625
31737
33287
34064
32335
31862
34119
34811
32810
32627
34588
33804
31518
33145
35643
33736
31833
34001
35400
33446
32760
34524
34260
32197
33113
35409
34266
32328
34027
36081
34552
32883
34288
35065
33182
32848
35094
35390
33348
33424
35476
35215
33405
33836
35114
34380
33764
35119
35452
33534
33417
35962
36333
33957
33806
35825
35455
33883
35105
36271
34082
32932
35420
36592
34599
33968
35769
35897
34331
35016
36581
35192
33529
35043
36413
34607
33054
34354
35062
33324
32795
34281
33989
32061
32453
34079
32324
29137
30010
32508
31605
30165
31470
31863
29794
29847
32396
31848
28652
29081
32174
31836
29559
30438
32153
30715
29593
31772
32735
30182
29147
31425
32282
30888
31439
33069
32063
30936
32762
33672
31017
29391
31666
33312
31761
31486
34051
34546
32254
32291
34450
33336
30588
31991
34467
32798
31469
34226
35769
33618
32967
34877
34125
31233
32052
34731
33429
31152
33283
36173
34987
33206
34286
34374
31982
32144
35028
34896
32448
33370
36187
35461
33398
34523
35442
32809
31689
34705
35770
32979
32707
35671
35857
33665
34012
35449
34305
33069
34780
35879
33719
32907
35694
36804
34361
33563
35611
35500
33455
34511
36603
34835
32871
34973
36785
34864
33708
35595
35451
32453
32669
35342
34100
31063
32090
34359
33000
30771
31279
31950
30666
30083
31273
31232
29374
29472
32051
32244
29686
29592
31442
30633
29306
30981
31802
29294
28755
31839
32563
29793
29316
31603
31579
29919
30970
32421
30765
29773
31932
32960
31358
30854
32177
32276
31221
31884
33316
32366
30831
32273
34362
33004
30833
32007
33500
32260
32059
33980
33555
31361
32337
34945
33796
30743
31404
33919
33601
32576
33886
34524
32617
32188
34496
34542
31732
31726
34493
34610
32938
33980
35601
33948
32548
34740
35877
33170
32012
34520
35140
32820
33146
35683
34956
32711
33921
35818
34090
32213
33976
35269
33280
32912
35745
36321
33975
33787
35542
34615
32388
33459
35420
34200
33236
35437
36597
34760
34460
36529
35743
32506
33020
35792
34645
32154
33744
35899
33929
31959
33820
34480
31289
30199
32448
31878
29073
30017
32706
31630
29539
30724
31929
30247
29321
30939
31191
29221
29558
32154
31750
29180
30051
32673
31468
29005
30414
32067
29999
29050
31775
32735
30698
30891
33248
32463
29759
30744
33209
31805
29841
31990
34301
32638
30931
32464
33270
31619
31945
33922
32714
30392
31997
34630
33348
31161
32394
33803
32340
31824
33939
34161
31730
31695
34366
34477
32248
32637
34604
33932
32655
33934
34694
32777
32404
34881
35266
32820
32504
34652
34886
33389
33839
34961
33737
32947
35184
36277
33637
32027
34091
35132
33533
33870
35760
34620
32734
34435
36306
34140
31890
33841
35950
34507
33581
35360
35682
33870
34355
36619
35602
32622
33332
35836
35188
34072
35805
36606
34441
33820
35815
35353
32223
31842
33882
33341
31274
31964
33496
32160
30802
32267
32508
29443
28306
30888
31654
29279
29136
31475
31221
29248
30020
31609
30274
28859
30529
31490
29450
29195
32042
32781
30857
30821
32157
30819
28771
30323
32473
31125
30018
32111
33269
31575
30981
32346
31912
30184
31255
33319
32159
30526
32411
34597
33392
31971
33130
33281
31167
31442
34173
33904
31181
31537
34118
33910
32343
33395
34553
32832
31872
33835
34312
31958
31898
34660
34835
32552
32722
34305
33174
31583
33354
35035
33118
32010
34577
35804
33464
32545
34572
34711
32808
33626
35396
33629
31910
34072
35879
34265
33118
34527
34978
33654
34117
35637
34413
32419
33869
36319
35231
32973
33831
35293
34302
33926
35638
35548
33316
33615
36264
35996
33368
33575
35411
34538
33304
34900
35652
33180
32217
34301
34095
30947
30422
32507
32082
30109
31170
32742
30506
28555
31039
32733
29675
27684
30463
31964
29643
29564
32156
31542
29295
30593
32699
31086
28825
30001
31647
30493
29614
31067
31526
30034
30335
32326
31399
28677
29802
32858
32336
30760
32239
33400
31568
30978
33365
33720
31034
30632
32841
32802
31277
32448
34263
32856
31412
33284
34166
31254
29820
32417
33820
32276
32511
34503
33768
31932
33086
34421
32449
30996
33260
34577
32281
31676
34516
35292
33219
33268
34957
33582
31267
32960
35114
33265
32261
35176
36344
33779
33009
35032
34724
32339
33026
35249
33978
31834
33775
36709
35744
33791
34746
35156
33020
33142
35771
35043
32050
33053
36193
35473
33234
34360
35766
33879
32736
34931
35744
33372
33142
35940
36009
33155
32835
34352
33120
31340
33074
34336
31308
29334
31917
33273
30479
28933
30611
30569
28563
29467
31363
29457
27582
30087
32134
29809
28204
30474
31176
28545
28667
31416
30598
28171
29863
32539
31140
29003
30230
31520
30217
29850
31749
31903
29843
30148
32807
32659
30054
30142
32220
32016
31023
32455
33641
31812
30819
33057
33662
30720
29841
32368
32717
30757
31819
34246
32942
30971
32780
34325
31844
29929
32077
33741
32375
32301
34117
33494
31800
33267
35141
33042
30634
32549
34645
32978
32266
34830
35352
32817
32793
35384
34894
32042
32647
35097
34217
32619
34411
36012
34176
33206
35502
35820
32746
32361
35186
35187
33031
34168
36580
35239
33248
34919
36282
33925
32533
34741
35642
33527
33586
36385
36509
34420
35163
36774
34593
32313
34455
35982
33374
32675
35665
35938
33176
32892
34102
32188
29461
30575
32498
30747
28969
30916
32459
30440
29141
30815
30743
28059
28351
31014
30146
27558
28915
31683
30625
28726
30396
31673
29466
28889
31395
31185
28543
29360
32052
31151
29194
30667
32170
30376
29546
31929
32588
30256
30240
32564
32086
30120
31304
33226
31848
30417
32590
34119
31516
29859
32471
34230
32351
31251
32678
32670
31083
31992
33873
32563
30935
32769
34395
32333
30608
32456
33847
32647
32917
34529
33226
31265
33210
35750
34165
31865
33257
34908
33604
33053
34855
34794
32627
33068
35608
35260
32949
33273
35014
34690
34128
35479
35809
33680
33303
35774
36108
33451
32900
35166
35786
34447
34848
36082
34735
33211
35057
36798
34843
33202
35113
36072
34016
34003
36443
36048
33921
34904
36661
34605
32058
33743
35779
33933
32546
34481
35000
32469
31794
33503
32371
29142
29637
31903
30570
28877
30955
32504
30586
29826
31716
31097
27939
28174
30964
30422
28293
29799
32173
30895
29401
30997
31765
29588
28754
30831
31684
30136
30270
32548
32640
30819
31352
32806
31134
29205
31001
32597
31034
31034
33669
33616
31246
31584
33439
32418
30587
32109
34037
32343
30642
32413
33903
32405
31667
33369
33360
31212
31730
33878
32719
30680
32589
35197
33784
31663
32996
34371
32853
32196
33964
33988
31849
32347
35220
34904
32215
32915
35291
34118
32300
33906
34909
32742
32509
35386
35802
33449
33325
34889
34191
33034
34845
36311
34197
32862
35024
36056
34109
33475
35199
35267
33572
34114
35844
34767
33090
34627
36543
35124
33432
34897
36218
34897
34588
36116
35526
33519
34338
36422
35296
32974
33810
35076
33332
32261
33884
33627
30739
30373
32559
32076
29572
29954
31990
31325
29530
30208
31356
29976
29092
31184
31799
28836
27937
30794
31612
29781
30472
32107
30150
28361
30888
32856
30441
28488
30409
31694
30049
30089
32538
32224
29698
30522
33276
32049
29101
30432
32901
31542
30534
32782
33258
30833
30901
33411
32854
30131
30790
33086
32165
30800
32757
34267
32446
31660
33797
33620
30225
29786
32840
33288
31030
31449
33890
33618
32292
33650
34433
31733
30518
33264
34332
32134
32498
35558
35512
33260
33731
35003
33327
31916
33907
34873
32478
32246
35550
36500
34499
34473
35814
34315
32166
33830
36042
34361
32714
34650
36133
34772
34379
35967
35427
32970
33404
35650
34859
32879
34278
36654
35638
33789
34805
35562
33639
33088
35087
34789
31974
32219
35285
34867
31485
31336
33018
31352
29442
31126
31719
28877
28459
31403
31599
29065
29062
30688
29869
28545
30082
31241
28999
27817
30431
31748
29428
28519
30740
31181
29350
29961
31567
29767
27984
30244
32395
30875
29491
30905
31560
30072
30272
32130
31533
29643
30859
33403
32580
30233
30894
32560
31711
30798
32056
32428
30738
30872
33297
33009
30106
30355
33123
32962
31383
32693
34098
32308
31403
33756
34313
31462
30808
33388
33854
32199
33131
34849
33246
31845
34089
35378
32920
31697
34053
34943
32947
33134
35344
34532
32425
33694
35566
33675
31475
33181
34896
33124
32404
35068
36051
33822
33487
35670
35071
32251
32967
35439
34350
32788
35028
36779
34588
33374
35779
36284
33169
32414
35005
35158
32801
33365
36035
35567
33567
34563
35688
33293
31606
33326
33514
31006
31338
33984
33216
30620
31102
32217
30251
28619
30513
31657
29295
28445
31208
32232
30160
29966
31860
30926
28374
29470
31767
30199
28347
30469
32453
30889
29844
31425
31120
28443
28946
31734
31008
28841
30576
33267
32075
30257
31748
32736
30822
30722
33151
32612
29827
30581
33244
32326
30197
31488
33106
31530
30706
33175
34090
31358
30360
32734
33410
31632
31775
33562
33307
32186
33297
34235
32284
31130
33336
34756
33109
32069
33338
33853
33135
33971
34939
32951
31230
33547
35969
34027
31558
33037
34714
33308
33006
35156
35014
32725
33329
35773
34903
32470
33584
35551
33943
32475
34588
35803
33624
33060
35698
35793
32547
32123
34711
34660
32764
33872
36020
34879
33623
35804
36619
33164
31839
35188
36392
33837
33648
35338
33876
32038
33773
34683
31508
29361
31478
32871
30829
30100
32054
31978
30060
30960
32985
31008
27923
29297
31370
29528
28661
31447
32252
29944
29845
31726
30791
28515
29644
31821
30606
28945
30720
32606
31297
30334
31996
31925
29257
29586
32732
32484
29860
31050
34315
33643
31265
32327
33789
31654
30066
32052
32893
30868
31259
34416
34799
32695
32597
33350
31970
31075
33079
33919
31365
30611
33662
34918
32736
32161
33834
33025
30765
32113
34458
32746
30859
33183
35269
33488
32319
34327
34669
32163
32301
34676
33838
31817
33542
35752
33991
32098
33971
35340
33324
32542
34599
34618
32245
32709
35556
35257
32999
34025
35968
34214
32473
34477
35541
33107
32592
35275
35603
33360
33466
35149
34402
33097
34632
35834
33806
32752
34738
35008
32529
32236
34472
34228
31876
32293
33917
32341
30504
31982
33086
30998
29557
31104
31968
30435
30096
31676
31501
29615
29914
31829
31092
28784
29441
31328
30551
29595
31065
31644
29835
29672
31818
31426
28563
28696
31374
31477
30070
31293
32947
31507
30337
32430
33517
31148
30120
32410
33328
31635
31745
33574
32871
31277
32948
34584
31850
29336
31690
33779
31849
31289
33888
34169
32184
32827
34564
32916
30670
32298
34072
31984
30829
33803
35429
33048
32130
34400
34181
31204
31815
34774
33827
31610
33579
35976
34094
32249
34249
35141
32443
31866
34576
34644
32272
33119
35732
34833
32843
34117
35205
32926
31925
34447
35107
32641
32912
35967
35925
33714
34345
35758
33865
31902
33853
35719
33733
32557
35357
36874
34429
33179
35043
35046
32767
33337
35406
33837
31462
32932
34756
32945
31216
32604
32966
30849
31140
33081
31372
28761
30450
32690
30909
29065
30840
32107
30214
29417
31431
31860
29642
29379
31712
31791
29616
29876
31467
30380
29250
31269
32424
30191
29444
31901
32472
30264
30049
32039
32214
31182
32145
33098
31558
31050
33416
34053
31474
30518
32618
33282
31745
32132
33785
32742
31100
32590
34339
32754
30930
32328
33925
32968
32478
33706
33409
31740
32583
34821
33576
30585
31496
33982
32989
31669
33525
34460
32443
32241
34753
34550
31518
31420
34014
34119
32526
33385
34962
33864
32937
34748
35282
32667
31794
34027
34385
32425
33250
35996
35254
32773
33672
35376
33517
31709
33787
35152
32979
32760
35897
36359
33915
34217
36324
34817
31903
33210
35685
34313
33018
35236
36165
33568
32707
34887
34464
31235
31296
33574
32399
30278
31868
33578
31800
30548
32119
31850
28902
28887
31691
31384
28895
29755
32276
31608
29926
30679
31104
29285
28905
31227
31891
29451
28612
30911
31695
30015
30220
31803
30648
29105
31201
32768
30226
29126
32269
33740
31591
31018
32813
32370
30478
31843
34102
32387
30295
32435
34758
33058
31211
32573
33301
31555
31788
34128
33454
30810
31742
34684
33864
31123
31995
33981
32824
32052
33943
33832
31200
31455
34243
34222
32164
32422
33724
33017
32377
33934
34723
32911
32288
34399
34934
32758
32215
33918
34049
32906
33812
35023
33503
32455
34649
35745
33050
31344
33465
34831
33283
33188
35172
34816
33056
34328
36533
34859
32090
33324
35484
34389
33574
35153
34927
32635
33252
35872
34674
31253
31994
34562
33117
30951
32674
34234
32312
31261
32965
32488
29347
29211
31674
31232
29300
30553
32330
30623
29082
30821
31541
29221
28638
30786
30779
28814
29919
32490
31473
29546
31173
32681
30239
28258
30335
31736
29665
29302
32298
33232
31335
31273
32627
31260
29097
30616
32987
31802
30487
32528
34060
32432
31611
33237
32984
30512
30945
33428
32720
30773
32483
35064
33814
31773
32958
33767
31570
31034
33542
33798
31482
31912
34467
33975
31999
33113
34517
32404
30939
33346
34727
32642
32272
34644
34404
31905
32438
34601
33526
31647
33438
35227
33040
31638
34205
35425
32916
31838
33915
34415
32725
33205
34704
33110
31441
33738
36090
34428
32655
34226
35019
33038
33134
35406
34629
32359
33701
36086
34675
32312
33357
34898
33837
33370
34840
34343
31886
32089
34365
33798
31169
30913
32145
31612
30742
31794
32494
30850
30008
31721
32055
29616
28846
30816
31264
29760
30179
31675
30504
28899
30610
32249
30041
28128
30123
31462
29695
29671
31853
31352
29580
30912
32548
30447
28372
30375
32195
30486
30074
32832
33335
30871
31139
33952
33261
29972
30371
32812
31911
30472
32516
34107
32282
31408
33369
33485
31023
30954
33226
33139
31587
32840
35012
33820
31883
33090
34065
31779
30625
32962
33934
32023
32218
34810
34914
33122
33335
33888
32072
30988
33114
34272
32158
31698
34646
35600
33325
32951
34808
33940
31577
32904
35113
33373
31891
34318
35640
33346
32681
35047
34814
31738
32058
34917
34254
32032
33542
35851
34385
32673
34475
35475
33018
32256
34782
35180
33022
33580
36224
35862
33729
34013
34819
33216
32083
33492
33812
31592
31265
33733
33934
31229
30455
31675
30991
29767
31255
32257
29957
28874
31132
31779
29466
28666
30117
30145
29153
30371
31715
29864
28284
30318
32002
30058
28370
29857
30853
29637
30023
31855
31029
29316
31126
33667
32097
29576
31136
33435
32128
30736
32302
32955
30961
30902
33651
33646
30605
30595
33272
33110
31495
32631
33684
31687
30881
33279
33971
31657
31100
33024
33342
32122
32965
34498
33183
31683
33456
34692
32059
30225
32627
34332
32623
32323
34312
33746
31681
32953
35116
33045
30175
31945
34351
32827
32053
34570
35027
32588
32818
35305
34367
31404
32232
34520
33143
31600
34096
36177
34238
32852
34515
34299
31391
31685
34823
34535
32053
33257
36131
35436
33735
34859
35364
32875
32006
34386
35023
33117
33765
36417
35784
33410
34176
35576
33561
31811
33798
34653
31728
31011
34165
34705
31836
31520
33455
32106
29208
30382
32629
30710
28832
31217
32947
30700
29438
31448
31646
29063
29263
31784
30928
28404
29797
32766
32012
29932
30885
31968
30382
30009
32122
32000
29613
30274
33268
32951
30566
31391
33431
32234
30749
32331
33112
30950
30656
33275
33588
31343
31394
33352
33135
31759
32594
33522
31659
30527
32869
34281
32215
31239
33423
34044
32039
32343
34558
33580
31215
32568
35002
33416
31056
32816
34806
33337
32905
34705
33807
31521
33097
35756
34039
31116
32384
34734
33771
32648
34183
34725
32744
32629
35078
34878
32099
32425
35025
34621
33034
34425
35666
33635
32787
35274
35660
32466
31523
34134
35004
33257
33560
35615
34911
33170
34818
36386
33396
31064
34049
36093
33631
33330
36255
35614
32641
33556
35784
33756
30730
31973
33984
32266
30819
32946
34176
31996
30736
31913
31356
29042
29579
31607
30595
29059
31011
32845
30728
29003
31145
31832
28683
28206
31375
31395
29086
30548
33108
31597
29776
31372
32172
30103
29782
32159
32224
29608
29976
33283
33363
30647
31139
33519
32237
29842
31579
33788
32050
30967
33581
34600
32165
31536
33482
32864
30445
31639
34125
32458
30309
32636
35134
33345
31536
33194
33871
31771
32011
34250
33043
30592
32249
34938
33922
32398
33811
34315
32114
32203
35059
34705
31436
31633
34783
34821
32374
32282
33512
33023
32895
34593
34494
31785
31700
35138
36111
33405
32446
34044
34057
33119
34442
35290
32978
31965
34501
35623
33651
32932
34478
34631
33370
34078
35492
34194
32727
34539
36293
34366
32498
34331
35791
33955
33323
35323
35112
32583
32698
34739
33705
30791
31039
33021
32403
30899
31654
32222
30288
29439
31681
32103
29058
28280
30715
30799
28870
29939
32306
31303
29566
30927
31766
29294
28259
30653
31235
29097
29634
32296
31786
29868
31113
32515
30289
28692
31191
32738
30781
30774
33424
33055
30681
31637
33659
31805
29423
31337
33300
31043
29908
33356
35205
32268
30742
33110
33163
30105
30698
33706
32591
30469
32681
34714
32596
31310
33374
33622
31154
31485
34348
33931
31149
31936
35028
34573
32337
33431
34971
32918
31673
34271
35110
32072
31451
34424
34962
32855
33001
34308
33017
31725
33764
35115
32732
31633
34272
35483
33702
33382
34958
34364
32264
32849
34597
33422
31925
34047
36343
34631
32716
34467
35507
33389
33435
35941
35060
32383
33688
36371
35073
32696
33839
35246
33703
33021
34600
33971
31304
31508
33573
32770
30789
31554
32592
31046
30227
31831
31691
29166
29490
32493
32222
29221
29273
31535
31072
29336
30438
31791
29942
28716
31021
32346
30315
29299
30956
31068
29186
29890
32420
31865
29882
31096
33139
31570
29293
30657
32502
31395
30969
32999
33274
31283
31576
33742
32849
30237
31273
33649
32500
31084
32876
33856
32117
32037
34083
33530
30944
31180
33250
32831
31388
32689
34602
33395
31919
33533
34334
31669
30665
33328
34043
31883
32526
35229
34354
32084
33639
35580
33115
30692
33027
35179
33198
32245
34645
35323
33650
33969
35308
33713
31548
33069
35116
33543
32230
34637
36269
34103
32873
34885
34940
32046
32277
35196
34684
32555
34315
37108
35925
33830
34761
35181
32990
32942
35624
35297
32409
33050
36139
35686
33165
33597
34691
32764
31438
33422
34035
31282
30499
32918
33333
31235
30769
31429
30338
29422
31224
32382
29990
28447
31078
33061
30971
29355
30846
31035
29357
30460
32287
30205
28423
30837
32459
30356
29165
30865
31486
30227
30782
32439
31278
29174
30680
33568
32736
30324
31344
33359
32385
31427
32936
33284
31432
31537
33739
33552
31403
31536
33061
32661
32038
33540
34291
32227
31409
33858
34753
32248
31356
33409
33789
32212
32829
34299
32863
31512
33675
35134
32651
31012
33205
34238
32265
32479
34843
34121
32046
33277
35117
33523
31595
32987
34455
33058
32401
34373
34910
32862
32697
34985
34767
32230
32751
35100
34381
32974
34612
35722
33478
32418
34859
35551
32879
32475
35042
35138
33190
34138
36345
35208
33474
35164
36363
33642
31863
33929
34874
32920
33103
35598
35173
32826
33293
34230
31606
29426
31672
33204
30659
29826
32639
33039
30529
30675
32535
30748
27757
29314
32028
30574
29072
31185
32200
30012
29547
31748
31602
29162
29584
31777
30863
28989
30635
32913
31654
30097
31687
32454
30201
29960
32809
33049
30443
30768
33566
33226
31008
31894
33469
31748
30634
33103
33981
31195
30764
33757
33968
31310
31547
33653
32589
30757
32652
34290
31808
30439
33175
34502
32455
31843
33513
33380
32108
33547
35166
32955
30943
33174
35217
33279
31557
33153
33967
32312
32618
34650
33708
31629
33166
35621
34342
32238
33489
34925
33712
33552
35430
34797
32175
32903
35773
35155
32498
32952
35067
34782
33650
34537
35267
33541
32720
34982
35885
33387
32518
34844
35378
33455
33683
35283
34273
33128
35253
36559
33630
31217
32829
33905
32274
32447
34234
32900
30558
31589
32881
30576
28305
29821
31467
29995
29077
30704
31099
29415
29510
31310
30702
28446
28960
30935
30392
29218
30582
31915
30575
29760
31536
31710
29089
28898
31497
31463
29466
30545
32947
32042
30545
32257
33190
30356
29098
31877
32900
30780
31293
34162
33874
31881
32626
33788
32208
30952
32589
33517
31733
31462
33954
34392
32136
32036
33885
32738
30187
31560
33927
32354
30984
33443
35045
33392
32762
34111
33410
31281
32243
34506
33209
30795
32290
35123
34349
32592
33858
34373
31812
31832
35163
34919
31730
32587
35791
34905
32325
33255
34782
33326
32546
34715
35207
32359
31842
35014
35677
32933
32884
35417
34830
32586
33837
35471
33308
32093
34952
36303
33826
32769
34608
34683
33013
33929
35289
32979
31105
33310
34765
32362
30393
31422
32204
31040
30569
31424
30986
29389
29824
31715
31007
28751
29463
31094
29864
29144
31221
31553
29195
29354
32008
31512
28552
28765
31050
30747
29809
31345
31934
29591
29283
32253
32549
29368
28889
31652
32097
30370
31264
33200
31918
30463
32570
33958
31227
29353
31658
33131
31442
31512
33821
33576
31946
32955
34024
31735
30000
32353
34101
32002
31111
33389
33875
32185
32997
35120
33593
30572
31525
33948
32950
31458
33162
34566
33035
32487
34488
34383
31610
31465
33919
33814
31898
32977
35436
34385
32293
33794
35302
32897
31474
34017
34811
32235
32592
35971
35915
33336
33827
35422
33704
31986
34120
35576
33199
32438
35342
36106
33818
33818
35782
34625
32085
33373
35511
33775
32302
34549
35753
33610
32696
34063
33313
30867
31493
33419
31786
29429
31008
33105
31398
29478
30884
31470
29008
28552
31102
30986
28172
28535
31462
31132
28735
29445
31228
29975
28831
30761
31500
28988
28435
31107
31487
29204
29585
31938
31333
29576
31027
32411
30222
29219
32042
33292
31038
30183
31984
32333
31175
32164
33615
31971
30523
32733
34560
32600
30908
32583
33684
32083
31827
33495
32981
31185
32350
34585
33344
31030
32263
34113
32890
32224
34154
34159
31611
31776
34562
34404
31863
32162
34250
33748
32379
33512
34633
33209
32610
34465
34691
32351
31762
33622
34156
33070
33686
35225
34092
32160
33473
35208
33266
31512
33817
35375
33453
33273
35347
34527
32641
34371
36413
34299
31874
33528
35389
33834
33023
35162
35514
32937
32817
35596
35164
31725
31668
33648
32227
30514
32598
33940
31656
30843
33018
32440
28837
28642
31465
30939
28177
29181
32159
31432
29254
30290
31529
29531
28279
30282
31036
28974
29050
31758
31882
29761
30123
31483
29822
28134
30174
31695
29652
29268
32367
33239
31044
30890
32565
31591
29615
31086
32967
30946
29293
31848
33870
31994
30690
32382
32686
30598
30955
33284
32566
30421
31654
33892
32687
31078
32924
34030
31542
30895
33799
34099
31171
31336
34390
34174
31747
32546
34225
32459
31320
33928
34720
31816
31666
34775
34736
32163
32501
34248
33153
31504
32979
34495
32750
31699
34142
35372
33034
32053
34258
34741
32944
33802
35912
34286
32026
33856
36165
34701
32731
33698
34731
33914
34315
35834
34799
32690
33682
35787
34745
32745
33726
34973
33510
32760
34393
34314
32063
32362
34834
34012
30555
30071
31928
31579
30226
31048
31744
29991
29281
31205
31210
28281
27672
30212
30867
29280
29917
31778
30509
28532
30222
32055
29780
27818
30320
32257
30195
29242
31140
31151
29636
30850
32706
30886
28505
30152
32305
31036
30373
32686
33284
31076
31222
33710
32685
29244
30058
33091
32105
30231
32370
34305
32346
31160
33183
33349
30607
30491
33031
32761
30653
31927
34600
33416
31178
32633
33859
31132
29938
33091
34119
31357
31685
35190
35030
32233
32705
34477
32916
31053
32914
34592
32778
32083
34623
35266
33053
33036
34970
33684
30821
32154
35086
34006
32185
33903
35401
33757
33031
34923
34872
32534
33165
35557
34358
32130
33676
35667
34220
32931
34455
34715
32512
32678
35280
34792
31706
31873
34590
34050
31533
32334
33923
31698
29605
31398
32144
29245
28410
31068
31412
28916
28597
30092
29505
28261
29598
30747
28673
27447
30088
31804
29670
28386
30169
30388
28504
29366
31380
29714
27799
29932
31924
30133
28628
30273
31317
30235
30773
32452
31207
29142
30674
32950
31462
29246
30578
32317
31258
30845
32781
32929
30647
30720
33196
32795
29973
30117
32421
32242
31053
32426
33774
31987
30843
33206
34405
31905
30695
32569
32896
31467
32602
34405
32767
31378
33938
35405
32314
30336
32978
34643
32670
32376
34540
34097
32288
33737
35632
33401
30908
32962
35208
33385
32241
34462
34959
32591
32708
35248
34439
31200
31757
34551
33889
32083
33740
35747
34350
33137
34779
34813
31943
31728
34366
34049
31870
33357
36195
35115
33076
34193
34596
31516
30112
32479
32907
30050
29906
32710
32226
29213
29689
31739
29827
27193
28892
30568
28578
28258
31141
31352
29084
29653
31375
29391
26769
28547
30789
28772
27194
29779
31542
29833
29281
31148
30824
28420
29037
31520
30638
28321
29705
32330
31070
28795
30281
31915
30180
29733
32296
32231
29352
29713
32643
32413
30426
31345
32637
30858
29961
32384
33076
30557
30475
33110
32923
30755
31417
33229
32330
31029
32534
33630
31455
30297
32973
34645
32596
31371
32952
33092
31617
32905
34838
32898
30987
33217
35021
32907
31354
33218
34341
32972
33024
34307
32994
31227
33046
35241
33538
31368
32855
34463
33041
32459
34601
34986
32513
32159
34753
35122
32776
32482
34141
33922
32860
33811
34702
33346
32990
35160
35406
32622
32069
34622
34976
32644
32527
34083
32909
30890
31993
33168
30811
28756
30347
31387
29585
29424
31324
30381
27875
28990
31554
30214
27595
28728
30321
28621
28080
30630
31047
28881
29324
31527
30366
27715
28860
31217
29892
28112
30119
32108
30354
29086
31235
31669
28585
28213
31375
31614
29256
30302
33239
32605
30794
32156
33208
30666
29066
31025
31832
30104
30834
33829
33612
31332
32077
33500
31277
29519
32311
34058
31408
30729
33739
34191
32061
32427
33939
32531
30611
32101
34113
32789
31281
32939
34551
33290
32191
33189
33176
31716
32597
34682
33582
31405
32786
35180
33908
31884
33338
34331
31968
31734
34904
34859
31730
32271
35266
34530
32095
33018
34636
33152
31858
33792
35098
32910
31867
34773
36226
33705
32852
34930
34469
32428
34000
35715
33160
31637
34255
35145
32463
31355
32781
32686
31241
31936
33074
30999
28735
30309
32312
30589
28506
29705
30628
29168
29493
31305
29766
27210
28973
31921
30660
28194
29347
31158
30095
29346
30843
30961
29145
29476
31547
30905
28690
29381
31388
30879
29903
31227
31938
30012
29705
32657
33290
30012
29030
31699
32248
30531
31644
33662
31960
30139
32192
33624
31226
29860
32230
33402
31520
31470
33629
33229
31452
32647
34403
32531
30292
31917
33710
32193
31641
34084
34601
32163
31967
34250
33650
31070
32065
34170
32454
31169
34126
35741
33168
32263
34749
34764
31780
31611
33925
33407
31346
32712
35423
34578
32794
34151
35003
32336
31128
33703
34514
32147
32466
35588
35457
32956
33617
35357
33353
31141
33295
35168
32948
32074
34948
35880
33826
33751
35253
33818
31291
32486
34634
32870
30685
32415
34138
32057
30286
31808
32111
29732
29934
32169
30840
28224
29668
31976
30433
28517
29904
30627
28560
28539
31193
30982
28420
29195
31994
31448
29496
30510
31690
29879
28960
31236
31909
29207
28750
31869
32577
30023
29903
32205
31922
30407
32012
33558
31181
29525
31930
33377
31336
30416
32253
32690
31441
32337
33630
31546
29708
31921
34154
32892
31508
32522
32981
31955
32678
34265
32946
30862
32263
34518
33152
31001
32406
34131
32874
32444
34449
34242
31612
31964
34788
34262
31365
31744
34058
33650
32529
34100
35176
32971
32062
34972
35998
32860
31725
34138
34223
32067
33208
35415
33595
31709
34009
35535
32911
31399
33907
35227
33198
32982
35394
35088
32569
33233
35806
34953
32554
33520
34990
33034
31725
33610
34054
31896
31834
33792
32836
29924
30294
32259
31060
29123
30196
31291
29874
29447
31263
30773
27777
27867
30776
30788
28595
29379
31732
30881
29195
30753
31726
28811
27465
30328
31131
28382
28638
31828
31600
29336
30473
32263
30140
28152
30518
32343
30363
30094
33102
33504
31080
31064
32608
31335
29386
31057
33254
31740
30274
32482
34190
32356
31320
33228
33268
30649
31075
33874
32992
30287
31707
34818
34057
31998
33135
34001
31699
31134
33835
34111
31718
32321
35013
34454
32434
33414
34701
32992
32013
34020
34462
32087
32196
34988
34800
32216
32543
34516
33751
32518
34441
35743
33242
31925
34503
35827
33924
33118
34403
34185
32819
33892
35714
34354
32543
34378
36546
34728
32487
33934
35169
33344
33057
35111
34268
31355
31848
34186
33129
30473
30819
31966
30702
30112
31927
31936
29289
29120
31815
31441
28100
28073
30710
30428
28941
30521
31874
29607
28440
31009
31587
28259
27450
30566
31320
29143
29583
31528
30310
28896
31130
32708
30338
28806
30949
31961
30281
30863
33312
32431
30224
31557
33460
31533
29398
31255
33168
31613
30866
33078
33544
31257
31336
33868
33143
29979
30669
33528
32935
31611
33536
34720
32565
31951
34377
34143
30840
30866
33806
33456
31332
32964
35677
34527
32856
34345
34963
32398
31485
33748
34208
32189
32651
35089
34785
33369
34717
35787
33315
31578
33851
35254
33060
32599
35467
36110
33882
33711
35222
34153
32452
34253
35977
33814
32617
35180
36318
34433
34209
35777
34710
32303
33366
35594
34018
31551
33087
35458
33928
31602
32466
32921
30500
29903
32245
31988
28997
29209
32196
31870
29159
29567
31119
29505
28420
30965
31949
29374
29120
31759
31559
29275
29845
31457
30123
28607
30433
31934
30055
29228
31684
32585
30548
30147
32081
32192
30704
31585
33313
31776
29747
31649
34232
32757
30383
31610
33357
32468
32302
33681
32656
30467
31933
34992
34158
31420
32130
34132
33261
32263
33615
33780
31759
31807
34041
33824
31742
32377
34555
34180
32918
34062
35216
33585
32736
35144
35944
32814
31379
33582
34080
32303
33153
35100
33591
32008
34379
35961
33125
31291
33961
35596
33564
33334
35682
35019
32462
33659
36287
34518
31433
32968
35595
34415
33557
35719
35985
33500
33741
36428
35669
32399
32681
34996
34152
32586
34078
34993
32582
31396
33442
33363
30048
29518
32056
31660
29070
29973
32628
31437
28700
29358
30675
29106
28285
30342
30768
28663
29182
32027
31944
30093
30870
31991
29964
28302
30223
31481
29746
29897
32762
32990
30854
31165
32670
31253
29548
31697
33885
31911
30338
32790
34489
32484
31355
33069
33064
30924
31720
34097
32732
30403
32343
35116
33793
31800
33138
33977
31862
31490
33862
33825
31673
32300
34313
33540
32259
33408
33917
32130
32000
34632
35394
32953
32372
35006
35522
32915
32440
34295
33810
32264
33849
35383
33047
31596
34443
36140
33754
32459
34380
34641
32638
33342
35503
34154
32178
34050
36039
34222
32594
34503
35805
34120
33772
35453
34586
32173
33497
36717
35746
32547
33232
35330
34046
32918
34617
34381
31482
31552
34324
34051
31287
30871
32068
31566
30733
31578
31621
29366
28711
31216
32080
29609
28610
30481
31093
30026
30746
31957
30406
29018
31047
32666
30725
29206
30897
31845
30409
30752
32790
31905
29690
31028
33411
31686
29001
30680
33075
31610
30557
32886
33798
31646
31311
33362
32854
30364
31121
33495
32804
31697
33528
34457
32145
31351
33748
33956
31263
31428
33917
33059
30864
32682
35293
33746
32059
34174
35237
32290
30918
33544
34671
32699
32807
35113
34681
32899
34265
35912
33601
31293
33223
34845
32668
31734
34262
35203
33692
33990
35444
34145
32235
33779
35450
33541
32527
35131
36224
33840
33001
34938
34987
33042
33705
35659
34375
32396
34242
36730
35324
33393
34824
35410
32579
31823
34379
34083
31005
31313
33899
32957
30386
31013
32009
29844
28591
30705
31156
28474
28465
31592
31728
29148
29423
31311
30107
28316
30148
31795
29659
28551
31100
32115
29968
29372
30921
30478
29017
30659
32714
30849
29027
31324
33239
31087
29523
31702
32842
30961
31135
33415
32581
30265
31472
33773
32824
31142
32079
33064
32087
31956
33475
33282
31193
31398
33890
33533
30770
31307
33972
33470
32093
33735
34504
31821
31130
34158
34845
32008
31353
33594
33982
32601
33411
34957
33721
32527
34387
35348
32843
31469
33734
34974
33299
33220
35174
34533
32462
33872
36337
34331
31344
33228
35525
33591
32919
35435
34966
32163
33229
36021
34801
32160
33117
34923
33667
32498
34462
35779
33662
32439
34538
34785
31542
30742
33103
32877
30698
31672
33561
31521
29271
31347
32575
28941
26992
30071
31126
28241
28451
31644
31179
28686
29581
31092
29189
27589
29614
30829
28571
27949
30767
31542
29484
29984
32357
30781
27545
29065
31750
29834
28271
31213
33037
31146
30784
32769
31998
29409
30647
33433
31933
29421
31542
34618
33431
31368
32497
33395
31553
30838
32568
32526
30310
30804
34022
34300
31889
32245
33856
32099
30503
32819
34001
31418
31019
34102
34551
32157
32318
34023
32814
31229
33229
34720
32308
31352
34351
35439
33011
32446
34328
33783
31726
33120
35452
33613
31320
33351
35757
34367
32655
33701
34238
32812
33216
35249
34590
32493
33395
35548
34688
32819
33719
34847
33595
33349
35301
35138
32673
32831
35325
34942
32139
31679
32963
32588
31872
32733
32510
29947
29279
31698
31958
29025
28498
30700
30247
28211
29735
31881
29686
27565
30089
32127
29619
27634
29682
31044
29509
29598
31502
30654
28745
30216
32119
30032
27739
29869
32305
30955
30062
32060
32391
30188
30410
32844
32080
29292
30304
33010
32220
30985
32923
33771
31249
30766
33740
33710
30176
30251
33281
32506
30348
32588
34901
32464
30897
33775
34744
31383
30374
33389
34016
31424
31678
34386
33971
32081
33352
34725
32328
30402
32617
34200
32327
32160
34960
35234
33051
33473
35164
33384
30861
32627
34967
33093
31522
34021
35768
34007
33202
34760
34226
31686
32291
34919
34406
32603
34011
36132
35084
33730
34986
35147
32675
32513
35087
34862
32472
33381
36010
35065
32495
32612
33171
31451
30558
32138
32311
29976
29803
32461
32672
30184
30149
31653
29945
27717
29483
30839
28183
27571
31432
32794
29832
28794
30794
30578
28296
29057
31560
30623
28487
30155
32791
31498
29452
30907
32007
30081
30089
32592
32061
29732
30909
33277
32163
30379
31787
33061
31520
31057
32943
32811
30729
31359
33731
33157
31212
32017
33429
32355
31707
33504
33877
31467
31114
33761
34228
31974
31792
33781
33957
32740
33347
34199
32398
31200
33927
36033
33573
31496
33636
34859
32769
32692
34730
33795
32053
33832
35643
33700
31677
33030
34491
33408
33015
34814
35138
33196
33339
35759
35092
31938
32443
34828
33715
32511
34849
35848
33497
33315
35881
35306
32112
32362
35115
34995
33424
34573
35841
33682
32298
34988
35929
32012
30248
33218
33769
30837
31159
33609
32425
30610
32267
32855
29559
27824
30315
31635
29565
29323
31962
32136
29898
30306
32127
30427
27845
29556
31804
29983
28909
31761
32971
30491
29982
32421
32077
29152
29566
31834
30684
29188
31680
33809
31946
30887
33195
33429
30304
30067
33096
33095
30706
31808
34768
34105
32028
32835
33531
31463
31018
33643
33850
31078
31399
34421
34259
32212
33164
34705
32969
31453
33356
34178
31688
31332
34055
34131
31879
32434
34491
33481
31471
32888
35023
33395
31302
33283
35995
34985
33348
34464
34586
32109
32216
34896
34491
32340
33564
35763
34443
32486
33623
34508
32736
32460
34882
35104
32611
32532
34928
34774
32710
33257
34817
33756
32863
34731
35309
32746
32280
35267
35858
33044
32430
34281
33729
31800
32699
33683
31272
29758
31870
32758
30549
29649
30980
30585
28866
29951
32056
30584
28261
29720
31853
30202
28078
29658
31456
30349
30083
31701
31091
29046
29967
32179
31315
29248
30008
31665
31134
30562
31931
32486
30889
30785
33157
33106
30060
29847
32537
32567
30900
32071
33765
32370
31396
33409
33865
31079
30330
32773
33305
31735
32674
34454
32590
30559
32902
34965
32295
30151
32679
34277
32040
31894
34727
34461
32015
33011
35264
33545
30941
32546
34691
33062
31963
34194
35021
33038
33023
35103
34235
31302
31787
34141
33505
32295
34176
35599
33655
32681
35035
35693
32996
32361
34682
34771
32752
33513
35955
35267
33458
34862
36229
33889
32307
34277
34740
32438
33094
36323
35954
33197
33435
34561
32483
30746
33030
34499
31639
30129
32985
34107
31128
29948
31859
31100
28356
29611
31968
29860
27951
30279
31578
29642
29368
31274
30860
28862
29697
31623
30373
28493
30174
32439
31182
29591
31161
31899
29487
29064
31789
31818
29022
29474
32719
32882
30787
31314
32925
32049
31227
32751
33133
31237
31478
33889
33549
31277
31861
33757
32727
31157
32857
34329
32127
30784
33332
34852
32757
31432
32839
33328
32312
33136
34495
32916
31326
33338
35246
33288
31479
33399
34723
33046
33036
34742
33448
31462
33179
34993
33213
31682
33274
34343
33084
32860
34399
34282
32473
32918
35285
34717
31951
32368
34757
34270
32938
34264
34951
32729
32415
35439
35883
32716
32109
34796
35179
33243
33904
35706
34109
32193
34342
36209
33394
