9935
9350
10421
8896
10509
10086
10137
9538
9500
10730
9745
11468
10798
10986
9311
10041
10143
9830
9216
10484
10959
10019
9590
10685
9121
10269
11298
11260
10120
10471
9474
10499
11347
10607
11137
11605
10619
11683
10878
10512
11013
11343
11302
10175
10282
10874
11187
10478
9961
10960
9978
10540
10841
10476
11812
10074
9972
10973
11299
11534
11506
9856
11139
11100
11543
11563
10417
10151
11015
10907
10754
10220
11486
9887
11439
11737
11990
11175
10830
9965
11725
10748
11574
10979
12085
10769
11481
11011
11398
10713
9816
11483
12285
10826
10092
11682
10792
9397
11912
12023
11320
9964
10587
10849
11175
11023
10088
10385
10836
10630
10638
10610
9955
9500
10290
9718
9523
10005
9390
9460
10063
11282
10272
10570
10740
10999
9361
10614
9891
10862
9259
9413
9502
10784
10183
10916
10953
9825
9949
10943
9884
9482
9633
10342
10320
9980
8739
10143
9907
9925
10947
9869
9713
9469
9129
11212
11559
11158
9445
11141
9137
9638
9723
10932
10773
9997
9917
10002
10634
10405
10393
11599
9995
10699
11532
10497
11015
11249
10056
10700
10962
10346
11562
10834
11165
10578
12181
10143
10026
10942
11413
10537
10279
10288
10270
9702
10326
10037
10444
10811
10192
10860
10184
11538
9983
9984
11570
9574
11354
10681
10397
10732
10241
10884
10965
10586
11125
10584
10880
11632
10122
10140
12552
11373
10747
9794
9733
10966
11653
10073
10281
10822
10490
10401
10835
11022
11014
9971
11099
10722
10102
9115
9820
10643
10975
10389
9436
9908
10548
10509
10258
10067
9342
9681
9991
9640
9573
10376
10140
10429
10967
9374
10624
10391
10750
10658
9344
10782
10624
10540
10991
10679
11237
9529
9129
9557
10062
9663
9962
10472
10626
10181
9883
11172
11528
9805
10977
10474
9799
10018
10014
9899
10177
9547
10775
11473
10427
11063
10648
10962
10521
11383
10163
10913
10942
10157
9848
10270
11125
11262
10786
10836
8238
10665
11685
10229
10047
10541
11113
10003
9908
10063
11620
10129
10973
10980
9735
9891
9854
10213
10189
10348
10791
10654
11163
11729
10571
10895
11328
11208
10135
11769
10615
11268
10776
10131
11586
11475
10366
10027
9366
11696
9941
9266
9762
10934
9208
10521
10358
10024
10263
9351
10126
9595
9607
8949
9530
9910
10641
10145
9618
10274
9783
9776
9772
9465
9609
9499
9758
10421
9675
9133
9251
9184
10469
9862
10371
9506
11185
9672
9387
9487
10007
10581
10644
9733
11120
10844
9269
11060
10887
9464
10099
10240
10769
9858
9848
10186
11135
10384
10652
9608
10044
10286
9565
11633
8891
10386
10376
10088
10177
11264
10039
9754
10695
9924
10351
11592
9981
11288
9919
11457
9681
10647
11164
11848
10424
11084
10004
9809
10126
11019
11401
10637
10671
9729
11388
9797
10461
9645
11130
11000
11329
9752
11362
11459
10824
11287
10320
10274
10289
11167
11722
9486
11736
12090
11768
11156
10172
10461
11765
10148
10572
10204
10132
11350
10839
11026
10189
9400
10494
10529
9365
10599
9198
8954
9746
10155
9778
9999
10419
9285
10561
9664
10010
8476
10060
9692
10917
10358
10135
8695
9606
10580
9304
10570
10180
9235
10306
9224
10643
9997
9360
10729
10574
10530
8995
10388
10971
10125
10992
9199
10011
10572
10100
10508
9579
10446
9380
9443
11157
9578
11092
10311
9463
10167
9227
10362
9482
10459
9912
10394
10385
10549
10888
10337
9528
10709
10544
9613
10849
10872
10110
9512
10614
11639
10139
9990
11279
11101
9593
9813
10068
9740
9985
10937
9891
10029
9866
11237
10480
10998
10828
9810
10285
9597
9654
10764
10632
10914
10685
11168
10401
10264
10153
11383
10774
9609
10080
10137
11277
10763
10224
10743
11141
9705
10864
9319
10498
10989
10001
10174
8365
9384
11802
9481
7508
10520
9401
10492
8854
8993
8869
10353
9327
10352
9212
8722
9797
10145
9729
8424
9820
10348
9770
9423
9946
10046
9738
9548
10415
9988
10670
10344
9724
10091
9276
10674
10355
9987
9564
10353
10936
9160
8960
9654
10494
9390
9527
10045
10200
9733
10490
9930
9903
10420
9298
9631
10998
10759
11109
10395
10031
10049
10007
10529
9668
10491
11418
9994
9815
10052
11244
10026
9130
10295
10012
10226
9249
10751
10542
9793
10017
10044
11016
9572
9626
10387
10341
10781
9767
11398
10253
10626
10720
10196
10854
11176
9549
10675
11266
10443
11146
10416
11108
10610
10835
10128
10784
10382
10347
10088
10525
10151
9948
8871
10324
11022
10590
9624
9133
9879
8897
9224
9623
10548
10099
8777
10213
10748
8517
9141
9496
9197
9286
9524
8969
9020
9883
9631
10376
8713
8317
10196
10676
9322
11025
9129
9297
10201
9430
8954
10443
10037
8935
9889
9119
9166
9406
9935
10227
10142
8807
9567
9324
10085
10781
9608
9458
10163
9464
10521
10937
10558
9943
10115
10320
10389
9321
9945
10739
9273
10596
11089
9868
9666
9744
11252
9480
11134
9371
10583
9255
10872
9658
10389
11226
11101
10867
10340
11235
9662
10925
9468
11253
11026
9460
10668
10468
9751
10723
9407
10620
9273
10232
10211
10553
10234
9725
9421
9495
10491
10240
11030
10389
10160
10489
11197
10156
9705
10732
11045
9154
10361
9792
9180
8889
10085
11056
9434
9757
11069
9811
10292
10040
10682
9657
9340
9944
9981
10147
10020
10583
8756
10144
9779
10477
10773
8744
10210
9941
9858
8594
9630
10826
9291
10089
9087
10572
9339
10699
10222
9335
10033
10345
10880
10151
10120
9676
10080
10077
9260
10099
9097
9256
10035
10086
11108
11143
9347
10329
11025
9023
9456
10104
10437
9403
10392
11106
9787
8879
9976
10851
10491
9349
10666
9626
10197
9119
11741
10092
10139
10677
10045
9818
9679
10268
10844
9940
9851
10378
10934
9471
10924
9192
10168
10444
10382
11698
10555
10321
11462
9171
9892
11328
11670
11230
11229
11070
10480
11839
10481
10017
11512
10881
9772
10363
10248
9907
11117
11332
10293
10139
9788
11007
11321
9318
10893
9332
9658
10520
10557
9963
10328
8624
8806
10897
10696
9493
10467
10083
9208
9295
9822
9438
10781
9770
11424
9597
10860
10300
8895
8904
9243
10811
8770
8936
10432
10011
10561
9646
9917
10431
9542
9789
10044
10786
9921
9893
9212
9117
10859
10166
10599
10973
9059
10160
11018
10388
10043
10170
9933
10041
10220
9324
9708
10564
9390
9938
9991
9747
10628
9421
10043
10530
10792
10903
10911
9398
9838
10034
9926
11076
10973
9031
10354
9437
10290
10318
11266
10754
9105
10371
10678
10845
9871
10724
11325
9494
10785
10866
9269
11221
10097
9467
10221
11570
9664
10328
10068
10374
10124
10034
9563
9495
10529
11494
11371
10556
10031
9802
11838
9905
10901
10274
10123
10920
9489
11170
10817
9587
9407
9304
9839
10376
9759
10516
8832
8227
9457
10700
9759
8436
9235
8491
9140
8305
10315
10013
10003
9037
9585
9417
9281
9599
8866
9196
9897
10325
9454
8735
9443
10406
9722
9776
9546
10260
9596
9923
8638
9533
10278
9056
10692
10864
9860
9621
9989
10444
9395
10068
10080
9993
9581
9692
10444
9959
10512
9988
9817
9130
9492
9971
9236
10709
10003
10350
11191
9020
9723
10751
11307
9340
10327
9826
9404
9735
10341
10329
10367
10431
9690
8815
10824
11216
11461
10598
8270
10839
10157
10135
7562
10636
11224
9377
11010
9762
11493
9050
9717
9532
9982
10099
10815
10082
10366
10349
10099
11398
10187
9075
10242
10228
10536
10042
10598
11172
10194
9906
10757
10385
10129
8923
8975
9324
9763
10351
8910
8574
9592
10632
8899
9705
8345
9726
8576
9441
9195
9738
9674
8977
9101
10055
10194
10082
8619
8700
9939
9329
9757
9198
8936
9185
9317
9414
8913
9733
8773
9367
9098
10039
9853
9907
8712
10824
8839
10100
10624
10962
10085
9383
9596
9413
8675
9772
9243
10032
9514
9445
10845
9049
8969
8610
10298
9643
9750
9529
9905
9584
10048
10213
8858
10390
9057
10252
10471
9998
10463
9377
9647
8898
10681
10617
9700
9417
9901
8891
9860
9192
9261
8737
10560
9536
9860
9048
9274
10134
9841
8773
10105
10163
9698
10526
9014
10460
9487
9366
9867
9043
9750
10224
9282
10016
10363
8551
9004
9116
10106
9154
10442
9903
10161
8444
8752
8264
8804
8795
8949
9079
8061
8826
8168
8945
9233
9352
9840
8905
8074
9284
9978
9892
9734
9781
8059
9262
8515
9278
8534
9510
9530
8283
9102
9168
10180
8107
10110
9495
9752
9052
8718
8097
9226
10275
9483
8895
9657
9717
8892
8398
9217
9044
9744
9078
8808
8241
9998
9799
9499
8924
8682
9294
8979
9921
9471
8423
9180
9430
9495
9330
9345
9232
9401
9179
9339
9891
9631
9536
9843
9564
10129
8834
8375
8540
10326
9084
10380
8911
9350
9657
9312
9586
10817
10300
9464
9695
9122
9534
10656
9707
10211
8739
10093
9839
10487
9108
9494
11099
9316
8682
10297
9474
10453
9690
8914
9628
9012
9905
10230
8933
8851
9732
8359
9016
8373
10124
8446
7997
9534
8398
9707
8829
9966
7867
9740
7703
8690
7977
8068
8410
8541
7833
8594
8542
9259
8359
8749
8856
8998
8861
8183
9460
8761
9507
8393
9234
8743
7868
9269
8222
9275
8325
9199
10224
8461
9194
9903
9110
8688
8314
9572
9218
8156
8509
8431
9611
8533
8988
8916
8131
8128
8412
10502
9040
9004
9955
10495
8081
8550
9269
10434
8282
9029
9912
8601
10085
10129
9023
8862
10187
10490
9720
8139
8622
8828
10226
8595
8867
10529
9165
8298
9859
8509
9391
9923
8891
9085
9451
9119
9754
9547
8433
9807
8460
9584
11350
9785
8038
9440
10076
9884
10019
10520
8390
9915
9203
8274
7792
8300
9523
9282
9539
9208
9551
8377
8611
8310
8328
8199
8257
9787
9101
8690
8355
9153
8410
8799
8304
9175
8494
9011
8616
7860
7540
8503
8877
8835
8090
8728
8659
7999
8854
8182
8903
8011
8850
7634
9080
7789
8731
9031
8414
9103
9279
8418
8853
8830
9960
8273
8114
9370
9322
8194
9609
9870
8300
8317
9279
9117
9445
8984
8366
9802
9876
9600
9862
8872
8428
8741
10060
9623
8401
9531
10010
8811
8709
8629
9233
8103
9682
8746
8448
9177
8476
9246
9365
9184
9064
9439
9299
9228
10036
9345
9310
9732
9182
8783
8989
8328
9542
8734
9139
9756
9519
8871
8577
9469
10222
10299
9097
10526
9763
9971
9412
9706
9313
8445
8794
8709
9754
9467
9019
8183
9612
9283
9672
9759
8720
8072
8761
8742
8672
9089
8583
8910
8305
8874
8783
8592
8152
8718
9275
8529
9217
8777
7913
9234
7537
8783
8404
7579
7349
8263
8877
7808
9713
8966
9897
8067
9143
8620
9535
8288
8877
8828
9347
8020
8989
9756
8981
9995
9362
9663
9118
8271
9595
9218
9869
8386
10862
9870
9333
9535
8066
9814
8976
9650
9892
8468
9115
8630
9149
9334
9200
9065
9613
8127
9417
9066
10101
8491
10351
8255
9789
9307
10465
8210
8878
8873
8291
9346
7822
9727
10188
8981
9423
10486
8967
9540
8970
8402
10689
10426
8901
9941
9287
8774
9891
9804
9739
10262
10176
8603
9077
8742
9854
8853
8227
8397
8935
9619
7799
9043
8017
8841
9381
9540
9069
8283
7247
8787
9545
7575
7163
9620
7888
7789
9043
9192
9608
9462
8654
9804
8555
8466
9826
9680
9632
9391
8133
8727
8606
8779
8156
8860
7444
9493
9472
8837
9118
8256
9044
9635
8057
9288
7916
9059
9039
8580
8255
7874
8388
8502
9660
8461
9915
9654
8325
8699
9462
10105
8426
7869
9862
9560
10033
8968
9273
9196
8536
9260
10074
9490
8275
8391
10028
8364
9959
9736
8731
9870
8386
9490
9032
9655
10075
9376
8488
9258
10065
9931
8455
8943
10061
8768
10267
8767
8847
8866
8720
9292
8660
9423
9797
9407
10209
9456
8993
9882
9616
9674
8863
8955
8842
9972
9397
9063
8986
9357
8597
9010
8311
9492
7974
9745
9848
8006
8792
8445
8477
9783
8651
9733
7950
8520
8210
8679
8946
7671
8038
9665
7634
7906
8556
9287
8714
10108
9161
8956
8674
9615
9361
7785
8891
8335
9789
8478
9777
9363
8367
8337
9682
9248
8352
9586
9019
9184
8530
9468
9870
9282
8277
8703
10067
8039
9845
9700
8606
9127
8376
8556
9345
7914
9887
9803
9504
8988
10344
8305
10063
9498
10310
10342
8429
8458
8516
8780
7824
9278
8081
9661
9940
9046
10151
8466
7788
8677
8378
8515
10472
10277
8528
8665
9852
9665
9547
8642
8712
10477
8528
8315
9799
8497
10202
8639
10518
9272
10193
8589
9521
9833
10264
10112
8942
8483
8527
10480
9892
8682
9569
8211
10037
9393
9405
10133
8943
8800
8574
7903
8165
8667
9786
8508
9247
8408
7829
8707
8837
9735
7761
7553
8384
8102
8732
8772
7505
8988
7799
8412
8317
8353
9242
8247
8171
9723
7742
9302
7976
8117
8643
8145
8908
9466
7873
9751
9642
8108
8371
7603
8657
7848
7887
8193
9898
8796
8158
9736
9538
8213
9380
9856
9884
9531
7405
10053
8039
8679
8224
9602
9911
11025
9411
9510
9424
8716
8366
9964
9849
9391
9681
10374
8824
8347
9765
8885
8752
9230
8786
9171
10275
9574
10801
9288
10234
8887
10368
8936
10329
8786
9109
8622
8607
9116
9190
9426
8472
9446
9803
9524
10166
9547
8730
10194
8521
8701
8929
9128
9686
8873
9641
8753
9577
8830
9326
9070
9514
8333
8485
8939
9177
8574
8362
7944
8403
9552
9362
8460
9328
8423
8817
9349
9495
7182
7658
7390
7933
9439
8669
7856
7522
9662
7914
8337
9337
8028
9454
7683
8705
8015
9895
8959
9577
9869
9209
8013
8414
9733
9580
8438
8270
9202
9745
8684
7995
9726
9386
10040
8276
8999
7976
7851
10009
9053
8169
9519
8333
8458
9505
9900
8075
8994
7659
10084
9763
9563
8643
9926
9327
7787
8566
9126
9031
9882
8512
8766
8759
7827
8374
10222
8372
9650
8407
9059
8666
8060
9658
10044
8447
9127
8771
8928
9816
9710
8193
8203
8340
10015
9052
8781
8865
9257
9038
7937
9178
10590
9112
8892
9801
8300
9642
10145
9669
9284
8851
9276
8831
7919
9398
8955
8931
8228
8061
8487
8629
9241
7860
9716
9515
9638
10075
8483
8299
7203
9608
8860
8528
7844
8548
9000
9394
8065
8647
9824
7634
8691
7702
9539
7686
8369
9040
8729
8313
8851
8592
8705
7718
8343
8380
9490
9168
9432
9190
9172
8183
7808
9779
9038
8434
10079
9173
7992
8149
8913
9099
9506
9425
8691
8134
9691
9948
9387
8576
9911
9698
8433
8781
10056
9533
9684
10104
9297
10214
8048
9026
9567
8218
9432
9578
10408
9098
9755
9220
8744
9245
8259
9357
8863
9383
8032
9924
9211
9091
9665
9094
9848
10609
9218
8889
10335
8115
8559
10425
10494
8573
8876
10740
8420
9168
9144
9051
9271
9806
8424
9108
8967
8345
9166
8588
8966
9900
8070
7583
8593
7931
8996
7547
8788
7321
8636
7862
8830
9322
8667
8690
8783
9413
8227
8158
9477
9142
9253
8760
7814
8988
8954
9456
9216
8303
8341
9061
9079
9291
10287
10254
9489
9428
7626
9982
7517
9960
8003
9653
9590
9658
9130
10183
9473
7669
10154
9592
10012
9648
9831
8990
8831
9157
9749
8835
8151
9473
8778
8384
8496
8350
8531
10084
9995
9055
8757
8225
9005
9566
9268
10061
9122
9653
9200
9528
8803
9519
10144
9348
10574
8307
9181
10355
8740
8065
9372
9779
9279
9827
10047
8499
10139
8623
10207
10360
8608
8499
9970
8660
10232
9130
9052
8259
9632
10089
9275
10667
8491
10056
8566
10089
8961
8127
9286
8790
8904
8845
9478
8206
9102
7823
9586
8568
8528
9376
8723
9618
9563
8930
8215
8203
9683
7908
7820
7298
8308
7719
8499
8689
8629
7578
8406
8991
7683
8091
9648
8946
8424
8858
7556
7873
8824
9094
8617
9528
9129
8332
8631
9200
8571
9782
9246
7778
9162
9637
9128
9739
8400
9285
8428
7948
8876
9158
9684
8693
8945
9301
8448
8100
8033
9040
9368
9370
8126
9170
10241
8263
9638
9177
9130
10170
8741
10266
10292
9694
8022
9155
9951
8421
10227
8886
9197
9254
8656
9974
8184
7647
9221
8531
9398
8420
10449
9398
8323
9847
8418
9408
9641
9211
9493
9802
9881
10294
8251
8293
8280
10329
10234
9606
8048
9821
7832
8421
8028
8534
9047
8169
7952
8161
7929
8695
7587
7722
8041
8002
8084
9014
8994
8573
9337
8305
8008
8825
9323
8699
7763
7472
7459
8011
9218
9059
8496
9128
8819
9355
8693
7074
8516
9550
8364
9026
9468
8498
8618
7555
9203
7938
8753
8752
8804
8003
8099
8635
7626
9426
7942
9689
10046
7561
9414
9123
8974
9083
7669
7708
8887
7862
9406
10070
8499
9528
8529
9664
8092
8412
8942
7437
8818
9241
9254
10207
8686
9247
9664
9156
9210
9942
9616
9386
8310
9033
7724
8167
8019
9743
9740
8322
8069
8689
9622
9675
9128
8164
8741
9045
9164
9202
8796
9787
9302
8762
9298
8894
9808
9029
9375
9152
8498
9149
9226
9055
9943
9270
8366
9121
9347
8118
7777
8094
8422
8040
7710
8180
8693
7969
9250
8736
7511
8164
9657
7894
8592
8646
8783
9307
6653
8303
7434
8162
7144
8718
9414
8379
9115
8117
7738
7563
8309
9151
7174
8172
9368
8617
8046
8689
9540
9193
8032
8289
9572
8868
8019
9252
8661
8049
8712
8593
8705
8807
8756
7799
8211
8666
8141
9037
8915
8619
8467
8779
9100
8955
8964
9260
8442
8489
9239
9149
9018
8269
9007
8114
8681
8827
8651
10263
8444
8928
9549
8536
9259
9295
9542
10128
9321
8712
8873
10195
9808
9980
8094
8915
8815
9167
11338
7480
8423
8456
10233
9650
8654
9612
10150
8890
9530
9146
10010
8359
9109
8874
9391
7952
8796
9087
8596
8470
7470
9100
7433
8392
9355
8771
8149
8077
8195
7931
7985
7731
7672
8541
7550
8604
7947
7984
9326
8515
7608
8091
9191
8309
8626
9487
9464
7899
8345
8611
8841
8990
8043
8366
9587
8926
9308
9664
9418
7664
7320
8422
7622
9675
8623
8625
9171
8281
9206
8913
8537
7708
8858
8252
9200
8023
9936
8312
7919
8645
8973
9467
8406
8826
9261
8950
8936
8854
9098
9148
9124
9289
9058
8048
8857
9592
9221
8489
8818
8258
9050
8853
9036
9897
9169
9886
9227
7985
9508
9508
9891
9169
8876
9958
10275
9093
8671
9380
8103
8333
9462
8491
9701
9674
7797
9620
8095
10110
8609
8620
9698
9929
9936
8372
8205
7360
9158
8949
9185
9443
8462
8271
7335
8986
9547
7745
8141
8835
7901
8967
8032
7963
9099
7877
7468
8515
7839
8103
7765
8810
7987
8530
8228
8563
8052
7795
8413
9155
8367
8506
8028
7653
7586
7537
9778
7777
8257
7130
8760
9305
8381
9131
9219
7744
8396
9391
8229
7506
6810
9521
8978
9600
8863
9532
8978
9560
8267
8133
8511
9899
9197
7613
9739
10006
8229
8624
7812
9062
9469
8389
8043
8030
8782
8037
9065
8128
7862
9391
8766
8770
8004
9878
9027
8747
9122
9155
8239
8730
9636
10189
9289
10084
8541
9274
8458
7847
9810
9143
8855
8660
9591
7632
8669
8771
9691
8546
9990
9657
8635
9480
8272
8187
8584
8400
9238
8470
8885
9274
9097
7432
7619
9257
7826
8916
8453
7342
8526
6608
8896
7573
7002
8825
7617
7322
8631
8740
7629
8714
7562
8305
7489
8182
9015
7369
8872
8226
8994
8279
9227
7885
8433
8745
8356
9083
9087
8071
8622
8074
9208
9319
9217
8007
9548
8413
8803
8693
7812
9899
9067
8460
9297
8176
8938
8545
8501
8576
7615
8712
9836
8664
9970
7647
9380
8834
8091
8133
9492
8316
8725
7833
8732
9408
8729
9551
7796
9255
9266
8806
8604
8197
8642
8051
8767
9349
10060
8836
7539
8932
8031
9082
8066
9786
8180
8433
8781
9771
8536
9205
8554
8060
8627
9638
8480
9691
8336
8079
8797
9453
7638
7432
8077
7980
9061
8778
7959
7584
7060
8628
8243
8280
7759
8802
7823
8444
7910
8867
8612
8393
7207
9100
8397
8245
7988
8652
7851
9142
7807
9053
7143
8931
8760
7186
7848
7967
8300
8319
7779
8351
8247
8029
7958
8416
8301
8973
8083
8735
7490
8870
7758
8064
8191
8248
8277
8401
8207
8073
8446
8679
8301
8332
8411
8303
8314
7950
8494
8904
8733
8922
8535
8330
9317
8829
9719
9098
7829
7579
8957
8414
8626
8317
8172
8150
8574
8719
9081
8608
9020
9196
7725
7237
9666
8489
9051
8800
9662
7994
8872
7459
8644
9211
9177
8576
8463
8756
9352
8953
8544
8727
8468
8556
8507
8294
9313
8934
9424
8411
8740
7401
8235
8782
8241
7994
8357
9085
7693
7505
8773
8006
7322
8975
7322
7931
8505
7743
7413
8664
7866
8404
6984
8850
8540
6918
9266
9052
7526
6672
7644
7661
8119
9003
7933
6883
8369
8481
9030
8262
6908
8557
7256
8556
7296
8045
8804
9121
6989
8084
7412
8066
8394
8281
7991
8014
7777
8626
8078
8222
7380
9168
8436
8996
8355
9152
8030
8205
9196
9785
8442
9553
8909
8669
7676
8532
8552
7806
8195
9194
9218
7568
7426
7652
9538
8880
8955
8858
8723
8319
7791
9276
9046
8512
8351
7625
8890
9619
8663
8076
8860
7478
8851
10144
8173
9478
9132
10084
7701
8405
8158
7431
8682
9979
8683
9622
9030
8848
8822
9324
7914
9220
9251
9849
8411
9774
9152
7378
6895
9570
8402
7803
8322
8088
7614
8147
7370
7041
8662
7565
9205
8605
6866
7647
8099
7111
7429
7689
8086
8406
7460
7277
9019
7767
8854
8967
6413
8106
8398
8852
8647
7736
8656
8207
7569
7916
7391
7095
8241
9094
8526
6742
8460
8386
7753
8233
7646
8562
9180
7066
7500
7859
8447
8183
8208
7775
8286
7149
8220
7336
6850
8514
9026
7570
9519
8538
7203
8325
7800
7576
8434
7824
9026
7995
8043
7372
9158
8417
8483
8805
7226
7909
8576
8489
7401
8559
9871
7696
7623
8747
8616
8314
7839
7913
8552
7383
8496
8653
8167
7387
8341
7977
7862
8099
7947
8213
7815
8627
7635
7943
8764
9081
9236
7763
7387
8393
7933
7401
7986
9302
8110
8158
7637
8958
8668
7009
8934
8487
6491
7954
6820
7268
7889
9316
7656
5633
7717
8488
7671
6412
8106
8406
7181
7196
6531
7943
7030
7086
8006
7521
7773
6777
6310
6700
8689
7375
8647
8608
8005
6694
7671
7023
8573
7191
7512
9118
8552
7271
9019
8904
8043
8412
7856
7343
8582
8349
8468
8033
8987
8515
7421
8128
6968
8029
7194
7524
6505
9144
6935
8909
6934
9175
7794
7064
9435
7705
8448
7783
7785
8590
8471
8107
7466
9938
9250
6933
9248
7367
7434
8904
7536
7484
7638
8520
8787
8964
9223
9359
7891
9162
8758
9616
9500
8952
9229
7901
9087
6920
8535
8618
7632
8458
8006
8293
7836
7474
9116
8703
8544
8048
8379
8031
8566
7948
8620
7726
6236
7973
8587
7554
6250
8077
8555
6436
6734
8472
6682
6847
7630
8380
7421
7004
7423
8629
6568
6724
8744
6515
7985
8628
6950
7668
6503
8592
7507
6879
7421
8265
7762
7137
8215
6922
7678
8128
8253
6801
7470
7114
8259
8621
8275
7161
7766
7805
7815
8561
7916
8019
7387
7789
7420
8595
7039
8671
8708
6880
7365
8493
8846
8414
8394
7446
8391
8891
8013
7654
7705
8658
7284
7854
9450
8727
9173
9302
7549
8091
7762
7868
8010
7666
9123
7847
8600
9561
8858
7610
7094
8711
8603
8773
8857
8268
8649
8221
7476
8165
7435
8049
7906
9233
9196
8149
8561
9138
9610
7511
8408
8364
8632
7449
7354
7919
8607
7983
7615
6819
6380
6350
8675
8326
7836
8064
8181
8456
8077
8197
6398
6624
7622
6400
7127
7189
8348
6436
7128
7663
7243
8824
8143
8474
7713
6612
7645
6191
6958
7060
8015
6554
7698
7822
6798
7280
7040
8169
7669
7525
6682
7578
7316
6983
7073
6947
8139
8704
7772
6416
6829
8855
8795
7814
7456
6595
8232
8002
8360
7842
7021
7368
8844
8472
8750
8117
7174
7073
7734
7619
8430
7719
7840
8272
8707
7678
8396
8174
9114
7899
8680
8365
8409
8168
8220
8168
7632
7966
8293
9339
7996
7627
8638
7700
8359
9414
7463
8416
8836
8258
9486
9465
9678
7285
9108
8849
7552
9120
9023
7743
8493
9279
8707
7716
8463
8043
7428
8557
7831
6551
6521
8696
7884
8923
7428
6023
7726
7998
7094
6844
7884
7424
7973
7709
7764
7465
6090
7462
6156
6940
7558
7125
7629
6736
7906
6361
7092
8320
6652
8120
7830
6513
6516
6736
7850
7532
7149
8277
6624
7478
8347
6824
8330
8149
6985
8024
7754
7613
8191
7210
8196
8482
6959
8484
6824
7630
9260
7367
8258
8129
7603
8280
7878
7660
7790
8217
7999
9015
8220
6899
8139
6805
7203
6997
7574
7433
8150
8921
8687
7207
8545
7370
7719
8659
8608
7911
7799
8068
8081
8005
7521
8943
8215
9049
8599
8809
9515
7836
8093
8187
8871
8298
7898
7244
8104
8347
7443
7112
7448
8324
8667
8402
7693
8463
6953
7694
8631
8264
8706
7427
8741
8708
7819
7649
7247
7881
7733
6176
7179
6350
8024
8136
7220
7647
6610
8372
8584
7376
8705
7926
6684
8334
7606
8442
7963
6496
7278
7252
7189
8178
7030
7164
8396
8048
9304
6836
7686
7999
8148
8005
8009
8706
7876
6233
7301
8584
7369
6939
8485
6486
6634
8823
8909
7895
6820
8654
7920
7378
7285
8216
6547
7188
7546
8655
8821
8101
6264
8908
9510
9023
6869
7735
8541
6913
7999
9153
8510
8396
9156
8120
8062
8964
9278
9649
7672
6817
9086
7068
8391
7581
8109
7770
8672
8148
9014
8303
8032
8677
7036
7572
6923
8798
9534
8667
7833
8017
9154
7709
7860
9251
8596
8469
7495
7057
6816
7902
7100
7393
8379
8201
7582
7565
7600
7447
6505
7691
8504
7813
7733
7836
5658
7089
6284
6133
6531
7202
7719
7912
6170
8092
7295
7275
8334
7462
7171
6505
6891
6332
8001
8247
6910
8556
6964
7652
8154
8026
8548
7660
7144
8015
7363
7118
8562
8413
6675
6704
7854
7930
8662
8264
7304
6240
7389
9149
7849
7945
8184
9182
7134
8238
6841
8913
8378
7731
8287
7673
6652
7182
8108
8167
6404
8222
8880
7793
6951
8937
8707
7161
7060
8997
9225
7881
7479
8656
8187
6823
7306
6858
7236
6817
8794
9014
8416
8615
7700
7410
8039
9372
7711
8673
8051
8662
8067
8019
8886
7452
8868
7950
7238
9074
7234
8381
7684
7247
8294
7665
8761
8375
8295
7316
7109
7954
8388
6906
8690
6607
8277
8415
7954
7327
8278
7313
7804
7369
8212
7211
7800
7274
7428
7245
7622
7241
7001
6986
7073
7701
6835
6713
7222
6753
7682
8139
8143
8245
7362
8168
7971
7911
7287
6041
6526
7682
7390
8762
7408
7519
8110
6895
7615
6857
7854
6807
6959
6585
7481
7419
8109
8138
7789
6285
7810
6927
7372
7920
7658
8533
7668
7331
9056
7183
8447
7650
7924
7732
7650
8381
7811
8240
8513
7688
8167
8715
7261
9076
9035
8328
8515
7915
8936
7930
8238
8131
8779
7882
9194
7669
7379
6763
7179
8207
8542
7276
8948
6962
7027
8373
8587
8559
9068
7858
6908
7913
6718
7734
7334
7398
8088
8923
6794
6466
7304
7292
6100
5976
7815
7733
8065
6571
8297
8188
7273
6439
7052
6624
8325
8112
7267
7607
7714
7222
7445
7752
8058
7374
6490
7767
7745
8065
6591
6067
6607
6126
6292
7901
5898
6800
7199
6205
6799
6386
6782
6709
8272
8939
6940
7783
8431
6333
6344
7347
7560
6598
7150
8926
8351
7043
6807
6816
7218
7024
6106
7390
8441
7807
6891
7084
7823
7902
7056
8723
7816
7608
7684
8144
8141
6825
8348
9282
8018
8111
8319
7522
6769
8174
8564
7605
6733
8561
8860
7730
6925
7365
7890
8217
6235
7309
6407
6645
7570
7035
8334
6416
8444
8671
8050
7084
9113
7437
6881
8073
8080
7396
8426
6337
7750
9093
7563
7691
8752
7953
7644
8307
6569
8068
6112
7964
7836
6674
8782
8215
6559
6464
6267
7449
6342
6665
7002
6536
6909
7448
7779
7036
6138
7312
7160
6338
6405
7259
8177
7638
7566
7082
7902
7067
8131
6823
8240
8002
7906
7393
8157
8016
6824
7870
7429
7194
8046
7811
6729
7303
7359
7631
7229
6868
7414
7110
7443
7698
7871
7406
6715
6843
7951
7268
8323
7921
7605
7497
8594
7475
8223
7205
7601
7375
7585
7283
7463
7065
7496
7881
7634
8481
8408
8040
7791
8992
6990
7598
8378
7331
6708
9033
8184
7259
7088
8437
8551
7380
7677
7686
7942
6925
7071
8446
7254
8651
8960
8974
6921
6327
8246
9181
8511
8414
7977
7299
8450
7383
8179
7783
6549
7899
8435
8331
6510
7762
6549
7008
7135
6520
7428
7345
6865
8403
6950
7717
7414
8118
7318
5972
7626
7947
7797
5540
6975
6051
7434
7440
7076
6583
7299
6242
7217
7468
6627
7536
7926
6814
5970
8047
8297
7351
7197
8182
8030
8321
6636
8715
8687
7088
7306
6615
7877
7930
6802
7263
7193
7299
8380
5097
8342
7111
8652
8453
7656
7719
7970
6898
7837
8090
7888
8162
8572
8034
8624
7634
8450
7780
6872
7582
7738
8977
8430
8013
7084
6858
8134
8507
7740
7312
8164
7190
8247
6573
8645
8682
7532
7028
8264
7363
7088
8919
7825
8824
7916
8695
7715
6797
8692
7660
8499
8964
8105
8485
8191
8018
7674
7059
7966
7513
7919
7500
7360
7355
7146
6241
6979
7960
7756
6518
7337
6623
6200
6582
6926
6376
7851
6671
6656
7290
7076
8129
7818
7778
6983
7897
6107
7856
6356
6527
6065
6375
6127
7188
6914
6723
8239
7396
7533
6891
7591
8344
6254
6234
7704
5936
6701
7698
8181
7061
7685
7859
6632
7139
6738
7801
5772
8287
8250
7649
7371
7173
7536
8239
7101
6524
7138
8591
7715
6424
7704
6530
8289
7175
8461
6458
7913
7326
8099
7119
7031
8358
7536
7974
7764
7904
8386
8600
8109
7014
6168
8674
7303
8278
7448
7157
7564
7550
7821
8571
8212
7364
7196
7080
7552
9030
6799
7795
6726
8879
6914
8385
7121
7389
6771
7071
8446
8114
7879
7796
7050
8037
6874
6558
8621
6607
6906
5941
5908
8236
8140
7602
6238
7938
7284
6979
7602
7671
8172
5588
6996
6951
7661
6176
6318
7233
6082
6593
7877
6469
5487
5965
7553
6589
6245
8037
7608
7135
5826
7446
6227
6850
7285
6690
6247
7523
6299
7865
7130
6570
6359
6360
7377
7347
7771
6697
7261
7248
8504
7402
5766
7183
7775
7565
7537
7251
7670
6223
6257
7741
6312
7957
6393
6205
7159
7826
7722
7617
8088
7359
6558
6980
6233
6840
7807
8446
7515
7869
6320
8779
8393
7358
6678
7523
6193
8041
7221
7258
7235
8590
8777
6945
7348
6691
7218
6940
6719
8340
7767
6896
7192
7865
7562
6319
8045
8567
8531
7052
7667
7549
8326
7007
6289
7535
6823
7193
7722
8185
6114
7970
7475
5899
6382
7930
6698
7181
5703
5640
5565
6227
7187
6047
6241
6236
6432
5945
7564
7351
5898
7714
6797
7805
5595
6027
6808
6818
7241
6080
6371
6809
6497
6287
5852
7380
6970
7861
7332
6705
7137
8085
7770
7519
7196
7031
6545
6671
6352
8321
5966
6769
5933
7517
6372
6431
8034
7728
6364
7352
6160
6830
7411
8090
5638
6301
7379
8448
7563
7742
7878
6407
6035
8514
7394
6318
6798
6017
7662
7285
6390
6779
7717
8007
7845
8178
7759
8648
8173
8181
8035
8273
6683
7609
7418
6439
6488
7539
5859
8643
7098
7959
8908
8469
7411
7169
6352
8152
8254
7570
6878
6802
8569
8724
8147
6485
6941
6764
6881
8089
7273
7042
7190
7493
6286
6833
7564
7851
7093
6099
6622
6978
6931
6516
6920
7103
6721
7311
6584
6165
6948
5501
6673
7506
6514
5341
6732
6247
6391
6550
7433
6449
5807
6834
7343
7363
7451
6826
8542
7626
7398
6304
6995
7982
6199
5960
6253
6934
7666
6935
5949
7150
7875
6568
6201
6066
7780
8140
6145
6790
7626
8459
7643
7799
7547
7558
6650
7288
7843
6838
5866
7438
6069
6527
7945
6096
8477
6129
6452
6560
7371
7431
8262
7662
7634
6925
8063
7890
8285
8201
7442
7416
8542
6174
8538
6824
7767
7171
7354
6905
7490
7103
7039
6953
7312
6515
8558
8634
8364
7276
7391
8309
7656
6895
7159
7068
7950
7097
7492
8090
7089
6054
7826
7991
6530
6345
7191
6706
6592
6084
7436
7481
5675
7183
5867
7232
6941
5666
6117
6372
6217
6912
8025
6335
6630
7085
5985
6697
5783
6285
6757
5492
6574
5936
7551
5883
7716
6556
7613
5823
6821
7946
6916
7905
7646
6880
7149
6638
7917
8117
7893
5968
7705
7610
6414
7647
6960
7552
7928
6278
7867
6667
7834
6774
6543
7098
6161
7189
8475
7639
7650
7875
7912
8006
7830
7723
6543
7959
7805
7730
6341
8005
6190
6407
6088
7597
6851
7398
7179
6474
6874
7815
7573
6880
8081
8488
7299
8550
6338
6946
6659
8289
8613
8202
7697
7910
7775
7055
7150
7394
7760
6965
7804
6706
7451
8362
6834
6596
7459
7732
8456
7878
6458
7397
7089
8146
7051
7618
6338
6338
6656
6274
6496
8144
5926
5642
6931
7233
5420
5198
5871
6725
6824
7149
7487
6442
7051
7470
5651
5968
6990
6074
6637
5663
5666
7364
6520
5617
7059
5300
6250
6396
7354
6295
5904
7983
6649
7888
6423
6207
7312
7500
8005
7462
6311
6964
8169
6915
8282
7081
8177
8364
7752
7906
6615
7801
7284
7401
7303
6728
7553
6943
7057
6061
6984
6273
8617
6885
7848
7477
7457
6567
7776
6366
6931
8749
7059
7395
6899
7134
6382
7320
8563
6446
7996
7000
8212
6812
8271
8262
8152
8411
8245
8563
7201
6708
7749
7021
7925
8115
7045
8854
6732
7135
7640
7437
6516
7948
6648
7250
7997
7241
8960
7812
7465
8169
8469
6207
8396
7549
8311
7250
6215
6940
6571
5253
6961
7324
6376
5684
7599
7723
7445
5349
7151
7053
5604
6006
5734
5726
5959
6669
7379
7305
7091
7449
6957
7819
7835
6012
6904
5725
5583
7302
7584
6638
7474
5456
6709
6928
6791
6518
7485
7750
7355
6674
5931
6795
6209
6730
6111
7230
6933
7453
7052
7699
7329
6684
7884
8322
7813
8071
7844
7367
8178
6339
6258
7309
6832
7420
7580
7630
7720
6800
7645
7009
7322
7521
6660
7954
7802
6820
6949
7589
7664
7260
7273
7414
6808
7623
8204
7391
7826
8101
6891
8300
7012
6434
6439
6577
7642
6786
7886
6265
6847
7095
7377
7652
7808
8911
8692
6334
8355
8859
6862
8768
7099
6346
7198
7885
7842
6641
5886
6645
7953
6560
7814
7626
7140
6234
5224
6935
5764
6240
7881
6498
5776
5950
7193
6740
6123
6765
6255
6159
6594
6298
7665
6471
6938
6592
6436
6678
7817
6933
7869
6805
7524
6286
7249
5500
6644
7850
7512
7422
6334
7566
6645
5610
7076
5909
7434
7100
6379
6985
6364
7005
6585
8051
6295
7701
8290
6115
6889
6105
7032
7639
7750
6321
6457
6496
6110
7936
8545
6769
5784
5931
8078
7630
7183
6172
7185
7029
7099
7388
7136
6906
7537
7720
7013
7227
7458
7051
6951
7121
7618
7573
7206
7711
5774
6740
6934
6368
8143
8431
6049
7440
7167
7773
6898
6137
6838
8138
7577
6025
6451
6727
6848
8062
7465
8452
6412
7488
5786
6970
8043
6391
7082
7556
5770
6778
5172
7257
5792
6768
5593
7385
7136
6267
5967
7595
7405
7275
6453
6650
7048
6553
7688
7227
5773
6684
7852
7068
7680
7483
6262
7456
6914
5677
7158
6673
7361
7195
5386
6519
7218
6921
5895
7166
7699
7963
6096
7101
7677
7048
6139
5799
6799
7315
6509
5247
6958
6081
6861
5357
7881
7311
6193
8085
6822
6807
5631
7845
7804
6126
6828
7369
6984
7184
7970
6197
7905
7439
5945
6614
8447
5596
6226
6662
6338
6532
7983
6400
6011
6460
6934
7054
8123
5972
8308
5954
7298
7524
7677
6968
6613
7968
8136
7758
7676
6909
6092
7313
6375
6888
7389
6696
7230
7230
6891
7342
7250
6056
6724
7585
7484
6002
7634
6834
6690
7405
7650
6144
7274
5819
6189
7122
6027
6887
5950
7032
6986
5591
6839
6805
5142
6860
7247
7664
6566
5534
6702
8020
6244
7076
7326
5474
6548
4880
7477
5783
7677
6188
6035
5902
5923
6226
7806
6894
6624
6726
5929
6771
6363
7344
6276
7013
5711
6458
6012
7304
6607
7235
6076
7489
6009
7403
7134
6624
7688
7147
5697
7115
6490
5961
6830
6687
7476
7981
7439
8140
6555
7358
6347
6759
6879
7258
7390
7062
6081
6050
8229
7154
6685
6306
5911
6585
7005
7080
7508
7447
6978
6269
7445
8012
6870
7885
7766
6117
7769
7433
6505
8354
7259
8123
6010
6392
6227
7142
8119
6017
6983
7932
5480
7179
7828
6208
5895
7548
7041
7270
6887
4820
6924
7155
6435
6507
7242
5696
6821
6302
7383
6616
7221
6715
7618
6085
5909
6881
6539
5530
6245
5597
7785
5759
5192
7723
7832
7180
5569
6340
6607
6881
6105
7102
6354
7484
7619
5495
7264
7176
7485
6974
5493
5784
7094
7398
5112
7698
6362
6689
5506
7490
7881
6117
7378
7913
6063
7032
7194
5976
5924
7089
7017
7026
6624
6045
6558
5805
6440
8438
7587
6355
6247
8085
7746
7782
6867
5777
6864
7408
7636
6893
8228
7668
8351
5982
5921
5801
7673
7524
6127
6231
6682
6241
6078
7478
6235
6694
7440
7274
6929
6028
7058
7067
7426
7750
6009
6068
7732
7072
5463
7181
7670
6054
6688
5898
6790
7398
6696
6977
7152
5092
5741
7238
5175
6860
5566
6337
5814
5539
6841
5344
6484
6807
5768
5206
6325
5269
5641
7567
6650
6360
7695
6737
7192
5896
5499
6321
7031
5441
5216
5994
5627
6894
5287
6332
7543
7055
7661
5788
6086
7673
6313
5734
6854
6296
6110
6580
7966
6555
7204
5735
6529
6685
7033
7440
7516
6891
6169
6694
6690
6685
6177
5988
6085
5550
7737
6916
6784
7280
7534
8323
6636
7215
6780
8241
7099
6255
5923
6440
6110
5426
8161
5862
7587
6695
7482
6693
5884
7027
5696
6559
6978
7706
7440
7392
6065
5991
5844
6631
5979
7278
7468
7825
7251
6310
7280
6630
7409
6501
7400
6490
7478
7395
5561
5951
5900
6256
6278
7002
6432
6678
5471
6730
6482
6773
4701
5641
6028
5415
7249
6555
6850
6777
5394
6443
6555
6025
6753
6455
6934
7558
6938
7134
5295
6319
7109
6627
6069
7433
5808
5302
7076
6503
7790
6178
7013
6460
5688
5493
5549
5862
6863
5733
7265
7583
6364
7208
6345
6139
6598
6629
6570
6119
6389
7223
7026
7477
5836
7007
7020
7785
6474
5890
7118
5742
7379
7497
7292
7408
5742
7762
5673
7382
5457
8222
7959
5753
5855
6159
6944
5613
6422
7827
7526
5691
6310
7423
5902
5629
7004
6252
5825
6485
7704
7340
5627
7990
5903
7233
7934
6823
7716
6612
8189
5969
6106
7672
8331
6377
7947
7856
6799
7401
6955
5531
5980
5902
7170
5839
7687
6002
6987
5546
7535
6422
4932
5647
6059
7179
5391
6583
7182
5482
6092
5924
5956
6282
7054
5448
6365
5444
6600
5797
5730
5438
6246
6886
6590
5005
6755
7332
7345
7899
7743
5550
5895
7395
7140
5648
5250
6396
5809
7168
6549
7153
7882
5943
7156
5625
7665
5152
5426
7234
6857
7381
7163
6138
6341
6114
6659
6227
5881
7185
7141
8207
6379
5031
5905
6043
5448
6957
7198
6764
5446
6451
6200
7576
6742
7912
5975
6006
8133
6946
8307
7469
7890
6649
6383
6862
6860
6820
7942
5824
7972
6233
6458
5993
7050
7769
7692
7566
8099
8111
6592
8887
5976
8000
6986
7878
6117
6249
7105
5990
7629
6060
5625
7996
6229
6902
6843
6547
6503
5546
6602
6022
6450
5907
6530
6919
6744
5670
7116
7320
6643
4908
5994
6986
6857
5904
6783
5630
6836
6273
7286
7406
5456
7158
6125
5238
5897
6357
5469
6249
5317
6668
7159
6460
5895
7415
6035
6294
5686
7160
5700
6695
6913
5937
6470
5813
5352
6644
7599
6724
5737
7023
6015
7735
7681
6831
5485
6186
6434
7082
6690
7731
7008
6244
6136
6356
6795
7046
5970
7492
7910
7096
8083
7707
7351
6231
6926
5807
6960
8322
6208
7073
6551
6313
7099
7179
6675
6454
5844
7764
6170
6410
6400
7416
6900
7355
7061
7559
7201
5902
6733
6535
7662
5909
7288
7302
8298
6581
7616
7124
5571
7194
7207
7104
4949
7325
7545
6551
5608
6305
6050
5565
5429
5523
6681
6996
5755
5996
6271
6262
5744
5328
6473
6787
6650
6011
5711
6521
5982
5013
6100
5383
6858
5799
5868
6456
4934
6328
5326
5980
5198
6266
8036
5291
7225
7400
7182
5770
6912
7581
7184
5642
6611
7526
5937
5082
5357
6013
6023
5645
5665
7140
6680
6944
5798
5658
7294
5756
5780
6818
5721
7479
5900
6720
6170
6716
6359
5834
7650
7466
7233
7508
6319
5674
6541
5596
7569
7900
6326
5943
7132
8315
6083
8015
7093
6586
6932
6961
5771
7527
5706
6708
8036
6522
6815
6126
8239
7601
7767
6470
7644
6743
7832
6841
7276
6498
6702
6166
7189
7271
7470
7362
7384
5927
7767
7105
7153
7216
6417
7280
6375
5158
6807
5930
7116
5589
5360
5491
5608
5353
4936
5551
5582
5625
6388
6562
6220
6099
5976
6197
6183
6907
6005
5726
6232
6321
6970
5215
5515
7283
5656
6297
5364
6824
6998
6902
5733
6369
6137
7133
7292
7563
5954
7789
6085
5271
5628
6900
7406
5712
5712
7090
6414
6495
5952
5835
6973
5551
7220
6517
7618
5367
7377
7866
6379
5602
4935
6119
7225
7070
6147
6756
7746
6698
6235
7153
5542
7131
6334
6030
6263
7825
6959
5927
7280
6960
6780
7744
6419
8095
7418
5644
6383
6007
6685
6177
7284
6391
5627
7640
6778
6891
6434
7821
6090
7037
5546
6067
7222
6047
5618
6770
6695
7202
5689
6200
7072
6244
7386
5825
6449
5552
5572
6570
5133
6241
5371
6065
6033
6647
6455
6438
4455
6370
5034
5226
5146
6024
6882
5994
5687
6966
6099
6943
4455
6987
6201
6083
6011
6428
5511
7047
6387
4712
6057
6636
5993
5719
7235
5406
5723
6271
7145
6681
8078
6181
6836
6253
6875
5963
6044
5791
7555
5318
5876
7268
6700
5264
5480
5465
6141
5953
6340
5404
6336
7274
7329
7839
6687
6380
6873
6544
6260
6791
6619
6637
6395
6122
6739
5947
7059
7284
7290
5892
7279
7529
6200
6006
7255
6022
5883
7524
6222
6209
7865
6240
7297
6622
6236
6064
6937
7130
7392
5522
7231
7352
6830
7011
6527
6439
6164
6636
6913
6640
6685
6693
6199
6654
6585
5931
6336
6865
6078
7150
5935
6721
5229
5880
6609
4749
6743
5726
6652
5947
5936
6392
6299
6739
6199
5866
5839
5965
6029
6208
5887
5040
6921
6102
6882
5436
5077
4625
8443
6634
5528
7403
6097
5798
6260
5432
6683
6954
6322
6954
6356
6179
6236
5487
6900
5404
5299
5452
6204
6383
6026
6719
7390
5774
7458
6819
6080
7082
7679
5679
6154
7543
7436
6775
7246
7662
7139
5613
6880
5649
6108
8231
7002
5819
6813
6037
5859
6155
5566
6669
7308
6585
7464
5963
7127
7443
6489
7346
7151
7981
7324
5944
6377
7911
6407
6951
6287
8057
7101
6536
6435
8472
5611
6277
7904
5847
6297
8202
7446
6205
7617
7388
6342
7077
7090
6991
7250
5632
6964
7189
6763
6444
7946
5317
6469
5865
6886
5472
7126
6588
6641
6735
6603
6202
6850
6111
6317
6283
6953
7125
6727
6720
5241
5093
6678
5846
6878
6070
5268
6632
7372
6664
7238
6387
7269
6098
5046
5851
6760
5526
7420
7178
6590
5941
5676
6382
5906
7311
7620
8285
5394
6307
7130
6386
5572
6384
5346
6090
6227
6879
6131
6477
4962
7539
5841
5769
5688
5791
6768
7306
7512
6970
7251
8639
5913
5814
6983
7643
6615
7098
7601
7787
5992
6647
5949
7833
7868
7841
6959
6197
5814
6535
6401
6588
7878
6945
6108
6424
5883
6620
8375
7842
6543
5731
7556
6057
7023
7330
6381
6201
6201
6427
6514
7652
6702
5736
6299
5173
6865
5485
5968
6246
6054
6359
6439
6484
6218
6778
6567
4984
5124
5939
6868
6274
6601
6265
5784
5966
6740
7244
6206
5112
6095
5211
5544
4351
7259
7110
5114
5195
6549
6904
6221
5688
6624
5343
5780
6835
6585
5085
5582
5439
6884
5144
5519
7093
5780
6525
6206
6442
6079
5354
6728
6167
6316
6628
6673
5699
6839
6166
6823
6330
7140
6082
5886
6177
6204
7032
7298
7362
5952
7617
7230
6539
5789
7803
6317
6053
7954
6415
5980
5630
7678
6612
6510
5901
7831
6513
5804
7946
5813
5878
5435
7926
7174
7728
5897
5893
7604
7805
6703
6964
7957
6981
7202
6639
6277
7163
6075
7098
6091
7171
6817
5957
6327
6394
6535
5521
6641
7071
7472
5873
5312
5437
6950
5537
7101
5800
5835
7318
6522
6154
6421
6811
5727
6307
6346
6323
6445
4814
7504
6763
4690
6662
4819
6453
5114
7359
6053
5057
6036
7497
6765
5481
7269
7838
7037
4972
7522
6390
6699
7441
5122
6579
5912
6064
7488
7065
6561
7298
5883
7330
5885
6177
4888
7457
6224
7561
7144
5055
7019
5684
6035
6844
7425
6676
7191
5595
8170
7293
7796
7766
7334
5945
5350
5645
7036
7297
6681
6304
7177
6065
7255
8105
5989
5927
5761
7107
6839
6228
6740
6721
7083
6226
7030
6124
6898
6003
6922
7888
6806
5851
7615
7990
6862
7887
6340
7546
6317
6639
7345
6802
5822
5872
7688
7495
6581
6476
6882
6814
6248
5838
7361
7739
6061
4512
6080
5144
7406
7217
5063
5042
5846
4460
6940
4880
6901
6793
6082
6556
5024
6860
4363
6068
5332
5951
4714
5912
6405
6739
5462
5737
5664
6124
6318
5453
5480
6246
6412
5811
7140
6540
7310
6539
6642
6747
5960
6565
6314
7214
6761
5145
6821
5489
6318
5937
5341
5760
7007
5971
5636
6226
6474
7206
6596
6236
6619
7053
6468
6840
6540
5677
6701
7923
6922
5034
6043
7474
7731
6829
6468
8361
6841
6684
7788
6125
5569
6248
5990
5534
6056
7637
6347
6124
7142
7934
5971
5898
6530
6681
5946
7050
7538
7104
6488
6344
7522
8221
6089
5515
6773
5792
5994
7642
6342
7018
6752
5874
7381
6346
6727
6337
5835
5895
5450
6906
7124
5403
5773
6228
6348
6256
5212
5427
7052
6324
6964
5324
7081
5584
7422
4880
5930
6732
4927
4545
6807
5235
5492
4788
6704
5337
6515
6022
5578
6986
7414
6043
7253
7313
7060
5180
7158
6808
7689
6474
7094
7289
6603
6218
6856
7466
6986
6743
6550
6801
7391
5148
7120
6365
6735
6728
6617
6658
6710
6460
6855
6325
4872
5680
6188
6031
6077
5893
6494
7555
5785
7122
7082
5541
6070
6332
6567
6546
6163
6352
6841
6424
5751
6622
5896
6990
5537
6496
5212
6554
6455
6609
6839
6121
6069
5835
7706
7509
6976
6313
7401
5407
5342
5557
6958
7629
6676
6796
6369
5176
5388
7092
7022
7772
7203
5813
7608
6786
4968
4733
6924
5634
5045
6623
6726
6278
5466
6351
5957
6493
6418
6091
5005
6739
4840
5937
6671
6808
6914
7146
5350
4501
6321
5165
4797
4786
7448
7108
5334
5366
6570
5867
5446
6512
6686
5639
6402
6280
4909
6288
6064
5794
6087
6658
6037
6778
5204
5674
5138
5245
5364
6065
6232
6896
6526
6824
7680
6164
6110
5813
6063
7215
6651
6616
5932
5210
7048
6080
5529
5424
5051
5875
4946
6771
6393
5327
7394
6284
6362
6791
6816
5507
6989
6731
6343
5108
6350
5631
6535
5421
6522
7381
5954
6720
5417
6179
6522
6222
7612
7057
5408
5554
6622
7781
5196
5379
7371
6715
5683
7450
5451
5892
7323
6128
5294
5955
5508
6514
6285
6304
5141
7007
5231
5525
4663
6321
6324
7332
5491
5597
3903
6488
5954
4988
4794
6168
7754
6817
5282
5368
6833
4869
5232
6655
4996
5716
5512
7448
6235
6439
5689
7313
6216
4612
5722
6760
4773
5832
5568
6594
4945
7116
5941
5505
6292
5336
6470
6214
6062
6418
6292
6806
6584
6422
5018
5035
7348
7386
7513
6832
5931
6590
5304
7492
6751
7466
6988
5705
7137
5368
5884
6053
6317
6197
6719
6603
5057
6355
4995
7016
6221
6929
6137
6734
4712
7288
5277
6908
5139
5111
5288
6394
7177
5856
6336
6211
7186
6418
5567
5596
5189
7573
5804
7763
6221
5477
5457
6356
4289
5496
7213
6289
5935
6599
7124
5304
6502
4609
5988
5796
5494
6737
5837
5304
5571
4168
5360
5700
4996
6959
5466
6356
4460
5765
4272
4644
5857
5404
5742
6250
4458
5656
4783
5114
5244
6745
5757
5793
4549
5020
4649
4916
4680
4529
6852
5140
5771
5790
6609
5236
6526
5589
6793
6349
5862
4748
7462
5522
5984
7017
6075
7214
5059
6701
5760
6754
6062
6479
5240
4718
5202
6151
7111
5883
6590
6254
6456
5965
6807
7073
5327
5462
6964
6164
5068
7304
5359
7475
4966
7376
6404
6260
4896
6790
5601
5542
5860
6269
5736
6836
6436
6907
4540
6432
7607
6825
5987
4970
6032
7372
6070
7507
5860
6063
6259
5325
5676
5100
6492
5108
7150
5714
6908
6356
6343
6934
4563
5972
6384
5324
5674
6313
7022
6742
6387
5660
7249
6819
5299
4985
5275
5155
6169
6255
6472
5501
6235
6126
5731
4627
6790
4282
4775
4974
6772
4384
5596
5220
4555
5446
4180
6514
5100
5044
4668
6744
4974
7232
7020
6286
5530
4842
5660
4941
5939
6922
6463
6618
6020
6212
5462
4893
4885
7580
6899
4994
5168
6238
7050
7055
6783
5493
5685
6705
6617
7488
6549
4905
6405
6979
5550
7098
6754
6613
6389
5671
7016
7543
6145
6202
6356
5563
4994
5686
7609
6130
7506
5349
7601
5977
6452
6673
5989
5705
6528
6227
7718
6030
5194
7445
7782
6693
5793
6629
7089
5877
5098
7119
6684
6454
6428
7669
6104
5577
6074
4592
6551
3950
5448
6101
5464
4075
6107
5296
4439
6529
5717
4961
5931
4921
4550
7013
6871
6324
7001
4520
5539
7202
6617
4968
5243
6792
5806
5786
6716
6002
4877
6378
6977
4788
4937
6304
6803
5325
4749
5379
6566
5704
6052
6088
5456
6542
5321
6589
6102
5945
7167
5398
5101
6671
5750
6220
4836
6478
6619
6676
5808
6670
6763
6157
7184
6644
5640
5092
6379
6697
6957
5730
5136
5999
5957
6650
6309
6831
6139
6918
7080
5059
6741
6615
7780
7445
6103
6540
6342
6345
7338
6156
6509
6921
6508
6168
7517
7480
6145
4821
7056
7059
7349
6374
4849
6791
7152
6614
7026
5242
5188
6058
4911
5122
7003
6859
6673
4436
5632
5554
5558
4549
5620
6027
6264
5823
6641
4451
5524
6505
6676
4734
4498
4573
4800
6296
4256
5942
4607
5486
6608
5983
5221
6474
5578
4804
7159
5218
5321
5183
5036
4555
5373
5017
6539
6873
6865
6984
5703
6429
6756
5395
6730
6176
6288
6252
6585
4741
5328
6160
4908
7063
6631
6459
6068
5252
4966
6089
4921
7153
5255
7033
5380
5759
6206
6503
5887
5921
5960
6747
6476
6982
5660
4936
6977
7247
5298
6100
7092
7798
6932
6884
4462
5791
4643
7395
7357
5339
4950
6680
6865
7192
7619
6788
7239
4981
6833
7643
6072
6113
6871
7388
6618
6353
6654
6463
5248
5489
4941
4791
4792
6696
6847
5929
4688
6277
4605
5448
4214
5595
6745
5501
4209
5219
4834
5634
6577
5640
4992
5243
5255
4645
5643
6759
6089
6108
6331
5064
4442
5890
5910
4739
6371
5285
5648
6375
6098
5917
6111
6415
6895
4992
6749
4839
5118
4663
6933
7000
4556
6245
4978
5440
5193
6656
5659
6696
5803
6643
5856
4677
5639
6408
4975
6034
4751
5834
4905
5252
5217
5022
7364
6187
4766
6772
6887
6054
5223
5792
4940
5350
4364
7716
6564
5526
6101
5641
5286
6431
6620
6643
6204
5306
6673
7476
6522
6517
5957
5168
5362
6957
5417
6695
4692
5531
5247
6594
7194
5432
6863
5483
6604
5694
4810
5444
5912
6737
6664
6048
6422
5253
5488
5087
6596
5393
6370
4760
4819
5456
4355
6320
6225
4292
5452
5934
4899
4425
3664
5160
6289
5475
6612
4438
6135
4937
6623
5956
6025
5364
5821
5072
5975
4512
5543
6588
5324
4202
4633
5637
5637
3953
5316
4553
4455
6597
4881
6372
4585
6611
6633
4971
6753
4747
6074
4955
6062
6682
5573
6075
4855
5691
6861
4312
4824
5436
5127
6311
5658
5124
5607
6443
5384
5251
6664
5243
7089
5764
5053
5914
4944
6124
6446
6358
5613
5135
6232
4835
6536
6866
5889
6057
5372
6592
5599
7022
5884
5027
6217
6305
5224
5242
5982
5047
6337
5504
5102
7376
6017
5920
5348
6701
5271
6810
5655
5013
4166
5335
6735
4915
5422
6493
4006
6456
4529
5997
5676
4573
6552
4941
5821
5182
4958
5509
4549
4498
4951
6222
5496
7068
4295
4708
5587
5648
4081
4692
4514
4489
5231
5272
5535
5726
5615
5433
5564
5712
5500
5578
5352
5160
5387
5322
6748
5949
5794
4672
5714
5903
5707
5300
5612
5587
5673
5611
5642
5965
5465
5870
5914
5943
4966
5989
5560
5761
4464
4758
4047
4527
6556
5602
7259
5582
5611
6302
6214
5545
5561
5848
5997
5959
5801
5935
5647
5583
5873
5204
6385
6982
6270
6054
6103
6155
4808
5838
5200
6150
5741
5927
5923
6112
6066
5720
6511
5766
5729
4838
6315
7240
5588
4274
7029
6376
5503
4742
6960
6609
4286
4605
6206
4312
5066
6744
5304
4682
4531
5304
5647
4742
6032
4477
6403
5987
6360
4171
4248
5787
6337
5571
4489
5889
6443
5267
5982
5446
4630
4855
4711
6245
6973
4409
4842
6632
5320
5762
4854
5954
6103
5664
5470
5093
6867
6173
5283
5137
6249
5284
4625
5624
5153
4331
5337
4661
5865
3852
5943
4931
5414
4505
6512
5079
5513
5640
6682
4881
4881
5138
4724
6200
4525
6056
4688
6391
4433
5145
6645
5022
4977
4707
5050
6822
7039
5521
5360
5161
6485
6065
5495
4779
6311
6386
6182
5216
6222
6974
6074
4385
6688
4753
4510
4750
6050
6900
6793
7048
6448
6083
7034
6787
4877
6788
4599
6950
6359
5302
6652
4988
5524
6084
5227
4258
5733
5190
5475
5426
5573
5224
4427
4788
4632
6159
3926
5257
5029
5096
3916
4180
4329
6429
5346
5672
4388
5107
5348
5239
5021
4925
3728
4873
5064
4732
5946
6313
4833
4201
4981
4882
6223
5639
4455
5972
5742
5624
5661
5338
4921
5326
6590
5585
4571
5548
5711
4649
6638
4752
5474
4627
6243
5078
5998
5498
6540
6136
5361
6206
6250
6591
6772
6555
6615
4455
4530
5372
5207
4686
6041
4710
5985
6835
4651
5991
5256
5531
4630
4499
4648
6600
6958
4552
4425
5881
6135
4171
5921
5406
5442
6038
5338
6771
5926
7176
5665
6873
6328
5394
5232
7025
5008
5517
6526
5588
5105
5931
5013
4591
4254
5931
6410
4093
5804
5433
6407
5697
5734
4000
5148
5426
4612
4491
5989
5624
4473
4178
3644
4618
3777
5554
4422
3968
5699
5661
5048
3875
5724
5756
6432
5136
6276
5381
4291
5307
5226
5855
6508
5413
5823
4873
6060
5719
4654
5734
5757
4924
4757
4787
6506
4140
6592
4756
6582
4574
4097
5243
7559
5719
6794
5556
4759
5026
5995
5346
6758
4727
4305
5618
4617
4155
4762
6359
5617
3319
4613
6130
5964
4975
4386
4833
6135
5548
4490
4984
5672
6328
5420
5974
4317
6307
4802
6231
6668
4906
7068
4888
7374
6820
7388
4760
6841
6598
5581
5367
6388
6129
5086
4993
6057
5369
5667
4960
5953
5035
6467
5159
4533
5804
4570
5560
3802
5769
3548
4752
3827
4299
3506
4432
5711
5802
4645
6174
6069
4822
4691
4938
4943
3135
4666
3481
4837
5668
4893
6155
4578
5306
4053
3469
5086
5333
4666
4608
5540
5658
4046
4847
3130
5759
5845
4186
4522
5071
5423
5271
5985
5397
4546
4993
4411
5462
4498
4029
5785
4284
5148
6380
5597
3324
4394
5662
4317
6354
5594
4380
4524
4057
5661
5496
4885
5993
5179
6603
5796
5175
5096
5447
5934
6785
6612
4710
6058
4660
4536
5542
4736
4377
5004
5833
4954
5491
4795
5560
5807
5611
4586
5097
4580
5479
5383
4899
5083
6046
6670
5407
4903
6620
5393
3952
3687
5845
3766
3931
5606
3933
3930
4672
5981
4386
4583
5612
5294
5246
4465
5173
5269
5147
4616
3514
3797
4934
3288
4919
5525
4350
6082
5019
3395
4997
5699
3650
5737
5959
5810
5715
6129
5452
6103
4862
4587
4350
5504
4968
4633
5487
4198
5471
5539
4646
6342
4617
6018
6585
6053
5899
4341
5389
5842
4683
5939
5654
3854
6080
5287
5420
5008
4880
4398
5000
5017
4347
5231
5358
5319
5109
5618
5341
5935
5647
5671
7231
4765
6974
6288
5195
5490
4915
4070
4861
5630
4872
5305
4564
4740
5047
4564
6324
6676
5155
4624
5704
4809
4766
5390
6306
5282
4397
5613
5748
5694
6353
4734
5137
4853
4425
5125
4798
5713
5596
6126
4240
4289
4556
4485
3880
4322
3520
5668
6380
5047
4863
3860
5603
5291
5448
4228
6059
3901
4915
4958
6319
5446
4983
4676
5763
4277
5852
3708
4268
5422
5833
5925
3896
5601
4016
6043
4743
5790
5332
4309
6027
6527
6160
4386
5374
5292
5717
4271
4598
5469
3785
5260
5399
6150
4105
3990
4095
3966
6345
5547
4006
6154
5322
3927
4813
5379
4935
5154
5356
5387
4328
5719
4255
6396
5158
3823
4965
6422
5699
4690
5616
6167
6153
5075
6030
4651
6328
5683
6120
4604
6335
6932
6809
5281
5382
6241
4941
3570
5290
6663
5609
5655
5619
5521
5450
4384
5567
4981
5838
5123
6659
5652
4951
4995
7171
5257
3879
4763
4961
5158
5070
6311
3957
5759
5444
5806
4174
5246
6099
6012
4912
5143
4442
4469
4695
5191
6140
4100
4972
4609
3670
4820
5163
5456
4118
4196
4572
4766
4451
5412
4843
5352
3945
6132
5359
5663
3773
4531
3788
5073
3892
4423
4159
4103
5034
4227
4564
6023
4496
5915
6567
5034
6075
6190
6108
6107
4854
3738
3775
5926
6371
5157
6349
5184
4243
5100
6178
5665
5731
4087
5054
4178
5501
5128
5941
4681
5084
4715
6123
4662
4190
5535
6420
4493
4906
4468
6119
5307
5473
4328
5508
5555
4898
5968
6031
6075
5697
6714
5948
4752
6319
5107
4561
5181
5599
4500
4116
4410
5354
4951
5667
4805
5625
3297
4178
5596
5263
5543
5287
5334
4042
5119
6109
4674
3466
4745
5546
5352
4187
5324
4587
4559
4208
5174
4631
4181
4894
5571
4107
4704
4364
5893
5177
3274
4642
5413
4588
4987
5485
5869
6511
3866
4531
4822
4254
5223
5811
3982
6165
4687
6320
4811
4997
5110
6001
5193
4563
5505
5373
5080
5524
5707
4709
3598
4898
5213
5203
6145
4772
4808
6169
4618
6492
6233
5992
4643
4484
6019
4514
5662
4813
6183
4957
5608
5997
6148
4874
5740
6163
4583
6115
4986
5015
5382
5731
6389
5528
4205
5469
6281
4756
4566
5943
6732
6461
3960
6577
5777
4485
4703
6528
5764
6083
6313
4576
4684
4433
5828
5812
4531
4965
6128
5806
3888
6113
5637
4908
4644
4793
4363
4508
3335
5242
5713
5169
3336
3424
5320
5035
5014
4374
4521
5471
4022
5964
4473
5243
4411
3469
3701
4392
3436
3456
4085
3479
3635
4756
5173
5951
5806
5626
4701
5463
6039
5846
6005
3882
3694
6091
6236
5877
4748
5622
4753
5292
5403
5467
4984
5858
4002
6107
4967
3537
4306
5382
4307
5318
4810
4626
5362
5317
5980
5254
4046
5151
5384
4742
4209
3873
5113
4938
4363
4240
4131
4965
5384
5736
4004
5720
4869
4728
4919
4064
4417
5746
4114
4825
4002
5176
6090
6676
5046
3910
5431
5106
5296
5903
3379
4264
6045
6043
4593
5910
5951
4194
5129
4682
6350
6379
5086
4857
5016
6611
4518
6009
4817
5407
4882
5625
4469
3898
4088
4415
4902
4796
3227
4764
5705
4780
5404
5503
4607
3988
3502
4045
4257
3591
3678
5306
5837
3997
4408
6016
4823
5450
4205
3307
5094
5046
4278
6241
6277
4507
4365
6285
5427
4598
5755
5694
6040
5561
3478
4329
4200
5146
4108
5964
6063
4196
6476
4279
4214
4989
5658
3679
6513
5878
5550
5243
5054
4561
5962
3767
5714
4638
5270
4528
5664
4809
4622
6188
4380
5021
4178
5551
6700
4935
5983
5893
5131
5707
5551
6532
4184
4316
4147
4860
4428
4936
4895
5868
5482
5952
4985
5637
6676
5273
6879
6894
4455
4540
4653
6205
5338
5246
6494
5567
5940
6186
6297
4398
6106
5552
3806
5073
3807
6097
6327
4388
5732
4712
4407
3913
5298
5028
5161
5714
4691
3425
3911
3336
5525
4479
5091
4482
3714
4793
4539
4662
4321
5264
4082
3732
3764
6222
6379
3926
3641
3906
6142
5660
5351
5869
4381
6242
5925
4814
6398
6225
6388
6261
3940
4239
5670
5069
5002
4154
4435
3927
5768
5597
4442
4798
5849
5697
6211
5382
5509
4978
6368
5974
5249
6062
4928
4607
4598
5925
5533
7294
5516
6572
4591
6259
4555
6669
6839
4693
5365
5343
6842
5573
4319
4863
5425
5238
6235
6722
6452
4794
6485
6503
4851
6521
4153
4640
6388
5268
5242
6157
6271
4666
5941
5136
6188
5028
6799
3606
5648
4574
4654
4712
5997
4869
5038
5261
4920
4694
3988
5660
4010
4805
5490
4855
5928
3708
5331
4490
3944
4402
5291
4306
4789
5642
5278
5091
5452
4966
3886
4732
4999
4719
4493
5608
5465
5418
3299
4914
5853
4386
4850
5173
5610
5185
4205
3944
4740
4875
4305
4819
4883
4460
5051
5833
4917
5254
5173
6481
5587
3638
4586
3817
4014
4965
5415
3298
4724
5476
5951
6380
5075
4663
5635
6414
4865
4992
5818
5132
5222
6385
4493
6226
4848
5722
5079
5557
5372
6593
5545
5333
6247
5342
5095
6627
6306
6652
4139
4396
5048
4467
6003
5745
4941
5111
5630
5957
4573
5684
6138
6834
5106
4864
5695
7068
4320
5764
5938
6904
5378
5031
5150
5268
5025
3817
5073
5732
5365
3940
3861
3568
5210
3884
4904
5450
4982
4356
5362
5372
4815
4466
5203
3535
4767
5446
3874
5616
3359
5523
4374
5625
4694
5359
4855
4925
5081
5824
4796
5319
5517
4584
4783
3970
4313
5931
5493
5232
4109
4314
4553
5813
4043
5998
5566
4426
4499
4575
5860
5102
6001
5560
4771
4860
5958
5147
4962
3823
4777
3565
5366
4500
5031
5954
6754
6133
6133
3567
5038
4036
5068
6398
6301
5254
5516
5523
4265
4993
3483
5009
5836
6386
6499
6269
7145
5569
6034
6232
5318
4104
5190
4296
5333
3782
5032
4645
4882
4946
5187
4675
4107
4826
5490
4359
4958
5252
5665
4603
5327
4960
4190
4392
6095
5264
3891
4854
4515
4889
6200
4646
5997
3966
4972
4677
3822
5515
5216
5082
4877
5401
3283
4950
5191
5880
4390
4255
4388
3593
4965
4348
4458
5206
4114
5327
5347
3546
5904
4337
4432
5511
4548
4414
4936
5674
5436
6041
4787
4799
5117
5153
5088
5292
5115
5242
4649
5025
5154
4478
5857
5113
5916
4742
4239
4232
5514
5768
4679
4739
5440
5966
5158
5183
3931
4126
5674
6000
5872
6094
5445
4944
4211
4322
6216
5380
4994
4580
6574
4633
5341
6068
4267
5160
3700
5350
6195
5626
6618
5145
3887
4999
6140
4255
4871
4536
6781
6278
5120
5528
4551
4706
5297
5042
6004
4995
5471
5959
6660
4975
5211
3804
4565
4668
4234
6201
6103
5375
3719
4858
3312
5899
4224
5621
4098
5376
4036
5283
4514
4988
4962
4005
4705
4146
5053
4559
4690
5571
4839
5579
4484
5694
5173
5388
3339
4080
3998
4918
3220
4243
6253
5868
4902
4356
5250
3852
4851
4146
4479
5471
6198
5956
6224
3653
5863
4287
4781
3902
6145
5309
3873
3971
6264
4021
4140
6139
4238
6147
5065
4371
4597
5203
5071
5471
4539
5851
4098
5426
3822
4892
5001
5513
4556
5574
5400
4057
6438
6571
4472
5088
5419
4585
4577
4894
5039
5003
5440
6628
4235
4415
6404
3975
5532
4590
5577
5847
6022
6482
4488
5963
3953
4472
4892
4120
5887
6099
4692
4768
4309
3866
5201
6230
5935
4263
5030
3957
4853
6252
4370
4335
4680
3889
4910
4636
5855
4663
3148
5349
4360
5143
4122
4087
4651
5750
5698
4973
5428
4655
3294
6194
5396
5132
4000
5349
3901
6034
5700
3577
5251
4167
5240
6562
4178
5042
6227
5405
5833
4616
3628
5373
4185
4900
5950
5368
3964
6405
5377
5784
4330
4077
5877
5643
4750
4438
5571
6734
4518
5823
5720
5335
5132
6184
4707
5588
4401
6399
5296
4303
6184
6289
6525
4178
5329
4598
6155
6412
6450
4313
5296
6723
6317
4363
5302
4745
4566
5855
5691
6960
5190
3990
5146
5802
6177
5502
5745
4625
5922
5860
4412
5494
5804
6709
5356
6327
4386
6316
5087
5682
6310
4426
4275
4996
3759
3827
5256
5664
5512
5685
4842
4350
5929
5930
5547
5250
5712
4355
5283
4859
4277
3709
5974
3425
4510
5477
3709
4319
5089
4435
3414
5432
4281
5345
2991
5423
4255
4190
5537
3854
3928
3861
5036
5594
4126
3771
5049
3773
5010
6398
5996
4018
5257
4625
6195
6383
3823
5844
5362
5932
5418
4789
4453
5639
4072
4584
6323
5510
5135
3941
5831
4119
6156
4909
4205
5921
5016
3931
4785
6306
5142
4884
5342
6354
5807
5565
5656
6106
6569
6138
6380
4923
6511
4634
6248
5951
4769
5915
6717
4135
4346
6493
4982
6607
6412
6085
6092
4307
5237
6554
5932
6585
4808
5511
5182
6346
4670
5239
6669
7094
4527
3959
4525
6436
5444
5319
6429
5312
3597
5280
6212
3727
5093
5813
4639
6012
3916
5920
4486
5467
4397
5144
3800
5636
3773
5020
4612
5087
4665
4146
5091
3552
5594
4169
4945
5266
4981
4737
4502
4670
5368
4775
3526
5237
4218
5061
6029
3606
3908
3854
5292
5642
4507
4204
6363
5522
4990
4600
5182
6291
4951
5866
3675
3336
5028
3682
5505
4671
5098
3342
5245
4150
5447
5771
4070
5750
4267
4833
4441
5758
6208
5957
4517
5113
5363
4996
4827
5198
5759
2970
4925
3746
4836
6804
4433
5973
4256
3808
6619
3978
4744
5847
5018
5144
4732
5506
6338
5169
5766
6247
4737
6439
5565
6332
5611
4347
5705
5944
5279
4472
5982
4993
5091
3808
5389
4018
4922
5604
5859
4316
6337
5770
5836
5420
5061
4351
5530
6014
4592
5457
5523
3991
6211
5804
6203
4135
3241
3739
4856
3971
5781
5406
4104
4489
5359
3984
5835
4611
5223
4537
4820
4365
3865
3457
6042
5630
6779
5227
4689
4873
4647
4717
3737
5408
3970
5494
4686
3716
4586
6037
3812
3551
5125
5065
4277
5836
5632
4492
5675
5903
4751
5293
5500
3911
5923
5958
4445
3914
5876
5554
5699
5361
4256
5444
3991
4796
4685
6042
4233
6538
6821
6370
5529
3987
6292
5452
5608
4090
6888
4709
5435
5064
4237
5239
6422
6578
4437
3797
6413
4951
6089
4958
5451
6018
3954
6205
4303
5539
4689
6031
6153
4372
3697
4778
4203
5937
3546
4040
5634
5870
4562
6013
3888
4139
4352
3341
4225
4933
5352
5412
5903
5871
3922
5320
5392
4482
5705
4550
5520
5195
4749
4806
4092
4526
5626
4874
4377
5307
4717
4539
4596
5731
5518
5888
4835
6264
4993
3339
6030
5932
5610
6328
3929
5589
6225
3968
4992
3574
5934
3959
5972
4202
4757
4131
6267
4090
6263
4107
4949
6057
3804
4174
5340
3947
5561
6434
6478
3899
6162
5512
5536
6381
4339
6559
5752
4627
6279
5709
5839
6062
6616
6129
5640
5052
6410
5248
5175
5529
6610
5769
6301
6224
6847
4112
5230
5044
6286
4806
4397
6156
4759
6257
6906
6974
4110
4724
4986
6243
6309
5548
4270
4441
5134
3574
6004
6064
5386
4359
6225
5091
5139
3670
4382
3906
5917
4290
6133
5274
3793
3761
4179
5248
4625
3629
4594
5092
4948
4571
4575
5948
4179
4299
5136
4020
4559
5798
3256
4822
5468
4178
5303
5400
3638
5132
5600
6309
5649
4766
4403
4640
6173
5139
3681
5069
3824
5338
5370
5439
6174
4626
6179
5702
3852
6263
6255
4806
5876
4162
4646
5506
5668
4982
6493
4966
6042
5948
4428
4862
3741
5369
4108
6293
5084
5607
6359
4491
5903
5460
4492
6503
6349
5673
5121
6120
4497
6489
4172
5193
4113
4510
4580
4779
6537
6298
6130
5689
4490
4455
4420
4015
5319
5137
4172
5112
5847
5989
6234
4892
4711
6012
4875
5137
4491
4512
4092
4893
5254
6583
3931
5501
6047
3430
3832
3952
5900
4772
4539
4422
4417
5199
3456
4298
4280
5078
5917
4356
5597
4247
5331
5792
5259
4485
4944
3589
4738
3690
5756
3536
5131
4224
3644
4365
5530
4277
4986
4929
6129
5989
4922
5720
6460
4564
6196
6360
3825
3859
5472
3823
5576
4799
4411
3979
5300
6113
4463
6296
4441
3587
5245
4881
4854
6013
5264
4094
5860
4258
4795
5005
3693
5646
4460
5660
6746
4683
6236
5241
4431
4421
3811
4113
3410
4396
4866
5856
5217
4114
6190
5235
4024
5299
4389
4863
3911
4402
6434
4663
5521
5215
5106
5450
5863
5373
6125
5088
6057
5375
4203
5414
5141
4653
4358
4581
4023
4283
5555
5739
4013
4183
4073
3670
4552
5434
4995
5480
3516
4609
5611
5150
4812
2981
3598
4168
3743
5608
5199
4234
3421
3896
4533
4467
4870
4542
3941
5179
4909
4046
3494
3058
3857
3701
4381
5206
4886
4896
4621
3785
4766
4642
4472
5605
4541
4728
5797
3687
5838
4699
3291
3933
3532
5214
4721
3645
4082
5501
5005
3363
3355
4219
5909
4385
2853
3362
3588
4696
4736
3986
4686
3191
4885
4503
4574
5026
5155
5367
5214
5648
4451
4499
4153
4037
5054
5029
3584
4218
3582
5589
6434
5235
4290
4937
5522
3409
5687
5574
5815
3674
4668
4887
5063
5545
4798
3969
5475
5885
6106
4154
5769
4163
5751
4918
4161
5502
3091
4432
2836
5233
4846
5108
3929
3566
3573
2857
5542
3923
5106
4480
2900
4495
3333
4689
3052
3619
3773
4062
4331
4180
4786
3583
5016
3339
4100
4485
4283
3803
2941
4391
4706
4368
4175
5204
3992
3695
2673
5580
3210
5344
4801
4999
3465
3939
3501
4768
5689
5276
3671
4424
5129
4738
5731
4499
3984
5308
4490
5008
3377
5730
5290
4142
4326
5820
3888
5036
3833
4735
4369
4350
3651
4638
4584
4216
4943
5885
4077
3946
4072
5508
5399
4256
4030
4886
4349
4781
4266
4639
4387
4457
6227
4600
5229
5250
3587
5206
5305
5046
5604
5107
4887
5082
5817
4837
4377
4957
3437
5145
4753
4184
5670
4889
6149
5394
4250
4461
4162
4262
4543
4627
4010
4510
3764
4619
4909
4330
3430
4714
3521
3984
3337
4665
3499
4521
3544
4437
3687
4613
4163
5186
3199
3267
3949
4993
4882
3038
3984
4449
4622
5562
5678
3290
4778
5322
4711
3705
3405
3114
5405
4269
3973
4397
4168
4404
3944
5091
4287
5317
3363
4581
4404
4073
3732
5697
4615
5356
5854
6609
4440
5094
4992
3293
4040
3762
5312
3775
3479
4523
6278
5864
3384
4124
6494
4291
3744
4268
5100
5500
3913
5665
3760
4951
4908
4735
3585
4743
5405
4170
4372
3899
5450
4397
4374
4967
4967
4201
4207
4275
3905
4859
5827
5615
4707
5226
4361
4006
5514
5041
4018
5168
5802
3804
3809
6339
6079
4368
3743
5194
5704
5181
3713
3088
4077
4679
4913
4007
4610
4855
4825
3427
4202
4611
5441
3442
3698
5082
3687
4549
3293
5428
4376
3880
3609
4154
5403
4346
5365
5338
5326
5589
5021
5065
4717
5084
3716
5839
5395
3790
3778
3631
5173
4840
3677
4485
3900
3282
6157
6099
5173
2975
5398
5217
3416
5198
5502
4276
5323
5538
3820
4949
5686
4422
4205
4455
4863
5816
4693
5472
4196
5549
4166
4539
6043
4180
3609
5570
5902
3937
6066
3811
5365
4260
5641
6269
5404
3876
3636
5821
6253
5231
5123
5754
5833
3950
5655
6202
4589
5541
5020
5697
5678
4144
5213
4941
5582
5906
5887
3953
5176
5881
6226
3637
3761
3167
5542
4960
3382
3504
5326
4810
3187
4254
4317
4862
4112
3029
3809
5386
4906
4907
4717
4462
3509
4359
3242
4862
5085
4818
3333
4237
5436
2590
4036
4822
5070
4661
4222
4345
4357
4169
4463
4660
3641
4622
4892
4370
3406
5071
5846
4911
5200
4362
5558
3967
3999
4602
4866
4969
4751
4142
5575
5263
4105
3591
4637
4673
4078
3957
4645
3678
4352
5120
5047
5519
3688
5356
4077
4033
4496
3538
5031
4719
5315
3600
3975
4477
3897
6485
3782
3260
5470
3481
4737
5197
4814
5385
4418
5853
4703
6119
4964
4580
4727
4331
4633
5058
5644
4531
4438
4786
5215
5781
4917
4075
5458
5111
5514
4009
5260
5551
5691
