27629
27724
27798
27844
27860
27860
27850
27822
27775
27714
27643
27559
27469
27381
27300
27223
27155
27097
27041
26982
26923
26872
26824
26770
26715
26662
26607
26543
26469
26401
26345
26299
26262
26240
26235
26237
26244
26261
26284
26308
26338
26374
26407
26433
26462
26498
26527
26547
26574
26611
26635
26633
26622
26612
26595
26565
26526
26482
26430
26372
26308
26241
26170
26098
26025
25946
25857
25770
25685
25594
25490
25384
25291
25204
25111
25021
24941
24860
24775
24698
24633
24574
24517
24458
24399
24342
24289
24235
24180
24129
24084
24045
24008
23965
23915
23870
23832
23795
23756
23725
23703
23679
23651
23615
23572
23527
23484
23440
23388
23332
23280
23230
23172
23106
23040
22982
22925
22866
22814
22776
22744
22719
22711
22737
22804
22920
23090
23312
23587
23918
24301
24719
25160
25614
26064
26488
26877
27227
27535
27796
28007
28173
28310
28420
28494
28532
28546
28540
28510
28459
28402
28343
28278
28208
28144
28087
28031
27977
27932
27897
27868
27845
27824
27803
27781
27759
27738
27707
27660
27609
27558
27504
27448
27406
27385
27364
27336
27315
27304
27295
27288
27291
27302
27319
27344
27378
27412
27440
27466
27495
27521
27538
27555
27579
27604
27614
27608
27598
27588
27567
27528
27476
27419
27355
27286
27214
27140
27063
26991
26929
26865
26797
26732
26671
26602
26526
26455
26392
26328
26261
26195
26134
26075
26021
25970
25918
25862
25810
25770
25737
25694
25647
25606
25572
25538
25498
25464
25444
25429
25408
25380
25351
25323
25290
25254
25212
25162
25115
25075
25027
24966
24904
24849
24795
24738
24678
24611
24539
24467
24399
24326
24247
24169
24101
24043
23996
23965
23967
24012
24103
24248
24446
24694
24992
25345
25736
26131
26516
26898
27274
27623
27933
28204
28442
28649
28822
28956
29056
29128
29173
29195
29200
29183
29136
29078
29021
28956
28883
28817
28761
28709
28665
28629
28598
28566
28539
28522
28510
28493
28469
28443
28413
28376
28336
28292
28235
28170
28113
28070
28033
27997
27966
27945
27937
27942
27955
27972
27996
28024
28050
28076
28093
28105
28124
28148
28171
28191
28208
28217
28215
28203
28185
28157
28115
28063
28012
27966
27919
27868
27809
27741
27667
27592
27522
27451
27370
27286
27210
27141
27074
27003
26931
26861
26788
26715
26647
26582
26522
26476
26443
26407
26366
26329
26297
26258
26218
26183
26148
26110
26074
26042
26010
25968
25920
25876
25836
25794
25749
25707
25668
25627
25584
25539
25487
25429
25379
25339
25296
25242
25182
25125
25074
25024
24974
24931
24907
24911
24945
25016
25132
25302
25537
25832
26162
26509
26873
27245
27607
27954
28286
28593
28866
29107
29315
29481
29599
29681
29741
29786
29810
29816
29812
29802
29779
29742
29695
29640
29578
29517
29460
29406
29360
29325
29296
29264
29230
29209
29201
29183
29149
29113
29083
29045
28994
28942
28892
28844
28804
28776
28754
28735
28719
28712
28712
28711
28713
28728
28755
28790
28832
28873
28909
28939
28962
28976
28978
28970
28961
28958
28952
28935
28906
28867
28823
28769
28703
28635
28571
28514
28452
28384
28311
28238
28169
28107
28037
27957
27882
27819
27754
27683
27612
27544
27477
27413
27354
27297
27242
27194
27158
27125
27085
27041
27001
26963
26925
26892
26859
26823
26787
26756
26731
26704
26672
26641
26613
26586
26556
26517
26469
26416
26360
26304
26255
26207
26154
26107
26066
26022
25974
25922
25866
25803
25741
25681
25620
25552
25486
25438
25415
25415
25442
25514
25640
25826
26076
26379
26720
27089
27478
27870
28247
28598
28932
29248
29536
29784
29988
30153
30291
30399
30478
30533
30560
30560
30546
30530
30506
30471
30432
30389
30335
30276
30219
30170
30130
30106
30097
30093
30086
30076
30066
30053
30024
29982
29936
29886
29837
29795
29755
29711
29666
29629
29602
29583
29572
29564
29562
29568
29578
29591
29611
29634
29657
29684
29713
29731
29736
29746
29765
29779
29787
29793
29793
29779
29753
29717
29671
29614
29557
29509
29461
29400
29331
29266
29202
29127
29044
28963
28887
28811
28737
28667
28599
28536
28486
28441
28391
28334
28272
28206
28141
28085
28032
27979
27924
27868
27819
27781
27745
27710
27684
27661
27634
27603
27572
27538
27493
27441
27394
27348
27295
27241
27196
27161
27133
27109
27080
27039
26991
26947
26906
26854
26790
26728
26671
26611
26544
26470
26395
26324
26253
26182
26109
26032
25953
25882
25827
25780
25742
25739
25782
25872
26013
26211
26464
26769
27123
27514
27923
28324
28707
29072
29413
29722
29993
30228
30424
30585
30715
30814
30874
30901
30907
30899
30874
30840
30803
30766
30727
30682
30625
30557
30487
30420
30366
30326
30288
30253
30235
30233
30233
30225
30215
30202
30180
30151
30120
30087
30048
30008
29977
29956
29936
29917
29905
29903
29908
29921
29939
29955
29974
30002
30040
30075
30098
30121
30149
30177
30195
30204
30205
30202
30194
30177
30148
30111
30068
30016
29958
29897
29838
29788
29742
29686
29617
29545
29473
29398
29321
29246
29178
29116
29058
28999
28937
28873
28811
28756
28703
28647
28594
28547
28505
28465
28423
28385
28357
28332
28303
28275
28252
28227
28199
28166
28132
28097
28065
28037
28005
27973
27940
27900
27851
27802
27760
27726
27688
27643
27596
27550
27500
27440
27378
27324
27272
27218
27157
27089
27024
26971
26933
26914
26925
26980
27080
27222
27408
27649
27937
28243
28550
28872
29208
29537
29847
30137
30401
30634
30838
31018
31167
31277
31354
31406
31434
31443
31444
31436
31414
31377
31328
31273
31213
31148
31091
31048
31012
30972
30935
30912
30898
30879
30849
30814
30778
30732
30677
30622
30575
30532
30488
30444
30403
30365
30336
30320
30300
30274
30260
30268
30277
30284
30301
30325
30346
30360
30376
30395
30410
30420
30425
30429
30430
30429
30425
30415
30401
30384
30357
30312
30250
30190
30133
30068
29994
29924
29860
29792
29716
29645
29579
29511
29442
29379
29320
29258
29187
29112
29035
28963
28899
28840
28783
28724
28666
28610
28552
28496
28448
28410
28378
28344
28310
28279
28253
28220
28174
28127
28087
28050
28014
27981
27952
27924
27893
27864
27834
27800
27760
27718
27674
27626
27576
27529
27478
27417
27356
27298
27234
27162
27092
27025
26954
26881
26813
26746
26683
26626
26575
26529
26494
26482
26512
26590
26714
26898
27152
27464
27815
28190
28584
28987
29378
29745
30088
30408
30696
30944
31154
31336
31489
31608
31696
31758
31793
31806
31801
31779
31746
31711
31676
31628
31565
31503
31448
31391
31340
31304
31285
31273
31265
31264
31265
31265
31259
31247
31223
31184
31144
31108
31062
31002
30942
30893
30850
30807
30770
30743
30726
30713
30703
30697
30703
30717
30728
30732
30739
30755
30776
30795
30813
30832
30852
30865
30866
30858
30842
30818
30783
30741
30697
30652
30596
30531
30465
30398
30327
30255
30184
30119
30054
29983
29910
29839
29767
29690
29611
29531
29451
29374
29302
29232
29165
29108
29056
29001
28938
28878
28830
28783
28734
28692
28657
28615
28561
28506
28461
28415
28364
28317
28274
28226
28172
28121
28075
28035
28001
27972
27942
27905
27865
27822
27767
27705
27643
27583
27520
27455
27394
27336
27268
27192
27119
27053
26987
26914
26840
26768
26687
26596
26502
26406
26308
26216
26128
26038
25952
25884
25845
25850
25904
26019
26204
26460
26782
27168
27607
28070
28530
28979
29414
29826
30199
30524
30810
31056
31253
31405
31522
31608
31661
31683
31678
31656
31622
31573
31512
31444
31369
31294
31223
31154
31085
31028
30984
30942
30894
30856
30828
30799
30766
30733
30697
30655
30610
30566
30519
30466
30414
30367
30322
30281
30250
30233
30220
30212
30217
30240
30266
30290
30323
30370
30417
30456
30494
30536
30575
30607
30628
30634
30624
30604
30575
30537
30494
30452
30408
30356
30300
30246
30191
30125
30045
29958
29870
29780
29681
29577
29480
29393
29309
29224
29142
29060
28974
28883
28796
28718
28646
28578
28513
28451
28393
28335
28279
28229
28184
28146
28119
28095
28068
28039
28008
27971
27929
27895
27866
27828
27779
27734
27692
27643
27585
27525
27467
27410
27356
27306
27261
27216
27173
27131
27079
27010
26936
26864
26789
26703
26614
26536
26463
26383
26301
26233
26185
26158
26157
26197
26295
26461
26690
26976
27315
27700
28118
28549
28972
29381
29775
30144
30473
30753
30991
31188
31344
31469
31570
31647
31689
31695
31679
31647
31602
31550
31498
31448
31391
31321
31244
31163
31076
30998
30940
30900
30868
30837
30803
30757
30697
30643
30595
30536
30462
30394
30339
30283
30226
30183
30156
30136
30120
30110
30103
30103
30114
30135
30162
30190
30225
30269
30312
30341
30360
30372
30377
30373
30366
30362
30352
30327
30291
30255
30215
30163
30099
30033
29965
29890
29803
29711
29620
29525
29421
29309
29200
29102
29014
28927
28842
28761
28681
28601
28517
28430
28348
28269
28188
28108
28038
27978
27913
27841
27770
27700
27629
27557
27491
27436
27387
27338
27289
27244
27206
27172
27135
27091
27043
27004
26977
26949
26917
26883
26847
26802
26748
26694
26642
26585
26523
26465
26416
26358
26282
26212
26152
26090
26026
25964
25897
25822
25739
25649
25554
25458
25371
25289
25212
25143
25096
25081
25098
25162
25292
25491
25751
26075
26472
26931
27424
27933
28451
28958
29428
29851
30232
30573
30859
31091
31281
31434
31544
31613
31648
31651
31625
31581
31528
31469
31402
31331
31260
31186
31109
31034
30967
30908
30855
30813
30783
30752
30722
30701
30688
30668
30632
30591
30553
30506
30448
30394
30351
30307
30257
30214
30182
30151
30122
30110
30112
30111
30107
30114
30136
30163
30190
30222
30253
30276
30290
30299
30302
30295
30283
30271
30255
30225
30184
30138
30077
30005
29934
29862
29779
29691
29610
29532
29439
29334
29232
29135
29033
28921
28814
28716
28614
28507
28405
28310
28210
28106
28008
27921
27835
27744
27663
27593
27522
27451
27390
27335
27277
27215
27155
27100
27049
27002
26952
26897
26839
26787
26742
26697
26655
26624
26600
26570
26534
26495
26456
26409
26357
26309
26267
26220
26163
26110
26063
26009
25947
25884
25820
25748
25664
25582
25506
25426
25344
25264
25187
25103
25017
24942
24893
24875
24895
24961
25080
25258
25502
25819
26206
26652
27144
27661
28178
28676
29153
29598
29988
30320
30607
30847
31035
31173
31275
31347
31383
31391
31386
31368
31326
31260
31189
31121
31046
30961
30878
30802
30733
30666
30606
30553
30511
30479
30453
30430
30401
30363
30322
30279
30234
30196
30168
30141
30106
30066
30034
30012
30002
30007
30028
30055
30079
30108
30149
30190
30225
30264
30309
30351
30387
30421
30453
30484
30516
30540
30544
30533
30513
30485
30444
30388
30325
30262
30199
30126
30040
29949
29859
29767
29676
29596
29525
29447
29363
29286
29219
29152
29083
29018
28961
28902
28835
28768
28706
28645
28584
28527
28481
28441
28408
28378
28343
28306
28279
28262
28240
28208
28177
28156
28136
28113
28089
28066
28037
27999
27956
27904
27842
27778
27720
27669
27621
27569
27517
27467
27421
27382
27349
27314
27270
27219
27168
27123
27095
27087
27113
27186
27311
27494
27736
28025
28354
28722
29117
29509
29879
30233
30572
30885
31165
31420
31646
31831
31973
32081
32162
32217
32243
32244
32226
32190
32143
32089
32027
31953
31879
31813
31753
31696
31648
31613
31575
31528
31486
31456
31424
31382
31344
31305
31258
31207
31163
31122
31079
31039
31008
30979
30945
30912
30887
30871
30857
30845
30837
30830
30826
30827
30841
30868
30897
30929
30967
31002
31030
31055
31079
31093
31091
31083
31071
31043
30995
30941
30891
30840
30784
30721
30654
30582
30509
30433
30355
30276
30202
30130
30050
29963
29878
29799
29722
29648
29582
29525
29469
29408
29346
29292
29248
29208
29174
29153
29140
29120
29090
29061
29035
29004
28973
28947
28925
28904
28882
28865
28849
28830
28807
28780
28749
28715
28678
28643
28603
28553
28504
28461
28410
28346
28283
28226
28161
28088
28021
27962
27901
27839
27783
27736
27705
27692
27709
27770
27883
28057
28297
28586
28907
29255
29630
30015
30385
30733
31065
31379
31665
31919
32144
32342
32508
32635
32730
32802
32852
32880
32894
32893
32877
32854
32828
32790
32736
32681
32632
32580
32528
32491
32469
32452
32434
32423
32418
32412
32405
32393
32371
32335
32293
32252
32208
32163
32122
32089
32054
32011
31975
31953
31933
31911
31899
31900
31901
31900
31910
31929
31947
31961
31980
32001
32020
32040
32054
32052
32039
32023
32002
31976
31942
31900
31857
31811
31757
31698
31639
31574
31495
31408
31324
31239
31146
31049
30966
30897
30826
30753
30686
30627
30567
30499
30431
30371
30314
30253
30192
30133
30076
30020
29970
29927
29889
29854
29822
29788
29753
29720
29688
29654
29621
29592
29568
29540
29505
29472
29439
29405
29364
29318
29274
29230
29181
29129
29077
29028
28983
28938
28888
28831
28771
28710
28643
28572
28508
28448
28384
28309
28236
28170
28103
28048
28028
28052
28120
28241
28419
28646
28923
29248
29607
29978
30348
30715
31071
31405
31711
31986
32229
32436
32598
32721
32817
32890
32938
32965
32979
32979
32957
32913
32862
32817
32773
32716
32648
32584
32531
32488
32458
32441
32427
32410
32388
32365
32343
32322
32298
32262
32212
32162
32120
32074
32023
31983
31957
31930
31897
31874
31860
31850
31847
31851
31865
31886
31907
31930
31956
31983
32013
32041
32063
32078
32087
32101
32119
32131
32134
32130
32118
32095
32069
32045
32011
31965
31918
31880
31837
31786
31738
31697
31649
31589
31531
31479
31428
31376
31326
31275
31223
31169
31118
31066
31010
30958
30917
30874
30827
30784
30754
30732
30706
30681
30661
30637
30609
30585
30564
30537
30498
30459
30421
30377
30327
30282
30240
30193
30143
30096
30052
30004
29954
29906
29858
29805
29745
29684
29622
29559
29502
29454
29415
29388
29382
29413
29480
29587
29743
29952
30202
30474
30765
31079
31397
31703
32000
32287
32551
32781
32986
33170
33326
33452
33556
33640
33691
33708
33713
33712
33694
33665
33635
33598
33547
33486
33423
33361
33300
33246
33200
33160
33124
33087
33050
33014
32980
32950
32918
32875
32825
32778
32735
32686
32634
32593
32568
32545
32523
32514
32520
32529
32533
32544
32565
32586
32600
32619
32649
32677
32698
32716
32726
32724
32714
32705
32694
32676
32654
32625
32584
32533
32480
32428
32373
32309
32242
32175
32101
32018
31935
31862
31793
31715
31633
31561
31497
31429
31358
31301
31258
31218
31171
31121
31075
31024
30965
30902
30845
30793
30742
30690
30645
30606
30570
30534
30502
30473
30445
30413
30374
30334
30300
30264
30221
30177
30138
30097
30050
29993
29934
29876
29822
29768
29714
29658
29600
29540
29480
29423
29369
29312
29251
29186
29122
29068
29039
29041
29080
29175
29334
29545
29797
30093
30430
30781
31132
31485
31833
32161
32463
32745
33004
33226
33409
33563
33690
33787
33857
33907
33934
33942
33940
33927
33901
33865
33831
33797
33757
33714
33677
33652
33632
33615
33606
33612
33620
33625
33629
33633
33627
33609
33584
33551
33512
33478
33451
33423
33389
33353
33320
33288
33263
33251
33251
33255
33259
33268
33287
33308
33323
33332
33343
33357
33374
33388
33401
33409
33409
33400
33383
33359
33330
33300
33264
33216
33157
33099
33043
32976
32898
32826
32763
32693
32613
32537
32466
32389
32306
32226
32151
32080
32011
31941
31864
31786
31711
31646
31584
31517
31452
31398
31357
31318
31276
31228
31176
31129
31091
31059
31027
30996
30971
30945
30911
30872
30841
30819
30792
30758
30731
30712
30692
30663
30625
30576
30517
30459
30402
30340
30276
30213
30150
30084
30017
29958
29903
29840
29769
29695
29625
29560
29502
29467
29465
29499
29569
29687
29866
30098
30368
30667
30998
31355
31712
32053
32383
32701
32993
33249
33473
33675
33852
33997
34113
34209
34284
34336
34364
34376
34378
34373
34355
34327
34300
34279
34263
34248
34237
34236
34240
34241
34245
34252
34258
34256
34245
34230
34211
34184
34147
34105
34064
34024
33986
33951
33920
33892
33874
33865
33856
33842
33830
33826
33828
33831
33836
33843
33844
33840
33844
33859
33871
33877
33888
33906
33919
33917
33904
33880
33841
33794
33741
33684
33620
33547
33471
33394
33318
33240
33157
33071
32987
32916
32856
32793
32724
32658
32600
32546
32492
32445
32408
32366
32317
32276
32247
32214
32177
32151
32134
32112
32091
32083
32078
32068
32054
32042
32030
32013
31996
31984
31975
31963
31944
31919
31887
31849
31809
31768
31717
31658
31600
31545
31482
31409
31340
31278
31213
31141
31078
31027
30976
30922
30871
30831
30800
30777
30783
30826
30897
30996
31139
31331
31553
31794
32058
32338
32618
32888
33151
33402
33632
33838
34022
34177
34300
34398
34478
34542
34582
34600
34610
34609
34589
34555
34521
34488
34451
34412
34378
34342
34303
34273
34255
34238
34215
34194
34174
34147
34117
34088
34054
34008
33960
33918
33878
33839
33804
33771
33734
33694
33661
33644
33638
33634
33636
33644
33654
33659
33669
33691
33720
33743
33763
33780
33790
33789
33779
33767
33747
33715
33685
33659
33625
33579
33529
33477
33417
33353
33299
33255
33206
33149
33096
33050
32992
32922
32857
32799
32737
32673
32616
32562
32505
32448
32393
32340
32289
32243
32203
32166
32131
32103
32079
32048
32013
31983
31955
31921
31890
31872
31859
31835
31800
31770
31746
31713
31670
31631
31600
31562
31514
31471
31432
31386
31334
31288
31244
31195
31148
31103
31056
31002
30945
30889
30831
30770
30713
30660
30607
30547
30485
30427
30375
30329
30298
30293
30322
30384
30484
30632
30822
31040
31282
31541
31798
32043
32289
32532
32755
32954
33140
33311
33454
33567
33662
33744
33804
33842
33869
33887
33888
33879
33871
33863
33843
33808
33772
33736
33702
33677
33663
33654
33639
33618
33602
33590
33577
33565
33557
33550
33536
33515
33494
33473
33444
33405
33361
33317
33275
33233
33193
33160
33139
33126
33117
33113
33119
33133
33151
33167
33179
33192
33203
33204
33199
33201
33207
33206
33199
33186
33163
33126
33081
33037
33001
32966
32927
32876
32818
32758
32697
32637
32576
32515
32454
32391
32329
32271
32218
32165
32109
32049
31994
31945
31893
31836
31787
31752
31717
31679
31648
31618
31580
31534
31492
31450
31409
31371
31337
31302
31264
31226
31193
31159
31123
31087
31049
31008
30969
30934
30900
30856
30804
30760
30726
30683
30624
30567
30519
30470
30419
30370
30320
30262
30193
30121
30051
29980
29915
29853
29787
29715
29640
29565
29491
29423
29370
29333
29306
29294
29305
29351
29435
29555
29713
29909
30132
30367
30607
30853
31093
31312
31514
31710
31894
32052
32183
32296
32388
32456
32500
32524
32534
32529
32504
32469
32432
32392
32343
32290
32238
32191
32146
32101
32057
32020
31997
31985
31971
31951
31935
31922
31906
31888
31872
31857
31834
31799
31756
31709
31659
31608
31559
31518
31483
31451
31423
31398
31380
31374
31380
31388
31392
31395
31399
31403
31408
31412
31414
31408
31389
31366
31340
31307
31267
31231
31197
31152
31096
31043
30993
30940
30884
30827
30766
30697
30621
30546
30479
30419
30363
30304
30243
30175
30102
30032
29964
29901
29849
29805
29758
29707
29659
29611
29553
29492
29443
29409
29374
29329
29287
29260
29228
29187
29147
29114
29079
29037
28992
28949
28905
28862
28825
28790
28749
28701
28651
28601
28550
28502
28452
28398
28340
28283
28232
28181
28129
28085
28045
27995
27932
27869
27811
27748
27682
27629
27591
27555
27522
27515
27543
27595
27668
27779
27931
28113
28317
28541
28776
29013
29249
29476
29688
29875
30038
30181
30299
30392
30467
30528
30573
30596
30599
30593
30577
30546
30505
30465
30428
30383
30332
30292
30259
30220
30172
30128
30095
30069
30039
30005
29973
29940
29900
29858
29817
29775
29734
29693
29654
29623
29599
29581
29566
29557
29556
29556
29552
29548
29553
29570
29585
29597
29610
29624
29632
29637
29645
29654
29661
29663
29657
29638
29610
29582
29552
29515
29467
29409
29346
29278
29206
29139
29076
29009
28938
28877
28823
28766
28706
28652
28601
28543
28488
28442
28402
28364
28324
28280
28228
28173
28118
28066
28015
27962
27908
27861
27817
27768
27724
27694
27672
27639
27595
27555
27516
27473
27438
27414
27392
27360
27327
27302
27275
27244
27217
27192
27160
27124
27087
27047
26998
26944
26893
26842
26785
26724
26666
26612
26560
26514
26471
26429
26383
26340
26311
26303
26317
26361
26444
26567
26719
26896
27100
27326
27565
27814
28071
28321
28551
28759
28943
29099
29230
29343
29434
29496
29531
29552
29566
29561
29534
29501
29475
29439
29389
29341
29298
29251
29200
29151
29106
29065
29031
29000
28969
28934
28897
28864
28829
28791
28757
28732
28708
28675
28632
28591
28558
28525
28487
28454
28432
28419
28409
28404
28407
28414
28421
28429
28444
28459
28470
28479
28482
28480
28484
28496
28502
28495
28481
28460
28428
28387
28347
28306
28259
28208
28156
28100
28042
27978
27907
27837
27773
27717
27666
27612
27554
27502
27454
27396
27333
27279
27233
27182
27123
27070
27029
26988
26940
26890
26842
26797
26755
26712
26664
26613
26571
26540
26509
26475
26442
26416
26394
26366
26335
26310
26289
26261
26225
26184
26147
26109
26067
26020
25967
25912
25861
25815
25764
25705
25650
25602
25542
25468
25398
25341
25286
25227
25171
25120
25071
25023
24983
24959
24966
25015
25105
25230
25387
25576
25804
26067
26348
26638
26935
27224
27491
27735
27954
28145
28307
28438
28547
28633
28699
28747
28773
28772
28751
28723
28691
28647
28589
28530
28478
28428
28369
28310
28258
28216
28181
28148
28115
28086
28063
28037
28005
27972
27940
27907
27874
27842
27812
27783
27751
27709
27663
27631
27616
27610
27610
27612
27609
27601
27599
27606
27615
27624
27635
27646
27650
27649
27646
27642
27629
27608
27589
27571
27537
27484
27432
27386
27331
27261
27191
27126
27059
26991
26926
26856
26783
26713
26648
26580
26512
26450
26392
26331
26268
26207
26151
26097
26037
25972
25910
25850
25780
25708
25649
25599
25548
25500
25462
25433
25404
25373
25340
25304
25263
25217
25171
25129
25092
25055
25016
24977
24934
24887
24838
24790
24745
24703
24658
24610
24562
24515
24467
24414
24357
24304
24252
24196
24140
24087
24036
23985
23946
23935
23957
24008
24099
24246
24442
24673
24932
25216
25514
25809
26095
26373
26634
26870
27082
27273
27434
27562
27668
27759
27820
27848
27854
27842
27806
27755
27702
27652
27593
27516
27437
27363
27288
27214
27147
27089
27036
26984
26933
26881
26827
26777
26730
26682
26632
26584
26541
26503
26469
26440
26414
26392
26376
26374
26383
26393
26402
26417
26439
26458
26469
26484
26511
26535
26550
26567
26589
26602
26601
26599
26601
26598
26588
26574
26554
26525
26489
26450
26406
26352
26289
26218
26144
26069
25998
25933
25870
25807
25746
25684
25617
25546
25481
25422
25360
25296
25237
25184
25131
25077
25032
24997
24961
24917
24881
24857
24830
24793
24757
24727
24695
24660
24622
24584
24544
24504
24468
24437
24408
24380
24350
24315
24272
24226
24190
24158
24119
24075
24035
23996
23947
23899
23866
23843
23822
23804
23798
23820
23873
23958
24081
24248
24456
24698
24963
25240
25518
25797
26075
26335
26574
26802
27020
27207
27354
27474
27573
27644
27685
27705
27706
27687
27658
27628
27589
27530
27460
27397
27338
27274
27211
27167
27134
27088
27028
26974
26931
26887
26834
26779
26728
26681
26637
26595
26549
26497
26450
26416
26386
26357
26339
26331
26322
26311
26313
26334
26355
26372
26395
26422
26445
26462
26477
26493
26508
26514
26510
26502
26492
26480
26461
26432
26393
26356
26326
26287
26234
26170
26102
26034
25961
25877
25793
25721
25656
25591
25527
25457
25379
25302
25233
25161
25084
25015
24957
24907
24865
24829
24790
24745
24690
24633
24581
24533
24488
24448
24411
24370
24327
24294
24269
24245
24218
24193
24172
24147
24109
24066
24026
23983
23936
23890
23847
23801
23752
23705
23661
23618
23577
23535
23486
23430
23376
23327
23280
23238
23221
23237
23286
23373
23511
23703
23938
24204
24496
24806
25125
25445
25758
26053
26318
26556
26776
26970
27130
27262
27379
27479
27547
27577
27580
27566
27537
27492
27441
27391
27338
27278
27219
27161
27097
27039
26995
26959
26926
26901
26883
26856
26814
26770
26728
26679
26623
26571
26521
26469
26415
26366
26326
26294
26268
26248
26234
26228
26232
26246
26263
26283
26311
26342
26363
26374
26387
26401
26403
26392
26383
26383
26375
26349
26323
26301
26270
26228
26189
26151
26104
26050
25995
25937
25878
25821
25762
25699
25633
25564
25495
25426
25356
25288
25228
25171
25107
25045
24994
24948
24892
24830
24775
24730
24682
24634
24593
24557
24519
24480
24446
24420
24398
24374
24347
24325
24309
24286
24252
24213
24170
24120
24062
24002
23950
23905
23861
23816
23771
23729
23682
23625
23560
23499
23446
23394
23342
23301
23275
23262
23268
23310
23401
23534
23707
23917
24161
24434
24723
25022
25327
25629
25922
26200
26452
26673
26867
27041
27180
27280
27355
27411
27438
27434
27414
27385
27339
27274
27211
27152
27089
27023
26968
26927
26891
26854
26813
26771
26730
26693
26658
26618
26574
26534
26498
26461
26420
26383
26355
26330
26306
26292
26290
26288
26282
26278
26284
26300
26324
26350
26371
26391
26413
26432
26446
26456
26469
26493
26525
26552
26569
26577
26574
26556
26520
26482
26447
26410
26367
26314
26251
26183
26115
26044
25968
25894
25830
25769
25696
25618
25550
25490
25430
25373
25329
25290
25245
25191
25141
25094
25042
24990
24952
24932
24913
24889
24867
24845
24821
24793
24763
24729
24690
24649
24609
24572
24536
24500
24468
24440
24408
24370
24335
24298
24255
24212
24181
24154
24115
24069
24035
24017
24007
24010
24044
24123
24248
24412
24608
24836
25091
25365
25648
25931
26203
26465
26720
26951
27148
27326
27494
27639
27754
27842
27909
27952
27969
27963
27938
27900
27858
27812
27762
27711
27661
27618
27575
27527
27481
27447
27418
27383
27346
27316
27284
27240
27187
27137
27090
27045
26998
26951
26910
26873
26838
26809
26792
26789
26797
26806
26819
26839
26861
26880
26899
26916
26931
26940
26939
26934
26939
26949
26951
26948
26948
26944
26925
26896
26868
26838
26797
26747
26695
26643
26584
26511
26433
26359
26286
26210
26135
26065
26003
25942
25880
25820
25761
25697
25629
25563
25510
25470
25432
25391
25349
25307
25260
25207
25153
25104
25059
25011
24964
24924
24890
24855
24816
24783
24753
24711
24661
24620
24588
24551
24501
24450
24405
24358
24305
24250
24197
24148
24099
24050
24005
23963
23923
23891
23877
23897
23952
24041
24168
24341
24557
24810
25092
25395
25714
26036
26349
26650
26935
27196
27428
27636
27826
27986
28107
28197
28269
28322
28345
28346
28340
28321
28284
28244
28211
28178
28140
28108
28085
28058
28025
27999
27986
27971
27949
27932
27923
27907
27883
27860
27840
27806
27756
27708
27668
27629
27590
27558
27533
27512
27496
27490
27496
27513
27537
27562
27580
27594
27612
27641
27673
27698
27722
27747
27772
27798
27822
27836
27834
27820
27798
27771
27733
27681
27623
27568
27515
27462
27401
27330
27260
27199
27144
27086
27028
26974
26923
26871
26816
26759
26701
26642
26582
26527
26478
26431
26377
26324
26276
26226
26171
26118
26073
26025
25966
25905
25852
25800
25744
25696
25662
25628
25587
25546
25512
25476
25433
25387
25337
25283
25227
25178
25136
25095
25061
25032
24997
24952
24905
24863
24821
24776
24733
24693
24656
24622
24600
24606
24651
24729
24845
25012
25226
25464
25719
25999
26296
26595
26886
27170
27446
27702
27932
28138
28318
28467
28587
28683
28757
28808
28838
28852
28841
28809
28770
28728
28671
28600
28532
28473
28415
28355
28306
28272
28242
28209
28183
28161
28136
28105
28069
28030
27992
27951
27908
27864
27827
27802
27786
27770
27756
27750
27749
27745
27739
27742
27758
27773
27781
27796
27818
27838
27851
27873
27905
27925
27929
27930
27933
27928
27914
27898
27880
27852
27813
27766
27709
27643
27569
27497
27427
27357
27291
27231
27171
27103
27033
26970
26908
26837
26766
26706
26651
26597
26545
26502
26461
26415
26364
26315
26269
26226
26187
26151
26119
26094
26073
26044
26009
25975
25943
25907
25866
25827
25788
25745
25701
25663
25632
25601
25564
25523
25484
25442
25390
25331
25274
25218
25155
25085
25023
24974
24931
24892
24874
24887
24934
25020
25151
25330
25547
25791
26056
26338
26631
26930
27227
27511
27769
28005
28221
28411
28576
28721
28844
28935
28991
29025
29039
29031
29004
28971
28936
28897
28850
28803
28757
28708
28659
28620
28592
28560
28520
28483
28455
28427
28392
28352
28311
28266
28218
28166
28113
28061
28014
27974
27941
27914
27903
27903
27902
27902
27909
27929
27955
27982
28010
28035
28053
28064
28075
28088
28101
28113
28117
28111
28102
28090
28069
28036
27991
27944
27897
27841
27777
27712
27644
27575
27507
27439
27372
27304
27233
27167
27106
27046
26985
26928
26875
26814
26745
26681
26624
26563
26489
26415
26351
26289
26223
26162
26112
26066
26019
25979
25950
25923
25894
25865
25835
25802
25769
25739
25712
25687
25664
25639
25605
25565
25533
25507
25473
25430
25389
25353
25316
25273
25227
25181
25138
25097
25049
24990
24927
24867
24809
24749
24681
24609
24544
24492
24448
24418
24423
24477
24575
24721
24922
25174
25466
25788
26133
26490
26847
27202
27549
27870
28155
28411
28649
28859
29029
29165
29273
29352
29401
29421
29418
29403
29378
29340
29295
29252
29212
29174
29131
29086
29047
29022
29005
28985
28964
28949
28939
28925
28902
28872
28840
28803
28759
28710
28661
28614
28570
28528
28486
28444
28412
28390
28365
28332
28306
28299
28305
28317
28336
28363
28391
28415
28437
28461
28485
28504
28514
28513
28503
28485
28460
28425
28381
28332
28285
28238
28183
28122
28062
28004
27940
27864
27785
27706
27625
27540
27451
27358
27266
27183
27112
27039
26961
26892
26834
26776
26714
26656
26605
26555
26502
26451
26407
26370
26332
26288
26235
26185
26143
26105
26065
26030
26003
25976
25942
25897
25847
25801
25761
25717
25667
25615
25565
25510
25445
25379
25314
25248
25178
25104
25028
24952
24880
24807
24721
24630
24554
24495
24437
24374
24316
24269
24233
24218
24250
24343
24487
24680
24934
25240
25576
25934
26314
26702
27076
27429
27758
28056
28316
28541
28735
28897
29026
29126
29200
29246
29268
29272
29257
29225
29175
29116
29056
28991
28916
28838
28775
28727
28682
28638
28604
28579
28552
28517
28481
28451
28422
28387
28349
28306
28253
28199
28149
28099
28050
28015
27999
27988
27975
27971
27977
27985
27996
28014
28038
28062
28087
28114
28134
28144
28146
28146
28144
28132
28111
28089
28060
28020
27974
27932
27891
27843
27788
27733
27676
27613
27541
27464
27386
27308
27229
27153
27079
27004
26929
26859
26793
26727
26665
26612
26556
26493
26441
26398
26353
26302
26255
26214
26169
26116
26062
26009
25958
25911
25873
25839
25801
25759
25713
25662
25612
25566
25521
25475
25426
25376
25326
25272
25212
25153
25099
25041
24978
24920
24868
24807
24735
24666
24608
24553
24501
24463
24450
24467
24524
24632
24791
24999
25258
25559
25884
26224
26577
26936
27289
27618
27916
28186
28432
28641
28811
28953
29067
29150
29201
29231
29243
29232
29203
29164
29119
29067
29013
28960
28900
28831
28768
28718
28664
28601
28548
28507
28464
28414
28365
28316
28259
28191
28116
28036
27953
27880
27822
27781
27751
27728
27716
27713
27714
27725
27755
27793
27823
27845
27874
27908
27932
27946
27962
27984
28003
28011
28006
28001
27994
27981
27960
27927
27881
27829
27776
27710
27627
27544
27470
27387
27294
27208
27131
27050
26960
26869
26777
26685
26594
26505
26419
26335
26253
26175
26098
26020
25949
25892
25840
25779
25716
25663
25616
25568
25516
25468
25426
25389
25352
25314
25277
25241
25208
25179
25151
25121
25093
25063
25019
24959
24906
24869
24833
24790
24749
24714
24674
24627
24573
24512
24445
24375
24301
24227
24158
24102
24068
24054
24061
24099
24177
24312
24503
24742
25035
25379
25759
26158
26570
26988
27393
27771
28114
28423
28696
28931
29129
29287
29407
29506
29593
29653
29677
29678
29669
29645
29603
29553
29500
29443
29386
29335
29286
29237
29193
29157
29118
29074
29034
28995
28946
28886
28828
28781
28735
28687
28640
28598
28551
28500
28451
28408
28368
28336
28314
28302
28292
28283
28279
28275
28271
28274
28282
28289
28295
28300
28307
28320
28326
28317
28303
28289
28266
28232
28189
28136
28073
28007
27941
27872
27801
27728
27656
27576
27484
27391
27303
27214
27118
27021
26936
26856
26775
26690
26603
26522
26445
26369
26297
26232
26167
26103
26039
25971
25895
25816
25737
25665
25601
25550
25509
25464
25411
25360
25320
25286
25248
25205
25160
25111
25066
25029
24986
24932
24877
24829
24780
24725
24668
24614
24558
24498
24442
24396
24351
24301
24251
24207
24175
24159
24174
24229
24332
24487
24699
24970
25286
25635
26018
26428
26840
27235
27611
27966
28290
28575
28828
29047
29225
29365
29473
29549
29598
29625
29628
29602
29553
29497
29438
29376
29315
29262
29213
29163
29104
29045
28993
28942
28886
28830
28780
28733
28686
28634
28575
28513
28452
28391
28329
28272
28226
28193
28167
28143
28128
28127
28144
28172
28205
28240
28274
28305
28332
28360
28383
28401
28413
28420
28420
28416
28410
28401
28384
28364
28350
28341
28320
28280
28227
28167
28100
28031
27962
27895
27830
27766
27697
27621
27543
27470
27401
27331
27257
27183
27109
27036
26964
26896
26836
26778
26720
26664
26617
26574
26522
26462
26408
26364
26320
26272
26227
26190
26155
26120
26088
26060
26031
25995
25951
25899
25839
25777
25719
25655
25583
25518
25466
25415
25360
25322
25315
25329
25368
25456
25600
25786
26010
26282
26596
26923
27247
27567
27881
28180
28457
28715
28946
29146
29321
29470
29591
29684
29758
29817
29853
29865
29866
29860
29844
29813
29772
29727
29683
29641
29600
29560
29523
29487
29448
29402
29350
29295
29237
29176
29109
29040
28973
28910
28849
28790
28742
28704
28671
28644
28630
28632
28640
28646
28662
28691
28726
28761
28800
28844
28886
28923
28965
29005
29030
29036
29027
29018
29014
29005
28990
28973
28951
28917
28871
28823
28772
28711
28637
28558
28480
28410
28347
28286
28228
28175
28122
28064
28007
27954
27905
27860
27822
27791
27762
27731
27698
27664
27624
27575
27527
27482
27434
27379
27330
27299
27274
27239
27198
27156
27109
27052
26989
26928
26876
26830
26788
26752
26722
26701
26695
26705
26742
26814
26919
27056
27228
27436
27680
27950
28231
28514
28798
29081
29347
29591
29816
30020
30192
30334
30449
30545
30622
30676
30705
30713
30712
30700
30670
30619
30553
30492
30443
30391
30335
30287
30253
30223
30199
30185
30172
30148
30114
30076
30035
29990
29951
29914
29869
29819
29774
29738
29706
29675
29652
29644
29647
29651
29658
29675
29697
29715
29729
29750
29779
29807
29831
29851
29866
29875
29873
29862
29849
29831
29805
29771
29726
29673
29620
29570
29510
29437
29372
29321
29263
29189
29120
29065
29011
28954
28907
28870
28828
28779
28730
28681
28633
28585
28539
28494
28444
28392
28349
28309
28267
28233
28202
28164
28117
28067
28018
27963
27901
27842
27793
27752
27714
27671
27626
27590
27568
27555
27557
27590
27661
27764
27894
28049
28234
28454
28705
28968
29233
29502
29771
30026
30263
30489
30700
30881
31031
31159
31263
31340
31391
31422
31434
31426
31407
31378
31338
31295
31253
31211
31166
31116
31076
31046
31014
30975
30944
30923
30899
30869
30835
30795
30743
30682
30620
30557
30498
30452
30417
30385
30353
30325
30305
30291
30280
30275
30281
30295
30306
30318
30339
30364
30383
30393
30404
30418
30421
30415
30412
30411
30408
30393
30365
30330
30287
30234
30175
30114
30046
29974
29904
29835
29766
29706
29654
29593
29518
29445
29380
29311
29240
29175
29115
29058
29002
28949
28896
28842
28794
28757
28723
28678
28622
28564
28507
28446
28384
28327
28268
28207
28157
28120
28083
28038
27996
27958
27913
27860
27809
27762
27714
27668
27632
27607
27599
27614
27659
27738
27855
28011
28210
28448
28712
28988
29274
29563
29840
30098
30344
30579
30791
30974
31128
31252
31342
31411
31471
31520
31548
31553
31544
31527
31498
31463
31427
31388
31345
31307
31272
31231
31186
31147
31114
31081
31046
31015
30987
30958
30928
30894
30849
30794
30743
30706
30678
30646
30613
30590
30577
30566
30557
30555
30561
30570
30585
30609
30638
30671
30706
30740
30764
30782
30798
30812
30822
30822
30818
30813
30798
30772
30745
30720
30685
30633
30576
30522
30469
30420
30374
30327
30269
30205
30141
30075
30012
29962
29921
29882
29840
29798
29755
29710
29665
29626
29599
29577
29550
29516
29483
29444
29395
29344
29301
29268
29231
29189
29154
29123
29088
29047
29009
28974
28942
28913
28885
28853
28816
28785
28765
28745
28725
28723
28748
28792
28858
28968
29128
29320
29531
29773
30041
30314
30579
30832
31069
31285
31477
31653
31816
31954
32074
32181
32268
32326
32362
32389
32400
32386
32354
32321
32293
32262
32222
32181
32145
32111
32079
32056
32045
32039
32029
32014
31994
31965
31933
31899
31853
31795
31744
31707
31676
31652
31644
31647
31645
31633
31624
31620
31617
31617
31628
31648
31666
31687
31711
31729
31745
31767
31796
31824
31843
31858
31869
31870
31856
31837
31824
31813
31795
31764
31720
31673
31631
31590
31544
31495
31440
31381
31321
31260
31201
31150
31104
31055
31003
30966
30947
30930
30903
30870
30836
30799
30756
30714
30673
30637
30609
30591
30575
30552
30518
30482
30448
30405
30362
30335
30321
30310
30295
30271
30242
30207
30169
30135
30101
30062
30025
29993
29953
29902
29854
29813
29765
29710
29660
29619
29588
29574
29581
29617
29685
29793
29945
30138
30362
30617
30900
31196
31485
31766
32045
32316
32564
32785
32986
33169
33328
33459
33567
33656
33723
33763
33783
33787
33775
33756
33730
33695
33654
33624
33612
33600
33580
33564
33555
33545
33535
33533
33539
33535
33518
33495
33469
33435
33395
33357
33319
33273
33222
33173
33129
33090
33059
33033
33012
32999
32994
32996
33001
33010
33023
33040
33054
33064
33077
33094
33099
33090
33080
33074
33054
33011
32968
32937
32902
32857
32815
32782
32749
32715
32681
32640
32589
32531
32469
32402
32329
32257
32191
32126
32061
32000
31949
31897
31835
31773
31720
31667
31607
31545
31491
31447
31403
31357
31314
31275
31235
31189
31143
31098
31054
31018
30992
30964
30926
30890
30861
30825
30778
30732
30688
30644
30598
30550
30496
30434
30369
30308
30249
30186
30119
30053
29995
29942
29892
29842
29779
29704
29627
29557
29491
29437
29415
29440
29510
29622
29782
29992
30243
30520
30812
31116
31428
31740
32043
32328
32588
32821
33030
33216
33365
33477
33566
33642
33694
33721
33731
33729
33713
33685
33647
33604
33557
33513
33470
33423
33371
33327
33297
33277
33255
33228
33202
33177
33146
33106
33062
33015
32965
32915
32870
32830
32795
32768
32750
32731
32709
32695
32693
32693
32703
32730
32764
32796
32823
32845
32861
32873
32889
32909
32930
32944
32948
32948
32940
32919
32887
32856
32828
32797
32759
32710
32656
32599
32540
32480
32416
32346
32280
32218
32149
32069
31992
31923
31853
31781
31716
31659
31608
31564
31519
31468
31416
31368
31323
31272
31216
31161
31114
31077
31040
31001
30968
30941
30912
30881
30849
30816
30776
30736
30698
30657
30612
30573
30542
30507
30459
30413
30377
30341
30292
30233
30174
30116
30062
30007
29951
29897
29846
29799
29763
29734
29718
29736
29801
29907
30054
30252
30497
30774
31076
31399
31728
32046
32347
32637
32910
33151
33362
33549
33712
33845
33950
34036
34103
34145
34164
34166
34153
34131
34106
34076
34034
33982
33934
33892
33846
33796
33755
33723
33689
33653
33622
33593
33554
33506
33456
33400
33333
33268
33210
33155
33104
33064
33038
33020
33004
32996
32999
33006
33008
33006
33012
33030
33054
33083
33115
33144
33165
33181
33198
33210
33213
33206
33191
33166
33126
33078
33031
32973
32897
32824
32760
32692
32618
32548
32477
32403
32329
32260
32197
32134
32068
32003
31934
31862
31791
31730
31673
31610
31542
31478
31417
31348
31272
31204
31149
31099
31048
31005
30972
30939
30904
30866
30826
30790
30758
30724
30681
30636
30600
30574
30538
30488
30443
30406
30369
30329
30285
30234
30180
30125
30072
30013
29946
29874
29807
29746
29677
29594
29512
29435
29360
29287
29217
29150
29090
29053
29052
29090
29175
29319
29521
29771
30063
30400
30776
31168
31553
31927
32290
32634
32951
33235
33483
33694
33864
33995
34090
34149
34178
34190
34194
34179
34145
34105
34063
34006
33932
33857
33792
33726
33657
33593
33539
33490
33442
33396
33355
33315
33273
33225
33167
33106
33051
33000
32946
32890
32835
32785
32737
32692
32665
32659
32656
32645
32643
32656
32668
32670
32682
32707
32726
32732
32740
32755
32765
32763
32757
32753
32742
32717
32682
32641
32591
32534
32476
32413
32342
32273
32210
32138
32050
31958
31871
31779
31676
31583
31509
31437
31354
31260
31171
31092
31015
30929
30837
30752
30679
30610
30541
30469
30394
30328
30273
30212
30145
30088
30044
29999
29947
29893
29840
29789
29743
29708
29677
29637
29594
29550
29502
29447
29389
29341
29297
29243
29178
29114
29048
28977
28902
28828
28750
28668
28590
28514
28425
28323
28230
28153
28081
28018
27983
27989
28039
28148
28328
28571
28876
29241
29652
30086
30526
30960
31380
31771
32118
32419
32681
32904
33086
33226
33331
33410
33463
33495
33505
33493
33463
33424
33371
33299
33216
33139
33070
32995
32911
32833
32764
32700
32640
32586
32540
32494
32442
32386
32322
32253
32185
32119
32055
31992
31932
31887
31856
31830
31807
31796
31797
31806
31819
31837
31862
31894
31933
31982
32031
32065
32087
32111
32137
32161
32181
32200
32213
32211
32198
32178
32141
32087
32032
31982
31925
31862
31798
31734
31668
31596
31518
31436
31351
31263
31184
31114
31043
30968
30898
30830
30756
30673
30588
30504
30422
30345
30279
30221
30159
30095
30038
29989
29937
29878
29819
29765
29709
29647
29581
29518
29461
29412
29366
29314
29257
29203
29156
29099
29028
28964
28910
28852
28788
28722
28651
28579
28516
28468
28433
28415
28429
28490
28604
28769
28987
29273
29621
30007
30412
30818
31211
31587
31945
32278
32575
32830
33051
33247
33409
33532
33621
33685
33725
33739
33729
33704
33672
33633
33585
33530
33463
33379
33293
33213
33133
33050
32976
32919
32865
32805
32747
32691
32632
32575
32521
32461
32397
32333
32277
32226
32172
32125
32097
32087
32085
32089
32106
32135
32174
32222
32272
32316
32353
32391
32431
32463
32485
32499
32511
32519
32518
32501
32469
32432
32392
32347
32294
32233
32159
32083
32010
31934
31849
31763
31678
31585
31483
31380
31280
31177
31073
30971
30871
30767
30666
30579
30502
30421
30335
30257
30190
30123
30054
29989
29929
29873
29823
29775
29724
29672
29629
29596
29564
29529
29488
29440
29382
29317
29251
29183
29114
29052
29005
28969
28925
28865
28803
28743
28677
28605
28531
28453
28373
28301
28244
28199
28161
28143
28165
28234
28349
28520
28760
29071
29440
29848
30275
30702
31117
31522
31909
32257
32557
32821
33059
33262
33429
33554
33637
33690
33727
33748
33746
33722
33686
33641
33590
33521
33437
33355
33281
33206
33128
33053
32978
32902
32835
32782
32731
32668
32593
32521
32454
32385
32313
32250
32201
32160
32125
32097
32072
32054
32052
32064
32076
32082
32100
32135
32174
32208
32237
32263
32290
32318
32341
32361
32375
32380
32384
32386
32375
32351
32320
32279
32227
32162
32091
32013
31926
31840
31762
31687
31607
31519
31431
31338
31234
31131
31040
30953
30860
30762
30664
30572
30479
30383
30291
30207
30131
30063
29997
29922
29837
29757
29691
29626
29556
29491
29431
29374
29323
29275
29225
29171
29117
29064
29008
28948
28884
28822
28761
28697
28628
28556
28485
28416
28350
28290
28233
28183
28152
28155
28191
28265
28386
28567
28814
29121
29473
29857
30255
30647
31039
31431
31798
32127
32425
32691
32916
33107
33270
33404
33505
33579
33628
33653
33650
33625
33589
33545
33487
33422
33357
33292
33222
33145
33063
32979
32898
32824
32759
32694
32626
32564
32511
32454
32387
32325
32275
32230
32187
32151
32124
32110
32108
32111
32120
32136
32154
32182
32224
32267
32304
32344
32388
32432
32474
32514
32549
32578
32601
32618
32623
32605
32575
32544
32508
32455
32390
32327
32264
32191
32110
32027
31950
31878
31807
31733
31648
31556
31475
31408
31338
31261
31193
31135
31084
31036
30992
30953
30915
30875
30840
30813
30781
30736
30695
30666
30637
30606
30576
30546
30513
30483
30456
30430
30395
30353
30315
30278
30232
30182
30136
30092
30039
29975
29909
29849
29796
29756
29741
29758
29816
29928
30098
30314
30564
30854
31177
31509
31835
32164
32490
32798
33078
33330
33552
33743
33907
34046
34159
34240
34294
34329
34346
34340
34317
34291
34260
34216
34159
34096
34032
33972
33923
33881
33832
33780
33738
33702
33660
33608
33557
33509
33457
33397
33331
33265
33206
33156
33114
33077
33046
33024
33017
33027
33040
33049
33069
33105
33143
33183
33225
33269
33309
33343
33371
33388
33392
33388
33382
33372
33347
33311
33274
33234
33180
33111
33041
32976
32911
32842
32769
32697
32623
32547
32469
32383
32286
32193
32111
32032
31955
31888
31829
31766
31701
31643
31594
31544
31484
31423
31364
31306
31250
31202
31159
31120
31085
31051
31013
30969
30927
30894
30859
30816
30775
30742
30704
30653
30593
30538
30486
30428
30370
30316
30260
30197
30139
30096
30071
30071
30099
30164
30277
30446
30665
30924
31215
31539
31889
32246
32593
32923
33236
33525
33786
34022
34238
34431
34591
34717
34810
34872
34907
34918
34911
34889
34856
34812
34758
34692
34622
34560
34507
34456
34406
34367
34336
34295
34241
34190
34146
34100
34048
33994
33941
33890
33842
33793
33741
33692
33652
33626
33609
33596
33589
33596
33615
33633
33651
33676
33704
33732
33758
33783
33806
33825
33842
33858
33867
33862
33846
33828
33808
33777
33734
33685
33635
33580
33524
33467
33401
33326
33256
33194
33123
33038
32955
32879
32798
32710
32622
32534
32449
32373
32307
32244
32175
32103
32039
31983
31923
31858
31793
31735
31681
31629
31581
31532
31477
31421
31374
31334
31287
31232
31183
31141
31095
31040
30983
30929
30876
30825
30775
30717
30648
30583
30529
30471
30408
30355
30323
30316
30344
30415
30535
30705
30924
31190
31494
31821
32161
32507
32851
33183
33493
33778
34033
34253
34442
34604
34737
34834
34898
34946
34980
34993
34986
34961
34919
34862
34802
34743
34679
34612
34555
34512
34471
34433
34398
34363
34330
34303
34276
34241
34195
34144
34094
34052
34003
33940
33880
33833
33790
33752
33726
33718
33722
33734
33752
33770
33786
33805
33834
33866
33888
33902
33917
33936
33952
33960
33962
33956
33943
33924
33897
33851
33788
33722
33661
33593
33510
33424
33336
33247
33163
33081
32995
32909
32829
32758
32690
32617
32543
32480
32426
32369
32305
32245
32194
32145
32095
32048
32006
31968
31936
31907
31874
31836
31800
31770
31733
31680
31625
31580
31540
31493
31441
31389
31339
31292
31238
31179
31127
31086
31046
31002
30963
30939
30937
30964
31020
31111
31251
31441
31669
31928
32218
32529
32849
33171
33492
33805
34106
34390
34648
34871
35054
35205
35333
35433
35499
35542
35574
35595
35594
35576
35548
35514
35474
35425
35373
35329
35290
35248
35205
35165
35132
35099
35065
35026
34983
34943
34910
34869
34814
34765
34727
34687
34644
34609
34581
34552
34524
34503
34488
34480
34483
34499
34524
34547
34571
34603
34634
34649
34656
34674
34694
34702
34696
34684
34670
34646
34611
34568
34521
34469
34420
34374
34314
34235
34157
34088
34021
33947
33871
33793
33715
33641
33573
33510
33445
33375
33306
33241
33177
33111
33050
32998
32951
32908
32866
32820
32775
32735
32701
32663
32619
32580
32552
32522
32480
32436
32398
32360
32317
32269
32222
32180
32142
32105
32067
32026
31979
31931
31884
31835
31788
31749
31715
31677
31642
31632
31658
31723
31829
31984
32185
32424
32699
33003
33323
33644
33964
34289
34611
34911
35178
35418
35634
35823
35983
36112
36199
36249
36279
36296
36294
36277
36256
36236
36215
36189
36160
36128
36101
36081
36068
36060
36050
36037
36025
36012
35984
35938
35889
35840
35786
35727
35669
35613
35558
35503
35454
35406
35360
35327
35315
35315
35314
35314
35324
35339
35349
35356
35368
35387
35407
35428
35448
35464
35473
35476
35472
35456
35429
35401
35372
35330
35269
35206
35147
35082
35011
34936
34856
34775
34702
34636
34572
34506
34441
34382
34326
34266
34199
34135
34075
34016
33958
33906
33858
33812
33768
33725
33679
33634
33596
33563
33523
33475
33434
33403
33367
33322
33281
33247
33211
33175
33147
33123
33098
33074
33046
33004
32948
32886
32831
32781
32728
32669
32609
32546
32473
32393
32317
32250
32188
32129
32073
32027
32002
32008
32053
32137
32267
32449
32676
32936
33223
33537
33867
34190
34499
34803
35098
35364
35598
35810
35996
36151
36279
36378
36447
36490
36512
36518
36508
36482
36447
36412
36375
36328
36277
36231
36190
36154
36121
36095
36077
36062
36046
36030
36010
35985
35954
35916
35870
35822
35776
35736
35695
35655
35624
35602
35579
35557
35549
35557
35566
35572
35588
35614
35642
35671
35704
35738
35767
35793
35818
35838
35851
35859
35863
35862
35847
35813
35769
35720
35659
35589
35523
35462
35399
35335
35274
35219
35167
35111
35054
34995
34933
34869
34807
34745
34683
34627
34577
34520
34457
34403
34359
34311
34255
34209
34177
34146
34114
34087
34066
34044
34023
33999
33967
33930
33891
33853
33815
33773
33728
33685
33642
33591
33536
33494
33460
33417
33365
33317
33273
33223
33159
33088
33020
32955
32897
32855
32824
32804
32808
32850
32922
33024
33172
33368
33596
33846
34123
34417
34712
35004
35287
35551
35791
36014
36218
36399
36551
36676
36778
36853
36898
36917
36920
36911
36887
36852
36808
36753
36689
36632
36588
36551
36517
36492
36481
36474
36462
36447
36432
36415
36387
36347
36301
36254
36202
36144
36085
36022
35953
35890
35840
35795
35751
35729
35734
35751
35774
35803
35828
35849
35867
35881
35891
35901
35920
35946
35969
35973
35963
35950
35932
35911
35886
35861
35839
35817
35788
35746
35695
35643
35592
35539
35476
35403
35329
35256
35181
35104
35032
34963
34888
34814
34751
34693
34628
34559
34498
34441
34387
34337
34290
34239
34183
34126
34074
34029
33985
33936
33890
33850
33816
33787
33760
33729
33691
33657
33626
33584
33529
33477
33435
33397
33355
33308
33260
33214
33167
33112
33051
32988
32925
32864
32808
32750
32688
32628
32570
32505
32434
32367
32306
32240
32173
32117
32080
32064
32076
32128
32224
32366
32559
32799
33070
33353
33646
33951
34258
34552
34824
35076
35307
35511
35688
35841
35973
36079
36160
36219
36251
36260
36259
36253
36233
36201
36170
36140
36101
36059
36021
35987
35959
35936
35917
35897
35872
35850
35833
35813
35783
35747
35710
35665
35604
35536
35475
35419
35360
35302
35257
35222
35188
35148
35106
35071
35050
35044
35050
35062
35072
35085
35097
35099
35094
35099
35113
35117
35106
35094
35077
35050
35017
34985
34950
34905
34853
34796
34732
34660
34582
34502
34419
34327
34230
34140
34060
33979
33898
33818
33737
33657
33582
33514
33445
33375
33313
33255
33188
33111
33040
32982
32929
32874
32816
32758
32705
32660
32612
32557
32501
32449
32400
32349
32292
32231
32179
32136
32087
32025
31966
31912
31855
31795
31737
31681
31622
31561
31500
31436
31360
31282
31211
31139
31054
30965
30886
30814
30740
30660
30578
30498
30415
30330
30247
30166
30086
30018
29971
29940
29933
29977
30085
30242
30440
30690
30984
31295
31608
31922
32231
32528
32811
33071
33297
33487
33644
33777
33885
33964
34020
34059
34076
34067
34041
34010
33973
33924
33866
33814
33771
33728
33683
33641
33603
33566
33530
33497
33467
33438
33412
33387
33352
33305
33261
33226
33187
33143
33107
33080
33047
32999
32955
32927
32905
32884
32869
32864
32862
32861
32862
32865
32871
32879
32885
32889
32892
32898
32908
32909
32892
32866
32844
32817
32774
32717
32656
32595
32530
32460
32389
32319
32245
32168
32091
32016
31942
31867
31794
31724
31657
31596
31541
31482
31417
31357
31300
31230
31148
31069
30995
30920
30838
30760
30690
30625
30563
30505
30447
30387
30334
30290
30245
30190
30138
30100
30066
30022
29974
29931
29892
29851
29803
29753
29702
29645
29587
29531
29473
29407
29338
29268
29193
29111
29035
28969
28903
28828
28754
28692
28637
28592
28566
28571
28620
28722
28883
29091
29329
29591
29879
30181
30477
30765
31050
31325
31574
31787
31972
32139
32282
32394
32474
32533
32574
32592
32591
32574
32540
32498
32454
32397
32326
32256
32192
32126
32059
32004
31961
31918
31873
31835
31798
31757
31713
31666
31612
31551
31492
31443
31395
31332
31265
31207
31156
31105
31054
31019
31001
30989
30981
30980
30985
30992
31001
31014
31024
31030
31042
31059
31061
31047
31035
31030
31015
30988
30959
30924
30880
30836
30789
30738
30680
30615
30549
30482
30402
30308
30217
30138
30063
29986
29903
29815
29723
29632
29548
29462
29368
29272
29190
29118
29045
28969
28897
28832
28769
28702
28634
28568
28502
28444
28395
28339
28275
28219
28175
28128
28077
28027
27979
27938
27908
27885
27857
27821
27779
27737
27692
27641
27583
27529
27476
27415
27343
27268
27191
27116
27050
26990
26925
26854
26785
26721
26652
26574
26499
26436
26372
26305
26249
26214
26201
26215
26266
26361
26507
26717
26989
27308
27657
28027
28406
28780
29137
29473
29787
30075
30327
30544
30731
30884
31002
31083
31135
31166
31180
31176
31153
31113
31060
31008
30958
30902
30835
30768
30712
30664
30614
30561
30515
30477
30438
30394
30347
30299
30252
30202
30152
30097
30037
29980
29931
29877
29817
29767
29734
29708
29685
29670
29661
29653
29648
29649
29651
29649
29651
29660
29672
29674
29670
29670
29672
29665
29643
29616
29587
29550
29505
29454
29393
29325
29261
29199
29128
29048
28971
28902
28831
28759
28680
28587
28486
28385
28288
28193
28097
28002
27919
27847
27771
27689
27608
27525
27438
27348
27259
27172
27086
27005
26935
26874
26812
26745
26679
26620
26565
26512
26461
26402
26341
26291
26257
26224
26181
26133
26087
26040
25987
25928
25863
25795
25727
25663
25609
25555
25494
25436
25381
25319
25254
25192
25129
25064
24996
24929
24860
24784
24705
24634
24570
24509
24457
24424
24422
24464
24565
24726
24936
25191
25502
25862
26248
26643
27045
27453
27849
28212
28535
28813
29048
29240
29390
29503
29589
29650
29685
29698
29684
29644
29590
29528
29449
29350
29247
29149
29051
28952
28856
28763
28669
28575
28485
28395
28299
28204
28117
28034
27944
27851
27765
27689
27621
27565
27520
27479
27438
27408
27394
27390
27390
27403
27428
27457
27485
27516
27555
27598
27642
27689
27740
27782
27806
27824
27842
27845
27831
27809
27777
27736
27690
27643
27593
27531
27460
27386
27307
27218
27123
27030
26940
26853
26771
26682
26579
26467
26360
26262
26166
26068
25977
25899
25832
25764
25685
25599
25515
25437
25360
25282
25206
25133
25075
25032
24990
24940
24893
24848
24800
24751
24704
24654
24601
24546
24496
24450
24401
24347
24289
24231
24172
24113
24055
23992
23919
23853
23804
23759
23701
23640
23591
23557
23529
23503
23493
23507
23552
23640
23781
23969
24200
24487
24826
25200
25598
26012
26422
26815
27185
27524
27824
28075
28283
28457
28598
28701
28768
28804
28809
28784
28739
28689
28636
28571
28495
28420
28348
28265
28167
28060
27949
27838
27734
27635
27535
27432
27334
27246
27155
27056
26959
26867
26779
26701
26633
26568
26512
26465
26431
26412
26399
26392
26400
26423
26450
26480
26520
26567
26612
26653
26688
26713
26724
26729
26741
26752
26748
26730
26708
26682
26637
26577
26509
26434
26352
26273
26201
26125
26041
25956
25873
25778
25672
25571
25482
25392
25303
25219
25136
25051
24965
24877
24781
24683
24592
24511
24435
24359
24284
24216
24156
24095
24028
23964
23902
23838
23776
23720
23664
23610
23562
23516
23463
23404
23353
23315
23276
23227
23179
23134
23088
23040
22995
22954
22912
22861
22800
22735
22673
22618
22568
22520
22469
22414
22372
22351
22340
22343
22387
22484
22636
22844
23108
23421
23776
24168
24588
25022
25447
25858
26250
26611
26925
27198
27441
27650
27811
27926
28006
28060
28089
28094
28079
28051
28010
27953
27887
27813
27727
27639
27558
27470
27371
27280
27202
27121
27031
26946
26862
26775
26684
26597
26515
26431
26344
26263
26189
26115
26045
25991
25955
25922
25895
25885
25891
25909
25934
25960
25990
26031
26082
26136
26177
26201
26219
26238
26246
26238
26226
26215
26195
26166
26129
26078
26013
25945
25873
25790
25691
25582
25481
25389
25291
25191
25092
24989
24876
24761
24656
24562
24472
24384
24301
24217
24127
24035
23952
23870
23784
23702
23632
23564
23486
23404
23330
23266
23207
23145
23086
23034
22987
22946
22911
22875
22831
22790
22754
22710
22655
22604
22561
22517
22470
22424
22379
22332
22286
22245
22201
22148
22094
22044
21993
21933
21870
21816
21771
21732
21708
21713
21762
21862
22012
22213
22463
22759
23098
23474
23873
24286
24715
25149
25562
25939
26287
26602
26871
27096
27279
27417
27513
27574
27606
27607
27578
27521
27449
27366
27270
27165
27062
26963
26860
26756
26652
26540
26423
26309
26205
26103
25994
25892
25798
25702
25600
25500
25414
25336
25257
25178
25108
25056
25015
24981
24957
24946
24947
24964
24997
25035
25072
25121
25183
25239
25284
25332
25383
25429
25467
25496
25513
25515
25499
25471
25434
25381
25313
25243
25174
25103
25028
24951
24871
24785
24697
24610
24512
24404
24304
24219
24136
24048
23961
23877
23793
23710
23625
23538
23449
23362
23285
23218
23155
23093
23044
23010
22976
22937
22900
22867
22835
22806
22784
22760
22728
22690
22653
22615
22570
22523
22483
22450
22412
22368
22326
22286
22242
22191
22137
22084
22035
21994
21961
21931
21902
21896
21922
21973
22057
22194
22394
22647
22946
23284
23648
24028
24423
24828
25226
25599
25943
26262
26553
26801
27000
27158
27282
27368
27416
27426
27407
27365
27313
27259
27199
27119
27025
26929
26835
26733
26623
26515
26414
26316
26218
26118
26015
25908
25806
25712
25612
25502
25402
25319
25244
25173
25109
25051
25001
24965
24949
24951
24970
25002
25051
25114
25172
25220
25270
25325
25376
25419
25458
25489
25508
25523
25547
25571
25574
25556
25535
25516
25490
25450
25395
25330
25257
25180
25101
25013
24914
24817
24726
24629
24521
24414
24319
24227
24133
24041
23947
23851
23764
23691
23627
23557
23482
23414
23357
23303
23246
23194
23147
23103
23061
23018
22971
22919
22869
22827
22786
22732
22665
22600
22550
22506
22463
22427
22401
22377
22349
22318
22277
22222
22170
22127
22082
22034
22001
21984
21977
21988
22037
22128
22266
22461
22722
23040
23396
23781
24189
24610
25029
25432
25820
26186
26520
26817
27073
27293
27476
27626
27739
27808
27835
27843
27841
27817
27767
27705
27638
27561
27468
27362
27250
27146
27052
26962
26872
26786
26705
26626
26546
26461
26366
26277
26203
26132
26062
26002
25950
25899
25848
25803
25765
25734
25717
25719
25735
25753
25774
25806
25849
25892
25935
25979
26025
26072
26118
26158
26182
26190
26198
26204
26189
26147
26100
26060
26013
25958
25900
25840
25771
25695
25616
25528
25436
25350
25268
25181
25087
24995
24907
24819
24723
24625
24534
24451
24371
24297
24229
24160
24090
24027
23971
23919
23871
23828
23789
23745
23695
23650
23609
23561
23504
23443
23386
23338
23294
23250
23205
23159
23111
23065
23021
22969
22905
22845
22795
22751
22714
22679
22635
22584
22537
22506
22492
22496
22531
22621
22779
22991
23246
23536
23861
24225
24630
25063
25495
25904
26286
26646
26981
27276
27527
27737
27913
28051
28151
28217
28257
28272
28268
28250
28208
28145
28077
28011
27942
27875
27810
27745
27674
27594
27518
27447
27372
27292
27217
27150
27084
27009
26928
26847
26769
26700
26649
26609
26570
26537
26519
26508
26496
26488
26495
26519
26551
26585
26624
26668
26715
26761
26806
26844
26871
26897
26928
26950
26954
26953
26950
26935
26907
26862
26795
26717
26636
26557
26480
26394
26302
26212
26128
26040
25945
25846
25747
25647
25553
25464
25368
25263
25164
25082
25006
24926
24847
24778
24723
24671
24615
24560
24509
24458
24411
24368
24320
24266
24220
24184
24145
24104
24062
24014
23960
23903
23849
23797
23738
23673
23616
23567
23513
23452
23387
23322
23255
23193
23140
23085
23025
22980
22971
23005
23076
23190
23358
23582
23851
24162
24515
24901
25308
25727
26145
26539
26902
27242
27554
27827
28061
28253
28401
28513
28595
28645
28663
28651
28613
28559
28495
28415
28318
28217
28125
28035
27946
27861
27778
27692
27610
27532
27448
27353
27252
27158
27072
26983
26888
26796
26718
26650
26589
26542
26507
26482
26474
26487
26506
26526
26558
26606
26655
26701
26746
26791
26833
26878
26926
26970
27001
27021
27039
27049
27042
27021
26996
26974
26946
26910
26865
26806
26733
26650
26561
26468
26374
26286
26201
26113
26024
25941
25863
25780
25691
25610
25541
25476
25410
25345
25279
25217
25161
25105
25046
24982
24916
24859
24817
24774
24720
24668
24625
24580
24535
24496
24460
24426
24399
24375
24342
24291
24230
24171
24117
24062
24005
23953
23904
23857
23810
23761
23709
23661
23636
23641
23669
23726
23828
23986
24195
24449
24744
25074
25439
25828
26231
26637
27033
27406
27756
28079
28361
28595
28786
28938
29051
29132
29187
29217
29220
29202
29178
29151
29113
29062
29004
28939
28870
28798
28723
28638
28547
28466
28404
28352
28293
28227
28160
28095
28027
27952
27878
27805
27736
27679
27637
27595
27550
27514
27497
27493
27500
27518
27538
27562
27595
27635
27670
27697
27721
27747
27772
27791
27803
27810
27812
27811
27810
27812
27806
27775
27730
27686
27646
27593
27521
27444
27368
27289
27208
27127
27045
26961
26879
26802
26719
26626
26536
26451
26362
26274
26193
26118
26045
25978
25918
25858
25791
25722
25667
25627
25588
25542
25498
25458
25412
25360
25307
25254
25203
25158
25121
25083
25040
24999
24961
24918
24869
24822
24784
24743
24691
24634
24582
24538
24493
24440
24383
24332
24288
24250
24216
24176
24132
24108
24121
24162
24241
24380
24579
24823
25106
25435
25812
26226
26656
27092
27523
27931
28311
28663
28976
29241
29463
29651
29802
29908
29977
30025
30054
30054
30029
29990
29943
29887
29827
29771
29720
29671
29627
29587
29540
29483
29429
29387
29345
29295
29250
29211
29168
29119
29069
29018
28967
28921
28883
28848
28809
28770
28740
28717
28693
28675
28674
28686
28698
28705
28719
28742
28762
28778
28802
28835
28864
28879
28885
28886
28878
28859
28833
28798
28753
28700
28644
28577
28498
28419
28347
28269
28182
28097
28018
27936
27848
27761
27677
27591
27505
27423
27348
27272
27197
27130
27064
26994
26921
26856
26797
26732
26662
26598
26541
26485
26430
26384
26346
26309
26271
26234
26204
26176
26139
26096
26055
26018
25975
25925
25874
25823
25773
25725
25671
25612
25561
25521
25475
25417
25360
25309
25261
25210
25160
25109
25052
24993
24931
24866
24802
24754
24735
24747
24791
24884
25035
25233
25473
25766
26116
26507
26920
27344
27769
28182
28568
28923
29242
29525
29773
29982
30149
30276
30369
30431
30464
30469
30450
30412
30362
30295
30212
30130
30051
29969
29887
29817
29759
29704
29649
29593
29536
29481
29429
29375
29312
29239
29168
29098
29021
28942
28876
28822
28769
28713
28668
28637
28611
28582
28563
28560
28564
28574
28590
28606
28622
28647
28677
28705
28722
28731
28736
28736
28730
28717
28701
28681
28648
28601
28546
28490
28431
28369
28301
28223
28141
28059
27983
27905
27825
27753
27689
27618
27537
27460
27391
27319
27243
27176
27117
27060
26998
26935
26868
26801
26742
26690
26639
26583
26525
26470
26412
26350
26291
26242
26199
26157
26118
26083
26052
26015
25971
25926
25881
25836
25792
25746
25698
25649
25605
25563
25506
25436
25372
25318
25260
25196
25143
25104
25070
25048
25050
25087
25167
25297
25477
25700
25966
26282
26642
27030
27437
27854
28271
28678
29045
29360
29637
29882
30088
30256
30394
30502
30574
30612
30623
30608
30578
30539
30493
30432
30360
30290
30227
30159
30076
29997
29932
29868
29803
29741
29685
29629
29567
29496
29414
29331
29256
29185
29117
29055
29001
28957
28924
28893
28863
28850
28860
28883
28915
28960
29013
29065
29115
29166
29213
29252
29284
29313
29333
29336
29334
29336
29332
29312
29277
29239
29197
29142
29076
29007
28939
28866
28785
28701
28618
28534
28445
28357
28274
28191
28107
28025
27948
27881
27824
27772
27710
27635
27562
27499
27437
27371
27309
27254
27200
27151
27110
27067
27013
26958
26914
26872
26826
26783
26749
26719
26682
26642
26611
26583
26544
26494
26446
26406
26368
26325
26282
26244
26209
26170
26120
26060
25994
25932
25880
25826
25765
25708
25660
25613
25570
25546
25549
25580
25645
25761
25932
26155
26433
26769
27149
27549
27956
28372
28787
29180
29539
29874
30181
30445
30669
30860
31015
31133
31221
31285
31321
31329
31329
31330
31317
31282
31242
31202
31158
31116
31077
31035
30986
30937
30893
30849
30802
30750
30697
30648
30600
30554
30517
30481
30436
30381
30325
30269
30214
30166
30131
30104
30085
30083
30099
30114
30117
30124
30145
30174
30206
30242
30280
30315
30344
30365
30379
30388
30394
30397
30392
30375
30344
30305
30265
30214
30147
30082
30023
29956
29881
29807
29730
29646
29561
29479
29395
29306
29223
29158
29100
29035
28970
28914
28859
28796
28727
28662
28602
28544
28491
28444
28395
28337
28285
28240
28184
28115
28049
27995
27949
27913
27884
27856
27824
27792
27760
27726
27687
27648
27611
27570
27519
27466
27419
27375
27322
27261
27200
27141
27081
27020
26959
26893
26820
26747
26676
26598
26513
26435
26372
26317
26270
26251
26272
26344
26470
26645
26875
27163
27502
27875
28265
28664
29067
29461
29833
30175
30489
30778
31038
31253
31424
31560
31664
31734
31772
31793
31801
31792
31768
31733
31683
31626
31573
31526
31477
31426
31382
31348
31316
31279
31245
31220
31192
31155
31114
31072
31017
30948
30878
30816
30762
30716
30676
30639
30606
30585
30576
30576
30585
30605
30628
30648
30668
30690
30721
30757
30789
30816
30846
30871
30882
30879
30880
30886
30884
30871
30855
30837
30807
30763
30713
30663
30613
30557
30494
30429
30360
30288
30216
30134
30039
29955
29889
29819
29745
29683
29630
29573
29512
29457
29403
29346
29284
29218
29151
29087
29029
28978
28928
28873
28818
28772
28733
28687
28636
28596
28566
28531
28489
28449
28413
28371
28321
28275
28236
28200
28162
28126
28091
28056
28020
27984
27937
27876
27819
27769
27714
27651
27599
27567
27550
27551
27586
27669
27804
27994
28241
28539
28871
29228
29607
29990
30355
30704
31043
31366
31660
31920
32147
32344
32509
32643
32748
32822
32868
32894
32903
32886
32846
32798
32752
32704
32656
32613
32577
32543
32511
32480
32445
32408
32374
32340
32299
32252
32199
32150
32111
32069
32020
31975
31937
31899
31861
31828
31800
31778
31764
31765
31779
31793
31806
31831
31866
31902
31937
31978
32019
32056
32094
32134
32163
32174
32182
32191
32194
32189
32174
32149
32117
32082
32042
31995
31935
31868
31802
31735
31661
31581
31509
31447
31383
31315
31247
31181
31110
31034
30958
30882
30802
30729
30672
30625
30574
30518
30462
30409
30356
30301
30243
30184
30130
30090
30064
30036
29997
29959
29928
29893
29851
29808
29768
29736
29711
29693
29680
29663
29635
29609
29585
29552
29512
29477
29448
29416
29380
29339
29293
29242
29189
29141
29093
29042
28996
28966
28951
28945
28960
29017
29118
29255
29432
29656
29928
30237
30567
30907
31250
31586
31910
32218
32498
32743
32967
33174
33352
33498
33623
33730
33813
33874
33914
33934
33935
33923
33901
33868
33827
33786
33754
33726
33692
33653
33625
33607
33588
33564
33546
33535
33527
33521
33515
33494
33457
33415
33376
33337
33296
33261
33233
33197
33147
33106
33084
33071
33062
33063
33074
33089
33105
33124
33142
33153
33160
33166
33170
33170
33172
33178
33182
33172
33151
33129
33106
33074
33038
33006
32978
32936
32879
32822
32768
32710
32650
32599
32559
32519
32471
32417
32361
32303
32245
32187
32125
32057
31992
31937
31882
31822
31770
31730
31685
31632
31587
31553
31517
31475
31435
31399
31364
31331
31301
31275
31244
31209
31179
31153
31125
31099
31085
31072
31045
31009
30975
30947
30916
30881
30845
30808
30765
30713
30656
30599
30539
30473
30401
30329
30257
30189
30124
30051
29965
29884
29818
29757
29703
29662
29632
29611
29608
29645
29736
29878
30071
30313
30597
30911
31252
31609
31959
32285
32591
32886
33159
33398
33612
33805
33968
34097
34205
34298
34365
34401
34420
34425
34412
34386
34351
34309
34263
34218
34174
34128
34083
34048
34021
33999
33973
33943
33911
33878
33840
33803
33772
33744
33709
33668
33630
33592
33548
33507
33483
33469
33453
33438
33437
33446
33455
33465
33482
33505
33524
33538
33555
33581
33611
33637
33659
33676
33684
33683
33672
33657
33640
33619
33591
33558
33522
33486
33448
33400
33345
33298
33257
33208
33151
33096
33040
32975
32900
32827
32758
32692
32632
32578
32525
32468
32410
32360
32314
32266
32216
32173
32132
32086
32034
31981
31933
31887
31834
31779
31730
31692
31661
31636
31607
31567
31527
31497
31468
31438
31414
31391
31361
31325
31292
31258
31218
31174
31128
31079
31026
30974
30926
30873
30815
30760
30716
30673
30623
30580
30563
30572
30613
30702
30853
31051
31279
31533
31815
32123
32443
32766
33084
33393
33685
33956
34200
34415
34606
34774
34915
35025
35108
35173
35218
35237
35237
35231
35219
35197
35167
35137
35109
35078
35040
35000
34960
34920
34884
34853
34818
34776
34733
34690
34644
34598
34560
34527
34486
34439
34400
34370
34337
34299
34272
34264
34258
34246
34241
34247
34252
34255
34273
34301
34328
34355
34376
34385
34386
34386
34389
34394
34395
34394
34394
34386
34363
34334
34308
34282
34243
34197
34155
34117
34074
34021
33964
33907
33851
33787
33709
33624
33536
33448
33366
33281
33186
33096
33025
32956
32881
32817
32773
32735
32695
32660
32629
32595
32561
32530
32498
32454
32401
32349
32301
32259
32225
32192
32158
32121
32087
32057
32024
31984
31941
31904
31870
31823
31765
31711
31667
31624
31572
31512
31453
31393
31330
31268
31207
31142
31077
31020
30965
30905
30853
30809
30764
30718
30699
30726
30795
30908
31077
31307
31581
31890
32228
32582
32938
33296
33658
34008
34327
34613
34880
35126
35340
35513
35656
35776
35870
35937
35981
36010
36023
36018
35998
35965
35922
35877
35842
35797
35734
35670
35617
35568
35521
35485
35464
35445
35422
35399
35370
35326
35272
35220
35175
35129
35081
35030
34974
34911
34851
34807
34776
34756
34755
34771
34782
34784
34793
34815
34838
34860
34890
34926
34948
34954
34959
34971
34980
34982
34982
34974
34952
34921
34887
34848
34801
34750
34690
34619
34545
34470
34392
34314
34230
34144
34061
33977
33886
33795
33714
33636
33548
33456
33373
33298
33216
33127
33042
32963
32881
32799
32726
32666
32615
32565
32513
32463
32409
32349
32287
32227
32174
32131
32097
32066
32033
31998
31960
31917
31874
31837
31803
31762
31717
31673
31629
31578
31521
31468
31418
31362
31303
31251
31203
31148
31088
31035
30997
30977
30975
31003
31073
31188
31357
31583
31859
32173
32521
32898
33282
33662
34033
34389
34714
35002
35267
35507
35706
35863
35991
36097
36173
36222
36254
36268
36261
36232
36187
36132
36069
36003
35936
35869
35803
35741
35687
35632
35574
35525
35495
35473
35443
35397
35344
35291
35231
35163
35094
35034
34984
34943
34914
34891
34869
34859
34864
34871
34876
34893
34929
34965
34992
35020
35054
35083
35107
35129
35151
35171
35192
35209
35218
35214
35197
35173
35143
35099
35045
34988
34931
34862
34785
34710
34638
34561
34479
34397
34317
34239
34160
34079
33996
33910
33830
33761
33691
33611
33537
33472
33403
33327
33256
33190
33124
33056
32994
32938
32883
32827
32776
32726
32676
32631
32593
32555
32511
32459
32410
32363
32310
32257
32212
32166
32107
32039
31968
31898
31823
31739
31658
31592
31540
31490
31438
31384
31332
31299
31301
31336
31408
31540
31739
31989
32278
32605
32961
33335
33718
34104
34475
34816
35126
35411
35663
35875
36051
36206
36340
36439
36506
36554
36587
36597
36579
36547
36510
36467
36415
36357
36296
36236
36178
36125
36067
36003
35953
35918
35878
35827
35785
35750
35705
35655
35607
35561
35513
35468
35421
35368
35312
35264
35228
35198
35169
35147
35142
35156
35181
35213
35257
35304
35343
35374
35400
35421
35437
35450
35455
35448
35434
35420
35405
35377
35335
35291
35249
35199
35138
35078
35023
34963
34896
34823
34745
34663
34583
34503
34414
34322
34236
34156
34074
33982
33887
33809
33750
33692
33625
33554
33482
33408
33335
33265
33197
33132
33076
33027
32972
32910
32856
32815
32777
32735
32695
32662
32625
32576
32517
32455
32394
32337
32281
32222
32163
32108
32052
31994
31931
31864
31802
31748
31691
31626
31562
31504
31454
31418
31413
31451
31537
31681
31892
32163
32474
32812
33181
33574
33969
34349
34714
35062
35386
35685
35953
36175
36350
36493
36612
36697
36743
36762
36763
36752
36735
36706
36659
36598
36533
36470
36403
36331
36257
36192
36144
36103
36063
36027
35992
35950
35900
35847
35788
35719
35651
35588
35525
35456
35388
35336
35298
35268
35248
35240
35239
35237
35235
35234
35238
35244
35249
35258
35275
35302
35330
35355
35368
35367
35366
35370
35368
35353
35337
35321
35288
35235
35176
35112
35040
34961
34882
34800
34709
34617
34526
34429
34324
34223
34134
34048
33952
33852
33758
33666
33571
33475
33390
33317
33245
33166
33083
33007
32935
32865
32799
32734
32666
32607
32562
32512
32449
32390
32342
32288
32221
32153
32091
32034
31979
31923
31861
31787
31709
31640
31578
31515
31447
31381
31318
31256
31194
31125
31051
30981
30928
30897
30893
30931
31029
31193
31416
31693
32030
32418
32832
33255
33684
34106
34503
34868
35200
35493
35743
35959
36146
36296
36402
36474
36522
36549
36544
36512
36469
36420
36361
36295
36224
36148
36071
35995
35916
35830
35742
35663
35595
35528
35455
35375
35293
35206
35112
35013
34919
34839
34776
34719
34665
34621
34588
34568
34564
34568
34576
34600
34645
34693
34741
34794
34845
34890
34934
34979
35020
35050
35067
35084
35103
35114
35111
35097
35073
35039
34998
34948
34879
34795
34715
34644
34568
34477
34374
34270
34174
34079
33982
33886
33798
33717
33642
33573
33499
33416
33338
33271
33198
33120
33047
32983
32922
32866
32814
32764
32711
32655
32603
32554
32502
32445
32393
32350
32310
32272
32236
32199
32159
32121
32085
32042
31994
31952
31916
31870
31808
31746
31690
31627
31557
31497
31456
31435
31445
31502
31614
31781
32004
32283
32603
32957
33344
33748
34152
34542
34910
35254
35570
35851
36096
36317
36513
36674
36796
36887
36950
36988
37004
36997
36966
36916
36857
36793
36718
36632
36552
36483
36414
36344
36279
36225
36179
36134
36082
36026
35972
35922
35870
35811
35751
35690
35630
35574
35514
35451
35403
35375
35358
35344
35341
35351
35371
35402
35445
35494
35541
35586
35627
35655
35672
35690
35712
35723
35716
35703
35696
35686
35663
35628
35583
35530
35470
35402
35329
35258
35186
35107
35022
34930
34832
34732
34633
34527
34418
34317
34223
34121
34008
33899
33798
33697
33598
33508
33426
33342
33256
33172
33088
33004
32927
32866
32809
32745
32681
32630
32582
32520
32448
32385
32336
32291
32237
32175
32111
32045
31976
31904
31832
31759
31691
31629
31560
31476
31396
31331
31263
31196
31154
31154
31196
31287
31441
31662
31945
32285
32676
33096
33528
33967
34405
34823
35204
35545
35850
36118
36344
36531
36688
36818
36918
