33810
33743
33566
33412
33854
33823
33554
33614
33845
33825
33539
33786
33827
33832
33540
34202
34064
33801
33574
34075
33884
33826
33637
34120
34003
33720
33747
34173
34089
33611
34103
34024
33941
33765
34032
34171
33766
33680
34068
34003
33752
33644
33911
33685
33194
33459
33488
33444
33107
33474
33199
33136
33066
33430
33270
32949
33039
33491
33296
32914
33082
33208
33309
32865
33381
33310
33166
33055
33256
33389
33041
32973
33497
33386
33203
33151
33650
33446
32941
33451
33484
33404
33181
33588
33543
33369
33593
33592
33400
33264
33041
33726
33649
33046
33640
33623
33673
33351
33672
33667
33560
33441
33716
33851
33470
33463
33692
33625
33599
33671
33958
33727
33424
33926
33857
33751
33436
33849
33952
33711
33721
33881
33957
33664
33824
34091
33900
33555
33940
33987
33781
33643
34076
33928
33738
33784
34083
34230
33773
33876
34201
34035
33587
34097
34053
33914
33588
33962
34035
33718
33555
33861
33285
33625
33418
33887
33509
33140
33444
33485
33355
33030
33498
33342
33161
33018
33416
33379
33129
33126
33587
33201
33110
33170
33628
33304
33420
33429
33725
33282
33082
33526
33259
33375
33130
33610
33478
33357
33381
33677
33590
33306
33676
33711
33554
33206
33734
33748
33489
33517
33823
33783
33445
33407
33905
33790
33143
33689
33912
33606
33367
33846
33827
33618
33542
33966
33818
33576
33700
34001
33897
33568
33898
34016
34033
33505
33950
34016
33799
33734
34030
33956
33804
33716
34098
33949
33902
33868
34004
34047
33673
34036
34250
34154
33968
34280
34357
33958
33879
34114
34208
33895
33920
34251
34115
33740
34053
34062
33948
33705
34116
33791
33739
33498
33777
33697
33307
33369
33513
33567
33097
33388
33490
33401
32914
33204
33568
33334
33095
33571
33415
33277
33077
33656
33476
33069
33322
33726
33364
33208
33534
33522
33519
33481
33699
33696
33486
33368
33749
33696
33729
33436
33843
33707
33440
33841
33760
33771
33463
33908
33908
33731
33452
34078
33865
33632
33539
34074
33853
33580
33912
33951
33895
33558
34044
34004
33798
33644
34002
34012
33728
33741
34085
34049
33630
33964
33984
33892
33704
34177
34111
33804
33475
34179
34158
33993
33794
34150
34124
33998
33899
34412
34073
33788
34125
34356
34075
33729
34303
34150
34208
34063
34250
34287
33872
33884
34312
34126
33604
33969
34028
33882
33467
33892
33814
33539
33363
33718
33609
33363
33225
33931
33402
32965
33401
33653
33473
33346
33512
33545
33419
33232
33497
33397
33262
33302
33542
33577
33192
33397
33756
33655
33232
33753
33523
33531
33388
33784
33816
33599
33659
33979
33860
33687
33608
33997
33835
33607
33832
33980
33804
33459
33949
34055
33725
33584
34007
33940
33773
33735
34247
33942
33503
34008
33969
33926
33621
34123
34211
33878
33720
34164
33983
33806
33670
34005
34040
33809
33905
34223
34034
33620
34173
34198
34072
33800
34191
34111
33999
33892
34379
34238
34061
34120
34303
34174
33946
34352
34330
34060
34045
34279
34367
34070
34009
34316
34228
33992
33926
34384
34104
33716
34168
34171
33881
33644
33974
33820
33655
33432
33677
33702
33473
33472
33880
33658
33220
33498
33662
33577
33140
33678
33738
33419
33377
33698
33730
33596
33445
33812
33736
33625
33545
33404
33764
33237
33865
34220
33700
33439
33872
33919
33567
33576
34059
33930
33583
33551
33944
33766
33543
33826
33903
33807
33562
33827
33880
33644
33613
34021
33893
33635
33632
33987
33806
33536
33900
34035
33832
33506
34035
33804
33741
33603
34011
34016
33687
33669
34002
34053
33661
33758
33921
33997
33543
33958
33947
33876
33678
34051
33926
33773
33792
34067
33960
33719
33796
34020
33981
33628
33975
34005
34000
33543
34160
33992
33833
33618
34009
33780
33470
33549
33901
33585
33181
33485
33640
33318
33066
33451
33364
33183
33088
33293
33289
32921
32989
33472
33245
32732
33284
33285
33297
32946
33337
33317
33104
32954
33388
33322
33122
33059
33351
33425
32995
33340
33493
33444
33105
33517
33596
33399
33083
33598
33511
33291
33181
33497
33549
33364
33231
33603
33465
33184
33469
33360
33412
33257
33532
33536
33165
33357
33355
33536
33254
33282
33671
33534
33120
33501
33722
33534
33177
33576
33588
33415
33313
33689
33681
33378
33309
33715
33588
33299
33657
33780
33781
33258
33751
33744
33498
33492
33899
33902
33578
33537
33974
33734
33626
33649
33974
33703
33334
33812
33795
33541
33198
33597
33448
33204
33092
33362
33279
32917
32855
33157
32944
32596
32988
33143
32869
32746
32961
32967
32652
32553
33065
32914
32534
32519
33037
32779
32518
32858
32927
32841
32590
32919
33183
32726
32915
33099
33063
32724
32743
33149
32867
32749
32954
32956
33020
32610
33084
33079
32939
32781
32920
33002
32942
32791
33208
33171
32923
32859
33232
33087
32754
33148
33208
33052
32913
33356
33315
33060
33078
33375
33268
32843
33131
33482
33374
32917
33309
33377
33358
33038
33435
33351
33170
33153
33478
33372
33234
33123
33528
33464
33123
33393
33509
33159
33113
33625
33660
33441
33284
33636
33627
33372
33329
33616
33606
33266
33334
33618
33435
32819
33293
33322
33157
32803
33122
33039
32874
32583
33000
32835
32601
32596
32891
32714
32517
32714
32917
32613
32362
32764
32727
32526
32368
32775
32762
32451
32502
32898
32642
32361
32593
32780
32569
32439
32749
32780
32650
32451
32905
32908
32722
32574
33061
32875
32580
32743
32984
33018
32525
32869
33058
32875
32640
33060
33077
32810
32777
33134
33016
32708
32822
33174
32901
32811
33034
33156
33041
32651
33238
33106
32986
32706
32870
33185
32938
33066
33420
33216
32863
33222
33274
33136
32872
33379
33372
33133
33087
33506
33375
33369
33170
33501
33445
33126
33392
33519
33415
33054
33565
33547
33384
33170
33645
33560
33419
33328
33682
33586
33155
33224
33479
33239
32963
33209
33109
32946
32696
33101
32997
32827
32640
32932
32802
32618
32746
32828
32879
32466
32755
33014
32866
32514
32867
32873
33010
32362
32944
32770
32714
32683
32981
32873
32555
32845
33212
32968
32502
33052
33087
32887
32781
33172
33083
32927
32916
33378
33281
32849
33024
33339
33291
32888
33237
33310
33196
33003
33467
33435
33443
33006
33486
33277
33162
33142
33401
33448
32947
33507
33403
33415
33094
33579
33382
33080
33198
33295
33506
33326
33363
33799
33466
33206
33595
33701
33614
33270
33783
33770
33564
33368
33887
33585
33540
33458
33734
33738
33392
33823
33833
33797
33485
33922
33765
33762
33456
33970
33843
33695
33522
33883
33957
33603
33486
33712
33805
33356
33697
33568
33401
33028
33514
33326
33026
33083
33403
33288
33019
33044
33190
33264
32760
33213
33319
33064
32881
33260
33304
33019
32964
33291
33281
32990
32961
33450
33359
32980
33251
33376
33359
33006
33419
33581
33285
33314
33754
33559
33329
33344
33665
33626
33272
33370
33629
33503
33080
33607
33730
33539
33276
33773
33688
33408
33459
33596
33721
33258
33346
33585
33556
33170
33671
33793
33619
33475
33773
33678
33520
33443
33795
33732
33571
33505
33963
33726
33315
33806
34034
33744
33446
33787
33833
33625
33481
33858
33719
33625
33543
34116
33870
33501
33726
33866
33808
33511
33855
33999
33682
33605
33934
33990
33557
33354
33915
33773
33338
33454
33658
33419
33081
33480
33215
33041
32810
33167
33028
32887
32796
32944
32837
32802
32636
32968
32861
32595
32974
32909
32903
32428
33077
33010
32759
32724
33079
33083
32602
32855
33382
33176
32649
33366
33151
33077
32977
33184
33096
33085
32856
33325
33224
33023
33257
33557
33250
32860
33177
33249
33363
32810
33248
33317
33111
32816
33350
33164
33168
33003
33408
33287
33095
33074
33159
33303
32971
33285
33117
33372
32916
33474
33419
33304
33198
33550
33576
33110
33262
33544
33490
33055
33375
33561
33408
33029
33588
33683
33323
33223
33427
33614
33379
33375
33802
33560
33384
33690
33860
33676
33267
33742
33757
33588
33313
33691
33615
33520
33351
33777
33580
33090
33151
33252
33120
32772
32823
33178
32766
32735
33028
32743
32773
32647
32632
32898
32798
32830
32735
32825
32438
32707
33186
32880
32424
32975
32861
32844
32632
33056
33020
32789
32831
33121
33133
32851
33067
33202
33158
32650
33197
33251
32913
32781
33213
33401
32975
32970
33438
33211
32949
33118
33508
33341
33054
33436
33341
33254
32920
33350
33303
33077
33015
33332
33284
33116
33133
33466
33471
33103
33227
33652
33272
33247
33420
33432
33319
33328
33490
33386
33172
33213
33602
33450
33120
33593
33630
33497
33165
33682
33699
33422
33486
33629
33571
33491
33342
33559
33485
33383
33752
33689
33715
33380
33433
33814
33372
33149
33547
33386
33131
32985
33207
33072
32702
32754
32978
32836
32509
33030
32983
32787
32495
32944
32998
32612
32467
32883
32962
32629
32543
33055
32727
32606
32733
32855
32925
32535
33038
33074
32874
32765
33122
33035
32881
32794
33162
33089
32726
33164
33277
33227
32780
33325
33176
33032
32930
33417
33295
32915
32953
33236
33335
33044
33082
33403
33273
32987
33295
33408
33320
33112
33462
33490
33508
33172
33584
33421
33118
33157
33460
33383
33016
33558
33647
33301
33097
33628
33475
33316
33155
33584
33507
33267
33248
33617
33627
33260
33525
33565
33576
33365
33375
33584
33469
33479
33380
33615
33558
33424
33763
33693
33436
33590
33712
33694
33252
33639
33185
33126
33117
33404
32929
33130
33297
33210
33135
32824
32847
33127
33043
32643
33095
33041
32932
32547
33028
32971
32812
32788
33093
32986
32667
32659
32970
32922
32509
33068
33024
33033
32689
33101
33164
32900
32860
33258
33140
32906
32905
33409
33174
32923
33204
33337
33197
32702
33263
33370
33044
32894
33270
33316
33050
32759
33391
33456
33058
33261
33405
33202
32943
33454
33390
33347
33095
33535
33576
33334
33236
33567
33653
33278
33317
33506
33555
33225
33595
33674
33574
33199
33655
33650
33498
33310
33802
33693
33488
33453
33680
33689
33461
33764
33813
33612
33388
33870
33699
33514
33431
33991
33900
33591
33513
33897
33898
33454
33619
33773
33701
33360
33690
33474
33295
33111
33478
33366
33056
32862
33204
33141
32958
32848
33304
33049
32655
33070
33256
32909
32810
33078
33142
32939
32768
33157
33509
32886
33188
33206
32996
33048
33125
33824
33181
33274
33396
33408
33192
33050
33507
33567
33187
33353
33790
33638
33507
33572
33898
33440
33424
33741
33540
33590
33359
33851
33842
33503
33380
33647
33758
33414
33483
33988
33615
33344
33856
33812
33772
33542
33995
33833
33639
33532
33844
33926
33619
33678
33920
33904
33517
33953
34048
33941
33669
34091
34050
33820
33593
33976
33916
33538
33700
34030
34099
33760
33908
34056
33917
33617
34125
33905
33850
33545
33730
34009
33793
33831
34043
33934
33488
33777
33856
33856
33597
33860
33840
33550
33163
33546
33536
33240
33286
33381
33592
33028
33160
33579
33238
32978
33234
33166
33111
32529
33414
33772
32881
33066
33129
33086
33222
33175
33506
33306
32977
33445
33501
33378
33620
33536
34026
33337
33097
33665
33609
33301
33358
33699
33626
33203
33526
33892
33535
33253
33632
33416
33326
33964
33395
33411
33737
33529
33933
34040
33642
33435
33711
33850
32978
33723
33904
33609
33569
33609
33661
33647
33656
34144
33663
33588
33603
33982
33792
33345
33915
33932
33692
33544
33973
33876
33659
33579
33984
33929
33836
33768
33932
33978
33560
33827
33971
33977
33745
34058
33877
33816
33759
33992
34195
33352
33979
34100
34151
33415
33581
34058
33615
33484
34000
33845
33760
33038
33329
33553
33312
33352
33609
33532
33135
33225
33452
33502
32789
33450
33302
33069
32809
33515
33599
33374
33315
33631
33651
33407
33308
33596
33401
33218
33656
33569
33559
33338
33784
33468
33545
33471
33783
33941
33786
33313
34091
33632
33616
33857
34069
33787
33277
33598
33701
33806
33448
33918
34040
33480
33361
33737
33813
33681
33652
33827
33924
33550
33870
34044
33883
33705
33999
33916
33759
33594
34058
34072
33831
33838
34071
33906
33636
33907
34058
33832
33741
34109
33869
33948
33796
34077
33937
33698
33892
34251
34013
33742
34003
34109
34074
33647
34160
34174
34016
33614
34203
34288
33925
33862
34086
34145
33793
33824
33983
33920
33765
33859
34006
33671
33459
33757
33790
33560
33570
33808
33821
33545
33481
33693
33650
33352
33606
33840
33735
33474
33795
33869
33710
33523
33912
33814
33663
33647
33984
33863
33341
33892
33987
33915
33625
34063
34123
33865
33711
33988
33902
33677
33774
34136
34056
33626
33767
34070
33992
33495
34007
34235
33994
33625
34087
34092
33879
33843
34114
34032
33738
33808
34108
34075
33768
34014
34126
34040
33761
34132
34175
33910
33774
34185
34192
33931
33792
34315
34029
33922
34100
34220
33990
33721
34225
34001
33935
33858
34212
34241
33779
33982
34158
34172
33964
34044
34197
34049
33674
34205
34212
33992
33923
34190
34101
33828
33680
34113
33988
33744
33654
33808
33812
33382
33717
33771
33602
33029
33690
33651
33413
33389
33645
33601
33352
33361
33659
33436
33190
33537
33522
33601
33235
33607
33644
33492
33313
33804
33715
33525
33547
33822
33810
33472
33851
33945
33775
33410
33954
33878
33669
33446
34102
33800
33693
33513
33887
33844
33592
33702
34089
33883
33530
33922
33931
33775
33527
33960
33876
33806
33592
34013
33955
33691
33575
33911
33900
33399
33942
33989
33779
33720
33984
33971
33844
33657
34066
34014
33669
33718
34186
34029
33691
33950
34138
33948
33748
34187
34031
33891
33757
34095
34117
34003
33845
34127
34291
33627
33885
34170
34083
33518
34145
33918
33800
33551
33916
33920
33640
33448
33776
33624
33401
33293
33556
33520
32926
33468
33362
33322
33073
33556
33304
33246
32977
33416
33437
33223
33204
33526
33350
32979
33376
33412
33387
32993
33538
33715
33469
33173
33618
33566
33368
33423
33753
33605
33429
33562
33796
33666
33291
33759
33706
33702
33539
33896
33810
33430
33479
33883
33793
33437
33554
33873
33837
33429
33901
33922
33811
33612
33996
33920
33651
33518
33831
33891
33433
33736
33868
33881
33546
33936
33820
33842
33614
33989
33843
33699
33779
34062
33954
33614
33563
34142
33977
33514
33880
33856
33935
33605
34114
34006
33822
33628
34041
34028
33779
33807
34218
33955
33720
33856
33902
33895
33425
33812
34006
33630
33405
33698
33563
33274
33251
33494
33391
33087
33104
33471
33208
32901
33190
33435
33179
32944
33341
33281
33174
32966
33341
33424
33158
33063
33448
33271
32884
33301
33330
33287
33153
33478
33396
33252
33213
33628
33492
33374
33210
33649
33592
33308
33409
33654
33612
33228
33653
33687
33411
33294
33786
33735
33495
33235
33944
33743
33463
33390
33664
33698
33364
33657
33836
33692
33397
33789
33784
33613
33568
33731
33734
33606
33577
33944
33859
33351
33732
34073
33717
33453
33867
33923
33681
33436
33941
33869
33751
33647
33940
33943
33707
33911
33888
33927
33486
33925
34108
33838
33568
33980
33945
33761
33727
33936
33993
33566
33672
33900
33748
33523
33719
33657
33438
33238
33549
33486
33168
33022
33443
33348
33143
33128
33210
33375
32833
33292
33342
33299
32882
33339
33268
33095
33052
33388
33347
33103
33117
33317
33264
32966
33250
33522
33367
33025
33557
33588
33117
33242
33560
33584
33336
33220
33741
33562
33119
33396
33639
33547
33162
33643
33542
33526
33320
33651
33690
33426
33256
33719
33717
33418
33416
33777
33601
33400
33699
33723
33655
33445
33832
33798
33669
33419
33959
33846
33436
33601
33919
33758
33404
33814
33769
33762
33526
33872
33704
33469
33485
33890
33907
33625
33636
33985
33863
33550
33787
33955
33888
33523
34138
34004
33845
33571
34043
34052
33691
33669
33927
33930
33629
33628
33903
33760
33325
33675
33651
33447
33398
33269
33599
33147
32931
33372
33128
33039
33020
33325
33299
32936
33215
33439
33302
32843
33350
33263
33113
32902
33400
33267
33054
33175
33411
33299
33075
33239
33404
33425
33148
33490
33510
33387
33074
33751
33496
33391
33322
33760
33519
33331
33372
33740
33410
33158
33610
33668
33500
33315
33746
33813
33450
33283
33846
33657
33306
33474
33863
33611
33339
33726
33770
33678
33465
33899
33739
33555
33383
33841
33849
33607
33415
33863
33766
33518
33862
33847
33845
33511
33906
33879
33593
33542
33860
34031
33654
33677
33872
33839
33624
33739
34020
33985
33501
33930
33874
33743
33549
33974
34012
33791
33584
33955
33895
33596
33603
33803
33734
33186
33566
33637
33350
33180
33463
33504
33108
33107
33566
33336
33109
33033
33550
33289
32858
33328
33374
33405
32428
33347
33394
33142
33176
33396
33459
33228
33322
33537
33468
33225
33390
33540
33458
33212
33594
33569
33423
33412
33681
33541
33412
33275
33642
33685
33438
33489
33691
33601
33297
33642
33819
33537
33369
33727
33671
33525
33508
33807
33886
33498
33437
34052
33742
33344
33751
33780
33662
33520
33864
34105
33613
33611
33898
33892
33489
33537
33995
33942
33565
33842
33728
33904
33593
33968
33957
33745
33486
33979
33837
33738
33726
34011
34001
33665
33742
34053
33923
33564
34070
34013
33864
33810
34125
34028
33714
33656
34196
33855
33579
33586
33750
33637
33183
33602
33599
33451
33155
33529
33503
33447
33175
33576
33400
33227
33215
33681
33462
33212
33488
33539
33386
33066
33594
33593
33447
33272
33653
33645
33463
33540
33741
33678
33397
33602
33793
33838
33477
33821
33731
33653
33512
33971
33828
33590
33623
33867
33905
33676
33581
33940
33766
33478
33885
33774
33883
33576
33873
33878
33592
33623
34017
33802
33734
33754
34068
33945
33569
33882
34025
33855
33617
33991
33972
33767
33564
34202
33995
33737
33726
34082
34029
33866
33966
34244
34062
33553
34060
34030
34028
33559
34185
34027
33917
33863
34162
34154
33621
33920
34188
34005
33649
34144
34126
33963
33686
34009
34080
33934
33662
34038
34004
33718
33624
33944
33875
33448
33725
33725
33583
33277
33804
33655
33388
33324
33649
33676
33293
33276
33791
33642
33240
33591
33627
33585
33271
33679
33614
33606
33373
33808
33716
33532
33593
33888
33753
33686
33626
33957
33762
33534
33957
33883
33968
33685
34108
34024
33767
33573
34143
34034
33792
33751
34146
34035
33780
33995
34167
33881
33694
34062
34001
33971
33815
34139
34168
33861
33874
34154
34154
33649
34154
34021
34043
33529
34186
34231
33877
33721
34158
34042
33967
33700
34182
34185
33775
33805
34173
34040
33645
34116
34243
34034
33835
33921
34240
34004
33818
34254
34258
33937
33956
34168
34143
33797
34120
34127
34080
33719
34126
34108
33810
33678
34226
33932
33631
33713
33894
33725
33469
33694
33668
33590
33274
33701
33832
33580
33212
33709
33684
33507
33275
33768
33649
33300
33457
33626
33499
32997
33605
33580
33593
33277
33763
33832
33560
33555
33963
33778
33479
33597
33807
33735
33392
33867
33925
33822
33589
33988
33866
33715
33603
34125
34007
33675
33679
33903
33918
33482
33843
34155
33961
33651
33990
34053
33830
33567
34170
34011
33543
33624
34216
33975
33743
34064
34156
33963
33690
34186
34166
33746
33731
34183
34154
33823
33913
34281
34132
33709
33863
34101
34111
33555
33950
34121
33881
33589
34160
34171
33880
33901
34198
34024
33729
33854
34212
33929
33599
33798
33840
33656
33219
33673
33574
33353
33149
33398
33262
33093
32904
33384
33027
32841
33250
33084
33162
32717
33131
33136
32971
32776
33138
33144
32812
32781
33164
32982
32884
32891
33149
33001
32820
33163
33184
33064
32932
33223
33186
33000
32965
33360
33331
33029
33082
33342
33218
32993
33215
33344
33294
33003
33396
33328
33124
33011
33509
33305
33088
33036
33583
33288
33016
33276
33371
33248
32976
33485
33393
33227
33041
33452
33351
33154
33322
33552
33399
33195
33263
33542
33346
33199
33602
33664
33489
33215
33601
33594
33380
33372
33653
33646
33366
33407
33646
33582
33342
33702
33800
33607
33475
33733
33795
33586
33434
33695
33702
33254
33349
33613
33377
32955
33348
33343
32957
32619
33059
33027
32737
32540
33065
32917
32602
32632
32906
32904
32538
32771
32928
32768
32411
32771
32902
32585
32425
32768
32618
32607
32359
33066
32780
32437
32586
32718
32862
32400
32756
32991
32606
32217
32758
32653
32709
32534
32865
32883
32508
32459
32941
32805
32569
32930
32996
32889
32585
33095
33028
32872
32722
33042
33021
32723
32852
33232
33033
32711
33147
33240
32975
32830
33195
33197
33002
32813
33340
33447
32954
32973
33182
33184
32978
33019
33315
33217
32913
33233
33355
33097
32992
33486
33391
33236
33119
33512
33377
32816
33414
33551
33493
33577
33446
33476
33527
33147
33669
33534
33330
33210
33538
33521
33279
32967
33446
33213
32875
33118
33208
33090
32748
32893
33106
33075
32642
33039
33162
32930
32932
33036
32919
32489
32814
33085
32996
32676
33008
32987
32802
32656
33085
33043
32997
32815
33089
33289
32833
32926
33366
33267
32924
33155
33277
33211
33075
33419
33293
33190
32982
33468
33452
33099
33156
33533
33371
32952
33470
33541
33302
33171
33451
33641
33283
33296
33604
33737
33310
33109
33650
33482
33131
33508
33732
33576
33306
33582
33605
33561
33166
33631
33616
33491
33454
33669
33749
33486
33394
33730
33520
33369
33724
33725
33576
33360
33945
33830
33564
33446
33841
33825
33569
33502
34134
33842
33384
33739
33842
33669
33529
33729
33793
33538
33468
33677
33666
33289
33201
33823
33401
32984
33100
33262
33181
32825
33209
33215
32868
32640
33132
33130
32849
32683
33215
33193
32761
32961
33108
33157
32712
33254
33148
33032
32819
33377
33164
33049
33126
33378
33223
33079
33079
33274
33335
32899
33326
33426
33188
33002
33505
33292
33259
33144
33535
33335
33160
33257
33475
33285
32975
33533
33517
33313
33129
33477
33492
33356
33157
33539
33420
33291
33183
33801
33511
33286
33388
33629
33595
33314
33782
33749
33488
33456
33878
33812
33580
33370
33776
33709
33525
33439
33719
33742
33321
33683
33806
33837
33434
33913
33895
33689
33507
34000
33786
33697
33518
34199
33838
33497
33824
34013
33701
33238
33793
33663
33431
33072
33617
33369
33058
33208
33315
33246
32976
33076
33195
33152
32716
33383
33259
33189
32987
33297
33430
33040
33062
33385
33287
33023
33072
33362
33372
32891
33269
33398
33255
33087
33477
33358
33211
33168
33524
33536
33128
33241
33693
33405
33050
33666
33706
33493
33246
33667
33842
33401
33354
33563
33668
33433
33425
33740
33674
33254
33601
33810
33589
33394
33783
33725
33556
33375
33889
33775
33603
33680
33925
33957
33463
33805
33840
33756
33502
33966
33869
33707
33453
33880
33867
33645
33382
33872
33816
33655
33578
33915
33783
33507
33861
33974
33806
33567
34046
33836
33671
33672
33955
33960
33431
33583
33932
33786
33488
33661
33846
33594
33281
33501
33531
33328
33082
33395
33274
33107
33026
33349
33412
33011
33120
33290
33286
32980
33226
33180
33163
33017
33253
33308
33103
32710
33293
33283
32861
33059
33327
33242
32757
33303
33387
33270
33038
33350
33539
33193
33195
33463
33475
33198
33174
33529
33341
33003
33389
33485
33360
33020
33512
33493
33330
32935
33566
33504
33338
33310
33461
33505
33286
33508
33452
33550
33084
33623
33589
33514
33337
33734
33637
33500
33433
33706
33535
33375
33351
33812
33635
33395
33698
33708
33622
33379
33790
33793
33517
33317
33819
33766
33458
33511
33897
33831
33434
33693
33675
33745
33303
33811
33806
33600
33398
33759
33630
33439
33209
33624
33494
32894
33208
33291
33368
32760
33241
33182
33118
32919
33236
33270
32931
32903
33341
33298
33026
33082
33359
33360
32945
33383
33430
33276
33007
33639
33494
33297
33085
33585
33488
33309
33459
33657
33503
33449
33623
33688
33572
33261
33702
33591
33553
33415
33880
33831
33565
33452
33779
33741
33408
33616
33820
33753
33423
34025
33844
33688
33409
34046
33903
33376
33667
33971
33860
33577
33624
34035
33838
33446
33810
33911
33830
33588
33936
33949
33700
33643
34002
34031
33646
33820
34025
33915
33458
34089
34029
34036
33696
34125
34181
33898
33802
34215
34180
34006
33912
34193
34274
33816
34066
34135
34100
33758
34215
34317
33927
33835
34211
34249
33712
33761
34113
34011
33722
33777
33978
33848
33458
33883
33902
33783
33429
33884
33787
33793
33597
33985
33784
33572
33592
33996
33816
33545
33905
34157
33873
33621
33967
34070
33762
33573
34069
34009
33782
33736
34114
34106
33739
33926
34123
34095
33818
34123
34063
33933
33653
34254
34090
33892
33790
34104
34135
33856
33944
34266
34075
33709
34179
34177
34007
33771
34236
34064
33991
33759
34252
34298
33958
33851
34214
34153
33759
34160
34119
34067
33794
34260
34205
34080
33855
34309
34251
33922
34021
34375
34230
34067
34261
34385
34264
33768
34388
34336
34063
33678
34321
34324
33988
33902
34404
34321
33890
34086
34280
34172
33974
34246
34172
34024
33856
34221
34088
34018
33810
34199
34085
33736
33768
34137
33936
33663
34050
33982
33902
33626
34095
34103
33892
33781
34200
34144
33924
33946
34397
34099
33765
34142
34243
34009
33789
34288
34181
33929
33948
34249
34228
33911
33891
34178
34115
33682
34068
34229
34098
33689
34213
34117
34039
33772
34150
34291
34091
34003
34302
34169
33840
33964
34208
34198
33823
34242
34223
34190
33909
34288
34240
34019
34082
34286
34239
33799
33974
34308
34209
33743
34229
34353
34152
33905
34264
34202
34070
33903
34075
34275
34022
33846
34345
34216
33995
34087
34218
34150
33686
34242
34276
34026
33962
34202
34137
33871
33874
34323
33981
33576
33704
33754
33801
33446
33901
33868
33700
33397
33907
33763
33562
33487
33738
33803
33555
33447
34020
33769
33408
33710
34302
33760
33744
33912
33772
33774
33506
33996
33806
33708
33655
34024
33882
33564
33918
34127
33906
33703
34025
34021
33858
33474
34116
33916
33763
33787
34099
34076
33892
33750
34338
34061
33593
33974
34080
34025
33708
34130
34100
33880
33763
34157
34003
33720
33707
34264
33989
33800
34143
33975
33912
33797
34267
34133
33941
33736
34171
34191
33786
33844
34320
34087
33732
34131
34042
34131
33656
34139
34328
33948
33736
34215
34531
33979
33904
34267
34197
33784
33868
34179
33890
33472
34088
33858
33834
33473
33798
33630
33380
33398
33657
33629
33442
33241
33568
33489
33223
33537
33348
33440
33204
33592
33677
33315
33253
33476
33582
33305
33379
33589
33641
33122
33746
33855
33730
33195
33783
33824
33699
33366
33864
33818
33671
33541
33897
33855
33461
33656
33943
33795
33396
33898
33943
33687
33517
33976
33722
33671
33660
34002
34046
33646
33719
33812
33932
33666
33959
33991
33787
33654
33929
33952
33641
33588
33996
33994
33745
33682
33992
34080
33592
33860
33966
33952
33747
34134
34066
33878
33784
33958
34113
33963
33826
34147
34003
33761
33852
34245
34072
33590
34069
34124
33815
33631
34105
33866
33675
33446
33953
33803
33438
33374
33579
33515
33017
33400
33465
33371
33039
33406
33459
33194
33088
33474
33334
33094
33081
33316
33248
32974
33426
33315
33382
32955
33335
33462
33316
33050
33524
33363
33203
33365
33499
33400
33202
33457
33596
33553
33045
33631
33594
33444
33215
33704
33522
33391
33393
33688
33733
33326
33428
33796
33649
33388
33717
33631
33549
33418
33778
33725
33469
33504
33746
33764
33600
33493
33935
33729
33419
33858
33989
33862
33366
33912
33908
33761
33613
34005
33931
33811
33637
34059
33912
33535
33774
34033
33759
33558
33949
33942
33822
33763
33951
33884
33772
33824
34024
34003
33640
33656
34081
33876
33557
33860
33832
33761
33316
33797
33571
33257
33015
33429
33362
33102
32950
33421
33255
32852
33161
33155
33142
32826
33194
33251
32973
32783
33214
33037
32986
33025
33415
33262
32950
33302
33367
33249
32791
33457
33343
33251
33077
33547
33592
33241
33267
33658
33484
33183
33332
33713
33450
33199
33612
33673
33579
33113
33714
33565
33441
33335
33766
33708
33434
33509
33805
33707
33312
33673
33827
33642
33329
33844
33581
33556
33472
34029
33854
33562
33603
33981
33840
33534
33790
33951
33752
33520
33821
33983
33686
33641
33938
34090
33725
33631
34016
33928
33578
33666
33965
33807
33571
33892
33974
33802
33480
33988
34006
33811
33666
34011
33998
33646
33592
33896
33820
33365
33662
33728
33535
33125
33506
33568
33126
33081
33366
33276
33025
33037
33389
33330
32920
33249
33239
33150
32754
33213
33351
33081
32903
33304
33196
32886
32894
33404
33191
32742
33133
33472
33185
33062
33399
33410
33215
33064
33470
33561
33239
33131
33601
33427
33141
33295
33762
33500
33148
33484
33615
33326
33148
33604
33697
33358
33273
33708
33614
33254
33432
33663
33595
33141
33561
33677
33503
33036
33706
33685
33595
33369
33812
33673
33446
33477
33743
33756
33382
33499
33692
33730
33296
33738
33883
33712
33345
33857
33678
33614
33524
33961
33866
33612
33566
34009
33807
33472
33851
33906
33881
33364
33867
33886
33594
33443
33897
33708
33413
33391
33659
33474
33190
33508
33468
33304
32896
33409
33200
33032
32949
33287
33234
32907
32912
33221
33256
32800
32988
33264
33112
32785
33269
33278
32997
32845
33280
33295
33007
32913
33383
33299
33119
33129
33571
33391
33077
33371
33460
33347
33186
33560
33508
33268
33196
33595
33498
33208
33290
33607
33521
33066
33538
33734
33510
33126
33645
33526
33426
33172
33712
33664
33448
33515
33749
33712
33408
33421
33663
33633
33276
33791
33676
33541
33448
33856
33863
33645
33522
33904
33890
33484
33528
33789
33916
33525
34010
33986
33690
33436
33907
34076
33756
33667
34010
33909
33746
33836
34175
34059
33508
33989
34045
33837
33649
34045
34059
33804
33668
33970
33872
33596
33524
33720
33741
33333
33556
33696
33507
33035
33495
33600
33254
33181
33465
33441
33203
33181
33520
33314
33285
33247
33470
33452
33208
33282
33437
33432
33243
33648
33687
33322
33317
33776
33665
33415
33546
33723
33565
33427
33764
33805
33581
33321
33804
33810
33696
33500
33895
33798
33521
33673
33994
33815
33655
33667
34017
33882
33451
34018
34082
33770
33587
33991
34013
33746
33764
34076
34065
33694
33872
34058
33984
33593
33970
34083
33824
33609
34089
34101
33910
33645
34131
34068
33840
33721
34216
34034
33584
33969
34080
33973
33741
34201
34128
33944
33737
34065
34183
33889
33905
34205
34056
33768
34023
34156
34090
33720
34116
34107
33960
33743
33999
33980
33678
33666
33926
33798
33314
33360
33858
33731
33357
33688
33745
33532
33320
33640
33718
33431
33309
33777
33513
33311
33433
33898
33668
33303
33636
33714
33598
33257
33774
33788
33653
33501
33936
33772
33557
33627
33876
33851
33527
33717
33863
33826
33546
34025
33922
33743
33483
34024
33892
33594
33584
33954
33951
33714
33716
33835
33905
33454
33938
33941
33918
33645
34022
34021
33751
33627
33935
34019
33762
33764
34063
33984
33673
33842
34013
33916
33525
34079
34084
33693
33593
34010
34025
33906
33783
34087
33970
33771
33882
34105
34025
33764
34202
34016
33961
33706
34104
33886
33910
33915
34163
34075
33777
33678
34052
33988
33555
33958
33973
33699
33394
33826
33710
33489
33332
33663
33489
33227
33159
33678
33386
32989
33349
33323
33417
32954
33326
33473
33147
33167
33367
33354
33164
33131
33342
33320
33059
33363
33420
33437
33102
33447
33553
33363
33178
33570
33534
33364
33344
33719
33600
33178
33314
33792
33540
33271
33744
33895
33653
33332
33888
33642
33484
33329
33803
33813
33541
33551
33974
33721
33309
33801
33842
33784
33534
33726
33799
33557
33611
33892
33866
33658
33594
33965
33804
33383
33491
33742
33737
33387
33926
33925
33737
33482
33987
33970
33699
33590
33948
33837
33718
33739
33970
33952
33513
33906
33953
33929
33677
33963
33848
33752
33662
34043
34052
33499
33722
34071
33812
33563
33667
33702
33579
33337
33604
33623
33283
33183
33459
33395
33181
33316
33581
33486
32868
33235
33275
33268
32807
33289
33435
33118
32876
33469
33346
33092
33043
33518
33381
32967
33074
33497
33285
33071
33330
33510
33316
33152
33527
33492
33241
33347
33698
33665
33124
33319
33787
33495
33198
33529
33681
33619
33322
33696
33478
33467
33293
33626
33772
33423
33452
33618
33713
33346
33373
33673
33729
33326
33806
33756
33670
33300
33835
33831
33471
33547
33862
33806
33457
33490
33933
33779
33402
33886
33784
33658
33405
33896
33893
33650
33697
34003
33670
33760
33578
34078
33890
33503
33857
34159
33817
33422
33850
33894
33760
33580
34005
33817
33615
33568
34000
33802
33382
33523
33932
33516
33219
33683
33558
33275
33029
33542
33436
33215
33058
33564
33308
32575
33189
33663
33378
33119
33399
33555
33233
33068
33431
33446
33259
33287
33585
33639
33300
33290
33678
33495
33268
33724
33687
33598
33371
33860
33752
33726
33388
33804
33893
33493
33501
33913
33859
33614
33794
33827
33929
33602
33977
34058
33719
33573
33990
33854
33759
33767
34069
34015
33704
33767
34114
33977
33528
34003
34080
33929
33738
34137
34032
33872
33837
34164
34100
33792
33825
34164
34139
33733
33982
34276
34014
33774
34167
34073
33941
33866
34190
34154
34070
34025
34345
34210
33892
34089
34355
34102
33685
34225
34224
33986
33784
34161
34178
33872
33949
34201
33998
33754
33813
34088
33894
33541
33914
33952
33729
33359
33857
33736
33597
33370
33906
33815
33492
33396
33820
33655
33351
33715
33590
33750
33475
33850
33645
33554
33456
33818
33773
33600
33586
33893
33850
33678
33808
34043
33852
33635
33892
33963
33681
33703
34237
33994
33756
33800
34022
34077
33632
33635
34094
34021
33623
34061
33966
33876
33701
34055
33909
33855
33742
34134
34022
33888
33867
34127
34157
33608
34145
34059
33897
33777
34198
34047
33858
33705
34149
34227
33801
33941
34264
34049
33838
34171
34304
34129
33838
34247
34212
33958
33878
34314
34005
33926
33923
34326
34156
33790
33984
34430
34080
33748
34181
34216
33926
33932
34217
34201
33979
34007
34146
33925
33671
33688
33909
33827
33331
33591
33750
33562
33203
33588
33703
33382
33360
33688
33442
33303
33193
33713
33593
33206
33534
33630
33560
33263
33603
33673
33467
33457
33807
33625
33449
33507
33779
33725
33458
33522
33969
33855
33491
34000
33647
33758
33371
33901
33909
33732
33676
34072
33953
33839
33756
34030
33844
33609
34024
33877
33886
33651
33935
33986
33614
33535
34070
34141
33734
33726
34086
33940
33597
34025
34253
33882
33667
34112
34214
33887
33824
34121
34027
33788
33842
34299
34071
33673
33951
34287
34005
33950
34080
34172
33900
33731
34118
34045
33871
33852
34195
34061
33811
33908
34381
33934
33650
34129
34218
34120
33613
34148
33982
33731
33603
33858
33752
33436
33413
33667
33670
33272
33415
33536
33333
33003
33490
33430
33362
33310
33531
33383
33327
33202
33468
33529
33097
33277
33490
33321
33083
33456
33438
33328
33227
33615
33529
33318
33314
33697
33675
33320
33454
33908
33738
33245
33719
33592
33624
33409
33808
33762
33449
33470
33877
33807
33608
33585
33910
33884
33505
33798
33617
33766
33811
33825
33956
33679
33511
33960
33879
33622
33660
34038
33898
33601
33731
33963
33776
33415
33991
33816
33775
33676
34153
34077
33810
33533
34086
34174
33728
33691
34124
33977
33823
33895
34192
34112
33794
34198
34127
33933
33801
34258
34135
33866
33903
34271
34221
33793
33983
34217
34017
33598
33967
33958
33691
33432
33807
33732
33414
33422
33607
33530
33196
33277
33528
33381
33071
33493
33505
33293
33146
33512
33552
33195
33196
33642
33441
33240
33319
33644
33443
33195
33553
33592
33652
33171
33687
33789
33495
33372
33731
33761
33444
33461
33796
33811
33218
33718
33659
33769
33177
33800
33977
33560
33386
33898
33727
33488
33536
33822
33792
33436
33630
33754
33855
33500
34036
34099
33851
33667
33967
34019
33718
33675
33952
34003
33714
33779
34153
33947
33501
34033
33966
34110
33686
34054
34088
33832
33773
34483
34116
33848
34069
33983
34045
33746
34313
34252
34187
34123
34382
34337
34133
33841
34331
34253
33888
34017
34307
34186
33821
33982
34204
34050
33405
34066
34087
33826
33376
33858
33867
33562
33402
33756
33725
33320
33473
33762
33665
33306
33676
33756
33612
33263
33707
33780
33385
33295
33710
33669
33228
33437
33857
33659
33388
33708
33695
33587
33394
33764
33676
33646
33437
33955
33793
33487
33527
33963
33782
33601
33629
33873
33917
33506
33877
33686
33655
33430
33888
33767
33572
33551
33942
33754
33437
33576
33908
33848
33360
33825
33937
33721
33492
34043
33980
33754
33590
33951
33855
33688
33635
33993
33856
33444
33934
33895
33819
33585
34005
33854
33693
33642
33990
33926
33741
33676
34080
33969
33540
33878
33948
33933
33490
33973
34049
33865
33657
34033
33912
33898
33606
34017
33899
33585
33531
33788
33761
33389
33735
33569
33458
33359
33533
33512
33351
33189
33557
33443
33226
33254
33371
33312
32956
33500
33494
33310
32710
33456
33387
33315
33021
33534
33577
33310
33467
33550
33587
33269
33536
33781
33593
33261
33646
33875
33433
33401
33908
33743
33522
33404
33811
33719
33405
33577
33755
33729
33296
33824
33915
33694
33481
33853
33885
33630
33528
33890
33864
33509
33681
33944
33698
33409
33854
34029
33917
33428
33786
33815
33620
33624
33989
33932
33650
33752
33836
33768
33551
33682
33864
33855
33606
33942
33827
33672
33647
34057
33905
33749
33583
34024
34020
33667
33766
34069
33961
33683
34068
34234
33905
33853
34110
33987
33902
33742
34119
33870
33682
33699
33868
33810
33337
33767
33720
33614
33183
33656
33536
33340
33306
33661
33674
33409
33262
33666
33410
33147
33350
33722
33656
33090
33697
33578
33387
33261
33713
33571
33470
33467
33889
33751
33415
33857
33734
33708
33649
33865
33658
33708
33584
34075
33946
33684
33497
33966
33933
33606
33682
33910
33938
33600
33987
33966
33878
33429
33986
34055
33688
33617
33939
33805
33739
33721
34016
33983
33777
33854
34112
33977
33734
33989
34136
33914
33796
34087
33990
33732
33845
34137
33969
33777
33839
34118
33989
33593
34068
34172
34003
33755
34142
34002
33901
33970
34096
34210
34029
33933
34310
34158
33887
34273
34290
34149
33835
34318
34150
34064
33707
34178
34196
34006
33941
34570
33928
33722
33814
33926
33941
33604
34069
34196
33494
33263
33739
34083
33603
33704
33978
33847
33751
33646
33969
33768
33378
34068
33989
33853
33723
34025
33982
33781
34015
34095
34008
33759
33793
34138
34005
33810
34106
34113
33867
33887
34072
34179
33909
33642
34067
33998
33975
33754
34116
34048
33695
33891
34109
33986
33573
34049
34062
33930
33733
34215
34016
33761
33794
34079
33982
33664
33840
34169
34065
33626
34100
33991
33900
33875
34080
34033
33863
33928
34141
34049
33824
33874
34253
34253
34065
34242
34456
33854
33657
34158
34341
33940
33760
34230
34207
33908
33853
34216
34137
33814
34122
34284
33983
33749
34149
34177
34032
33821
34127
34130
33779
33719
34031
33791
33529
33690
33699
33786
33457
33704
33660
33517
33310
33725
33641
33420
33366
33738
33576
33363
33462
33804
33647
33224
33624
33720
33730
33333
33889
33725
33578
33605
33889
33748
33595
33634
33910
33833
33531
33746
33862
33806
33452
33920
33872
33784
33663
33909
33969
33649
33749
33988
33839
33621
33723
34143
33803
33658
33988
33992
33804
33742
34074
33981
33738
33581
34199
33987
33621
33853
34035
33928
33654
34065
33615
33995
33723
34033
34118
33853
33834
34122
34078
33854
33719
34186
34008
33766
33951
34040
34028
33672
34124
34071
33953
33639
34297
34114
33903
33846
34307
34342
33956
33994
34211
34110
33703
34211
34065
34000
33828
34096
34063
33635
33585
34057
33945
33713
33617
33963
33752
33511
33787
33663
33667
33348
33723
33875
33576
33636
33884
33743
33574
33612
33772
33769
33547
33641
33790
33831
33463
33944
34077
33828
33742
34102
34058
33760
33720
34077
34021
33715
33842
34282
34132
33673
34138
34011
33876
33691
34066
34195
33825
33973
34300
34075
33847
33808
34021
34095
33769
34179
34132
34000
33684
34091
34081
33928
33788
34152
34211
33882
33734
34251
34092
33783
33873
34085
34120
33840
34222
34332
34120
33821
34136
34279
34000
33965
34233
34229
33767
33923
34223
34263
34119
34251
34136
34029
33837
34306
34179
33982
33881
34219
34240
33844
33855
34066
34132
33658
34061
34128
33742
33644
33933
33757
33701
33377
33836
33641
33367
33440
33663
33627
33332
33437
33715
33471
33223
33561
33603
33363
33311
33593
33478
33295
33346
33719
33625
33327
33413
33983
33667
33431
33903
33832
33728
33618
33955
33877
33781
33727
33954
33927
33827
33660
33902
34022
33638
33870
34163
34050
33819
34109
34098
33768
33770
34129
34131
33816
33798
34170
34018
33748
33989
34113
34080
33814
34177
34116
34023
33766
34148
34313
33954
33935
34518
34215
33828
33966
34323
34145
33883
34367
34251
34183
33941
34328
34332
34067
33979
34405
34395
34130
34075
34322
34239
33943
34301
34408
34337
33908
34360
34309
34233
33957
34299
34430
34193
34017
34243
34348
33817
34013
34242
33998
33638
33940
33934
33680
33634
33902
33760
33581
33714
33795
33726
33424
33608
33801
33665
33280
33638
33704
33558
33367
33453
33756
33652
33467
33769
33709
33588
33551
33799
33772
33521
33887
33936
33840
33468
33971
33915
33761
33580
33968
33937
33952
33750
34155
33926
33706
33834
33975
34002
33444
33929
34059
33858
33708
34055
34040
33921
33784
34156
34120
33825
33858
34284
34146
33573
34251
33878
34161
33754
34200
34242
34067
33891
34275
34176
34007
33944
34489
34271
33847
34092
34335
34157
33875
34253
34165
34162
33873
34191
34170
33971
33943
34255
34123
33907
33995
34155
34099
33708
33987
34156
33988
33827
34041
34025
33921
33737
34054
33928
33547
33602
33835
33716
33364
33644
33648
33580
33344
33703
33805
33460
33340
33748
33665
33477
33364
33681
33765
33425
33721
33772
33626
33337
33769
33867
33724
33503
33843
33780
33592
33752
33983
33905
33703
33824
34016
33958
33561
33951
34150
33906
33740
34087
34078
33937
33706
34082
33980
33953
33985
34236
34187
33779
34205
34025
33981
33856
34197
34155
34031
33803
34261
34252
34010
33915
34288
34314
33859
34182
34167
34183
33880
34381
34331
34162
33971
34491
34267
34045
33963
34395
34340
34026
34062
34378
34238
33833
34479
34287
34310
34054
34415
34277
34169
34015
34426
34540
34081
34131
34445
34339
33786
34196
34261
34109
33768
34132
34211
33744
33500
33963
33917
33633
33735
33953
33873
33488
33682
33869
33644
33309
33548
33771
33446
33367
33691
33602
33432
33368
33705
33637
33445
33516
33720
33553
33383
33697
33716
33586
33446
33586
33695
33578
33370
33722
33701
33601
33484
33997
33794
33337
33648
33969
33611
33349
33781
33727
33627
33549
33824
33847
33672
33551
33750
34009
33620
33784
33960
33810
33651
34227
33951
33820
33818
34044
33954
33829
33747
34057
33866
33820
33864
34234
33991
33558
34157
34048
33923
33700
34010
34092
33796
33754
33938
34038
33956
33808
34061
34121
33883
34039
34312
34156
33730
34100
34131
33898
33718
34081
33922
33650
33644
33963
33771
33271
33570
33552
33505
33204
33625
33508
33207
33013
33386
33427
33224
33167
33373
33398
33028
33052
33419
33176
33071
33389
33390
33269
33176
33490
33461
33316
33105
33456
33442
33223
33197
33645
33491
33197
33510
33626
33557
33205
33704
33641
33500
33446
33622
33679
33504
33446
33904
33822
33279
33516
33634
33708
33138
33739
33810
33705
33393
33825
33800
33670
33399
33785
33655
33498
33496
33954
33936
33401
33886
33878
33814
33618
33794
33946
33747
33594
33961
33966
33739
33673
33954
34064
33622
34113
33938
34074
33479
34085
34045
33880
33686
34140
33902
33687
33775
34122
34054
33777
33896
33966
33844
33386
33864
33814
33445
33336
33622
33812
33268
33165
33502
33384
32971
33200
33493
33161
33075
33357
33392
33239
32938
33365
33418
33116
33162
33435
33211
33015
33033
33431
33244
33025
33355
33542
33362
33032
33543
33653
33486
33134
33565
33573
33337
33330
33722
33646
33234
33665
33691
33579
33482
33756
33759
33568
33315
33792
33867
33567
33666
33905
33825
33569
33584
33993
33789
33507
33935
33789
33828
33607
33869
34054
33620
33704
33957
34011
33878
33866
33984
33864
33485
34046
34130
33925
33685
34061
33932
33796
33733
34103
34137
33900
33723
34207
34050
33850
33908
34251
34068
33567
34199
34159
33919
33757
34167
34061
33848
33828
33991
34045
33746
33657
33965
33818
33161
33679
33704
33459
33163
33695
33644
33342
33310
33529
33527
33261
33291
33568
33296
33083
33555
33366
33373
33274
33522
33660
33424
33263
33564
33579
33411
33365
33727
33653
33286
33474
33707
33767
33216
33712
34001
33569
33449
33887
33816
33704
33602
33906
33705
33477
33549
34096
33815
33339
33776
33830
33729
33615
33932
34224
33595
33672
34020
34051
33643
33692
33980
33948
33725
33948
33936
33974
33735
34165
34211
33896
33812
34009
34125
33823
33679
34261
34127
33863
34039
33960
34036
33819
34092
34035
33913
33967
34273
34135
34004
33971
34206
34187
33851
33907
34120
34121
33835
34170
34101
33946
33738
34146
33972
33725
33557
33974
33923
33587
33585
34016
33764
33393
33667
33837
33732
33189
33665
33660
33633
33597
33830
33710
33541
33573
33901
33916
33585
33663
33935
33899
33524
34060
33750
33957
33564
34026
34061
33836
33660
34127
34034
33694
33795
34144
33976
33587
34118
34188
34034
33785
34140
34078
33839
33910
34147
34024
33770
33828
34389
34054
33747
34160
34205
34164
33756
34223
34151
34177
33781
34349
34214
34043
34033
34328
34197
33979
34031
34255
34184
33881
34254
34469
34073
33866
34232
34275
33996
33968
34320
34251
33942
34182
34494
34379
34018
34234
34470
34205
33835
34421
34473
34220
33989
34376
34246
33997
34039
34460
34399
33817
34212
34138
34114
33738
33983
34079
33833
33674
34011
34112
33723
33750
33976
33982
33682
33603
33986
33933
33631
33981
33864
33829
33655
34233
33923
33949
33765
34245
34108
33841
33835
34106
34119
33649
34220
34216
34112
33907
34354
34156
34069
33893
34363
34283
34178
34135
34399
34420
34118
34165
34439
34271
34173
34296
34436
34304
33987
34576
34417
34132
34186
34472
34436
34143
34361
34546
34378
34148
34523
34489
34310
34054
34556
34411
34353
34196
34528
34534
34289
34361
34591
34495
34130
34450
34578
34469
34079
34563
34799
34285
34214
34568
34530
34245
34195
34720
34502
34224
34350
34624
34446
34172
34477
34469
34267
34021
34396
34363
34170
34071
34312
34177
33908
33953
34193
34014
33839
34044
34023
33878
33910
34089
33561
33907
33834
34081
34024
33816
33831
34099
34059
33681
34060
34215
34173
33786
34173
34297
33748
33797
34294
34163
33984
33940
34443
34132
33833
33958
34221
34290
33983
34292
34170
34191
33914
34436
34172
34032
33965
34425
34350
34004
34097
34479
34168
33818
34342
34251
34148
33905
34351
34304
34034
34021
34439
34228
34080
34115
34561
34278
33872
34378
34386
34355
34056
34498
34569
34296
33753
34478
34325
34070
34150
34530
34395
34070
34215
34507
34381
33963
34436
34443
34299
33900
34450
34392
34259
33996
34349
34383
33921
33927
34356
34106
33635
34035
33998
33756
33567
33960
33807
33619
33516
33847
33756
33256
33394
33796
33626
33425
33623
33759
33641
33322
33731
33828
33600
33433
33852
33774
33604
33568
33821
33751
33432
33830
34075
33995
33551
34014
33948
33940
33555
34021
34007
33763
33665
34055
34031
33886
33790
34113
33931
33645
34065
33916
33938
33759
34124
34063
33903
33806
34114
34081
33734
33971
34038
34171
33689
34106
34164
33993
33797
34284
34334
33994
33915
34075
34019
34113
33963
34423
34204
33947
34036
34151
34205
33891
34383
34234
34083
34107
34394
34268
34055
34075
34420
34231
33920
34076
34240
34132
33788
34103
34263
33921
33755
33928
33980
33569
33597
33667
33627
33320
33423
33656
33475
33211
33537
33569
33424
33154
33604
33446
33261
33023
33570
33453
33195
33181
33608
33493
33173
33357
33628
33550
33194
33708
33737
33379
33362
33798
33539
33529
33591
33860
33873
33511
33692
33983
33737
33381
33942
33873
33797
33609
33959
33916
33751
33596
34002
34089
33905
33827
34014
33935
33744
34117
34032
34021
33626
34211
34337
33947
33777
34204
34128
33887
33937
34239
34071
33953
33965
34375
34270
33797
34257
34252
34219
34002
34278
34192
34126
33984
34263
34211
34040
34126
34441
34267
33866
34131
34215
34141
33998
34273
34290
34073
33919
34165
34109
33617
33630
34023
33883
33454
33756
33753
33706
33252
33650
33537
33382
33104
33551
33503
33198
33348
33661
33533
33110
33277
33536
33431
33063
33605
33546
33363
33223
33559
33600
33426
33293
33639
33525
33326
33516
33737
33725
33263
33771
33670
33753
33215
33850
33750
33538
33496
33899
33788
33546
33638
34079
33863
33569
33989
33998
33913
33473
33982
33883
33765
33746
33954
33942
33864
33864
34077
33950
33796
33885
34138
33946
33849
34017
34094
33879
33918
34227
34245
34044
33867
34188
34155
33785
33948
34341
34113
33754
34133
34195
34137
33848
34295
34254
34131
34059
34306
34305
34045
34045
34510
34178
33823
34154
34221
34080
33685
34076
33951
33793
33563
33935
33741
33562
33299
33878
33641
33387
33417
33680
33497
33207
33640
33597
33427
33309
33624
33578
33407
33332
33708
33622
33333
33404
33709
33644
33340
33643
33764
33695
33611
33859
33748
33543
33533
33974
33860
33519
33622
34127
33894
33651
34002
33997
33965
33704
34070
34036
33900
33673
34072
34069
33835
33854
34253
34066
33987
33890
34185
34050
33795
34140
34231
34122
33970
34288
34278
34004
33990
34275
34212
33965
34001
34273
34295
33739
34290
34328
34234
33880
34358
34206
34125
33907
34379
34325
34085
34188
34392
34340
33980
34312
34397
34279
34107
34348
34381
34138
33902
34268
34235
34009
33957
34183
34085
33605
33808
33851
33783
33598
33783
33694
33531
33330
33796
33852
33490
33297
33747
33668
33475
33474
33875
33589
33256
33715
33703
33536
33267
33769
33805
33592
33486
33894
33937
33658
33570
33958
33886
33678
33907
34234
33908
33767
34150
34295
33898
33872
34176
34093
33888
33799
34164
34062
33597
33854
34153
34016
33564
34081
34146
33965
33634
34115
34142
33925
33751
34172
34033
33929
33812
34252
34124
33696
34088
34350
34140
33704
34175
34216
33963
33936
34236
34305
34025
33896
34267
34087
33826
34241
34258
34143
33819
34221
34223
33877
33822
34283
34182
33967
33959
34198
34015
33760
33907
34222
33858
33565
33872
33789
33655
33563
33692
33637
33415
33181
33551
33496
33402
33291
33646
33559
33092
33449
33512
33405
33196
33649
33580
33317
33304
33604
33632
33362
33376
33830
33575
33383
33827
33794
33675
33450
33888
33777
33812
33617
33948
33896
33676
33547
33923
33958
33494
33747
33873
33929
33575
34040
33952
33856
33527
34062
34160
33777
33694
34067
34093
33798
33828
34041
34146
33385
34064
34248
33840
33737
34099
34104
33880
33662
34090
33985
33942
33809
34090
34131
33589
34107
34124
33939
33661
34046
34091
33879
33791
34186
34007
33837
33823
34100
34085
33989
33968
34168
34022
33733
34110
34057
33902
33629
33957
33774
33461
33407
33399
33545
33094
33226
33652
33532
33026
33555
33481
33416
32955
33518
33603
33249
33170
33474
33307
33273
33159
33672
33485
33123
33423
33587
33495
33051
33648
33488
33487
33186
33665
33707
33490
33539
33771
33735
33469
33601
33917
33796
33327
33865
33944
33729
33610
33880
33706
33685
33645
33952
33928
33602
33754
33751
33792
33540
33876
33860
33820
33617
34055
34093
33771
33655
34028
33948
33847
33820
34064
33931
33719
33960
33983
33921
33566
34165
34253
33914
33774
34085
34129
33906
33975
34247
34040
33831
33904
34273
34146
33708
34123
34112
34012
33800
34119
34024
33750
33562
33898
33740
33481
33505
33744
33541
33137
33508
33472
33333
33018
33249
32864
33061
33001
33308
33549
33234
32985
33352
33168
32826
33145
33269
33191
32710
33312
33109
33085
32945
33283
33284
33107
33108
33466
33516
33102
33261
33408
33409
32860
33464
33590
33396
32995
33560
33388
33265
33272
33287
33468
33241
33327
33493
33483
33146
33499
33725
33481
33080
33620
33845
33421
33311
33656
33747
33539
33432
33761
33814
33341
33744
33861
33740
33342
33833
33745
33650
33430
33889
33783
33598
33562
33942
33820
33618
33545
33920
33753
33576
34090
33707
34006
33375
33885
33977
33656
33511
33986
33789
33541
33485
33895
33660
33312
33468
33560
33331
33019
33451
33161
33046
32960
33196
33241
33022
32982
33339
33189
32738
33131
33251
33073
32802
33220
33067
33061
32629
33318
33344
32998
33012
33303
33340
33112
33103
33460
33238
33082
33367
33337
33352
33162
33519
33498
33279
33176
33584
33510
33270
33309
33526
33361
33068
33624
33561
33538
33287
33570
33490
33442
33220
33695
33720
33494
33444
33887
33637
33394
33762
33759
33813
33363
33849
33837
33690
33366
33838
33706
33583
33576
33922
33764
33569
33609
33821
33718
33418
33900
33873
33722
33668
34042
33982
33708
33704
34002
33958
33560
33750
33967
33862
33547
33843
34007
33777
33582
33921
33668
33621
33232
33557
33456
33365
33250
33576
33306
32970
33353
33332
33413
33187
33399
33381
33119
32847
33334
33137
32938
33146
33423
33359
32917
33256
33457
33200
32954
33344
33431
33298
33101
33468
33527
33333
33294
33692
33570
33419
33403
33693
33563
33172
33613
33714
33591
33457
33685
33744
33370
33280
33746
33524
33406
33492
33997
33695
33338
33761
33964
33746
33442
33834
33794
33699
33501
33932
33925
33601
33594
33894
33848
33552
33600
33754
33770
33414
33935
33894
33796
33573
33971
33909
33817
33716
34058
33865
33736
33807
34034
33965
33578
34033
33950
33949
33831
33983
34115
33759
33722
34031
33993
33584
33429
33849
33645
33214
33585
33546
33429
33187
33497
33441
33280
33186
33504
33371
33324
33117
33477
33432
33019
33106
33313
33255
33097
33450
33398
33282
33140
33477
33573
33368
33347
33913
33674
33152
33453
33727
33636
33307
33690
33796
33620
33440
33933
33797
33637
33684
33911
33772
33548
33578
33859
33835
33569
33985
33936
34012
33483
33981
34073
33758
33683
34059
33989
33713
33573
34041
33963
33788
33665
34148
33925
33175
34095
34008
33909
33762
34161
34031
33803
33718
34196
34099
33840
33765
34245
33979
33592
34065
34312
34009
33719
34271
34150
33871
33788
34083
34051
33885
33870
34033
34115
33622
34094
34184
34005
33625
33957
33910
33734
33649
33819
33590
33398
33352
33769
33502
33245
33328
33666
33461
33063
33490
33592
33272
33306
33483
33581
33308
33356
33674
33514
33289
33388
33605
33676
33160
33708
33753
33564
33462
33733
33672
33537
33614
33838
33675
33531
33468
33842
33777
33474
33814
34067
33877
33506
33917
33917
33516
33548
33950
33949
33645
33675
33989
33871
33582
33650
33999
33837
33629
33965
34127
33796
33750
33998
33990
33898
33694
34041
34029
33663
33879
34270
33995
33464
34062
34200
34066
33764
34091
33971
33958
33807
34185
34114
33925
33869
34234
34047
33930
34187
34161
34088
33709
34399
34173
34018
33878
34231
34063
33974
33819
34022
34033
33734
33658
33899
33795
33425
33786
33598
33651
33518
33791
33514
33451
33355
33655
33575
33344
33338
33606
33622
33344
33657
33704
33543
33230
33955
33541
33510
33475
33887
33733
33490
33532
33969
33800
33600
33801
33928
33915
33650
34023
33816
33797
33693
33979
33937
33679
33715
34292
34045
33659
33806
33989
34007
33775
34134
34095
33966
33829
34082
34103
34056
33966
34422
34230
33931
33941
34299
33987
33863
34164
34354
34213
33898
34252
34326
33998
33748
34263
34271
33761
33946
34346
34166
33950
34249
34206
34195
33761
34251
34222
34199
33956
34313
34421
34057
33856
34362
34195
33919
34014
34301
34157
34049
34025
34181
34175
33881
34061
34139
33757
33612
34058
33940
33706
33681
33977
33791
33556
33918
33739
33721
33437
33868
33953
33626
33631
33914
33938
33612
33596
33931
33932
33600
33820
34184
33858
33481
34125
34021
33900
33760
34077
34168
33864
33885
34229
34003
33862
33901
34077
34116
33651
34073
34173
33906
33870
34239
34165
33979
33939
34260
34292
33869
33966
34350
34248
33931
34184
34241
34121
33770
34269
34268
33948
33883
34387
34335
34023
33975
34382
34205
33963
34321
34406
34197
33902
34330
34346
34121
33959
34351
34290
34183
34002
34385
34211
33978
34055
34478
34241
33869
34423
34284
34156
33798
34246
34318
34293
33969
34303
34371
34054
33848
34177
34122
33286
33898
33790
33718
33255
33908
33681
33589
33498
33737
33853
33516
33360
33734
33742
33291
33687
33732
33631
33408
33727
33676
33579
33352
33958
33831
33607
33536
33774
33945
33629
33689
33994
33955
33633
34137
34067
33906
33557
33992
33951
33981
33702
34319
34087
33706
33785
34105
33888
33686
34094
34173
33974
33640
34146
34163
33833
33758
34155
33999
33875
33847
34337
33991
33700
34025
34043
34039
33496
34147
34022
33908
33716
34358
34082
33865
33750
34025
34062
34077
33897
34176
34044
33805
34262
34340
33999
33904
34263
34026
33793
33854
34183
34000
33864
33973
33899
33964
33710
34081
33999
33764
33523
33611
33596
33268
33148
33632
33335
33182
33230
33368
33402
32873
33299
33297
33213
32799
33256
33179
33087
32919
33337
33310
33016
33000
33399
33206
33059
33163
33532
33307
32784
33383
33278
33224
33073
33457
33692
33378
33181
33575
33604
33319
33423
33734
33460
33289
33621
33711
33489
33155
33618
33735
33397
33228
33637
33622
33412
33382
33576
33762
33397
33601
33560
33870
33387
33786
33792
33612
33459
33784
33853
33573
33528
33799
33958
33548
33556
33895
33751
33423
33969
33841
33815
33519
33893
33999
33700
33556
34005
34058
33615
33464
34033
33864
33448
34035
34113
33796
33358
34103
33772
33694
33661
33819
33707
33496
33297
33649
33526
33076
33415
33314
33298
33124
33311
33129
33161
32443
33320
33580
32876
33006
33098
33363
32814
32996
33429
33060
32824
33472
33147
33093
33040
33119
33284
33443
33281
33505
33789
33017
33315
33594
33448
33084
33698
33692
33523
33367
33669
33580
33487
33534
33774
33710
33432
33451
33745
33848
33310
33613
33879
33847
32846
33754
33693
33355
33490
33737
33635
33415
33388
33511
33668
33286
33427
33345
33552
33146
33681
33654
33394
33256
33736
33572
33392
33307
33695
33562
33366
33541
33841
33545
33396
33530
33612
33715
33555
33987
33270
33669
34061
33839
33802
33666
33658
33961
33841
33397
33814
33706
33527
33272
33639
33516
33289
33395
33422
33799
33016
32513
32663
33088
32663
32904
33342
33078
32613
33087
33234
32917
32888
32934
33017
32781
32823
32987
33031
32502
32848
33320
32940
32762
33211
33428
33128
32896
33387
33227
33227
32973
33541
33403
33104
33281
33602
33490
33182
33707
33614
33396
33326
33634
33538
33400
33284
33619
33625
33362
33369
33730
33651
33423
33579
33810
33636
33043
33959
33848
33387
33483
33816
33714
33384
33525
33806
33749
33463
33385
33763
33649
33316
33826
33821
33671
33634
33860
33837
33612
33499
33816
33756
33618
33597
33987
33634
33557
33830
34013
33701
33364
33831
33749
33497
33610
33908
33771
33364
33605
33764
33489
33855
33563
33858
33583
33110
33452
33583
33352
33111
33302
33362
33084
33068
33302
33207
32889
33035
33322
33300
32827
33362
33252
32990
33017
33342
33296
33171
32911
33507
33537
33126
33236
33566
33549
33294
33705
33681
33423
33408
33820
33713
33539
33686
33859
33720
33536
33587
33891
33760
33531
33880
34126
33908
33704
34084
33733
33833
33697
34109
33956
33793
33892
34336
34165
33763
33928
34280
33977
33611
34211
34051
34117
33908
34236
34198
33933
33965
34363
34319
33982
34095
34316
34167
33863
34197
34276
34100
34180
34447
34370
33905
33930
34433
34304
34148
33993
34532
34438
34132
34310
34539
34344
33967
34424
34373
34230
34163
34316
34249
34118
34050
34318
34187
33933
33909
34100
34083
33773
34280
34022
33947
33805
34124
34076
33748
33863
34158
33951
33687
33991
33636
33990
34298
34095
34724
34180
33754
34281
34259
33959
33843
34236
34293
33970
34022
34485
34139
33824
34252
34167
34182
33845
33988
34258
34027
34063
34328
34081
34021
33986
34136
34217
33816
33896
34097
34039
33757
34147
34326
34133
33867
34285
34306
34121
34017
34189
34302
33947
34005
34484
34128
33840
34299
34307
34234
33972
34281
34271
34061
33989
34376
34332
34050
34002
34319
34379
33989
34243
34543
34164
34047
34319
34440
34179
34037
34438
34244
34163
34165
34396
34333
34015
34206
34407
34046
33672
34158
34250
33950
33675
34196
34069
33762
33573
33923
33899
33499
33556
33655
33529
33298
33644
33526
33545
33256
33708
33590
33353
33196
33676
33519
33361
33305
33757
33701
33217
33590
33622
33599
33325
33764
33752
33710
33353
33884
33985
33605
33646
33921
33881
33513
33809
33888
33876
33585
33902
33913
33608
33491
33945
33973
33712
33556
33984
34020
33768
33869
34202
33934
33408
33908
33974
33948
33707
33687
34013
33903
33730
34198
34049
33689
33776
34118
33924
33777
34126
34255
33861
33821
34170
34149
33877
33692
34094
34127
33754
33827
34288
34049
33920
34129
33868
34019
33692
33920
34370
34328
33499
34440
34058
33760
33542
33917
33796
33386
33511
33825
33425
33107
33486
33564
33363
33006
33444
33432
33178
33149
33543
33412
33207
33238
33563
33432
33040
33539
33538
33310
33235
33491
33593
33340
33169
33580
33506
33413
33359
33696
33770
33417
33513
33973
33781
33388
33886
33912
33740
33587
33931
33911
33609
33684
34022
33937
33476
33818
33973
33757
33348
33930
34045
33705
33705
34027
33863
33686
33604
33962
33873
33593
33373
34175
33922
33537
33884
34035
33919
33591
33979
33898
33770
33771
34053
33922
33894
33859
34199
34075
33636
33994
34040
34066
33593
34156
34106
33873
33867
34117
34114
33958
33880
34219
34189
33724
34011
34164
33950
33836
34025
34006
33829
33704
33915
33723
33539
33432
33806
33517
33302
33282
33607
33404
33138
33514
33545
33363
33124
33481
33324
33171
33222
33507
33493
33228
33251
33564
33348
33129
33456
33669
33540
33249
33539
34109
33377
33380
33776
33630
33473
33483
33834
33779
33565
33597
33876
34021
33516
33782
33828
33806
33459
33948
33990
33605
33942
33978
33855
33740
33776
34081
34046
33616
34007
34040
33888
33678
34140
34218
33838
33846
34187
34085
33824
33785
34105
34114
33646
33964
34132
33978
33758
34182
34099
33957
33814
34186
34026
33900
33917
33890
34067
33993
33913
34345
33960
33787
34113
34235
34045
33748
34133
34258
33963
33848
33980
34300
33997
33828
34330
33938
33454
33948
33877
33779
33431
34101
33410
33476
33350
33654
33624
33333
33280
33585
33549
33287
33472
33574
33492
33186
33555
33600
33312
33070
33579
33391
33158
33592
33689
33614
33305
33404
33704
33572
33399
33915
33938
33684
33329
33855
33868
33688
33588
33991
33780
33556
33741
33899
33913
33433
33684
33990
33797
33397
33886
34024
33649
33639
34255
33903
33603
33672
34129
33972
33522
34011
34024
33979
33614
34051
34239
33706
33803
34083
34077
33847
33913
34104
34097
33653
34014
34191
34093
33671
34187
34231
33972
33838
34306
34151
33934
33971
34362
34110
33965
34098
34466
34097
33756
34306
34296
34134
33773
34232
34041
34045
33649
34203
34000
33761
33933
33923
33876
33426
33705
33710
33720
33291
33626
33654
33440
33306
33607
33414
33319
33176
33619
33565
33237
33438
33464
33438
33121
33502
33551
33518
33123
33665
33403
33252
33335
33662
33633
33322
33524
33883
33733
33331
33790
33725
33768
33550
33813
33682
33733
33537
33884
33985
33441
33608
34061
33889
33492
33946
34065
33734
33503
33818
33883
33661
33556
34000
34001
33677
33582
34120
34015
33505
33870
34138
34040
33567
34083
34171
33936
33735
34023
34070
33809
33848
34236
34162
33818
34043
34266
34184
33731
34113
34218
34053
33741
34245
34172
34067
34000
34277
34399
33957
33884
34402
34242
33803
34205
34345
34260
34058
34328
34172
34025
34067
34326
34173
33903
33890
34089
33971
33805
33894
34171
33950
33457
33977
34057
33850
33559
34076
33871
33674
33733
34216
34010
33628
33794
34076
34006
33658
34016
34131
33914
33692
34091
33942
33813
33792
34166
34056
33810
33832
34114
34090
33696
34042
34291
33958
33700
34186
34139
33970
33876
34137
34116
33802
33792
34089
33990
33865
34035
34219
34035
33656
34159
34237
33982
33874
34179
34156
34038
34008
34242
34215
33798
34033
34360
34144
33645
34297
34321
34044
34248
34219
33942
34048
34081
34404
34344
34023
34037
34326
34323
33877
34328
34403
34127
34048
34281
34394
34153
34140
34385
34270
34000
33933
34446
34342
34044
34404
34343
34228
33833
34423
34269
34057
33876
34339
34248
33971
33758
34110
33897
33658
33699
33894
33750
33446
33908
33841
33773
33492
33652
33883
33699
33609
33957
33929
33684
33631
33930
33883
33435
33870
34013
33858
33567
34051
34054
33769
33715
34138
34087
33740
33671
34261
34001
33598
33980
33948
33965
33562
34075
34194
33831
33647
34174
34121
33822
33769
34205
34110
33683
34273
34100
34212
33755
34354
34293
34151
33912
34414
34435
34124
34162
34302
34191
34121
34140
34336
34480
34063
34434
34502
34274
34257
34277
34414
34244
34174
34586
34325
34141
34181
34553
34401
34076
34405
34384
34331
34171
34566
34397
34205
34062
34571
34230
34119
34193
34277
34374
33972
34249
34225
34169
33875
34134
34051
33704
33642
34003
33840
33730
33542
33823
33655
33325
33330
33741
33547
33254
33596
33613
33406
33186
33733
33635
33441
33348
33514
33693
33290
33599
33597
33618
33156
33730
33758
33647
33397
33772
33753
33569
33432
33821
33759
33503
33567
33761
33859
33661
33832
34051
33702
33540
33884
33924
33722
33689
33962
33971
33692
33761
34000
33981
33636
33698
34022
33974
33664
34019
34041
33848
33640
33997
34087
33799
33711
34162
34177
33764
33791
34123
33957
33721
34037
34292
34057
33726
34161
34022
33925
33789
34115
34232
33885
33916
34160
34227
33921
34044
34241
34099
33565
34353
34059
33989
33714
34136
33957
33823
33505
33876
33628
33438
33470
33765
33487
32961
33511
33369
33271
33044
33452
33409
33128
32834
33076
33239
33217
33002
33184
33301
32961
33220
33357
33273
33114
33311
33498
33115
32992
33466
33593
33170
33147
33576
33448
33051
33548
33615
33403
33005
33574
33660
33466
33284
33678
33704
33442
33403
33716
33561
33355
33387
33616
33718
33233
33742
33638
33493
33329
33761
33764
33481
33370
33742
33840
33329
33586
33670
33682
33318
33789
33982
33611
33546
33854
33948
33673
33504
33984
33954
33614
33716
34007
33751
33490
33910
33953
33883
33623
33976
34045
33725
33638
34078
34063
33447
33712
34138
33935
33599
33862
34043
33987
33418
33898
33920
33487
33271
33675
33463
33267
33095
33399
33458
32990
33066
33284
33056
32729
33189
33109
33002
32803
33240
32843
33060
32987
33143
33789
32639
32660
33174
33178
32718
33234
33277
33222
32930
33265
33334
33099
33190
33544
33424
33167
33305
33728
33488
33164
33431
33191
33609
33541
33640
33628
33346
33156
34040
33550
33477
33273
33779
33544
33350
33505
33824
33790
33042
33666
33670
33679
33387
33778
33713
33677
33528
33855
33692
33500
33633
33884
33876
33548
33771
33903
33736
33580
33886
33703
33672
33521
33996
33864
33630
33671
34011
33844
33612
33750
33870
33923
33565
34044
33975
33866
33667
34100
33950
33840
33713
34056
34040
33700
33722
33880
33821
33326
33816
33787
33611
33181
33579
33471
33315
33228
33143
33057
32897
33202
33398
33215
32902
33228
33314
33215
32878
33392
33287
33073
32859
33340
33192
33083
33014
33304
33298
33058
33244
33361
33200
32768
33348
33420
33297
33139
33586
33582
33341
33354
33670
33680
33362
33412
33645
33658
33279
33782
33684
33573
33326
33798
33653
33516
33375
33758
33841
33628
33482
33747
33746
33399
33858
33969
33701
33484
33954
33918
33693
33669
33960
33724
33549
33713
33899
33907
33499
33997
34074
33899
33628
34045
33872
33694
33620
34027
34037
33824
33735
34137
34011
33660
33863
34128
33993
33894
34068
33994
33843
33970
34177
34183
33847
33785
34069
34050
33651
33803
33896
33828
33363
33780
33697
33492
33208
33628
33575
33273
33222
33482
33286
33190
33052
33578
33349
32967
33442
33268
33332
32885
33505
33467
33127
33010
33490
33413
33159
33172
33501
33505
33252
33435
33677
33585
33246
33612
33773
33410
33524
33814
33714
33554
33501
33844
33738
33603
33479
33910
33816
33447
33715
33561
33706
32986
33900
33849
33613
33469
33890
33772
33621
33687
33841
33839
33505
33755
33940
33900
33670
33962
33832
33793
33726
33976
33820
33676
33575
34101
33805
33573
33836
34080
33984
33458
34045
33989
33710
33623
33947
34053
33806
33652
34011
33981
33725
33816
34042
33945
33714
34135
34202
33932
33868
34118
34060
33742
33830
33956
33878
33434
33521
33947
33525
33318
33593
33515
33378
33189
33430
33447
33132
32937
33437
33400
33064
33271
33448
33407
32981
33429
33261
33251
33009
33466
33526
33205
32981
33578
33549
33284
33356
33779
33599
33482
33613
33709
33698
33335
33731
33964
33512
33511
33800
33948
33627
33540
33970
33712
33559
33575
34067
33784
33459
33831
33890
33805
33765
33970
34034
33771
33665
34207
33788
33767
33784
34145
33978
33646
34146
34025
33967
33699
34108
34123
33913
33641
34191
34142
33904
33846
34114
34102
33799
34035
34214
33965
33482
34276
34181
34061
33507
34203
34009
33995
34054
34225
34466
33754
34025
34229
34137
33872
34257
34171
34094
33786
34262
34086
33650
33589
33726
34018
33802
33715
34126
33887
33400
33736
33734
33679
33262
33765
33801
33489
33290
33772
33544
33443
33442
33618
33702
33553
33691
33774
33724
33548
33915
34013
33674
33563
33854
34018
33676
33676
34039
33982
33785
33754
33937
33976
33533
34098
34067
33908
33779
34129
34165
33850
33921
34228
34007
33812
33843
34147
34105
33611
34118
34119
34075
33854
34167
34121
33848
33825
34251
34007
33949
33902
34284
34170
34043
34072
34242
33994
33666
34070
34160
33982
33890
34221
34076
33959
33723
34158
34228
33810
33958
34498
34203
33751
34248
34231
34115
33822
34208
34236
34049
33965
34360
34205
33880
33865
34212
34123
33610
34082
34168
34015
33556
34017
33743
33675
33390
33870
33658
33328
33408
33593
33553
33175
33570
33635
33511
33226
33564
33547
33348
33195
33650
33491
33190
33402
33700
33495
33230
33411
33625
33671
33382
33809
33659
33547
33317
33858
33750
33583
33397
33631
33727
33357
33525
33932
33779
33314
33774
33922
33779
33532
34081
33785
33563
33660
33982
33911
33683
33582
34103
33881
33427
33993
33996
33925
33468
33992
33941
33837
33814
34160
33809
33752
33748
34059
33954
33701
33815
34119
33947
33584
33943
33926
33868
33671
34185
34122
33845
33829
34216
34106
33906
33846
34075
34035
33619
34235
34174
34049
33728
34184
34088
33925
33813
34068
34056
33624
33772
33466
33789
33407
33545
33694
33347
32948
33470
33544
32996
33213
33510
33373
33193
33158
33461
33359
32983
33315
33424
33310
32897
33319
33350
33214
32998
33458
33414
33235
33216
33478
33479
33091
33346
33806
33487
33174
33798
33729
33465
33493
33747
33803
33481
33429
33847
33785
33442
33455
33824
33692
33533
33826
33746
33680
33377
33807
33901
33694
33645
33918
33754
33917
33636
34077
34038
33683
34092
33997
33909
33744
34066
33969
33731
33625
34024
33998
34059
33639
34068
34073
33681
33875
34058
34020
33579
34074
34134
33817
33695
34072
34209
33899
33673
34172
34087
33893
34003
34371
34273
33868
34022
34114
34010
33728
34118
34039
33845
33687
34048
33890
33547
33574
33769
33680
33288
33719
33205
33468
33115
33604
33571
33316
33109
33580
33489
33136
33166
33568
33486
33130
33270
33501
33455
33029
33537
33568
33306
33144
33636
33510
33384
33330
33716
33628
33427
33432
33770
33791
33537
33855
33829
33664
33531
33905
34053
33769
33502
33941
33766
33471
33820
34224
33902
33692
33961
33883
33866
33653
33960
34029
33871
33738
34100
34057
33727
33885
34160
34120
33726
33965
34108
34149
33618
34020
34022
34180
33780
34155
34133
33591
33987
34280
34277
33860
33846
34336
34056
33795
34188
34090
34015
33927
34308
34246
34029
34238
34646
34149
34065
34109
34237
34188
33769
34224
34345
34082
33798
34113
34069
33825
33616
34012
33928
33719
33519
33928
33614
33446
33848
33689
33539
33274
33668
33937
33520
33372
33672
33578
33408
33327
33704
33575
33250
33411
33824
33659
33303
33562
33858
33844
33348
33873
33929
33684
33653
33890
33906
33494
33670
33780
33706
33599
33872
33921
33865
33442
34138
34228
34037
33585
33625
33970
33532
33804
34206
34028
33876
34082
33946
33917
33784
34066
34073
33954
33703
34206
34260
34085
33726
34126
33950
34053
33892
34179
34136
33871
34238
33915
33766
34034
34158
34319
34175
33407
34515
34178
33532
34273
33746
34342
33670
34270
34517
34010
33689
34565
34283
33858
34174
34020
34633
33746
34053
34248
34097
34213
34303
34144
34025
33854
34324
33871
33866
33970
34040
34229
34026
33739
33868
33796
33675
33736
33784
33750
33294
33870
34011
33486
33415
33604
33799
33582
33685
33687
33969
33539
33665
33712
33936
33688
33936
33996
33962
33417
34063
33776
33842
33641
34185
34280
33696
33645
34008
34277
33815
34346
34261
33887
33958
34145
34019
33704
33844
34154
34190
33798
34150
34387
34326
33977
34060
33936
34216
34151
34415
33951
34277
33742
34120
33890
33624
33946
33901
33913
33688
34035
34116
34013
33616
34075
34293
34112
33821
34305
34339
34061
34002
34395
34298
34076
34184
34472
34383
34028
34324
34451
34234
34140
34504
34308
34231
34124
34475
34454
34189
34192
34487
34382
34024
34206
34346
34361
33707
34408
34251
34090
33972
34318
34146
33875
33804
33962
34000
33795
33889
34281
33952
33664
34067
34069
33856
33646
34111
33970
33831
33855
34027
34165
33820
33996
34289
34190
33742
34185
34202
34084
33756
34327
34187
34105
33973
34310
34231
34107
33963
34433
34216
33964
34177
34331
34285
33830
34199
34381
34096
33929
34355
34323
34085
34078
34355
34297
33842
34080
34492
34299
33818
34268
34540
34220
33844
34456
34354
34199
33972
34432
34480
34145
34154
34498
34430
33867
34207
34427
34253
33940
34454
34453
34180
34204
34552
34501
34095
34136
34626
34501
34062
34391
34608
34461
34380
34551
34328
34102
34291
34484
34494
34215
34113
34458
34226
34036
34103
34202
33954
33767
34148
34057
33722
33618
33925
33822
33657
33667
33992
33849
33890
33523
33939
33857
33501
33820
33776
33763
33646
33923
33989
33671
33558
34021
33977
33710
33673
34113
33990
33556
34101
34070
34044
33666
34195
34107
33912
33744
34149
33967
33940
33848
34217
34122
33779
33996
34180
34030
33680
33969
34315
34004
33785
34236
34247
34023
33854
34411
34207
34000
34079
34331
34085
33788
34232
34286
34050
33840
34266
34256
34124
33983
34080
34381
33917
34072
34344
34222
33846
34369
34329
34235
33940
34353
34252
34021
33788
34390
34298
33961
33976
34370
34304
33836
34003
34267
34314
33697
34283
34217
33939
33734
34219
33934
33783
33792
33934
33878
33223
33438
33639
33636
33131
33663
33632
33397
33252
33590
33627
33146
33209
33690
33381
33382
33296
33546
33500
33095
33551
33666
33352
33175
33618
33465
33458
33281
33584
33755
33413
33532
33926
33742
33500
33770
33566
33780
33492
33917
33734
33673
33565
33942
33937
33723
33607
33698
33796
33533
33701
33728
33948
33467
34052
33926
33742
33509
33925
33843
33785
33813
34066
34101
33626
33756
34315
34021
33584
34107
34128
34017
33808
34245
34008
33821
33833
34275
34119
33676
33870
34113
34107
33741
34149
34306
34141
33746
34133
34204
34035
33933
34293
34268
34027
33806
34200
34187
33928
34001
34336
33910
33848
33973
34134
33781
33492
33771
33722
33449
33476
33684
33502
33089
33410
33573
33447
33062
33495
33387
33299
33148
33554
33524
33203
33117
33457
33291
33127
33175
33388
33360
33082
33472
33522
33344
33126
33706
33633
33475
33301
33511
33650
33509
33608
33728
33732
33360
33525
34009
33706
33276
33906
33725
33695
33546
33869
33824
33681
33540
33943
33814
33552
33770
33956
33948
33723
33880
33825
33847
33731
34003
34099
33691
33741
34107
33988
33617
33865
34092
34070
33537
34035
34050
