12844
13502
13309
13168
12860
13603
13370
12771
12872
12964
13308
12752
13271
13226
13347
13251
13492
13625
13334
13126
13657
13413
13525
13480
13472
13587
13331
13496
13715
13492
13481
13849
14188
13647
13580
13880
14024
13489
13639
14150
13832
13692
13845
14346
13898
13585
14046
14163
13861
13755
14289
14171
14074
13742
14113
14175
13787
14065
14698
14111
13975
14271
14468
14406
13763
14331
14428
14142
13744
14237
14606
13494
14043
14455
14261
14641
13910
15296
14365
13671
14375
13857
14101
14033
13724
13543
13316
13218
13517
12975
13170
12973
13621
13470
12630
12835
13053
12696
12631
12765
12508
12241
12144
12609
12517
12195
12279
12306
12311
12226
12151
12580
12237
12145
12338
12535
12369
12121
12378
12791
12335
12369
12599
12934
12393
12655
12530
12740
12135
12487
12641
12141
12358
12893
12741
12808
12508
13046
12668
12658
12621
12841
12235
12504
12795
13026
12712
12491
12861
12832
12618
12643
13033
13156
12512
12835
12934
12924
12653
12772
13258
13080
12630
13035
13157
12759
12790
13208
12906
12873
12809
13322
12835
12558
12981
13058
12986
12910
13091
13134
12805
12893
13095
13117
13173
12877
13124
13075
12571
13052
13179
13098
12785
13136
13153
13162
12807
13332
13301
13066
12997
13689
13300
13181
13597
13476
13324
13223
13382
13675
13366
12951
13538
13483
13134
13300
13634
13605
13265
13640
13668
13557
13024
13434
13476
13280
13372
13464
13508
13510
13050
13861
13861
13198
13326
13892
13743
13233
13551
13645
13636
13363
13876
13708
13598
13582
14000
13944
13599
13614
14150
13962
13801
13681
14193
13915
13530
13750
14070
13732
13528
13823
13927
13796
13529
13985
13526
13269
13323
13851
13221
13221
13198
13277
13035
12828
12972
12966
13211
12398
13176
12829
12544
12463
12395
12552
12058
12561
12669
12362
12025
12236
12764
12235
12071
12274
12632
11986
12236
12243
12249
12563
12386
12468
12340
12114
12266
13101
12594
13233
12809
12132
12412
12795
13225
13006
13293
12845
12713
12508
12401
12882
12777
12643
12660
12843
12907
12953
12452
13207
12801
12494
12680
13186
12879
12683
13031
13042
12800
12424
13591
12925
13071
12792
13527
13358
13115
12976
12993
13187
13000
13086
13026
13353
12874
13301
13299
13299
12862
13354
13397
13159
13249
13758
13418
13185
13477
13220
13474
12937
13404
13412
13647
13233
13600
13400
13474
13293
14020
13644
13257
13342
14077
13493
13275
13758
13952
13706
13573
13285
14236
13512
13884
14312
13942
13451
13695
14109
13867
13485
14101
14344
14112
13509
14090
14195
13846
13586
14159
14237
13854
13941
14556
14143
13709
14161
14506
14275
14157
14247
14183
14199
14038
14248
14371
14037
13968
14002
14342
14197
14176
14381
14365
13941
14498
14599
14149
14071
14438
14612
14074
14064
14381
14345
14406
14418
14187
14081
13657
14146
14044
13880
13405
14196
13801
13209
13260
13430
13343
12884
12987
13408
13309
12682
13020
13214
12659
12533
12899
12931
12559
12579
12892
12630
12301
12605
12954
12688
12032
12648
12588
12599
12571
12599
13022
12712
12678
12974
12978
12538
12627
13173
13008
12849
13020
12888
12884
12675
13372
13140
12963
12569
13381
13149
12793
12821
13425
13208
13050
13236
13067
13247
13036
13089
13587
12946
13092
13313
13501
13240
13162
13636
13461
13197
13348
14058
13370
13181
13393
13566
13239
13031
13781
13756
13220
13566
13965
13736
13252
13203
14041
13781
13392
13717
13927
13749
13626
13990
14024
13511
13418
13830
14009
13747
13620
14019
13966
13456
13705
13922
13993
13202
13880
13648
13632
13794
13994
14135
13946
13654
14021
13732
13349
14175
13942
14126
13527
14028
14183
14031
13848
14095
13899
14223
13808
14324
13983
13730
14275
14063
14045
13704
14300
14348
14192
14061
14405
14233
14237
14031
14518
14611
14118
14079
14735
14463
14268
14381
14704
14542
14163
14624
14582
14705
14071
14644
14735
14295
14184
14562
14741
14414
14500
14509
14389
13851
14709
14261
14062
13791
14511
14096
13748
13883
13994
13941
13230
13923
13523
13418
13121
14484
13471
13283
13191
13671
13654
13136
13054
13670
13533
13212
13407
13325
13380
12994
13409
13453
13312
13034
13415
13749
13437
12981
13463
13467
13454
13256
13584
13689
13192
13647
13804
13501
13232
13739
13903
13625
13577
13605
13935
13535
13652
14092
14036
13573
13869
13977
13823
13744
14016
13753
13877
13466
13947
13904
13944
13542
13940
13814
13810
13769
14202
13917
13384
13615
13671
13880
13570
14118
14311
13629
13431
14396
13955
13796
13945
14169
14146
13476
13875
14267
14062
13862
14235
14285
14136
13994
14486
14435
13884
14150
14470
14282
13990
14305
14546
13946
13970
14571
14297
14264
13702
14434
14305
14017
14242
14434
14335
14000
14133
14399
14336
14093
14490
14494
14500
14020
14615
14622
14351
14512
14617
14841
14136
14548
14600
14851
14078
14599
15149
14634
14369
14617
14982
14129
14418
14859
14737
14294
14738
14878
14932
14597
14875
15002
14866
14224
14804
14895
14535
14245
14841
14937
14479
14489
15135
14804
14336
14499
14851
14620
14396
14978
14557
14733
14558
14890
14664
14611
14087
14643
14713
14357
14265
14588
14369
14058
14146
14501
13761
13744
14151
13818
13612
13463
13680
13437
13288
13385
13569
13450
12929
13261
13477
13145
13010
13270
13248
13046
12875
13224
13126
12857
12745
13484
12953
12643
13113
13360
13015
12958
13076
13266
13103
12848
13244
13085
12729
12819
13157
13377
12751
13138
13355
13193
12943
13270
13261
12773
12653
13443
13449
13205
12705
13566
13431
12863
13140
13140
13040
13044
13164
13188
13358
12768
13597
13415
13134
13067
13443
13196
12955
13067
13429
13032
12565
13809
13330
13300
13072
13918
13411
13366
13080
13537
13704
13352
13200
13864
13479
13564
13561
13856
13608
13395
13635
13648
13628
13494
13571
13809
13533
13621
14170
13838
13382
13767
13649
13961
13566
13898
14093
14103
13735
14225
14605
13662
13548
14083
14172
13749
13698
14231
13730
13730
13751
14268
13807
13915
14144
13956
13850
13660
14307
14152
14172
13939
14101
14171
13724
14169
14584
14390
14037
14277
14500
14250
13928
14491
14326
14423
13960
14347
14311
14202
14216
14510
14409
13874
14085
14530
14174
14128
14455
14472
13951
13810
14397
14277
14030
14021
14423
14421
13786
14237
14402
13749
13371
14256
14165
13734
13278
13629
13641
13185
13328
13490
13315
12945
13221
13312
13271
12859
13079
12953
12995
12608
13347
13280
12649
12758
13148
12681
12336
12855
13176
12880
12652
12906
12902
12565
12847
13236
13138
12645
12972
13006
13188
12601
12900
13242
12937
12878
13281
13002
13065
12298
12463
13344
12922
13111
13092
13078
12649
13202
13312
13251
12712
13350
13504
13081
12934
13343
13295
12614
13167
13534
13511
13101
13072
13357
13359
13254
13345
13468
13459
13509
13689
13699
13378
13021
13422
13562
13359
13272
13744
13613
13484
13493
13482
13513
13384
13652
13677
13542
13399
13916
13772
13219
13303
13838
13715
12697
13684
14034
13901
13094
13984
14001
13553
13781
13926
13917
13718
13443
14295
14206
13843
13745
13750
13843
13458
13908
14010
13710
13716
14040
13696
13878
13492
13923
14239
13383
13654
13980
14059
14020
14080
14275
13997
13809
14134
13807
13655
13672
14160
14008
14052
13810
14358
14050
13783
14162
14260
13974
13788
13915
14399
14060
13712
14403
14030
14147
13752
14743
14340
13874
14146
14446
14133
13698
14181
14338
14056
13984
14496
14328
14090
13628
14282
13870
13666
13693
13957
13760
12948
13508
13434
13303
13092
13565
13656
12870
12932
13398
12851
12826
12535
13140
12932
12513
13089
12669
12703
11894
12034
13412
12850
12590
12782
13052
12573
12429
12954
12766
12378
12610
13075
12791
12294
12844
12955
12920
12462
13025
13116
12769
12761
13010
13153
12524
13027
13245
13308
12546
12728
13093
12653
12493
13071
13177
13315
12647
13572
13309
12732
13045
13235
13161
12745
13128
13431
13094
12695
13198
13365
12988
12807
13556
13503
13476
13102
13721
13387
12802
13008
13338
13294
12897
13141
14119
13179
13025
13394
13288
13349
13317
13887
13313
13260
13613
13615
13465
13035
13573
13716
13528
13395
13470
13421
13243
13094
13612
13578
13115
12898
13473
13511
13381
13653
13816
13255
13104
13318
13584
13578
13056
13880
13784
13598
13717
13905
13672
13434
13806
13982
13592
13637
13879
13796
13830
13356
13946
13754
13576
13359
14108
13835
13479
13688
13490
13630
13718
13865
14313
13820
13498
14118
14235
13548
13549
14091
13971
13745
13760
14135
14005
13734
13744
13741
13692
13391
13970
14235
13661
13748
13881
13821
13597
13603
13908
13831
13035
13610
13601
13045
12954
13294
13338
13053
12638
12963
13061
12399
12373
12899
12559
12088
12358
12689
12576
12153
12442
12551
11922
12078
12695
12309
11839
11711
12287
12348
11693
12197
12355
11971
11653
12007
12091
12122
11752
12128
12388
12168
11954
12434
12250
11857
12206
12610
12235
12039
12461
12925
12338
11998
12804
12334
12177
12284
13105
12720
12513
12544
12912
12672
12480
12750
12950
12902
12620
12741
12887
12538
12357
12923
12779
12279
12659
13104
13068
12182
12772
12916
12789
12659
13094
13042
12872
12413
13304
12936
12695
12659
13031
13136
12938
13155
13149
12904
12697
13228
12847
13026
12864
13089
13224
12996
12955
13462
13032
12924
12823
13541
13248
12740
13437
13493
13412
12972
13406
13167
13048
13354
13772
13612
12861
13302
13889
13519
13370
13398
13351
13575
13191
13506
13270
13399
12924
13332
13355
12920
13181
13875
13498
13194
13439
13529
13460
13030
13459
13414
13376
12968
13371
13474
13372
13172
13659
12863
13060
13396
13720
13278
12852
13513
13291
13285
13603
13590
13430
13294
13092
13673
13470
13084
13345
13028
13412
12954
13328
13478
13291
13042
13236
13300
13059
12357
13054
13083
12589
12605
12664
12817
12297
12391
12541
12553
12152
12377
12244
12448
12126
12974
12017
12235
12163
11562
12216
11880
12064
12673
12118
11582
12204
12157
11999
11844
12065
12182
11915
12063
12463
12355
12030
12008
12253
12546
12167
12504
12782
12471
12120
12698
12656
12534
12368
12746
12915
12822
12380
13156
12748
12462
12799
12410
12377
12562
12918
12930
12942
12511
12949
13525
12411
12712
12913
13225
12592
12683
13113
13022
12761
13023
12938
12882
12778
12982
13176
12951
12914
13352
13071
12800
12857
13128
13132
12818
13103
13189
13062
12796
13258
13198
13119
12931
13252
13185
13298
13211
13433
13321
13075
13346
13433
13368
13251
13466
13389
13182
13014
13541
13338
13021
13040
13643
13408
12744
13310
13386
13363
13379
13466
13458
13508
13451
13570
13423
13287
13295
13826
13661
13068
13292
13469
13562
13210
13479
13595
13353
13049
13638
13400
13450
13176
13908
13361
13434
13460
13551
13779
13703
13671
13888
13626
13223
13645
13726
13478
13461
13896
13770
13376
13578
13686
13778
13576
13612
13800
13607
13532
13742
13765
13677
13411
13796
13633
13447
13173
13758
13457
13133
13198
13207
13032
12459
13046
13249
12360
12560
12791
12852
12311
12541
12791
12651
12524
12692
12832
12604
12314
12686
12716
12832
11955
12763
12756
12580
12241
12613
12665
12631
12599
12912
12688
12306
12660
13360
12685
12746
11940
12670
12279
12634
12599
13158
12743
12437
13118
12986
12678
13046
13308
12884
12518
13173
13253
13015
12838
13085
13217
13006
12530
13370
13042
12712
13079
12847
13184
12900
12965
13612
13242
12857
13323
13540
13246
12971
13589
13408
12848
12937
13301
13352
13148
13144
13589
13224
13119
13478
13414
13325
13072
13493
13755
13273
13091
13810
13497
12993
13427
13643
13556
13263
13567
13902
13253
13336
13767
13540
13422
13489
13895
13722
13488
13853
13817
13856
13329
14136
13488
13820
13229
13643
13669
13529
13448
13991
13805
13544
13631
13604
13824
13890
13877
13858
13800
13676
14112
14109
13717
13601
14163
14089
14011
13793
14285
14028
13790
13821
13861
14086
13873
13855
13981
13830
13772
14109
14439
13473
13726
14205
14029
13649
13762
14171
13951
13934
13832
13939
13377
13493
13908
13932
13350
13344
13601
13369
12930
13241
13308
13050
12507
12952
13232
12640
12408
12915
12752
12573
12141
12716
12753
12401
12435
12466
12500
11848
12448
12329
12159
11827
12109
12271
12218
12141
12578
12320
11766
12165
12364
11846
11723
12281
12554
12709
12227
12301
12674
12427
12172
12665
12780
12080
12228
13023
12675
12042
12370
12896
12309
11980
12728
12749
12366
12369
12643
12477
12565
12350
12723
12794
12269
12669
12813
12603
12607
13194
12748
12677
12451
13007
12868
12561
12814
12962
12911
12943
12742
13063
12748
12437
13082
13122
13185
12449
13152
13330
13186
12596
13261
13074
12683
12925
13363
13292
12603
12978
13217
13045
13066
13113
13219
13212
12797
13334
13372
12904
13014
13454
13536
13027
12956
13469
13370
13083
13370
13540
13375
13087
13653
13318
13573
13397
13929
13555
12972
13296
13704
13370
13475
13820
13517
13567
13154
13679
13349
13416
13285
13780
13930
13173
13416
14209
13509
13428
13821
14112
13809
13423
13778
14235
13748
13392
13670
13876
13509
13783
14366
13968
13746
13966
14173
13952
13805
14170
13976
14092
13648
14025
14097
13683
13542
13729
13814
13302
13647
13989
13606
13240
13220
13519
13245
12610
13244
13478
12795
12704
13370
13003
12702
13072
13183
12805
12809
12748
12922
12726
12146
12599
12955
12319
12711
12980
12680
12513
12360
12814
12883
12117
12657
12907
12668
12236
12629
12504
12663
12479
12926
13085
12590
12722
13063
13025
12465
12667
12881
12884
12470
12929
13040
12790
12674
13206
12802
12806
12851
12965
13027
12818
12795
13359
12965
12767
13191
13183
12925
12724
13291
13425
13357
12906
13264
12973
13145
13163
13096
13408
11835
13252
13341
13102
12622
13061
13059
13344
12807
13100
13539
12907
12921
13395
13248
12732
13372
13617
13334
12788
13307
13315
13179
12548
13693
13627
13060
12995
13448
13299
13162
13099
13269
13288
12910
13358
13318
13249
12405
13439
13432
13125
12902
13200
13228
13002
13282
13076
13169
12979
13368
13310
13331
13088
13050
13075
13028
12921
13429
13465
13121
12996
13563
13374
13006
13338
13747
13480
12770
13039
13459
13197
12896
13414
13423
13230
13199
13662
13491
12614
13495
13477
13254
13071
13343
13699
13263
12947
13463
13801
13021
12592
13489
13417
13035
13190
13505
12846
12610
12924
12985
12683
12228
12617
12681
12389
12138
12568
12597
11884
11971
12355
11938
11757
12341
12355
12035
11530
11989
11724
11256
11689
12098
12053
11934
11611
12415
11840
11389
11933
12259
11757
11507
12250
12110
11977
11804
12556
11981
12028
11940
12206
12232
11899
12347
12580
12674
11790
12505
12908
12781
12131
12750
12867
12275
12251
12910
12726
12512
12376
13061
12545
12196
12683
13053
12852
12461
13009
13454
12847
12331
13116
12945
12684
12661
13057
13100
12552
12900
12905
12995
12392
12970
13095
13003
12781
13125
13320
13166
12594
13284
13407
12696
13152
13350
13131
12719
13368
13275
13442
13096
13608
13625
13266
13010
13614
13426
12827
13511
13773
13493
13024
13580
13681
13400
12929
13654
13556
13306
13390
13752
13560
12949
13489
13650
13572
13027
13329
13646
13016
12998
13528
13534
13715
13020
13641
13721
13089
13162
13583
13775
12979
13419
13617
13347
13542
13776
13632
13469
13692
14603
13819
13492
13583
14378
13855
13157
13914
14138
13759
13419
13673
13886
13718
13328
13977
13898
13695
13490
14146
13855
13106
13587
14081
13691
13451
13603
13375
13117
13208
13502
13288
12980
13087
13162
13080
12813
12700
12998
13070
12310
12846
12839
12390
12183
12657
12435
12266
12018
12327
12751
11987
11854
12356
12139
12021
12171
12367
12226
11967
12291
12342
11984
11681
12175
12307
11657
11700
12462
12316
11844
12188
12198
12303
11755
12128
12624
12407
12235
12427
12440
12080
12308
12437
12496
11826
12051
12561
12411
12099
12253
12563
12246
11963
12528
12542
12177
12112
12689
12211
11868
12193
12559
12291
12269
12442
12695
12306
12361
12429
12666
12442
12264
12706
12542
12354
12407
12780
12445
12194
12779
12706
12533
11906
12678
12666
12434
11917
12703
12632
12778
12178
12926
12804
12091
12540
12742
12776
11653
12782
12895
12877
12706
12892
13339
12615
12853
13053
12834
12410
12494
13150
13025
12596
12951
13113
12404
12357
13023
13006
12999
12500
13089
13147
12886
12671
12960
13023
12520
13057
13147
13190
12796
13154
13155
12896
12723
13208
13452
12965
12741
13336
13254
12689
13217
13129
13147
12839
13519
13452
12921
12777
13277
13406
12885
12918
13538
13016
12347
13041
13356
13330
12971
13244
13303
13116
12736
13514
13397
13303
12871
13508
13347
12843
12914
12918
12849
12532
12550
12635
12581
12347
12329
12469
12350
12148
12401
12443
12154
11670
12336
11939
11786
11962
12155
11900
11424
12268
12134
11888
11625
12057
12343
11997
11704
12373
12024
11546
12083
12394
12132
11693
12046
12160
11925
11790
12584
12303
11389
11583
12341
12248
11902
12143
12406
12425
11980
12388
12411
12147
12093
12473
12142
12424
12107
12471
12366
11808
12033
12538
12224
11702
12092
12732
12227
12085
12398
12572
12062
11597
12251
12922
11958
12126
12723
11844
11714
12485
12503
12891
12132
12575
12592
12169
12148
12898
12354
12087
11902
12270
12141
11715
12397
12440
12258
11846
12331
12155
12131
11891
12076
12186
12100
12102
12765
12211
11938
12087
12550
12441
11949
12138
12341
12416
11929
12853
12505
12218
11972
12412
12584
12282
12021
12378
12136
11904
12244
12719
12392
11979
12423
12334
12242
12056
12455
12213
12240
12175
12412
12488
12249
12441
12766
12631
12375
12554
12620
12245
12557
12627
12582
12488
12012
13024
12685
11788
12346
13023
12531
12216
12301
12973
12183
12071
12564
12435
12214
12230
12538
12578
12012
12138
12661
12047
11551
12082
12026
11983
11635
12079
11717
11844
11611
11778
11485
11342
11149
12002
11264
11201
11487
11575
11102
10886
11287
11397
11037
11192
11480
11136
11347
10851
11647
11252
11001
11114
11147
11262
10694
11386
11685
11217
11011
11375
11518
11024
10991
11617
11706
11153
11501
11717
11256
11065
11633
11463
11318
11226
11550
11478
11349
11362
11783
11479
10895
11351
11613
11321
11167
11574
11974
11426
11443
11781
11538
11377
11303
11771
11786
11607
11529
12155
11681
11566
11643
11694
11634
11510
11819
11854
11704
11233
11867
11876
11639
11693
12010
11712
11483
11885
12009
11892
11541
11960
12096
11895
11353
12036
11948
11845
11669
12390
12130
11712
11872
11990
12035
11701
12171
12298
12226
11589
12510
12043
12267
11805
12143
11917
11989
12065
12260
12229
11858
12329
12235
12187
11996
12370
12587
12386
11739
12414
12402
12321
12034
12610
12340
12126
12302
12734
12457
12104
12458
12530
12464
12160
12551
12444
12424
12297
13120
12444
12673
12725
12934
12632
12224
12685
12745
12563
12381
12743
13130
12472
12247
12760
12789
12249
12405
12712
12278
12063
12395
12350
12122
11806
12407
12270
11774
11694
11965
11808
11460
11467
11872
11650
11125
11476
11492
11353
10908
11651
11634
11307
10926
11467
11470
11482
11143
11430
11057
10993
11114
11090
11182
9879
11260
11138
11068
10703
11356
11056
11004
10907
11273
11162
11519
11295
11402
11626
11340
11604
11802
11266
11317
11663
11696
11558
11542
12167
11726
11420
11541
12050
11773
11376
11566
11926
11730
11460
11952
11960
11862
11748
11929
11832
11697
11614
12157
11818
11288
12096
12614
12159
11466
12149
12103
11989
11781
12178
12247
11899
11847
12107
12381
12623
12224
12608
12353
12129
12191
12351
12505
12153
12663
12671
12419
12284
12796
12631
12396
12464
12472
12763
12213
12511
12683
12596
12261
12550
12503
12567
12276
12552
12609
12576
12446
13108
12574
12899
12894
13413
12711
12382
12912
12800
12756
12360
12839
12932
12829
12792
13133
13102
12757
12948
13560
12902
12773
13041
12987
12976
12698
13180
13138
12850
12973
13145
13150
12800
13079
13225
13016
12851
13134
13461
13031
13038
13268
13405
13076
13061
13594
13339
13045
13082
13873
13287
12924
13446
13617
13274
13184
13471
13769
13166
13066
13486
13435
13036
12893
13325
12990
12865
12901
13263
12596
12233
12712
12926
12699
11988
12491
12424
12655
12182
12316
12344
12123
12216
11965
12313
10993
12133
12256
11756
11761
12240
11902
11821
11519
12215
11935
11463
11849
11970
11756
11674
11928
12137
11821
11559
12057
11859
12144
11777
12341
12159
11765
11759
12327
11885
11509
12092
12248
11962
11513
11909
11950
11928
11725
12312
12091
11904
11782
12046
11935
11659
11961
11849
11892
11783
11995
12169
11829
11801
12140
11829
11715
11611
12199
12133
11963
12027
12153
11980
11709
12056
12008
11924
11592
12398
12046
11433
11801
12436
12255
11968
12159
12590
12035
12242
12396
12128
12164
12067
12257
12483
12182
12098
12551
12429
12059
12067
12537
12555
11650
12388
12732
12412
12174
12704
12927
12405
12456
12712
12798
12589
12242
12933
12644
12521
12831
12723
12798
12243
12784
12854
12972
12421
13082
12881
12630
12654
12977
12904
12622
12903
12924
12997
12465
12998
12976
12780
12685
13180
13000
12952
12650
13055
13070
12765
12899
13324
13080
12739
13136
12969
12821
12635
13119
13456
12985
12903
13029
13134
12708
12634
12971
12852
12351
12724
12815
12583
12240
12634
12736
12030
12069
12282
12528
12054
11766
12137
11863
11587
11858
12209
11834
11229
11756
11709
11289
11089
11573
11369
11359
11265
11747
11872
11239
11396
11586
11575
11169
11642
11723
11127
11430
11716
11253
11276
11417
11918
11749
11251
11253
11996
11489
11404
11572
11758
11818
11612
11960
11809
11668
11376
11933
11804
11715
11597
12213
12103
11744
11847
11973
11947
11673
12045
12062
11736
11692
12212
12215
11819
11729
12204
11986
11886
11940
12325
11974
11538
12116
12412
12112
11726
12166
12260
12013
11922
12092
12337
12004
11731
12502
12034
12029
12188
12335
12353
11900
12353
12307
12166
12185
12384
12513
12158
12309
12516
12388
12219
12217
12692
12487
12673
12677
12439
12259
11981
12634
12984
12255
12314
12516
12735
12158
12497
12712
12410
11996
12588
12403
12384
12492
13297
12817
12418
12567
13322
12862
12424
12429
12845
12679
12508
12714
12657
12429
12468
12843
12995
12557
12320
12887
12784
12464
12828
12794
12725
12442
12791
12812
12877
12496
12652
13095
12534
12275
12881
12801
12481
12496
13112
12765
12319
12687
13041
12538
12535
12523
12729
12431
12030
12789
12394
12203
11859
12420
12217
11638
11813
12199
11867
11804
11810
12001
11714
11467
11689
11734
11411
11173
11686
11629
11551
11100
11641
11401
11075
11543
11274
11297
10930
11562
11802
11289
11030
11606
11380
11463
11400
11797
11793
10242
11782
12522
11610
11695
11807
11784
11646
11772
12001
12098
11540
11584
12334
12061
11755
11920
11987
12073
12100
12255
12412
11760
11371
12967
12018
12087
12140
11987
12299
11737
12079
12268
12223
11899
12390
12352
12178
11992
12435
12127
12341
12069
12569
12512
12253
12403
12352
12442
11908
12491
12930
12628
11968
12500
12531
12597
12357
12866
12804
12665
12510
13008
12660
12338
12641
13102
12713
12320
12848
13094
12845
12675
13471
13212
12856
12709
13155
13143
12832
12740
13231
13133
12622
13221
13443
13008
12771
13283
13511
13297
12874
13354
13144
13117
12969
13149
13319
12770
13257
13556
13420
13000
13369
13400
13386
13027
13884
13588
13132
13139
13636
13454
13061
13564
13455
13466
13172
13645
13562
13465
13184
13257
13507
13202
13186
13762
13387
13416
13553
13864
13548
13245
13613
13264
13337
13222
13667
13806
13493
13088
13326
13546
13378
13300
13548
13481
12916
13106
13271
13064
12518
12732
12959
12600
12619
12726
12634
12369
12413
12672
12347
12000
12342
12436
12278
11861
12147
12200
12206
11995
12372
12121
11761
11828
12085
12059
11428
11863
12139
11961
11500
12225
11912
12005
11630
12180
12370
11995
12241
12063
12251
12003
12225
12466
12284
11746
12363
12468
12173
11934
12392
12502
11973
12121
11957
12426
12067
12136
12353
12587
12118
12621
12641
12233
12166
12556
12791
12547
11954
12905
12675
12277
12222
12470
12607
12190
12460
12644
12541
12192
12755
12768
12463
12184
12596
12747
12371
12152
12787
12572
12417
12555
12649
12655
12148
12706
13017
12680
12313
12861
12972
12658
12509
13036
13083
12800
12794
13058
13263
12638
13008
12639
12784
12672
13080
13231
12956
12839
12840
13086
12722
13117
13128
13138
12780
13315
13123
13011
12831
13100
13275
13276
12673
13196
13262
13021
13048
13491
13445
12808
13207
13038
13099
13160
13252
13119
13153
12768
13377
13329
13137
13105
13383
13319
12973
13257
13401
13373
12907
13021
13405
13458
13111
13273
13329
12901
12903
13391
13127
12813
13008
13652
13138
12521
13194
13214
12952
12632
12990
12778
12997
12453
12771
12581
12477
12099
12830
12516
11935
12339
11949
12125
11901
12165
12145
11511
11562
12095
12120
11544
11488
12086
11885
11622
11642
12076
11735
11515
11928
11813
11454
11513
11903
11728
11830
11676
11794
11750
11668
11450
11835
11632
11701
11847
11703
11750
11684
12169
12076
11693
11991
12226
12112
11807
11825
12250
11879
11840
12111
12130
12025
12053
12112
12544
11970
11739
12201
12334
12189
11989
12319
12376
12027
12053
12570
12190
12116
12393
12535
12273
12016
12453
12367
12143
12135
12573
12617
12034
12268
12653
12694
12233
12421
12687
12727
12271
12858
12716
12157
12156
12686
12679
12357
12224
12769
12740
12805
12524
12756
12574
12410
13015
12698
12677
12506
12784
12664
12448
12446
13052
12882
12589
12728
12656
12859
12335
12926
12926
12835
12468
12967
13038
12559
12598
13248
12943
12660
12780
13006
13202
12474
13226
13290
12973
12498
13116
13092
12965
12792
13312
13274
12575
12841
13457
12885
12787
12880
13300
12910
12929
13303
13493
13359
12925
13315
13302
12856
12803
13717
13334
12942
13101
13452
13100
12881
13483
13331
13227
12943
13573
13266
13168
12617
13244
13189
12679
12640
13173
13070
12577
12782
13018
12629
12124
12494
12445
12191
12162
12631
12290
11953
12115
12172
12139
11822
12094
12067
12077
11678
11647
11983
11683
11257
11884
11856
11783
11268
11960
11738
11362
11697
11680
11831
11409
11889
11900
11687
11647
11930
12038
11579
11717
12110
11761
11457
11817
12048
11666
11615
11814
12215
11733
11656
12138
11887
11693
11578
11899
11394
11464
11589
12213
12010
11659
11935
11858
11897
11825
12140
12202
11955
11702
12476
12482
12004
11969
12623
12073
11709
12186
12557
12247
11878
12593
12052
11859
11991
12598
12466
12161
12081
12808
12250
11944
12443
12366
12575
12439
12692
12219
12658
11908
12528
12606
12370
12386
13165
12777
12393
12488
12970
12877
12803
12892
12864
12443
12659
12895
12790
12855
12473
13060
13031
12625
12514
13010
12970
12366
12968
12924
12804
12414
13130
12989
12755
12612
13182
12861
12533
12601
13360
12911
12278
13042
13116
13098
12360
13681
13377
12755
12866
13208
13278
12727
12732
13306
13224
12903
13058
13340
13147
12714
13013
13243
13025
13016
13267
13247
13032
12611
13053
13230
12493
13081
13126
12903
12318
12697
13133
12547
12166
12698
12635
11968
12114
12860
12216
11787
11922
12321
12098
11659
11777
11896
11805
11321
11841
11579
11344
11471
11882
11850
11334
11143
11839
11494
11286
11531
11990
11454
11198
11571
11774
11615
11287
11816
11748
11508
11239
11757
11526
11522
11381
12136
11683
11266
11648
11606
11592
11415
11786
11633
11579
11432
12039
11609
11598
11456
11855
11529
11216
11533
12060
11419
11508
11877
11962
11556
11432
11969
11938
11559
11538
11900
11698
11404
11984
12269
11996
11317
11988
12404
11803
11863
12117
12013
11807
11884
12380
11996
11857
12013
12311
12175
11878
11937
12393
12086
11702
12310
12258
11952
12027
12507
12467
12004
12050
12382
12299
11695
12206
12392
12033
11948
12401
12366
12223
12019
12494
12684
11759
12098
12746
12486
11716
12416
12366
12311
11976
12529
12811
12205
12168
12597
12457
12458
12123
12322
12384
12141
12350
12647
12583
12222
12503
12575
12535
12020
12509
12708
12421
12333
12775
12850
12401
12460
13025
12553
11970
12703
12682
12393
12312
12796
12913
12433
12453
12993
12939
12118
12697
12728
12585
12377
12430
12475
12038
11833
12180
12059
11670
11515
12333
12016
11555
11344
11940
11522
10909
11395
11320
11505
11026
11281
11570
11071
10994
11606
11439
11023
10978
11500
11250
10700
11141
11164
11185
10512
10968
11315
11104
10557
11177
11311
11237
11153
11706
10867
10661
11082
11456
11168
11100
11321
11399
11330
10997
11761
11696
11399
11428
11720
11466
11411
11307
11524
11760
11237
11578
11766
11585
11073
11697
11785
11563
11428
11943
11885
11309
11300
12029
11838
11736
11718
12054
11804
11532
11862
11749
11728
11423
11997
11888
11409
11628
12109
11991
11715
11992
11823
11947
11673
11881
11956
12068
11249
11948
11985
11557
11741
12212
12177
11515
11655
12143
12004
11711
11942
12014
11946
11341
11932
12213
12097
11520
12364
12120
11854
11682
12435
12034
11434
12138
11916
12099
11602
12282
12015
12086
12023
12372
12161
11965
12404
12256
12287
11800
12339
12362
12386
11729
12415
12589
12165
11950
12409
12283
12341
11930
12495
12421
12038
12371
12617
12287
11488
12265
13232
12607
12092
12854
12394
12345
11986
12334
12517
12576
12325
12440
12712
12233
12614
11881
12473
12455
12482
12627
12338
12206
12959
12508
12243
11992
12554
12161
11707
11619
12144
11886
11228
11630
11604
11512
11219
11666
11727
11248
10937
11646
11173
10792
11117
11797
11120
10841
11118
11381
11144
11076
10968
11110
10986
10777
10999
11369
10718
10674
10981
11134
10659
11202
11159
11451
10575
11323
11384
11479
11017
11288
11240
10808
11016
12232
11271
10927
11249
11679
11452
10818
11505
11423
11221
11057
11397
11547
11092
11198
11459
11344
10586
11461
11315
11366
11163
11415
11484
11418
11440
11994
11502
11576
11303
12110
11787
11278
11507
11907
11367
11347
11810
11956
11596
11602
12000
12012
11688
11485
12116
11777
11731
11604
12363
11966
11269
11896
12192
11846
11546
11977
12075
11790
11741
12041
11931
11845
11852
12382
12164
11543
11900
12316
12173
11556
12342
12415
12179
11903
12248
12461
12099
11960
12547
12053
11974
12091
12704
12280
11881
12287
12364
12342
11942
12643
12438
11960
12171
12495
12350
12217
11942
12537
12402
12157
12482
12630
12579
11849
12682
12836
12634
12342
13161
12957
12600
12113
13157
12564
12366
12625
12885
12688
12102
12565
13209
12631
12393
12606
12958
12591
12245
12692
12375
12314
12393
12897
12365
11739
12648
12375
12046
11506
11881
12186
11688
11554
12144
11971
11554
11515
11755
11322
11120
11184
11488
11203
11191
11511
11277
11138
10657
11304
11360
10860
10785
11363
10970
10615
10889
11497
11224
10752
11204
11286
11376
10561
11278
11393
11221
10842
11349
11500
11243
11549
11414
11324
10694
11536
11812
11258
11305
11540
11549
11071
11049
11547
11517
11149
11295
11423
11430
10943
11309
11493
11533
11120
11426
11423
11393
11105
11521
11626
11327
11007
11360
11171
10037
11434
11705
11631
11048
11642
11584
11470
11315
11340
12072
11036
11134
11485
11644
11290
11377
12049
11510
11167
11468
11759
11558
10931
11630
11472
11446
11333
11487
11933
11372
11450
11680
11559
11159
11703
11771
11547
11363
11866
11701
11635
11444
11682
11935
11682
11592
11600
11760
11497
11772
12002
11780
11512
11991
11887
11408
11615
11998
11731
11850
11384
11752
11801
11354
12345
11749
12059
11517
11918
12120
11838
11555
11626
11921
11975
11548
12172
12183
11611
11751
12192
12121
11395
11993
12099
11650
11675
11851
12119
11679
11612
12065
11477
11331
11846
12048
11858
11372
11910
11731
11635
11185
11843
11617
11367
11028
11446
11614
10892
10841
11412
11108
10484
10990
11146
10962
10364
10824
10574
10862
9840
10667
10548
10514
10197
10608
10733
10250
10145
10536
10308
9742
10263
10284
10310
9688
10128
10292
10012
9958
10471
10436
9787
10051
10480
10480
9926
10318
10523
10370
9932
10471
10381
10170
10162
10468
10351
10199
10185
10428
10802
10052
10471
10825
10249
10014
10761
10652
10433
10068
10494
10542
10254
10337
11177
10813
10380
10505
11079
10620
10640
10642
10972
10449
10449
10919
10991
9869
10704
11149
11119
10611
10617
10874
11157
10573
10839
11079
10884
10479
11004
11228
10859
10256
11135
11259
10589
10775
11212
11063
10762
11038
11206
11133
11009
11338
11248
10973
10707
11409
11273
10748
10981
11438
11071
10883
11132
11284
11231
10683
11654
11440
11280
11132
11209
11758
11489
11029
11775
11606
11480
11108
12090
11600
11330
11616
11469
11492
11440
11730
11705
11781
11455
12065
12054
11528
11444
12294
12095
11401
11768
12198
11830
11964
12244
12267
12019
11579
12249
12321
11817
12089
12479
12277
11710
12021
12251
12018
11734
12116
12278
11990
11314
11953
12159
11773
11758
11964
11930
11796
11727
12268
12002
11209
11823
11973
11532
11274
11665
11504
11268
10929
11373
11549
11213
11033
11601
10810
10418
10789
11152
10630
10578
11032
11045
10813
10477
10860
10987
10289
10702
10725
10852
10448
10897
10971
10789
10410
10702
11175
10474
10485
10935
10985
10333
10429
10858
10897
10404
10570
11055
11200
10525
10991
11195
10901
10980
11321
11137
10688
10765
11341
11283
10939
11191
11183
11138
10640
11020
11469
11182
10863
11088
11338
10903
10765
11207
11195
10979
10933
11217
11197
10723
11269
11258
11250
10886
11205
11559
11253
11039
11555
11311
11177
11075
11429
11642
11272
11412
11651
11446
11343
11496
11566
11432
11057
11665
11829
11692
11431
12234
11889
11180
11419
12237
11838
11232
11688
11733
11533
11226
11757
11700
11598
11323
11780
11685
11527
11572
11618
11932
11401
11723
12014
11785
11138
11588
12019
11576
11176
12096
11679
11413
11439
11903
11672
11098
11565
11999
11500
11488
11689
11656
11878
11062
11856
11905
11627
11314
11918
12016
11520
11663
11676
11695
11711
11837
12154
11757
11544
11871
11889
11506
11424
12047
11694
11475
11566
11924
11617
11375
11888
11756
11988
11044
11702
11568
11313
11230
11590
11584
10891
10884
11496
11130
11020
11038
10829
10922
10473
10761
10893
10622
10459
11004
10867
10681
10504
10783
10659
10536
10562
10352
10420
10057
10656
10535
10281
9939
10523
10564
10557
9920
10903
10310
10199
10258
10865
10508
10131
10483
10827
10638
10162
11138
10673
10519
9992
10464
10398
10388
10420
10802
10558
10278
10578
10720
10555
10056
10665
10726
10665
10521
10811
10925
10540
10515
10736
10886
10280
10890
10971
10792
10364
11337
11246
11133
10622
11290
11443
11061
10746
11273
11066
10889
11093
11220
11219
10856
11067
11357
10841
10609
11300
11362
10904
10900
11190
11234
10847
11225
11406
11364
11014
11288
10992
11276
10913
11700
11600
10972
11038
11713
11317
10881
11061
11409
11577
11087
11128
11665
11329
10808
11513
11464
11269
11120
11243
11739
11147
11123
11769
11588
11390
11301
11402
11384
11088
11530
11963
11437
10996
11768
11479
11238
11258
11831
11712
11398
11565
11953
11723
11464
11622
11755
11611
11141
11803
11842
11402
11237
11856
11691
11554
11605
11917
11927
11410
11701
12179
11864
11490
12050
12339
11904
11208
12096
12181
11677
11444
11791
12077
11637
11404
11715
11625
11562
11600
11876
11469
11190
11367
11651
10866
10757
11555
10965
10445
10810
11075
10859
10633
10559
10940
10436
10114
10682
10658
10389
10255
10456
10498
9881
10184
10578
10819
9618
10355
10602
10574
10319
10386
10403
10692
10064
10632
10484
10011
10098
10831
10531
10144
10437
10861
10340
10127
10657
10357
10698
10406
10975
10715
10346
10280
10950
10622
10259
10462
10848
10640
10033
10829
10725
10698
10532
10929
10936
10667
10412
10718
10886
10596
10758
10756
10634
10323
11572
10853
10712
10656
11074
11086
10985
10801
11144
11205
11179
10862
11585
11270
10866
11374
11216
11414
10913
11400
11641
11290
11056
11638
11519
11247
11297
11323
11680
11120
11716
11997
11507
11443
11480
11393
11537
11438
11572
11732
11367
11518
11839
11788
11219
11651
11944
11767
11353
11681
11685
11574
11410
11875
11866
11802
11362
12286
11865
11416
11960
12156
11987
11608
11907
12081
11998
11554
12112
12179
12067
11653
11968
12058
11683
11653
12201
12332
11905
12289
12406
12167
11958
12382
12182
12351
12026
12268
12510
12237
12054
12302
12410
12002
12202
12206
12308
11685
12254
12526
12178
11804
12446
12275
12137
11669
12551
12335
12200
12188
12051
12065
11592
12011
12320
11879
11230
11933
12008
11913
11076
11712
11761
11417
10987
11696
11388
11182
11272
11298
11266
10891
11273
11030
10811
11119
11157
11330
10933
10773
11473
10915
10632
10937
11131
11308
10493
10985
11121
11146
11006
11322
11226
11182
10787
11603
11264
11214
11136
11572
11665
10885
11416
11694
11170
11132
11625
11719
11337
11116
11402
11252
11178
11246
11759
11416
10907
11430
11445
11574
10890
11499
11845
11392
10995
12018
11780
11282
11295
11665
11593
11218
11721
11719
11631
11077
11724
11848
11704
11267
11828
11760
11716
11154
11902
12123
11510
11847
12067
12097
11515
11789
12201
12086
11605
12252
12416
11968
11983
12273
12332
11938
11796
12429
12376
11956
12616
12528
12498
11903
12190
12627
12061
11373
12497
12440
11613
11987
12666
12364
12344
12245
12774
12389
12267
12416
12832
12358
12538
12689
12681
12255
11757
12869
12322
12264
12489
12929
12636
12046
12764
12412
12416
11956
12719
12644
12547
12282
12250
12662
12351
12703
12773
12808
12105
12773
13037
12291
12125
12925
12925
12625
12607
12896
13035
12384
12601
12917
12573
11780
12529
12773
12611
12167
12613
12734
12266
12345
12502
12391
12113
11910
12308
12039
11890
11768
12028
11825
11595
12095
11882
11753
11540
11638
11776
11557
11560
11889
11974
11458
11125
11597
11670
10802
11718
11735
11441
10865
11774
11726
11189
11396
11700
11642
11474
11463
11981
11784
11073
11727
11953
11732
11282
11811
12012
11997
11695
11920
12297
11607
11619
12180
12236
11669
11766
12362
12166
11683
12253
12345
12320
11870
12256
12490
12381
11961
12327
12139
12203
12363
12518
12386
12114
12376
12598
12467
12075
12645
12461
12603
12310
12797
12854
12415
12400
12884
12610
12480
12593
12546
13014
12523
12786
12936
12793
12794
13007
12893
12467
12501
13079
12733
12467
12871
13174
12912
12568
12644
13137
12875
12702
13136
13221
12841
12847
13296
12935
13080
13067
13378
13071
12510
13269
13334
13042
12651
13462
13134
13169
12805
13387
13019
12818
13028
13637
13195
12822
13413
13329
13086
12815
13390
13280
13308
12857
13412
13409
12751
12882
13238
13649
12783
13448
13598
13275
12795
13196
13312
13246
12958
13377
13108
13219
13044
13282
13257
12947
13318
13630
13513
12767
13288
13795
13361
12616
13766
13486
13615
13879
13343
13687
13222
13195
13889
13613
12864
13217
13101
12934
12424
13242
12902
12578
12534
12710
12566
12196
12351
12572
12584
12007
12236
12548
12275
11777
12432
12264
11990
11557
12069
12158
11829
11842
12205
12181
11707
11770
11796
11988
11418
11905
12256
11920
11673
12354
11848
11921
11866
12765
12344
12002
12091
12037
12262
12136
12552
12459
12120
11744
12376
12393
12145
12114
12618
12467
12072
11902
12177
12121
11805
12075
12256
12326
12199
12366
12222
12199
11852
12471
12558
12206
11857
12698
12231
11915
12604
12773
12351
12186
12643
12777
12606
12213
12723
12853
12366
12513
13379
13001
11964
12789
12662
12931
12433
12877
12715
12573
12392
13142
12888
12767
12245
13261
13127
12638
12708
13043
12699
12483
12855
12985
12803
12366
12939
13024
12783
12813
13117
12744
12756
12902
13381
12904
12442
12866
13113
12852
12713
13007
13335
12765
12766
13245
13219
12843
13033
13292
13261
12558
12807
13157
13133
12699
13161
13366
12893
12615
13344
13299
12815
12767
13479
13469
12938
12954
13440
13283
12948
13554
13708
13437
13100
13702
13470
13255
13027
13630
13773
13071
13287
13393
13193
13179
13432
13615
13517
12760
13410
13564
13181
12831
13351
13157
12938
12625
12868
13123
12532
12491
12649
12351
12059
12598
12656
12331
12125
12204
12510
12161
11863
12543
12205
11645
12066
11920
12190
11678
12217
12340
12107
11476
12213
12224
12284
11750
12273
12093
11832
12132
12750
12304
12127
12289
12439
12325
11999
12678
12282
12107
12125
12319
12640
12344
12117
12041
12321
11858
12437
12345
12476
11973
12730
12218
11953
11884
12504
12740
12110
12428
12589
12473
12651
12338
12698
12469
11869
12499
13089
12251
12368
12627
12758
12388
12307
12815
12525
12446
12453
13213
12520
11955
12922
13002
12611
12149
12767
12527
12618
12545
13156
12668
12536
12323
12880
12657
12411
12642
13090
12612
12402
12731
13080
12780
12365
12749
13038
12491
12335
12752
12906
12377
12429
12933
12837
12607
12849
12775
12973
12615
12938
12650
12819
12759
12910
12851
12779
12895
13281
12933
12423
12814
13023
13131
12894
12775
13112
12946
12752
13478
13300
12855
12783
13209
12979
12657
12876
13191
12873
12660
13083
13096
12782
12689
12918
12847
13015
12545
12921
13031
12382
12901
13083
13082
12247
12871
12992
12819
12477
12522
12912
12207
12141
12842
12261
11152
12177
12096
12099
12108
12172
12176
11795
11561
12472
11795
11762
11604
11783
11951
11107
11181
11784
11913
11443
11410
11379
11651
11215
11519
11540
11415
11015
11542
11487
11553
11172
12149
11650
11304
11550
11819
11621
11315
11978
11903
11865
11471
11975
12019
11997
11692
12082
12199
11577
12102
12091
11950
11708
12237
11896
12124
11845
12206
12205
11912
11491
12438
12058
12003
11866
12333
12051
11935
12184
12300
12080
11855
12583
12422
11974
11904
12433
12336
12138
11883
12260
12315
12106
12202
12606
12184
12178
12601
12916
12450
12440
12743
12639
12116
12328
12911
13127
12451
12707
12705
12704
12318
12663
13088
12788
12445
12833
12748
12870
12522
12528
13345
12443
12958
13035
12900
12420
12867
13144
13236
12621
12823
13278
12804
12791
12794
13251
13073
12849
13581
13281
12862
13172
13665
13159
12952
13271
13497
13133
13021
13378
13132
13069
12900
13563
13431
12952
13127
13596
13505
12853
13206
13176
13326
12641
13125
13201
12636
12783
13255
13442
13171
13156
13269
13261
12794
13429
13392
13262
12982
13498
13306
12959
13018
13239
13119
12605
12665
13112
12620
12255
12616
12953
12485
12391
12648
12360
12660
11708
12555
12248
12167
11576
12254
12098
11623
11841
11845
12019
11451
11776
11749
11880
11284
12261
11849
11692
11399
12056
11577
11507
11981
12133
11895
11603
12057
12024
11713
11282
12625
12172
11940
11937
12135
12130
11925
12060
12703
12214
12024
12297
12676
12065
11876
12522
12471
12140
11734
12375
12467
12455
12043
12642
12238
11905
12182
12343
12538
12111
12548
12507
12684
11861
12316
12736
12513
12327
12899
12664
12417
12447
12432
12279
12224
12827
12652
12503
12205
12683
13127
12326
12226
12889
12875
12614
12236
13251
12951
12064
12890
12771
12667
12367
12766
12998
12497
12369
13323
12905
12603
12597
12608
12533
12176
12833
13051
12781
12333
12743
12915
13004
12473
12861
12825
12710
12616
13104
12787
12523
12782
13105
12956
12335
13114
13014
12779
12671
13099
12895
12728
12659
13565
12944
12458
12642
13039
13137
12319
13015
13167
12494
12801
13204
13179
12677
12534
13218
13088
12632
12631
13357
13047
12860
12984
13099
12730
12575
12912
13287
13011
12234
12972
12819
12418
12024
12524
12378
11927
12255
12651
12036
11662
12209
12083
11785
11425
11983
11769
11627
11352
11593
11817
11126
11324
11847
11456
10853
11252
11586
11323
10803
11167
11521
11184
10964
11673
11217
10910
10844
11168
11285
11135
11125
11681
11365
10958
11195
11570
11164
11032
11871
11580
10949
11166
11570
11375
10686
11239
11792
11370
11065
11674
11306
11254
10982
11953
11493
11380
11311
11751
11847
11215
11306
12133
11571
10851
11956
11706
11641
11206
11823
11738
11883
11601
11859
11822
11788
11530
12296
11833
11462
11603
11914
11559
11365
11838
11779
11647
11520
11988
12185
12021
11715
12655
12065
11696
12139
12050
12257
11575
11601
12033
11482
11441
12148
12024
11871
11776
12073
12273
11912
12021
12294
12035
11574
12120
12017
12162
11865
12267
12595
11978
12129
12542
12475
11809
11818
12425
12209
11765
12110
12331
12063
12077
12117
12229
12149
11595
12390
12680
11899
11883
12535
12430
11658
12248
12478
12232
11913
12402
12535
12118
11953
12694
12566
11756
11750
12204
12522
12216
12255
12725
12170
11984
11634
12121
11923
11795
12482
12168
11720
11217
12785
12031
11349
11157
12028
11756
11461
11194
11722
11483
10624
11380
11219
10724
10336
10884
10520
10546
10432
11066
10684
10380
10643
10615
10485
10018
10346
10622
10631
10178
10859
10994
10664
10278
10830
10802
10474
10541
11142
10951
10290
10931
11025
10948
10476
11031
11292
10960
10915
11421
11182
10543
11011
11368
11279
10864
11047
11362
11310
10917
11518
11350
11234
11174
11686
11662
11450
11038
11681
11918
10748
11377
11470
11322
11302
11725
11741
11543
10979
11902
11660
12391
10626
12109
11897
11475
11649
12619
11916
11564
11968
11958
11367
10803
13030
11569
12208
12246
12312
12692
12248
12099
12698
12328
11639
12107
13012
12043
12070
12545
12399
12393
11931
13051
12114
11971
12318
11947
12001
12336
12597
12105
11724
11999
13433
12668
13206
12377
13814
13366
12696
12271
12494
12618
11949
12239
13046
12519
12162
13039
12368
12454
11671
12360
12398
12502
13195
13676
13203
12242
13463
13818
13096
12163
13088
13381
13111
12282
13080
12726
13560
12425
13559
13384
13243
13198
13997
13047
13194
13474
13078
12870
12706
12717
13436
13713
12056
12762
13118
12806
12213
13018
12817
11764
12631
12619
12044
12749
12560
13228
11591
12425
12315
12727
11224
11921
12175
11700
11166
12347
12919
11797
11656
11930
11943
12089
10808
10903
11317
11659
11579
12162
11926
11558
11774
11549
11700
11278
11819
11612
11648
11250
11329
11785
11994
11281
11714
11790
11654
11975
12056
12062
11450
11492
11415
11988
11258
11316
11682
11823
11630
12625
11940
11667
11674
11268
11323
11004
11867
11898
11988
11335
11937
12027
11955
11335
12248
12056
11906
11924
12281
12136
11927
12020
12550
12338
11446
12081
12505
12200
11699
12065
12314
12008
11854
12249
12292
12092
11811
12067
12225
11601
12307
12400
12011
11652
11940
12490
11980
11696
12341
12054
11740
11530
12385
11848
11710
11857
12464
12047
11516
11975
12256
12105
11837
11997
12573
11972
11690
12472
12303
11754
11868
12822
12162
11973
12394
12510
12303
11982
12277
12496
12358
12122
12813
12531
12447
12290
12711
12698
12003
12386
13179
12784
12525
12960
13308
12833
12397
12985
13178
12551
12883
13269
13227
12374
12734
13150
13124
12576
13336
13326
12962
12571
12966
12769
12631
12632
13186
12923
12194
12417
12824
12266
11991
12428
12604
11930
11797
12182
11434
11977
11284
12229
12032
11725
11331
11824
11705
11524
11451
11922
11509
10942
11469
11783
11415
11384
11646
11469
11171
11136
11757
11368
11229
11625
11674
11427
11098
11688
11678
11516
11061
11791
11955
11780
11509
12189
11796
11656
11599
12253
12253
11727
11580
12076
11998
11367
12053
12080
11704
11825
12198
12316
11823
11714
12277
12049
11855
12188
12404
12076
11750
12301
12349
11919
11875
12212
12394
11833
11951
12819
12610
12094
12423
12456
12670
12077
12826
12165
12746
12454
12852
12748
12699
12267
12992
12704
12407
12887
13149
12753
12545
13164
13713
13198
12824
13325
13454
13490
13269
13861
13422
13448
13429
14003
13945
13438
13815
13950
14277
13332
14305
14730
14259
14102
14719
14777
14594
14463
15016
14808
14373
14814
15085
15162
15245
15537
15514
15452
15143
16129
15846
15666
15400
16049
16213
15958
16152
16171
16321
16066
16588
16891
16343
16045
16655
17088
16637
16503
16871
16904
16108
16400
16716
16589
16030
16821
16936
16551
16391
16550
16770
16319
16199
16471
16394
16170
16001
16370
16355
16093
15815
16342
15851
15456
15481
15431
15105
14810
15197
15102
14580
14284
15041
14526
13885
14592
13644
14700
13736
13686
13998
13601
13243
13933
13858
13527
13420
13742
13536
13470
13400
13543
13291
13151
13469
13936
13476
13142
13707
13257
13262
13244
13167
13662
13517
13396
13940
13119
13084
13559
13887
13744
13251
13648
14085
13722
13435
13880
13807
13656
13618
14283
13719
13412
13586
13785
13633
13310
14207
13935
13714
13219
13915
13884
13312
12770
14442
13930
13132
13630
14421
13832
13703
14090
14338
13920
13693
13798
14233
13747
13810
14447
14293
13883
13599
14521
14247
13901
14122
14580
14210
13922
14511
14435
14230
14544
14279
14561
14311
14282
15032
14633
13911
14355
14544
14627
14168
14563
14591
14341
14099
14462
14696
14747
14427
14865
14717
14348
14500
14608
14610
14106
14627
14595
14600
14377
14659
14900
14599
14041
14540
14615
14078
14367
14607
14602
14285
14546
14728
14835
14246
14745
14530
14573
14139
14737
14511
14223
14221
14883
14599
13893
14399
14857
14448
14001
14471
14178
14195
13631
14468
14393
14047
13886
14263
14113
13705
13642
14079
13714
13482
13473
13514
13276
12792
13415
13595
13182
12967
13462
12983
12890
12590
13376
13072
12587
12958
13152
12667
12792
12905
13283
12959
12295
12747
12756
12810
12438
12997
12972
12842
12922
12670
12867
12738
12900
13271
12797
12564
12955
12730
12656
12463
13262
12806
12825
13039
13056
13118
12640
13297
13346
13005
12647
12973
13285
13157
12570
13520
13548
12748
13115
13303
13089
12420
13271
13711
14105
12912
13544
13289
13119
13156
13435
13244
13231
12824
13454
13470
12940
13223
13485
13326
13081
13301
13812
13179
12820
13460
13696
13181
12708
13102
13579
13263
13457
13608
13312
13053
13339
13652
13241
12972
13562
13733
13452
13347
13765
14078
13091
13345
13846
13577
12789
13418
13876
13525
13290
13953
13704
13604
13198
13838
13639
13515
13290
13719
13748
13159
13550
13858
13565
13387
13856
13835
13601
13354
13880
13810
13610
13475
14057
13891
13736
13737
14170
14026
13351
13934
14176
13860
13620
14191
14070
13804
13624
14444
14034
13740
13670
14284
13915
13520
14068
14404
13939
13612
14142
14115
13897
13745
14166
14174
13532
13419
14045
13792
13718
13363
13738
13608
12846
13351
13477
13166
12476
13177
13271
12841
12632
13062
13060
12437
12806
12769
12825
12222
12717
13046
12693
12272
12455
12583
12409
12074
12871
12681
12543
12249
12604
12540
12366
12692
13186
12701
12460
12694
13215
13312
12661
13622
13466
12996
12879
13126
13433
12778
13194
13093
13376
12876
13360
13488
13449
12746
13576
13091
13123
13159
13625
13498
13027
13253
13661
13551
13164
13633
13467
13470
13484
13751
13712
13523
13223
13387
13758
13862
13421
14345
14028
13143
13587
13950
14114
13688
14163
13742
13908
13626
14359
14275
14299
13833
14638
14534
14078
14256
14410
14451
14349
14500
14327
14486
14028
14713
14789
14345
15123
14639
14970
14394
14774
14704
14953
14371
14773
14717
14617
14248
15210
15116
14651
14488
15081
14883
14562
14677
15204
14903
14352
14931
15010
14829
14379
14802
15276
14174
14556
15181
15291
14816
14651
15041
15320
14722
15149
15309
14991
14806
15216
15097
15173
14821
15383
15304
15034
14913
15030
15223
14917
15129
15435
15183
14592
15221
15486
15179
15236
15381
15536
14950
14975
15728
15245
14592
15010
15336
15005
14409
14868
15175
14694
14403
14686
14688
14291
14213
14494
14492
13994
13653
14363
14010
13532
13940
14232
13890
13513
13999
13908
13747
13529
13994
13747
13378
13565
13807
13809
13414
13652
13962
13513
13591
13809
13764
13775
13112
13867
14210
12860
13963
14258
13955
13690
13698
14164
14183
13363
14022
14337
13997
13598
14356
13933
13967
13659
14199
14369
13688
13712
14122
14020
13558
14065
13921
14100
13744
14245
14132
14133
13832
14322
14253
14051
13750
14467
14103
14405
14223
14746
14172
13397
14187
14423
14290
14217
14465
14604
14035
14183
14459
14559
14032
14132
14537
14609
14281
14565
14822
14666
13930
14202
14688
14475
14257
14874
14838
14494
14227
15446
14650
14469
14559
14964
14614
14664
14795
14944
14751
14466
14995
15101
14501
14465
15094
14898
14437
14677
15245
14921
14608
14720
14989
14753
14589
15285
15032
14933
14513
15374
14950
14730
14878
15387
15278
14897
15100
15250
15038
15320
15140
15258
15018
14640
15417
15204
15057
14987
15201
15104
15317
15099
15301
15194
14955
15277
15208
15196
14524
15258
15201
14599
14537
15303
15081
14709
14886
14331
14680
15279
14415
14340
14438
13994
14325
14182
14055
13511
14184
13949
13715
13492
13964
13611
13356
13891
13607
13506
12900
13473
13542
13367
12912
13765
13836
13239
13488
13912
13517
13285
13631
13540
13702
13369
13684
13796
13605
13451
13939
13779
13502
13628
14283
13991
13399
13667
14220
13913
13392
13985
13988
14032
13528
14423
14120
14766
13811
13945
13873
14003
13806
14071
14500
13538
14286
14086
14256
13890
14517
14543
14485
13980
14540
14365
14394
14272
14594
14446
14099
14752
14702
14681
14252
14786
14810
14764
14539
15045
14948
14754
14183
15486
15120
14161
14931
15350
15135
14361
14997
15474
15026
14898
15317
15171
15191
14733
15916
15321
14929
15199
15718
15251
14324
15308
15843
15593
14937
15751
15668
15282
15243
15903
15687
15482
15774
15796
15676
15264
15727
16216
16045
15617
16118
15868
16024
15649
16025
16095
15712
15821
16087
16243
15159
15845
16799
16343
16105
16192
16452
16280
15830
16534
16518
16118
16166
16556
16909
15610
16256
16464
16236
16329
16484
16348
16597
15869
16610
16899
16191
16163
16980
16502
16201
16426
16643
16338
16042
16203
16389
16238
15506
16133
15944
15851
16098
15854
15837
15351
15038
15788
15593
14613
15506
15787
15439
14890
15379
15388
14803
14725
15151
15296
14949
14535
15554
15226
14790
14917
15339
15109
14507
15265
15400
14982
14738
15333
14963
14946
14925
16356
15431
15344
14771
15516
15633
14890
15427
15592
15500
15262
15721
15961
15573
15031
15816
15658
15681
15302
16072
15948
15320
15955
16077
15839
15528
15818
15930
15868
15937
15975
15919
15702
15592
16020
16128
15692
15950
16595
16215
15679
16115
16182
16165
15719
16329
16147
15975
15889
16586
16682
15968
15884
16448
16397
15964
16244
16500
16050
16334
16347
16229
16195
16024
16545
16637
16368
16011
16657
16477
16184
17096
17510
16409
15875
16938
16913
16699
16679
16670
16717
16580
16109
17020
16608
16146
16377
16707
16590
16173
16701
16493
16450
16233
16965
16834
16023
16609
16731
16753
16579
16500
17037
16566
16377
16822
17223
16720
16494
16863
17116
16763
16307
16909
17022
16586
16658
17389
16792
16417
16829
17311
16987
16556
16864
17239
16790
16835
17032
17066
16495
16143
16978
16915
16442
16607
16630
16550
15882
16400
16454
16269
15829
16084
15885
15935
15280
15918
15794
15259
15403
15261
15728
14457
15156
15397
15142
15175
15348
15585
15104
15116
15108
15268
14911
14769
15594
15210
14967
15231
15207
14899
14822
15125
14864
15391
15108
15750
15343
14893
15147
15634
15560
15152
15236
15563
15562
15264
15408
15479
15407
14799
15590
15824
15360
15356
15771
15585
15017
15273
16195
15667
15121
15830
15715
15790
15112
15781
15946
15652
15454
16116
15815
14945
15547
16029
15486
15238
15924
15997
16017
15452
15851
15954
15801
15590
16162
15996
15890
15607
16312
16421
15664
15689
16099
16364
15522
15934
16093
16203
15921
16160
16349
16154
15964
16240
16380
15759
16004
16639
16304
15824
16603
16656
16389
16013
16515
16431
16247
15883
16580
16464
16176
16239
16662
16417
16058
16428
16792
16410
16368
16493
16771
16437
16349
17194
16667
16592
16366
17148
16623
16321
16683
16744
16741
15991
16686
17097
16733
16602
16811
16690
16569
16367
16944
16840
16442
16441
17314
16689
16051
16871
16647
16826
16482
16871
17018
16662
16387
16828
16841
16537
16342
16724
16628
15983
16371
16527
16399
15746
16170
16010
16231
15670
15921
16008
15421
15408
16166
15587
15048
15501
15238
15280
14890
15428
15345
15131
14878
15183
15208
14954
14552
14742
14994
14745
14801
14789
15002
14298
15130
15077
15094
14175
15255
15277
15022
14589
15325
15435
15021
14748
15189
15228
15154
15430
15626
15156
14828
15299
15681
15469
15222
16068
15596
15603
15157
15996
15546
15528
15566
15754
15609
14999
15821
15643
15928
15412
16023
16187
15769
15477
16259
15977
15601
15610
16094
16106
15920
16077
16103
16167
15810
16468
16513
16222
16184
16347
16368
16098
15894
16579
16606
16069
16239
16507
16351
16057
16607
16448
16518
16430
16786
16602
16547
16489
16446
16729
16271
16570
16773
16646
16214
17082
17174
16768
16451
16630
16949
16637
16677
17024
17047
16600
16562
16903
16765
16368
16960
17149
16773
16217
17130
17173
16894
16615
17258
17057
16969
16960
17242
17197
17025
17126
17092
17226
16728
17286
17419
17121
16538
17398
17295
17073
16707
17497
17630
16926
17172
17572
17417
16562
17427
17581
17443
16901
17553
17452
17184
17220
17391
17433
17188
17396
17388
17432
16562
17371
17431
17229
16743
16993
17132
16526
16526
17088
16632
16405
16349
16817
16524
15799
16139
16477
16506
15774
16195
16056
15994
15790
16061
15869
15875
15888
15976
15813
15403
15635
16133
15927
15257
16002
16090
15940
15426
16093
16308
15453
15334
16050
16066
15752
15785
16190
15964
15791
16044
16041
16249
15871
16469
16314
15945
15913
16302
16095
15915
15904
16292
16012
16584
16214
16018
16119
16619
16351
16216
16107
15987
16432
16175
16051
15890
16447
16338
15932
16086
16273
16576
15923
16177
16248
16361
15881
16543
16635
16196
16285
16433
16477
16167
16317
16694
16794
16232
16578
16936
16410
16010
16705
16964
16502
16322
16910
16603
16259
16235
16914
16987
15994
16683
16858
16643
16409
16884
16837
16708
16417
16013
16847
16679
16440
17244
16321
16415
17035
16471
16750
16580
17126
17672
16810
16622
17183
17111
16925
16547
17433
17262
16680
16744
17384
17454
16692
17173
17384
17122
16610
17225
17213
17229
16864
17443
17249
17047
16717
17484
17237
17154
17343
17298
17367
16588
17140
17415
17203
17005
17597
17516
16890
16905
17741
17257
16668
16983
17273
17045
16583
17088
17139
16974
16100
16468
16914
16635
16440
16667
16580
16079
16191
15864
16143
15156
16001
15814
16043
15350
15991
15504
15442
15642
16062
15735
15310
15259
15664
15511
14883
15503
15786
15401
15098
15524
15672
15359
15103
15966
15508
15613
15271
16397
15774
15326
15728
16155
15553
15526
15620
15648
15643
15172
15797
15767
15512
15369
15728
15946
15459
15462
16043
15883
15257
15819
16008
15590
15549
16127
16068
15776
15663
16165
16037
15805
15417
15863
15960
15695
16013
15991
16013
15906
15943
16169
15893
15570
15927
16364
15996
16134
16533
16236
15816
16185
16155
16300
15617
16088
16191
16039
15902
16157
15838
16096
15651
16473
16361
16100
15941
16469
16296
15679
16237
16249
16240
15703
16522
16443
16251
15920
16455
16456
16425
16181
16607
16329
16109
16413
16721
16123
15923
16393
16476
16601
15939
17259
16408
16327
16189
16722
16791
16216
16530
16682
16953
16252
16606
16774
16843
16791
16962
16934
16513
16293
16633
16962
16558
16531
16695
16786
16015
17194
16960
16869
16702
17126
16761
16566
16338
17218
17012
16465
16930
16997
16995
16285
16711
16692
16864
16327
16784
17068
16544
16130
16703
16559
16483
16089
16883
16282
15765
15885
16004
15883
15742
15843
15969
15579
15292
15652
15694
15283
15159
15611
15494
14781
15111
15660
15224
14575
15301
14994
15175
14721
15214
14866
14854
14979
15734
15299
15049
15102
15333
15316
14696
15060
15598
15422
14562
15346
15593
15422
15103
15504
15714
15051
15292
15735
15695
15164
15563
15500
15393
15093
15720
15632
15597
15071
15450
15886
15372
14960
15590
15513
15267
15392
15982
15615
15101
15791
15592
15903
15077
15776
15600
15495
15351
15674
15768
16065
15603
16189
15761
15539
15895
16010
15985
15837
15916
15849
15975
15663
16301
16100
15701
15859
16649
16307
15658
15788
16359
16261
15853
16069
16241
16168
15792
16004
16641
16105
16255
16727
16172
16398
16366
16663
16367
16230
16666
16586
16688
16175
16580
16876
16399
16115
16721
16718
16581
16300
16653
16897
16514
16241
16856
16928
16075
16628
16610
16695
16469
16849
16897
16677
16505
17210
17045
16303
16741
17071
16654
16135
16722
17215
16569
16279
16724
16270
16242
16437
16827
16753
16349
16688
16484
16533
16013
16321
16750
16548
15999
16536
16540
16307
16086
17162
16493
15905
15310
16130
15891
15208
15698
15898
15423
15446
15365
15433
15417
14870
15395
15474
15196
14830
15650
15329
14902
15013
15511
14821
14694
15116
15564
14972
14565
15061
15016
14770
14641
15282
15010
14818
15048
15295
15166
15126
15160
15635
15300
14876
15431
15333
15210
15066
15535
15179
15304
15056
15438
15387
15006
15219
15698
15351
14985
15400
15331
15324
15252
15442
15499
15331
15172
15696
15441
15305
15305
15698
15204
14998
15173
15879
15204
15284
15564
15472
15352
15149
15794
15639
15346
15313
16029
15777
15126
15411
15960
15464
15627
15830
15935
15720
15430
15685
15879
15673
15395
16099
15905
15381
15518
15834
16010
15523
15948
16256
15692
15564
16072
16113
15926
15683
16437
15830
15790
15650
16114
16036
15584
15806
15882
16202
15438
16214
16044
16165
15858
16298
15928
15946
15806
16168
16017
15858
16011
16585
16012
15962
16228
16327
16062
15887
17157
16019
15950
15949
16443
16459
16141
16116
16804
16375
15940
16293
16219
16323
16359
16488
16137
16367
16109
16648
16663
15883
16417
16343
16355
15959
16378
16579
16170
16006
16357
16122
16064
15576
16016
15812
15373
15630
15885
15790
15025
15392
15701
15506
15173
15321
15212
14750
14892
14868
15190
14365
14688
14804
14899
14059
14694
14575
14996
13782
14770
14687
14191
14318
14977
14728
14612
14479
14781
14873
14744
14603
15063
15060
14255
15044
15021
14818
14663
14726
15269
14907
14794
15390
15147
14880
15041
14731
15338
14926
15296
15290
15291
14511
15238
15728
14904
15149
15257
15340
15194
15173
15438
15772
15260
15464
15557
15211
14911
15534
15704
15438
15366
15477
15715
15589
15241
16064
15762
15092
15124
15883
15638
15123
15622
15697
15297
15066
15686
15753
15600
15396
16029
15803
15426
15410
15821
15796
15038
15357
15809
15647
15128
15622
15817
15759
15337
16004
16009
15827
15254
15849
15694
15426
15879
16157
16123
15580
16036
16528
15901
15685
16132
16227
15904
15891
16267
16052
15855
16134
16359
16265
15932
16551
16493
16098
15840
16500
16401
16048
16130
16494
16434
16069
15872
16697
16428
15869
16058
16671
16353
15758
16019
16573
16211
15765
16683
16486
15907
15701
16902
16448
15535
15987
16484
16600
15726
16376
16729
15934
15837
15995
16169
15921
15722
16166
15977
15774
15634
15797
15720
15034
15471
15867
15413
14773
15393
15155
15040
14387
15038
15203
14207
14347
15083
14704
14176
14409
14870
14512
14456
14337
14499
14399
14231
14459
14296
14469
13956
14586
14567
14308
14399
14718
14681
14669
14649
14783
14584
14372
14431
14874
14578
14741
15116
14945
14524
14580
15366
14888
14463
15049
14941
14810
14581
14971
15221
14883
14281
15204
15163
14758
14779
15383
14819
14936
15318
15552
15135
14734
15195
15123
15158
14873
15442
15499
15220
15008
15690
15505
15370
15219
15616
15700
14908
15685
15888
15801
15375
15948
16087
15787
15544
16054
16122
15676
15899
16129
16134
15552
16139
16413
15972
15560
16207
16249
16050
15747
16288
16249
15739
15771
16448
16454
16004
16118
16488
16175
15995
16309
16307
16140
15532
16266
16000
15755
15940
16409
16432
15913
15827
16697
16204
15471
16268
16354
16078
15629
16374
16121
16319
15854
16362
16290
16271
16197
16202
16209
15425
16234
16173
16031
16142
16597
16228
15705
15454
16138
16387
15872
15740
16177
16165
15669
15990
16284
15963
15247
15818
15953
15955
15486
15966
16182
15712
15194
15810
15634
15247
15438
15500
15183
14372
15066
15142
14800
14376
15117
14851
14211
14326
14714
14446
14241
13863
14513
14483
14067
14256
14370
14106
13468
14153
14168
14072
13678
14285
14131
13990
13845
14323
14281
13871
13975
13921
14254
13726
14279
14788
14532
13885
14663
14980
14202
14073
14705
14574
14262
14364
14864
14617
13964
14604
14511
14481
14263
14440
14620
14717
14203
15813
14935
14625
14393
14999
14675
14677
14696
14993
14862
14443
14759
14744
15040
14423
15043
15084
14436
14513
14859
15110
14453
15033
15018
15043
14896
14919
15093
14975
14692
15086
15400
14752
14846
15620
15083
14945
15170
15230
15231
14578
15058
15324
15014
14715
15260
15307
15088
14940
15393
15213
14891
14935
15385
15382
14880
15236
15369
15265
14853
15506
15482
15345
15081
15654
15545
15606
14868
15790
15774
15171
15296
15561
15474
15026
15428
15722
15482
15235
15584
15833
15549
15358
15931
15549
15413
15317
15944
15878
15563
15839
15849
15783
15537
15791
16091
15814
15529
16097
16185
15614
15725
16263
16041
15279
16175
16322
15963
15544
16285
15600
15851
15444
16053
16191
15795
15482
16261
15501
15387
15465
15621
15635
14886
15603
15446
15284
14619
14923
15028
14361
14615
15209
14955
14321
14419
14792
14654
13952
14541
15105
14334
13779
14614
14357
14162
14012
14328
14251
14135
13924
14674
14375
13785
14091
14330
14403
14004
14367
14649
14286
13908
14674
14588
14310
13999
14666
14857
14367
14627
14750
14585
14340
14565
14622
14411
14137
14503
14932
14371
14440
15054
14977
14546
14474
15072
14824
14421
14740
14776
14735
14499
15219
15125
15028
14748
15169
15245
14903
14651
15278
15312
14654
15254
15423
14808
14484
15299
15339
15120
14695
15405
15282
15127
14823
15255
15735
14999
15244
15843
15118
14848
15481
15531
15488
15440
15657
15477
15130
14950
15309
15545
14980
15180
16019
15873
15159
15269
16013
15540
15108
15602
15801
15473
15098
15478
15530
15326
15080
15943
15732
15170
15687
15825
15536
15114
15756
15676
15431
15152
15596
15483
15386
15217
15896
15952
15481
15752
15831
15725
15580
15652
15775
15948
15312
15835
15986
15824
15620
15718
15981
15412
15334
15644
15769
14995
15616
15861
15660
15499
15791
15831
15726
15202
15930
15822
15381
15119
15789
15522
14973
14974
15475
15073
14394
15174
14714
14807
14444
14178
14567
14549
14279
14297
14545
13755
14006
14461
14441
13932
14031
14133
14032
13457
14264
14381
14031
13926
14076
13977
13819
13846
14323
13774
13586
14012
14108
14030
13513
14003
14610
14141
13907
14417
14340
13976
13726
14442
13969
14163
14284
14601
14353
13813
14376
14271
14364
13984
14327
14795
14021
14166
14708
14410
13994
14301
14766
14433
14297
14394
14558
14489
14181
14585
14575
14487
14290
14834
14757
14497
13932
14858
14840
14153
14824
14762
14468
14124
14584
14948
14450
14301
14898
14934
14330
14502
14964
14941
14381
14691
15168
14596
14258
15114
14948
15086
14590
15067
15333
14846
14686
15330
15050
14385
15008
15248
15052
14570
14933
15263
14786
14888
15058
15155
15613
14669
15600
15366
14756
14940
15344
15252
14391
15049
15462
15453
15116
15643
15206
15291
14761
15296
15514
14992
14841
15501
15558
15107
15193
15672
15565
15042
15355
15115
15172
14899
15624
15502
15305
15139
15595
15831
15194
15333
15402
15530
15197
15500
15366
15511
15228
15624
15328
15530
15020
15904
15580
15276
15011
15657
15352
15417
15057
15168
15306
14581
15165
15319
15201
14244
15351
14886
14702
14115
14825
14691
13951
14003
14500
14397
13326
13962
13976
13853
13699
14187
13727
13577
13019
13703
13507
13066
13391
13984
13521
13223
13716
14040
13652
12981
13745
13669
13804
13146
13660
13539
13760
13254
14176
13996
13456
13716
14389
14455
13582
14180
14306
13950
13839
14143
14017
13693
13761
13899
14167
13839
13922
14465
14105
13582
14114
14275
13801
13833
14213
14467
14140
13668
14433
14153
14271
14008
14262
14137
14128
13945
14691
14126
13933
14369
14644
14310
14047
14286
14363
14360
14175
14636
14359
14306
14083
14650
14432
13963
14321
14651
14564
14180
14858
14612
14369
14445
14324
14679
14235
14456
14645
14868
14025
14587
15193
14742
13979
15011
14556
14554
14344
15042
14763
14670
14149
15158
14608
14159
14698
15029
14638
14762
15082
15124
14747
14522
14907
15296
14677
14822
15201
15048
14995
15187
14944
15142
14480
15189
15324
15127
14829
15212
14988
15376
14854
15543
15324
14751
14947
15638
15143
14724
15242
15241
15120
14475
15317
15317
14947
14933
15235
15274
15007
15222
15628
15483
14701
15397
15342
15251
14765
15522
15389
15150
14898
14374
15371
14764
14747
15226
14897
14300
14615
14992
14437
14107
14240
14681
14135
13574
14192
14474
13767
13207
14308
14137
13368
13598
14185
13658
13239
13540
13772
13383
13176
13846
13694
13631
13224
13817
13612
13401
13406
14286
13750
13350
13948
13856
13721
13539
13638
14010
13823
13839
14084
14187
13675
13489
13737
14222
13772
14010
13832
13954
13682
14008
14249
13926
13775
14142
14231
14200
13668
14598
14190
14111
13820
14332
14232
13953
14022
14083
14307
13947
14600
14424
14017
13844
14319
14336
14011
14156
14522
14580
13884
14468
14320
14568
14185
14549
14752
14443
14137
14548
14385
14380
14334
14711
14290
14370
14133
14936
14680
14383
14684
14725
14412
14054
14660
14934
14518
14276
14685
14701
13749
14501
15263
14804
14391
14733
14999
14823
14651
14911
14687
14516
14468
14883
14689
14846
14592
14904
15036
14526
14601
14976
14972
14651
14587
15214
14846
14457
15128
15046
14695
14399
15226
14913
14760
14756
15137
14871
14379
15122
15886
14832
14886
15170
15056
15531
14567
15557
14779
14548
14491
15153
15083
14441
14574
14584
14921
14450
15018
14968
14595
14159
14794
14987
14316
14198
14836
14534
14094
14005
14271
14276
13899
14398
14253
14034
13458
14104
14115
13583
13776
13754
13138
13328
13205
13926
13275
12704
13076
13218
13022
13333
13124
13522
13261
12492
13167
12943
12753
12765
13031
13304
12729
13112
13044
13198
12982
12894
13277
13236
12940
13424
13710
13471
12989
13220
13374
12984
13400
13979
13452
12753
13531
12989
13471
12967
13360
13513
13336
13169
13599
13770
12768
13436
13750
13574
13198
13647
13701
13762
13360
13658
13757
13508
13064
13718
13868
13252
13593
13788
13940
13495
13581
14671
13716
13423
13902
14077
13470
13507
14027
13987
13802
13411
14114
13980
13920
13869
14434
14084
13481
14082
14435
14095
13805
14244
14213
14191
13720
14316
14586
14053
13856
14309
14256
13641
14405
14662
14310
14017
14476
14738
14495
14253
14469
14226
15125
14171
14788
14436
13864
14376
14547
14511
14081
14456
14648
14508
14593
14440
14967
14274
14205
14730
14510
14361
14355
14883
14479
14015
14674
14759
14561
14635
14837
14830
14735
14429
15011
14656
14838
14575
14776
14728
14413
14686
14975
14826
14298
15165
14748
14823
14100
14693
14924
14834
14633
14756
14795
14618
14441
14917
14628
14106
14738
14640
14169
13991
14222
14561
13793
13601
13998
13787
13601
13558
13812
13779
13110
13179
13545
13404
12830
13959
13462
12800
12956
13013
13481
13084
12670
13210
13157
12628
12989
13357
13009
12308
12910
13036
12648
12747
13480
13312
12877
12791
13361
13205
12800
13137
13750
13241
13137
13414
13397
13274
13020
13505
14025
13569
13036
13209
13199
13047
12928
13657
13439
13139
13149
13858
13541
13344
13452
13409
13542
13564
13640
13588
13569
13078
13872
13917
13509
13526
13894
13929
13548
13852
13949
13595
13438
13987
14147
13762
13620
14045
14105
13875
13669
13955
13567
13788
14033
14001
14064
14026
14280
14342
14086
14006
14631
14108
14161
13721
14627
14327
13949
14195
14397
14233
14043
14357
14376
14279
14134
14481
14534
14185
14001
14811
14506
14360
14437
15269
14420
14052
14584
14513
14629
14391
14713
14755
14377
14101
14910
14822
14646
14447
14728
14557
14648
14764
14780
14693
14121
14928
14877
14634
14609
14983
14863
14682
14332
15904
15178
14358
14806
15032
14681
14463
14810
15156
14890
14787
15086
15029
14899
14665
15151
14906
14654
15145
15481
15191
13659
15107
14953
14869
14485
15037
14918
14646
14751
14745
14629
14101
14284
14701
14208
13591
13987
14254
14023
13331
13949
13949
13629
13393
13759
13652
13409
13518
13455
13548
13478
13446
13374
13521
13160
13704
13453
13265
12844
13623
13652
13313
13025
13774
13482
13238
13543
13551
13532
13222
13419
13832
13586
13203
13789
13246
13259
13241
13789
13769
13532
13432
13910
13763
13371
13485
14172
13907
13401
13861
13965
13639
13467
13926
14106
13644
13698
14023
14140
13437
13727
14134
13748
13236
13769
14361
14008
13612
14154
13695
13795
13888
14089
14127
13846
13481
14172
14392
13657
14020
14707
14034
13531
14156
14281
14190
13922
14528
14149
14099
13857
14683
14198
13958
14260
14684
13940
13569
14270
14511
14276
13836
14713
14306
14243
13797
14700
14735
14020
14262
14343
14535
14364
14463
14590
14407
13815
14521
14346
14399
14334
14613
14732
14256
14120
14969
14620
14288
14518
14697
14614
14440
14727
14385
14493
14246
14717
15073
14357
14549
14816
14654
14803
14745
14927
14458
14544
15069
14018
14480
14197
14799
15002
14669
14504
14749
15121
14440
14301
15101
14934
14511
14909
14716
14648
14252
14488
14725
14423
13916
14747
14392
14109
14165
14577
13888
14100
13936
14147
13987
13716
13865
13529
13363
13200
13602
13480
13351
13039
13322
13372
13052
13150
13413
13472
12732
13181
13024
13008
12784
13151
13114
12971
12625
13102
12801
13095
12808
13394
13061
12943
12814
13253
13375
12895
13478
13765
13118
13148
13107
13421
13145
12735
13708
13592
13022
13206
13199
13273
12941
13448
13980
13345
12772
13659
13399
13262
13265
13950
13740
13192
13314
13529
13753
13364
13461
13730
13806
13552
13479
13839
13521
13097
13998
13679
13765
13526
13916
13970
13155
13898
14006
13688
13342
13810
13834
13667
13494
14174
14285
13621
13646
14173
14105
13714
13871
14305
14140
13722
13903
14578
14080
14076
14168
14443
14027
13870
14721
14431
14073
14163
14308
14414
13726
14080
14598
14060
13964
14167
14364
14224
13832
14492
14520
14179
14181
14409
14540
14216
14336
14615
14490
13659
14763
14414
14244
14116
14972
14724
14196
14219
14804
14603
14430
14138
14862
14718
14308
14894
14544
14581
14071
14727
14570
14565
14386
15166
14765
14311
14464
14789
14986
14354
14660
15048
14804
14421
14365
15173
14652
14611
14827
14626
14947
14354
14804
14925
14405
14458
14672
14371
13827
14075
14182
14887
13795
14273
13987
13717
13408
14943
13791
12881
13488
13952
13450
13027
13505
13626
13195
13223
13401
13410
13273
13128
13332
13352
12968
13028
13737
13184
13140
13211
13211
13230
12579
13487
13633
13251
13164
13583
13792
13275
13154
13533
13471
13468
13607
13848
13503
13245
13622
13602
13704
13096
13608
14138
13593
13347
13817
13959
13447
13632
14108
14049
13617
13795
13782
13614
13647
13975
13879
13920
13738
14131
14192
14120
13912
14450
13993
13973
13975
14311
14124
13594
14194
14302
14152
13965
14542
14128
14056
13646
14688
14280
14144
14211
14518
14171
13886
14245
14407
14324
14143
14249
14391
14088
14079
14330
14500
14296
14047
14359
14543
14047
14605
14666
14386
14355
14686
14495
14482
14131
14667
14522
14494
14466
15141
14721
14244
14488
14707
14487
13936
14652
15017
14690
14187
14944
14656
14731
14560
14917
14942
14554
14980
15279
14866
14135
14811
15348
14985
14792
15198
15071
15130
14556
15219
15299
14833
14963
15020
14969
14979
14950
14988
15202
14969
15240
15042
15018
14963
15129
15010
15157
15028
15250
15214
14731
15076
15017
14942
14483
14844
14985
14762
14049
14481
14455
14010
14116
14272
14090
13529
13660
13948
13955
13325
13704
13670
13494
13368
13628
13520
13526
13014
13517
13338
12948
13180
13459
13410
13070
13401
13567
13097
13250
13357
13657
