29336
27502
29647
31007
28027
26802
30203
31793
29459
28777
30522
29752
27613
29220
31648
29642
27419
29741
31853
29655
27882
29760
30581
28603
28845
31099
30061
27563
28931
31579
30562
28647
29729
30358
28192
27889
30542
30578
27760
28057
31053
30624
27944
28844
30985
29400
27993
30405
31182
28066
27603
30759
30932
28221
28358
30216
29216
27712
29656
31325
29105
27787
30428
31648
29020
27869
29956
30278
28397
29077
30829
29160
27460
29772
31706
29532
27610
29170
30240
28782
28881
30994
30498
27941
28499
31061
29990
27031
28061
30408
29060
27782
29807
30335
27951
28207
31069
30250
26705
27058
29946
29581
28126
29734
30725
28263
27608
30578
30829
27177
26356
29411
30192
28065
28373
30520
29586
27701
29523
31211
28207
25952
29120
31295
28496
27306
29864
29967
27841
29196
31678
29364
26059
27972
30378
28090
26897
29941
30748
28048
28154
30710
29707
26817
27993
30545
28993
26905
29044
31113
28986
27536
29939
30282
26882
26984
30626
29939
26588
28123
31513
30138
27757
29164
29937
27291
26662
29578
29950
27142
27653
31084
30790
28118
29114
30971
28359
25942
28760
30648
27444
26428
30345
31498
28306
27674
29982
29249
26723
28025
30300
28440
26718
29212
30950
28884
27845
29582
29325
26907
27566
29982
28750
26389
28104
30649
29138
27001
28348
29404
27577
27424
29900
29607
26784
27333
30355
29902
27372
28021
29654
28250
27297
29605
30300
27369
26847
30117
30608
27465
27034
29420
29105
27300
28708
30217
27722
26150
29233
31142
28484
26939
29123
29645
27560
28354
30868
29524
27201
29010
31211
29252
27003
28385
29713
28452
28619
30930
30731
28515
29280
31758
30780
28375
29813
32175
30885
29752
31918
32761
30611
30619
33258
32902
29842
29806
32219
32150
30661
31492
32657
31269
30529
32543
32675
29523
29057
32132
32392
30002
30863
33018
31482
29906
31975
32784
29763
28551
31307
32280
30089
30285
32576
31621
29469
30992
32850
30432
27926
30004
32210
30498
29621
32296
33460
31512
31603
33987
32908
29603
30680
33499
31848
29863
32426
34209
31722
30681
33020
32707
29413
29629
32615
31976
29452
31014
33865
32246
29943
32085
33647
30402
28719
31911
32932
29781
29782
33308
33247
30607
31471
33193
30687
28367
30930
32671
29850
29141
32701
33416
30401
29946
31685
30375
28107
29982
32442
30437
28573
31277
33322
30896
29445
31776
31957
28862
29280
32354
31141
28287
30062
32621
30712
28740
30690
31506
28850
28690
31758
31349
28057
28886
32435
31916
29117
29687
31328
30097
29295
31387
31833
29048
28702
31816
32286
29622
29532
31583
30819
28995
30551
32151
29741
28024
30628
32238
29797
28463
30402
30707
28956
30090
32208
30229
27989
30321
32705
30822
28896
30384
31386
29687
29404
31414
31229
28970
29608
32373
31670
28738
29302
31241
29952
28941
31102
31567
28865
28645
31394
31185
28512
29202
31655
30542
28639
30419
31891
29421
28252
31288
32355
29059
27766
30193
30647
28932
30020
31845
29867
28134
30672
31990
28496
26502
29517
31189
28909
28786
31431
30727
28118
29710
32457
29968
26504
28760
31670
29451
27875
30570
31336
28730
28977
31631
30221
26565
27527
30432
29284
27837
30333
31675
29031
28314
31106
30872
27302
27443
30605
30014
27545
29163
31636
29725
27827
30164
31264
27976
26730
29823
30538
27707
28103
31347
30701
27810
28838
30934
28786
26553
28839
30283
27571
27132
30603
31144
28482
28629
30526
29001
26539
28175
30399
28541
27002
29593
31358
29256
28264
30248
29938
27108
27820
30665
29341
26637
28530
31348
29623
27382
29122
30106
27384
26812
29831
29887
26932
27565
30741
30217
27717
28359
29661
28111
27459
29892
30314
27301
26909
29965
30312
27803
27914
29752
28749
27194
29083
30556
28087
26750
29410
30519
28028
27230
29251
29135
27175
28286
30476
28901
26999
29095
30898
28632
26992
29195
30261
28059
27885
30115
29277
26705
28019
30824
29378
26541
27762
29689
28259
27739
30231
30227
27086
27238
30503
30002
26656
27259
30054
29112
27420
29441
30672
28017
27240
30124
30264
26968
26714
29457
29276
27114
28169
30046
28226
26663
29232
30779
27813
25879
28209
29529
27740
27809
29793
28801
26842
28772
31107
28681
25660
27378
29493
27643
26608
28939
29399
27143
27765
30559
29139
25344
26412
29816
28826
26767
28865
30807
28749
27759
30245
30027
26140
25919
29228
28814
26399
28281
30855
28765
27066
29837
30761
26881
25575
29137
29961
26711
26873
30391
30255
27737
28570
30056
27677
25656
28122
29812
27131
26056
29240
30462
28068
27724
29780
28899
26233
27283
29720
28411
26767
28820
30267
28031
26990
29283
29413
26560
27083
30273
29459
26570
27777
30325
28871
26754
28375
29648
27481
26827
29340
29568
27274
27912
30480
29732
27576
28530
29818
28093
27268
29602
30052
27146
26823
29896
30212
27529
27371
29132
28371
27105
28957
30000
27020
25584
28769
30582
28281
27131
28947
29134
27482
28498
30516
28799
26532
28537
31048
29384
27301
28728
29599
27511
27421
29960
29518
26762
27310
29843
29233
27196
28071
29424
28090
27359
29043
29118
27037
27487
30113
29550
26778
27307
29484
28489
26992
28555
29260
26857
26595
29655
29946
26927
26696
29209
29029
27222
28570
30342
28018
25901
28494
30667
28005
25619
27584
29249
27907
27794
29284
28269
26718
28708
30553
27786
25037
27291
29778
28172
27327
29634
29897
27572
28224
30906
29363
25554
26503
29757
28832
26737
28416
30102
28388
27705
29931
29603
26276
26483
29567
28846
26234
27821
30403
28662
26814
29008
30114
27189
26168
28971
29384
26749
27254
29918
28887
26646
28285
30005
27492
25535
27998
29436
26817
26194
29395
29979
27215
27249
29463
27908
25126
27360
30290
28021
26174
29231
31002
28498
27618
29775
29388
26856
27950
30464
28739
26451
28612
30646
28521
27148
29318
29781
27219
27298
29978
29190
26038
27075
30688
30002
27000
28051
30218
28324
26891
29709
30780
27656
27252
30623
30792
27895
28148
30288
29214
27581
29805
31659
29147
27712
30729
32201
29513
28473
30621
30364
27930
29082
31629
29875
27671
30039
32217
29834
27776
29558
30313
28168
28444
30876
29789
27259
28924
31671
30134
27610
28760
30249
28903
28469
30469
30451
28060
28375
30938
30056
27002
27819
30541
29671
28062
29773
30653
28108
27773
31160
31683
28342
27661
30220
30406
28620
29611
31333
29568
28034
30554
32136
29249
27481
29978
30910
28345
28411
31330
30883
28448
29801
32235
30146
27093
28620
30862
29461
28860
31311
31394
28397
28553
31419
29978
25997
27291
30692
28937
26747
29668
31610
28830
27917
30737
30268
26280
26321
29732
29409
27041
28574
30859
28946
27212
29397
30153
26925
25847
28796
29581
27095
27329
30072
29421
26885
27994
29889
27620
25529
28175
29983
27358
26764
30204
30730
27728
27797
30250
28842
25776
27292
29858
27979
26454
29206
30677
28374
27711
29688
29091
26599
27724
30238
28554
26137
28427
31244
29396
27305
29319
30332
27576
27204
30107
29451
26331
27896
31751
30888
28068
28938
30281
28352
27470
30031
30692
27914
27696
30697
30872
28440
28794
30588
29270
27512
29250
30384
27675
26556
29533
30656
28121
27364
29295
29120
27353
28585
30595
28731
26618
28772
31017
29137
27280
28788
29313
27224
27648
30238
29245
26595
28283
31414
29865
26907
28163
29665
27484
27054
30289
30218
26376
26403
29955
29660
26534
26985
29224
28234
26903
28836
29811
27194
26413
29287
29706
26598
26177
28794
28835
27072
28284
29864
27699
26215
28947
30122
26672
25139
28330
29495
26788
26778
29412
28561
26355
28195
30331
27724
25103
27488
29843
27882
26828
29296
29889
27612
27843
29992
28423
25235
26761
29917
28584
26523
28615
30327
28080
27109
29673
29467
25634
25706
29487
29281
26473
27782
30397
28882
27270
29357
29925
26543
25443
28298
28775
26331
27124
29988
28927
26513
28083
29850
27282
25271
27955
29716
27167
26324
29182
29578
26991
27315
29653
28261
25545
27207
29398
27151
25820
29078
30563
27663
26980
29776
29011
25260
26455
30150
28409
25328
27699
30371
28177
26392
28236
28467
25975
26403
29348
28683
25618
26449
29546
28910
26840
28432
30035
27349
25408
27960
29351
26764
26223
29260
29650
26802
26459
28249
27493
26036
27726
28899
26417
25513
28601
29670
26981
26316
28472
28019
25763
27231
29846
28132
26095
28535
30622
28261
26568
28848
29769
27358
27348
29856
28944
26171
27411
30078
28600
26087
27578
29467
27949
27240
29391
29382
26688
26996
29892
29323
26328
26759
29102
28556
27466
29086
29718
27281
26803
29512
29652
26649
26310
28694
28688
27128
28326
29853
27824
26281
28859
30311
27224
25484
28159
29208
27005
27690
30521
29158
26346
28162
30668
28142
25261
27634
30389
28865
28133
30861
31512
29009
28968
31095
29681
26415
27541
30477
29456
27809
29818
31196
29074
28509
31145
31061
27554
27098
29770
29586
27557
28791
30914
29449
27974
30109
31082
28109
26952
29651
30098
27317
27567
30504
30088
27965
29387
31101
28433
26147
28787
30573
27661
26572
29959
31111
28569
28357
30435
29174
26398
27845
30177
28254
26811
29608
31173
29025
28428
30392
29802
27279
28315
30835
29357
27163
29239
31570
29845
28217
29980
30765
28640
28314
30380
29830
27227
27999
31048
30729
28437
29147
30612
29113
28322
30665
31068
28192
28110
31179
31159
28484
28644
30315
29135
27752
29942
31498
28734
26934
29581
31138
28725
27531
29550
29941
28182
28991
30936
29350
27392
29441
31466
29379
27373
28990
30013
28319
28534
30743
29877
27501
28740
31062
29495
26967
28101
29751
28647
28476
30503
30056
27419
27967
30622
29938
27337
27623
29335
28969
28294
29573
30171
28237
27591
30001
30496
27452
26651
29309
29647
27513
28198
30143
28801
27389
29513
30716
28044
26422
28538
29584
27699
27648
29893
29496
27399
28632
31038
29185
26167
27648
29825
28113
27314
30006
30541
27904
27833
30162
29318
26487
27225
29505
28457
26972
28714
29944
28125
27680
29991
29594
26171
26133
29045
28671
26609
28202
30373
28549
26920
28972
29605
26531
25805
29004
29627
26639
26561
29572
29556
27375
28262
29895
27795
25836
28107
29434
26541
25651
29032
30391
28394
27997
29008
27535
25704
27472
29326
27311
25994
28840
30634
28239
26848
28828
28967
26459
27049
29728
28415
25616
27416
30492
28973
26498
28159
29618
27262
26512
29226
29134
26038
26618
29924
29322
26407
27008
28910
27697
26562
28386
28745
25988
25811
29024
29325
26488
26477
28644
27881
26263
28194
29777
27158
25713
28607
29809
26939
25921
28255
28315
26125
27228
29611
27758
25423
27790
30342
28315
26060
27493
28526
26928
27186
29459
28558
25809
26936
29910
28774
25803
26697
28850
27775
26738
28490
28804
26419
26642
29827
29574
25993
25879
28600
28128
26261
27617
28883
26833
26250
29049
29232
25645
24836
27600
27886
25864
26894
29164
27877
26321
28406
29453
26164
24132
26694
28323
26517
26469
28743
28115
25886
27202
29296
26896
23935
26041
28661
26664
25064
27459
28511
26251
26278
28946
27863
23955
24571
27982
27321
25258
27063
28957
27237
26351
28407
28169
25089
25319
28289
27554
24755
26197
29322
28127
25772
27252
28585
26128
25003
27606
27969
25009
25388
28953
28853
26047
26531
28213
26288
24515
27039
28542
25737
25053
28455
29113
26299
26236
28499
27583
25229
26745
29168
27292
25100
27447
29785
27648
25794
27721
28100
25241
25569
28677
27620
24531
26025
29000
27718
25599
27027
28018
25924
25711
28408
28137
25092
25637
28858
28415
25738
26423
28299
27036
25933
27896
28389
25791
25678
28553
28512
25838
25873
27562
26604
25203
26985
28323
25953
24689
27347
28495
25778
24544
26663
27282
25755
26532
28249
26467
24344
26368
28706
26993
24965
26274
27217
25729
26123
28527
27819
25120
25881
28256
26862
24296
25821
27997
26254
24804
26998
27937
25542
25352
28281
27897
24365
24899
28451
27882
25173
26449
28583
26740
25358
27964
28912
25632
24508
27350
27810
25298
26029
28993
28124
25827
27590
29439
26394
23927
26744
28524
25949
25779
28899
28509
25976
27339
29446
26838
23995
26340
28750
26488
25285
28359
29477
26696
26140
28552
28083
25334
26209
28837
27518
25191
27180
29844
28249
26356
28165
28865
25884
25284
28339
28368
25349
25857
28888
28430
26248
27094
28208
26276
25380
27781
28367
25699
25597
28646
28855
26426
26729
28299
26606
24929
27389
28949
26091
25058
28277
29207
26521
26004
28010
27686
25870
27002
28927
27131
24859
26746
29080
27201
25029
26654
27750
25953
26329
28629
27221
24648
26625
29433
27782
25532
26940
28005
26124
25957
28555
28339
25230
25553
28983
28832
25657
25700
27786
26881
25428
27127
28099
25743
25214
28237
28995
26284
25626
27679
27845
26450
27407
28915
27277
25775
28022
29460
26584
24924
27769
29044
26649
26781
29304
28116
25563
27322
29597
27045
24330
26659
28982
26980
26054
28708
29213
26812
27416
30323
29225
25812
26693
29430
28280
26692
28845
30163
27868
27347
30140
29991
26366
26136
29151
28934
26647
27782
29901
28430
27029
29126
29729
26495
25708
28884
29169
26150
26690
29720
28998
26929
28371
29566
26860
25128
27639
28943
26316
25716
29043
29998
27383
27046
29028
27874
25352
27031
29394
27127
25249
28219
30154
27335
25704
28015
28381
25605
25916
28653
27472
24700
26556
29686
28088
25418
26846
28126
25826
25363
28211
27968
24918
25819
29243
28776
26336
26947
28106
26537
25826
28017
28436
25722
25454
28471
28829
26131
25864
27613
26827
25345
27016
28297
25922
24897
27832
28900
26042
25001
27081
26937
24970
26423
28609
26260
24037
27011
29656
27064
24453
26124
27517
26039
26204
28222
27131
24556
25860
28532
27189
24704
26023
27807
26341
25665
27715
27498
24604
24920
28050
27670
24574
24781
27110
26580
25129
26431
27360
25187
24457
27281
27972
24741
23785
26645
27486
25476
25703
27492
26397
24853
26879
28451
25623
23343
25579
27203
25298
25039
27395
27065
24955
26211
28272
25810
22771
24886
27398
25326
24141
26866
27408
24637
24963
27954
26778
23046
24055
27277
25955
23662
25946
28278
26272
24854
26951
27020
23742
23578
26759
26701
24285
25522
28215
26886
24807
26532
27721
24910
23543
26218
26962
24334
24709
28173
28240
25901
26990
29136
27129
24813
27132
29093
26508
25207
28098
29164
26813
26366
28154
27516
25441
26444
28326
26560
24474
26633
29090
27200
25131
26899
27819
25617
25895
28425
27080
24300
26032
28659
27039
25161
27029
28243
26012
25143
27301
27449
25025
25304
28020
27694
25196
25587
27186
25967
24921
27049
28020
25487
24770
27545
27969
25089
24772
27028
26437
24466
26003
27722
25380
23895
26721
28127
25377
24085
26232
26636
24762
25606
27725
26145
24077
26238
28434
26207
23988
25834
27401
25753
25471
27823
27661
25025
25719
28822
27779
24116
24840
27843
26952
25115
26772
27892
25695
25290
28223
28203
24621
24543
27682
27299
25122
26834
29033
27043
25314
27075
27276
24363
24183
27329
27617
25119
25806
28428
27425
25343
27024
28571
25757
23657
26396
28311
25820
24794
27520
28051
25558
25800
28129
26686
23621
25059
27567
25641
24039
26905
28604
26109
25043
27301
27428
24843
25158
27645
26899
24824
26260
28373
26867
25103
26519
27016
24540
24262
26945
26799
24285
25320
28371
27518
25040
26187
27652
25309
23975
26775
27671
24488
24077
27589
27928
24735
24537
26735
25960
24476
26694
28191
25215
23827
26999
28082
24988
24045
26465
26485
24227
25128
27388
25813
23742
25896
28111
26189
24488
26314
27049
24954
25311
27848
26613
23493
24905
28295
27250
24396
25443
27342
25862
24962
27156
27491
24847
24873
27789
27596
24704
24862
27000
26355
25059
26514
27215
24945
24603
27461
27659
24440
23886
26515
26957
25407
26196
27517
25831
24773
27337
28474
25297
23301
25559
27039
25322
25065
27226
26927
24671
25801
28445
26444
22986
24834
27718
25675
24002
26664
27763
25342
25355
27865
26638
23292
24549
27248
25137
22990
25846
27833
25423
24679
27286
26993
23709
23934
26906
26414
24000
25482
28395
26914
24397
26322
28107
25094
23334
26292
27010
23912
24449
28097
27605
24915
25997
27665
25247
23049
25262
26999
24777
23904
26643
27420
25125
24911
26687
25768
23847
25563
27558
25170
23148
25990
28488
26421
24631
26295
26682
24502
25013
27329
25835
23292
25392
28412
26894
24649
26088
26947
24562
24207
26798
26149
22876
23848
27566
26941
23855
24632
26691
25123
23849
26396
27361
24238
23626
27264
28127
24920
24007
26000
25905
24685
26335
27763
25481
24257
27071
28407
25780
24466
26401
27043
25860
26928
28578
26608
24484
26478
28450
26347
24281
25822
27045
25475
25213
27199
26964
24832
25675
28173
26806
23571
24562
27338
26360
24551
26005
27162
25466
25192
27545
27161
23839
23848
26826
26710
24705
25907
27831
26160
24669
26837
27599
24361
23442
26537
26787
23979
24945
27987
26945
24951
26646
27841
25235
23502
25475
26657
24935
24792
27226
27476
25435
25601
27019
25386
23037
24673
27048
25436
23709
25962
27816
25754
24561
26784
26774
23529
23858
26997
26069
23608
25555
28013
26160
24426
26319
26988
24483
24259
26840
26445
23905
25001
27766
26592
24158
25264
26551
24491
23506
26062
26763
23960
23734
26961
27513
25076
24873
26482
25865
24470
25739
27052
25054
23438
25634
27261
24989
23428
25342
26060
24380
25033
26899
25181
23110
25351
27606
25359
23103
24916
26342
24622
24573
27038
26695
24199
25045
27591
26354
23672
24819
26690
25092
24159
26451
26768
24009
24108
27190
26954
23825
23784
25934
25390
24046
25619
26929
25003
24159
26582
26963
23803
23107
25885
26293
24287
25081
26945
25242
23452
25676
27226
24342
22116
24202
25819
24270
24134
26331
25965
23727
24817
27280
25437
22319
24141
27281
26133
24818
27112
28250
26076
25765
28070
27285
24084
24916
27819
26581
24449
26508
28433
26437
25349
27544
27636
24583
24388
27245
27090
24501
25265
28036
27343
25288
26519
27799
25575
24516
27172
27804
24907
25007
28551
28624
25487
25526
27435
25908
24115
26545
27959
24844
23914
27275
27779
24746
24788
27468
26856
24441
25595
27522
25403
23512
26182
28482
26457
24660
26101
26640
24883
25199
27220
26161
23757
25343
28481
27277
24324
25271
26940
25284
24836
27469
27238
24070
24545
27650
27079
24475
25069
26601
25282
24343
26352
27028
24638
24345
27064
27144
24373
24372
26716
26397
24773
26030
27288
25132
23968
26566
27711
25138
23921
25822
26280
24603
25124
27096
26174
24373
25814
27438
25235
23190
25322
27024
25097
24627
26988
26660
24053
25085
28033
26436
22900
24266
27212
25709
23984
26363
27605
25013
24453
27174
26798
23426
23821
26802
25847
23311
25096
27716
25930
24170
26527
27360
23688
22404
25684
26255
23242
23810
27039
26256
23849
25327
26998
24477
22533
25042
26606
24082
23330
26383
27190
24816
24788
26629
25141
22641
24521
26886
24625
22873
25697
27390
24995
24062
26189
25946
23489
24551
27040
25053
22312
24618
27491
25664
23709
25681
26493
23707
23345
26397
26258
23202
23831
26866
26142
23640
24488
26049
24611
23725
25865
26454
23829
23557
26650
26888
23748
23471
26014
25846
24140
25602
27303
25117
23456
25854
27126
24469
23307
25641
26033
23974
24863
27053
25264
23117
25430
27540
25141
23080
25053
26350
24515
24426
26727
26058
23225
24110
27117
26012
22822
23767
26359
25358
23918
25620
26438
24371
24340
27080
26566
22844
22669
25636
25552
23698
24991
26676
24790
23467
25778
26439
23224
22350
25395
26041
23822
24518
26642
25030
23017
25068
26640
23971
22209
24620
25806
23414
23149
26093
26291
23868
24607
26961
25019
21904
23789
26199
23834
22518
25790
27107
24505
24089
26122
24962
22096
23385
26116
24789
23061
25279
26871
24660
23705
26004
26149
23480
23740
26354
25458
22743
24125
27162
26040
23668
24993
26292
23966
23072
26061
26664
23315
23103
26774
27067
23922
24008
26589
26025
24141
25588
26978
24459
23015
25958
27441
24644
23433
25876
26300
24031
24591
26745
25224
23125
25260
27360
25019
23104
25433
26631
24227
24204
26929
26026
23062
24416
27371
25882
23184
24563
26171
24273
23761
26464
26416
23435
24049
27276
26516
23383
23905
26198
25511
24271
25777
26588
24430
23915
26502
26647
23520
23153
26039
26390
24236
24784
26825
25542
23488
25215
27028
24614
22443
24607
26312
24511
24135
26332
25953
23621
24464
26618
24982
22419
24091
26455
25040
24038
26312
26943
24476
24456
27181
26382
22897
23647
26566
25211
23100
25447
27480
25254
24100
26519
26538
23150
23166
26564
26401
23690
24754
27421
26118
23992
25514
26699
24378
23440
25949
26305
23407
23571
27133
27559
25016
25197
26768
25051
23138
25323
26960
24294
23124
26302
27500
24645
23629
25723
25764
23879
24902
26931
25158
22974
25078
27641
26311
24604
25867
26655
25228
25483
27290
26324
24251
25677
28048
26681
24656
26333
27797
25675
24888
27381
27452
24607
24967
28016
27617
24937
25480
27399
26335
25136
27068
28144
25740
24891
27614
28059
25007
24847
27654
26944
24335
26181
28939
26833
24799
27345
28718
25634
24037
26570
27660
25627
25660
27843
27104
25021
26552
28792
26622
23807
25527
27556
25671
24732
27189
27513
24825
25204
28239
27126
23405
24537
27888
26538
24287
26409
28028
25767
25232
28097
28016
24477
24213
27041
26709
24402
25650
28091
26728
24995
27012
28111
25087
23813
26699
27318
24421
24742
28134
27875
25140
25827
27629
25682
23653
25826
27425
25100
24487
27506
28013
25333
25308
27437
26293
23842
25510
27905
25742
23598
26181
28413
26254
24619
26394
26671
24385
25041
27685
26312
23428
25142
28185
26713
24167
25529
26945
25124
24881
27610
27435
24386
24818
27805
27176
24553
25314
27112
25800
24722
26757
27382
24598
24055
27157
27709
24866
24635
26847
26137
24307
26069
27585
24884
23626
27030
28469
25242
23773
26211
26815
24760
25315
27339
25807
23726
25832
28068
25920
23714
25479
26868
25140
24904
26937
26288
24019
25475
28232
26317
22844
24168
26821
25439
24158
26488
27323
24790
24649
27361
26558
22974
23439
26449
25575
23258
25006
27251
25375
24000
26547
27136
23368
22297
25690
26302
23517
24279
27407
26392
23894
25472
27244
24649
22560
24975
26417
23758
23032
26205
27012
24632
24864
27001
25412
22560
24302
26699
24339
22524
25597
27429
24673
23594
26302
26273
23015
23510
26338
24738
22161
24678
27445
25146
22936
24985
26048
23665
23448
26043
25445
22643
23774
26783
25945
23910
25149
26316
24276
23189
25412
26253
23784
23230
26007
26384
23600
23539
25786
24776
22797
24924
26568
23263
21473
25063
26986
24099
22849
25219
25329
22985
24056
26778
25177
22470
24181
26457
24636
22923
24958
26014
23763
23557
26016
25453
22876
24018
26709
25230
22312
23451
25609
24456
23597
25633
25976
23380
23307
26131
25692
22296
22371
25123
24783
23010
24423
26130
24470
23591
26106
26486
22864
21900
25094
25690
23068
23612
26389
25458
23238
24954
26751
23985
21695
24231
25928
23483
22956
25865
26007
23539
24194
26321
24501
21749
23544
25916
23922
22404
25150
26919
25138
24930
27274
26715
23977
25209
28100
26564
24363
26802
29129
27064
25656
27768
27888
24759
24691
27799
27496
24715
25837
29002
28203
25844
26800
27888
25686
24580
27015
27812
25375
25395
28414
28461
25871
26243
28114
26559
24516
26481
28034
25304
24009
27274
28744
25950
24918
27053
26756
24525
25922
28211
26025
24026
26886
29010
26450
24663
26605
27202
25170
25794
28421
27196
24091
25387
28517
27131
24168
25550
27590
25762
24871
27449
27600
24674
25244
28688
28236
25151
25522
27437
26226
25106
27530
28772
25963
24856
27688
28296
25212
24549
27036
27211
25482
26534
28158
26177
24603
27301
28952
25850
23872
26504
27903
25792
25878
28299
27440
25260
27072
29290
26534
23392
25539
28161
26435
25365
27716
28114
25731
26238
28898
27532
24014
25031
27921
26743
25097
27203
28407
26221
26007
28625
27901
24249
24566
27786
27235
24778
26172
28413
26609
24831
26929
27928
24999
23811
26503
27212
24506
24434
27556
27695
25210
25950
28124
26250
23755
25853
27698
24994
23829
27305
28699
25912
25273
27538
26743
24093
25522
27773
25573
24147
27429
28938
25837
24720
27314
27235
24236
24910
27989
26940
24273
25904
28353
26465
24291
26096
27329
25157
24798
27473
27190
23985
24555
28162
27636
24242
24896
27423
25999
24342
26777
27925
24881
24114
27101
27213
24339
24703
27267
26490
24554
26340
28172
25736
24068
26859
28457
25814
24271
26184
26842
25181
25663
27636
26374
23983
25508
28073
26515
24272
26199
28112
26183
25282
27255
26772
24107
25168
28319
27038
23561
24604
27396
26084
24235
26251
27734
25727
25277
27982
27852
24413
24405
27446
27109
24924
26126
27757
25962
25119
27595
27677
24172
23883
27341
27494
24692
25723
28760
27429
24940
26876
28708
25605
23218
25984
27690
25110
24777
27905
27918
25431
26257
28262
26262
23554
25323
27781
26021
24248
26649
28631
26597
25298
27281
27232
24231
24536
27322
26310
24038
26040
28522
26787
24995
26615
27126
24812
24928
27428
26422
23538
25012
28273
27263
24912
26049
27080
24719
23715
26415
27220
24412
24087
27213
27592
24937
24802
26410
25279
23984
26443
28109
25240
23632
26540
27752
24835
23906
26459
26586
24299
25270
27391
25373
23351
25975
28080
25629
23804
25767
26540
24522
25023
27781
26923
23951
24996
27957
26881
24313
25555
27185
25310
24634
27343
27480
24266
24454
27888
27457
24038
24566
27484
26781
25015
26821
28258
25845
24876
27800
28284
24628
23677
26674
27228
25068
25872
28165
26724
24613
26508
28098
25374
23635
26406
27758
25229
25100
28081
27783
25170
26195
28404
26087
23027
25059
27649
25735
24453
26972
27598
24981
25102
27702
26355
22753
23987
27241
25707
23245
25534
27850
25784
24439
26691
26843
23670
23664
26702
26118
23437
24987
27982
26606
24484
26216
27139
24012
22831
26010
26878
23900
23864
27032
26965
24573
25244
26702
24720
23215
25808
27061
23958
23160
26984
28314
25417
24667
26725
26050
23813
25333
27453
25063
22982
25775
27920
25521
23931
25939
26273
23751
24107
26878
26089
23504
24831
27388
25898
23515
24844
26290
24593
24014
26224
26080
23108
23308
26524
26145
22986
23690
26330
25036
23370
25705
26598
23227
22594
26289
26785
23356
23091
25960
25873
23934
25230
26920
24551
22668
25381
27252
24581
22859
25028
25783
23840
24534
26943
25687
23548
25398
27212
24598
22277
24426
26201
24341
23902
26503
26679
24125
24472
26921
25598
22328
23352
26128
25178
23775
25563
26255
24029
24163
27048
26347
22729
23301
26640
25778
23047
24550
26915
25146
23612
25899
26578
23305
22422
25382
25605
22760
23434
26511
25548
23053
24907
27029
24022
21463
24607
27004
24374
23690
27354
27963
24733
24810
27583
26241
22936
24495
27464
25523
23322
26054
28265
25733
24049
26147
26276
23564
24462
27480
25880
23146
25464
28194
26221
24390
26297
26975
24589
24561
27269
26796
23779
24472
27674
27119
24411
25076
26757
25301
24381
26700
27158
24258
24262
27663
27680
24400
24163
26359
25854
24377
26011
27322
24869
23591
26387
27497
24650
23784
26433
26664
24262
25062
27405
25783
23715
26097
28279
25843
23701
25643
26822
24871
24908
27244
26289
23412
24568
27406
25889
22996
24549
26885
25190
23980
26507
27333
24582
24356
27379
26911
23234
23455
26473
25741
23526
25184
26994
24735
23472
26271
26989
23483
22574
25823
26588
24254
24799
27063
25667
23569
25525
27142
24151
21905
24599
26634
24499
23739
26327
26708
24517
25063
27050
25070
22154
24174
26835
24805
23425
26362
27611
25088
24670
26909
26132
23283
24326
27202
25857
23038
24595
27440
26185
24361
26235
26809
23439
23098
26794
26564
23239
24585
28101
26849
24278
25766
27195
24865
23655
26119
26819
24074
23869
27013
27275
24668
25018
26994
25326
23069
25252
27340
24987
23685
26466
27551
25250
24748
26358
25524
23716
25429
27371
24985
23076
26026
28300
25738
23838
25992
26679
24125
24393
27263
26296
23355
24796
27776
26268
23483
24693
26314
24703
24267
26704
26560
23679
24245
27405
26650
23557
24397
26955
25859
24228
26213
27521
24995
24068
27082
27928
24872
23995
26298
26370
24486
25370
26992
25290
24031
26604
27864
24799
23186
25899
27262
25392
25643
27871
26799
24584
26449
28917
26629
23724
25546
27726
26157
25626
27903
27658
25244
26351
29081
27300
23752
24913
27716
26571
25048
27028
28078
25878
25692
28400
27583
23582
23897
27435
26772
24059
25859
28686
26763
24631
26875
27901
24486
23485
27072
27707
24325
24499
27831
27444
25202
26587
28081
25276
23098
25704
27488
24893
24066
27478
28398
25203
24586
27099
26258
23377
24903
27376
25047
23316
26427
28040
25399
24530
26623
26126
23433
24196
26811
25775
23681
25593
28088
26433
24374
25890
26732
24372
23985
26657
26491
23609
24254
27453
26881
24015
24500
26152
24688
23643
26002
26789
23933
23512
26805
27248
24134
23681
25818
25353
23871
25693
27192
24604
23185
26075
27265
24359
23368
25893
26209
24132
25204
27562
25540
22795
25104
27995
25756
23096
25128
26865
24836
24571
26946
25955
23113
24608
27515
25823
22941
24384
26610
25341
24363
26229
26458
23995
24333
27488
26741
22751
22981
26335
25881
23656
25240
27113
24853
23546
26619
27581
23772
22659
26152
26683
23661
24223
27018
25687
23590
26107
27950
24304
21801
25015
26717
23518
23007
26622
26712
23719
24685
27404
25125
21530
23478
26485
24633
23187
26032
27206
24615
24241
26579
25742
22745
23666
26196
24618
22550
25092
27680
25767
24025
25881
26432
23820
23518
26035
25595
22892
23932
27186
26463
23888
24992
26394
23869
22857
26215
26704
22882
22987
27048
27039
24005
24593
26574
24795
22906
25324
27058
24146
22523
25525
26990
24426
23455
25375
25166
23392
24873
26832
24419
22265
25044
27280
24647
22738
25173
26316
23899
23877
26630
25866
22813
23944
27099
25834
22810
23978
25951
24234
23279
25539
25497
22704
23520
26996
26234
22903
23618
26041
24793
23515
25970
26737
23317
22693
26542
27316
23786
22973
25713
26281
24753
25585
26975
25151
23717
26069
27231
24108
22519
25262
26213
23707
24028
26993
26220
23596
25163
27643
25188
22197
24486
26923
24652
23549
26574
27272
24380
24414
27167
26100
22720
23847
27037
26011
24033
26033
27852
25880
24913
27174
27011
23637
23628
26615
25971
23468
25130
27730
26030
24261
26336
27117
23927
22745
25677
26465
23459
23174
26716
27435
24814
24959
26900
25162
22873
25200
27055
24049
22618
25910
27173
24570
24137
26170
25220
22871
24554
26937
24907
23266
26128
27894
25381
24037
25882
25786
23517
24491
26983
25199
22300
24178
27177
25866
23826
25247
26164
24285
24543
27246
26347
22980
23887
27203
26200
23211
24204
26239
24654
23361
25625
26347
23321
22763
26126
26740
23781
23606
26066
25587
23874
25671
27204
24465
22931
25861
27171
24330
22918
24787
25404
24367
25457
26804
24632
22772
25183
27142
24643
22584
24661
26021
24137
24066
26447
25844
23251
24431
27228
25511
22196
23692
26611
25341
23800
25892
26769
24054
23630
26820
26683
22690
22413
25705
25531
23249
24580
26514
24590
23364
26042
26717
23098
22027
25272
26000
23403
23906
26654
25595
23156
24801
26697
23970
21678
24321
26092
23610
23108
26077
26231
23864
24563
26448
24522
22096
24119
26289
24031
22509
25442
27093
24485
23393
25750
25624
22561
23035
26003
25040
22522
24197
26674
25029
23278
25232
25979
23178
22918
26215
26285
23303
24100
27424
26609
23717
24653
26359
24348
23313
26193
26650
23164
23045
26524
26666
24275
24736
26155
24744
23520
25578
26816
24202
22861
26020
27950
25347
23790
25745
25774
23564
24831
27294
25097
22548
25021
27436
25219
23328
25298
26392
24559
24650
26792
25880
23437
24761
27368
25981
23554
24980
26753
25099
24308
26637
26932
24208
24225
27165
27014
24145
24204
26217
25624
24475
26120
27142
24979
24350
27138
27504
24133
23566
26524
26589
24251
25418
27766
26043
24217
26604
28036
24946
23053
25576
26890
24726
24613
27211
26863
24445
25570
27990
25860
22598
24289
26775
24955
23820
26443
27129
24658
24996
27800
26729
23223
23882
26318
24738
22944
25622
27701
25345
24095
26621
26808
23283
22898
26132
26097
23247
23931
26757
26156
24385
25681
26596
24073
22794
25197
26101
23787
23839
26909
26752
23665
24264
26969
25281
22678
25021
26699
23522
22861
26706
27187
24021
23878
25922
25160
23481
24876
26397
24471
23106
25672
27548
25366
23694
25334
25771
23718
24134
26414
25211
22690
24393
27367
26103
23697
24908
26120
24213
23969
26747
26571
23348
23619
26710
26180
23457
24356
26519
25170
23872
26110
26923
23825
22937
26028
26731
24035
23801
26013
25621
23981
25488
27039
24597
22871
25650
27201
24019
22251
24956
26025
23846
24387
26875
25477
23145
25275
27639
25264
22847
24974
26930
25135
24359
26461
26518
24426
25442
28054
26157
22475
23980
27148
25557
23583
25886
27082
24376
23980
27107
26669
22657
22786
26265
25814
23355
25006
27362
25376
23684
25991
26589
23173
22504
25840
25943
22725
23558
27038
25944
22987
24636
26800
23769
21003
23965
26410
23633
22327
25759
27009
24200
23848
26231
25101
22165
23761
26282
23903
21959
25124
27203
24675
23540
25802
25583
22588
23108
25973
24981
22654
24637
27311
25572
23521
25300
26143
23400
22860
25811
25772
22668
23247
26678
26219
23331
23965
25675
23922
22822
25506
26137
22667
22203
25988
26634
23575
23459
25685
24682
22851
24905
26311
23191
21858
25332
26604
23468
22488
24948
25020
22934
24100
26324
24321
21937
24096
26184
23888
22070
24238
25313
23081
23053
25757
25318
22617
23665
26534
25103
22048
23373
25658
24130
23236
25672
25704
22516
22850
26356
25796
22144
22415
25248
24742
23110
24821
26260
23948
22915
25808
26410
22637
21424
24625
25597
23211
23457
25982
25293
23269
24833
26619
24108
21811
23971
25445
23122
22644
25379
25451
23118
23878
25929
23960
21250
23309
25839
23851
22460
25194
26360
23890
23688
26317
25383
21785
22616
25721
24298
21835
24120
26641
24755
23328
25461
25726
22713
22665
25645
25071
22146
23366
26476
25293
22981
24787
26191
23037
21508
24890
26026
22811
22649
26005
25793
23006
23790
25808
23991
22094
24435
25918
23142
22268
25500
26291
23560
23284
25380
24639
22732
24404
26031
23142
21158
24335
26595
24062
22551
24944
25539
23002
23291
25815
24573
21955
23767
26539
24879
22512
23991
25402
23558
22830
25094
25442
22990
23172
26109
25722
22470
22592
24968
24284
23006
24923
25788
23112
22630
25799
26160
22869
22285
25003
25589
23966
24385
25554
24073
22938
25057
26000
23114
21737
24315
25192
23048
23613
26194
25029
22660
24532
26850
24337
21369
23088
25098
23420
22772
25215
25521
23227
23823
26265
24550
20964
22185
25145
23642
21672
24306
26544
24278
23074
25736
25662
21436
20968
24819
24976
22025
23141
26296
25255
23075
24429
25096
22055
21101
24396
25209
22075
22097
25741
25950
23168
23651
25544
23483
21150
23479
25287
22591
21642
24967
26015
23638
23638
25542
24121
21709
23595
25860
23421
21494
24384
26288
23755
22368
24418
24622
22430
23364
26022
24428
21376
23079
26236
24867
22291
23487
24662
22675
22440
25114
24657
21519
22365
25732
24943
22086
23109
25185
23548
22065
24253
25206
22629
22347
25472
25700
22727
22588
24911
24520
22790
24084
25565
23481
22127
24776
26183
23434
21979
24270
25072
23189
23637
25655
24318
22213
24064
26186
24079
21983
23927
25213
23148
23156
25889
25223
22231
23407
26610
25205
21729
22629
25181
24052
22456
24188
25240
23138
22839
25771
25761
22180
22019
25135
24827
22500
23928
26192
24428
22923
25453
26319
22635
21309
24562
25236
22398
22939
25885
24925
22741
24554
26133
23184
21152
23994
25644
22855
22218
25835
26610
23393
23150
25747
24333
20997
22837
25907
23673
21642
24817
26869
24311
23250
25394
24766
21583
22365
25384
24112
21543
23606
26404
24760
22793
24408
25051
22543
22306
24969
24575
21874
22813
25504
24365
22150
23534
24962
23008
22193
24707
25003
21856
21923
25779
26081
22657
22686
25466
24585
22391
24502
26485
23499
21582
24660
26145
23224
22222
24623
24389
21973
23480
26240
24114
21439
23720
25939
23604
21716
23679
24696
22881
23168
25549
24673
22035
23343
26162
24507
21339
22653
25159
24033
23121
25157
25261
22586
23051
26290
25524
21732
21926
24855
24401
22584
24110
25632
23515
22488
25284
26008
22617
21722
24723
25115
22719
23595
26132
24811
22851
24947
26580
23794
21965
24554
25768
23178
22877
25757
25654
23221
24181
26207
23621
20397
22656
25476
23342
21882
24769
25832
23205
23132
25913
25217
22002
22804
25625
24339
22003
24021
26518
24789
23095
24947
25292
22254
22074
25203
24854
22026
23424
26706
25395
22745
24340
25859
23038
21716
24981
25864
22587
22629
26187
25941
22971
23706
25957
24378
22266
24246
26018
23859
22797
25195
25745
23464
23281
24970
24093
22280
23891
25867
23767
21764
24158
26355
24368
22667
24355
24884
22844
23389
25862
24560
21773
23386
26293
24802
22233
23533
25025
23298
22832
25233
25010
22019
22580
26014
25573
22403
22948
25490
24611
23032
24796
25821
23141
22164
25148
26059
23116
22122
24245
24632
23436
24624
26022
24153
23030
25766
27130
24120
22222
24376
25510
23609
23405
25295
24650
22705
23967
25923
24018
21803
23813
25626
23605
23037
25815
26063
23503
24122
26748
25110
21448
22471
25388
24324
22836
25024
26175
23701
23089
25684
25408
22001
21997
25063
24993
22872
24244
27003
25932
23920
25392
26538
24047
22942
25661
26503
24063
24367
27468
27201
24625
25481
27488
25555
23394
25609
27182
24455
23502
26626
27301
24508
24381
26667
25640
23091
24763
27406
25479
23383
25802
27711
25349
23810
25791
26161
23700
23892
26271
25169
22558
24198
27268
26061
23706
25121
26329
24049
23666
26536
26104
22756
23437
26589
25730
23204
24350
26127
24541
23422
25561
26251
23580
23177
26235
26569
23588
23371
25689
25039
22886
24273
26273
24289
22519
24926
26368
23596
22388
25389
26447
23989
24047
26221
24919
22693
24577
26749
24645
22474
24252
25762
24180
23991
26225
25878
23403
24318
27118
25718
22309
23331
26055
24923
23468
25503
26460
24138
23873
26546
26118
22704
22783
25648
25283
23227
24483
26295
24472
23072
25513
26474
23215
22055
25050
25683
23212
23897
26610
25699
23815
25402
26664
24275
22785
25114
26442
24300
23625
26039
26610
24726
24966
26649
25234
22863
24386
26493
24694
23389
26074
27670
25479
24471
26223
25801
23201
23974
26761
25788
23420
25064
27579
25978
23786
25194
26032
23553
23078
26000
26260
23616
24129
27016
26515
24138
24788
26204
24794
23907
25867
26241
23814
23973
26917
26757
23942
24035
25908
24926
23422
25400
27023
24682
23409
26318
27791
25211
23927
25803
25954
24082
25034
27222
25708
23594
25500
27504
25335
23177
24867
26275
24848
24951
27154
26585
24227
25288
27924
26827
24277
25322
27175
25960
25249
27198
27202
24530
24687
27557
27072
24091
24745
27279
26215
24555
26611
27915
25281
24532
27846
28412
24701
23822
26796
27092
24799
25728
28069
26695
24958
27012
28270
25452
23998
26892
28390
26025
25435
27875
27958
25899
26620
28476
26737
24419
26298
28201
25882
24548
27324
28542
26241
25964
28221
27238
23973
24794
27581
26335
24395
26661
28618
26318
24848
27029
27133
23749
23481
26709
26695
24166
25415
28457
27346
25000
26494
27861
25264
24008
26887
27676
24723
24887
28508
28445
25335
25788
28011
26298
24043
26407
28372
25404
23768
27140
28844
26168
25267
27511
27147
24626
25747
28187
26252
23885
26287
28740
26682
24886
26777
27350
25005
25485
28216
26851
23722
25340
28524
27118
24513
25922
27482
25574
24971
27600
27755
24844
25087
28191
27827
24912
25211
27104
26152
25265
27469
28244
25492
25020
28163
28524
25372
24951
27422
27353
25624
26972
28887
26880
24846
27053
28859
26372
24375
26296
27619
26231
26510
28489
27469
25230
26723
28966
26766
24059
26228
28648
26652
25441
27898
28405
25903
26247
28947
27645
23953
24818
27946
27011
25082
26906
28373
26181
25294
27678
27371
23722
23742
27152
26864
24241
25614
28317
26884
24998
26778
27477
24310
23192
26151
26820
24095
24547
28064
28012
25333
25826
27400
25363
23469
25887
27449
24757
23981
27300
28085
25172
24667
26690
25901
23780
25344
27365
25235
23668
26353
27835
25367
24409
26633
26636
24114
24706
27158
25799
23269
25133
28061
26835
24794
26034
26724
24499
24300
27008
26765
23804
24516
27976
27562
24623
25166
27017
25486
24227
26498
27080
23974
23768
27482
27932
24722
24600
27066
26295
24254
26139
28199
25670
23756
26709
28611
25744
23834
25858
26618
24766
25311
27448
26100
23898
25724
27797
25496
23399
25857
27747
25705
25261
27701
27093
24136
25045
27919
26539
23508
24840
27277
25698
24045
26003
26960
24757
24644
27434
27031
23522
23498
26411
26239
24311
25565
27395
25586
24174
26723
27658
24016
22710
26014
26624
23771
24557
27641
26567
24432
26370
27787
24617
22489
25250
27055
24703
24076
27017
27320
24373
24417
26927
25720
22887
24587
27052
24932
23463
26140
26901
24104
23843
26343
25868
23396
24472
26992
25594
23252
25150
27783
26106
23860
25342
26106
23574
23525
26580
25978
22923
24386
27796
26558
23977
25470
27107
24934
23641
25894
26301
23382
23464
27094
27319
24187
24431
27060
26006
23694
25505
27363
24799
23317
26318
27689
25074
24264
26427
26191
24122
25421
27390
25057
23070
25915
28059
25551
23710
25703
26724
24966
25118
27205
26392
24155
25559
28171
26645
23833
24980
26868
25427
24555
26472
26315
23497
23815
26979
26692
23736
24193
26739
26057
24206
25453
26906
25335
24630
26891
27061
23829
23143
25939
26424
24548
25371
27189
25661
24275
26608
27715
24435
22506
25255
27101
25211
24719
26906
26646
24310
25197
27530
25581
22390
24045
26529
24588
23259
25961
26963
24583
24703
27283
25997
22328
23332
26583
25439
23312
25466
27467
25482
24505
26803
26641
23297
23473
26952
26693
23626
24447
27511
26710
24399
25564
26836
24600
23573
26161
26716
24198
24887
28305
27902
25061
25601
27253
25431
23696
25900
27192
24461
23692
27101
28057
25134
24796
27423
26747
23946
25345
28087
26064
23553
25915
28218
26022
24334
26266
26542
24090
24986
27919
26211
23063
25157
28317
26399
23792
25578
27093
25009
24655
27380
26998
23768
24421
27743
27038
24129
24901
26843
25440
24334
26707
27553
24526
23781
27067
27763
24611
23929
26361
26601
25192
26345
27513
25122
23656
26437
27910
25059
23699
26224
26826
24628
25488
28040
26389
23870
26017
28404
25880
23142
25016
27077
25566
24830
26804
26894
24813
25549
28030
26556
23158
24246
27272
26362
24667
26650
28245
26196
25409
27951
27701
23865
23862
27459
27102
24376
25907
28499
26660
24884
27217
28014
24533
23473
26729
27334
24526
25141
28283
27428
24832
26128
27869
25468
23494
25849
27114
24444
24071
27492
28039
25264
25252
27214
25735
23318
25289
27552
25061
23218
26333
28416
25930
24687
26893
26686
23794
24705
27623
25777
22722
25059
28319
26467
24124
26107
27322
24691
24184
27134
26901
23676
24191
27193
26575
24406
25473
26749
24880
24094
26805
27724
24852
24169
27163
27610
24675
24327
26520
26058
24435
26162
27852
25444
23831
26555
27984
25218
23928
26221
26615
24542
25423
27728
26091
23910
26157
28396
26063
23905
25937
27350
25409
25197
27448
26738
24121
25234
27940
26559
23701
24793
26927
25861
25054
26995
27269
24771
24865
27752
27272
23993
24547
27758
27325
25114
26310
28012
26219
25157
27680
28056
24144
22897
26225
27253
24981
25503
27905
26897
25251
27276
28621
25716
23992
26748
28106
25589
25267
28114
28033
25638
26669
28888
26542
23411
25599
28321
26156
24720
27571
28495
25744
25671
28468
27610
24185
25007
27923
26581
24257
26371
28744
26901
25444
27543
27854
24698
24349
27267
26891
24088
25401
28863
28006
25395
26575
28114
25918
24793
27456
27895
24739
24942
28674
28810
26054
26613
28485
26404
23905
25943
27839
25330
24068
27274
28768
26226
25406
27493
27197
25043
26250
28394
26363
24204
26541
28627
26504
24887
26761
27443
25408
25669
27978
26922
24231
25669
28702
27402
24693
26130
28059
26162
25165
27673
27875
24655
24612
27988
27878
24613
24682
27081
26595
25502
27417
28319
25700
25134
28288
28664
25308
24995
27885
27632
25391
26827
28788
26310
24503
27744
29718
26379
24164
26777
28276
26214
26178
28603
27985
25753
27076
28966
26371
23595
25946
28409
26249
24939
27596
28508
26218
26314
28505
26948
23616
25124
28359
26994
24969
27035
28387
26143
25885
28811
28365
24601
24756
27867
26998
24440
26414
29220
27260
25195
27510
28633
25323
24062
27060
27515
24597
25190
28493
27921
25533
26794
28363
25869
23805
26135
27740
25369
24653
27710
28556
26141
26131
28191
26743
23789
25288
27930
25940
23760
26317
28511
26267
24852
27038
27076
24190
25130
28364
26604
23267
25337
28613
27230
25208
26562
27197
25094
24965
27448
27262
24675
25338
28406
28037
25400
25790
27529
26464
25137
26585
27370
25354
25058
27826
28041
24946
24802
27546
27040
24892
26646
28512
25781
24114
27286
28870
25955
24571
26698
26997
25104
26102
28284
26499
24180
26317
28635
26465
24304
26266
27797
25973
25594
27775
27278
24590
25557
28661
27433
24115
25373
28014
26313
24701
27147
28041
25194
25013
28202
27647
23695
23810
27070
26677
24423
25895
27973
26028
24575
27272
28175
24511
23440
26854
27216
24144
25071
28409
27314
24956
26863
28550
25644
23494
25929
27373
25097
24939
27964
27991
25319
25828
28060
26494
23776
25308
27518
25731
24545
27385
28747
26080
25192
27613
27253
24123
24891
27797
26268
23810
26354
29101
26744
24484
26601
27533
24613
24175
27474
27736
24911
25621
28764
28014
25428
26487
28009
25726
24290
26923
27809
24703
24238
27667
28189
25461
25599
27515
25932
23895
26296
28205
25259
23728
27090
28634
25856
24894
27067
26895
24820
26102
28257
26129
23992
26673
28945
26291
24117
26303
27460
25309
25567
28186
27123
24432
26060
28690
26737
24061
25691
27511
25819
25193
27588
27675
24899
25208
28272
27795
24708
25018
27219
26368
24975
26671
27645
25224
24620
27764
28276
24722
24078
27239
27558
25314
26194
27781
25439
23978
27415
29393
26024
23824
26358
27585
25316
25419
28029
27164
24603
26295
29085
26858
23539
25259
27710
25822
24592
27315
28270
25629
25464
28364
27845
24430
24939
27693
26520
24516
26642
28615
26637
25468
27549
27663
24846
24905
27680
27199
24630
25829
28799
27851
25626
26929
27962
25210
24179
27252
27700
24415
24715
28277
28000
25346
26268
27987
25751
23855
26366
27744
24991
24578
27913
28193
25319
25278
27142
26057
24137
25670
27424
25337
23644
26238
28375
26339
25021
27199
27372
24608
25421
28361
26394
23094
25431
28832
26962
24341
25947
27172
25000
24652
27238
26828
23874
24759
28086
27485
24857
25688
27432
26015
25070
27355
28010
25138
24600
27596
27941
25134
25040
27342
26908
25146
26390
27679
25433
24276
27247
28634
25648
24036
26150
26714
24800
25526
27829
26570
24534
26529
28538
25950
23509
25744
27620
25498
24790
27535
27997
25530
25801
28055
26455
23073
24358
27569
26819
25370
27303
28258
25685
25036
27813
27531
23740
23802
27305
27205
25179
26743
28367
26080
24960
27416
27414
23915
23630
26891
26906
23803
24143
27047
26525
24685
26686
28476
25217
22767
25969
27935
24884
24322
28068
28436
25318
25620
27994
26385
23622
25482
27941
25641
23642
26537
28788
26503
24953
26628
26240
23502
24558
27579
26049
23380
25500
28012
26069
24581
27002
27663
24602
24331
27427
27010
23949
25097
28406
27342
24737
26129
27833
25642
24324
26879
27554
24424
24186
27918
28531
25500
25261
27380
26513
24681
26501
28175
25679
24302
27390
28731
25602
24391
26962
27022
24529
25709
28113
25909
23774
26520
28463
25926
24338
26176
26644
24856
25599
28137
27216
24510
25646
28358
26732
23619
24975
27273
25826
25136
27536
27174
23819
24461
28145
27373
23752
24532
27575
26611
24564
26274
27721
25466
24790
27821
28153
24484
23724
26699
26926
24479
25281
27824
26618
24618
26703
28400
25271
23025
25887
27576
25009
24687
27604
27165
24475
25983
28828
26328
22579
24452
27152
25125
24116
27214
27881
25209
25717
28337
26424
22472
23655
26956
25847
23911
26120
28007
25959
24827
26745
26493
23546
23794
26776
26363
23694
24768
27834
27030
24637
25731
27057
24800
23747
26596
27281
24060
23744
27126
27457
24764
24810
26330
24809
23353
25847
27349
24458
23353
26651
27836
25269
24906
27048
26158
23724
25373
27841
25545
23251
26091
28604
26138
24040
25970
26672
24396
24902
27627
26368
23557
25349
28293
26695
24270
25712
26972
24997
24603
27178
26990
23857
24240
27660
27274
24082
24622
27047
25915
24475
26546
27232
24315
24077
27437
27660
24659
24579
26839
26455
24960
26390
27745
25530
24162
26718
27849
24932
23703
26366
27189
25036
25385
27485
26172
24190
26326
28510
26057
23509
25366
27116
25402
24991
27355
27254
24839
25751
28596
27156
23650
24734
27637
26460
24741
26841
28215
25847
25130
27991
28219
24875
24625
27358
26707
24229
25760
28328
26517
24450
26747
28034
24699
23472
26987
27890
24957
25579
29009
28097
25224
26669
28528
25571
23326
26281
27524
23861
23477
28034
28872
25575
25905
28758
27102
23678
25384
28244
26127
24330
27707
30096
27514
25772
27551
27555
25164
26022
28808
27549
24911
26665
29394
27907
25922
27536
28354
25804
25384
28412
28649
25721
26032
29181
28926
26408
27165
28985
27450
26245
28627
29579
26957
26739
29961
30339
27556
27210
28952
28468
27262
28765
29894
27625
26485
29234
30484
27780
26671
29055
29457
27279
27901
29957
28276
26206
28574
30864
28407
26023
27981
29426
27448
27268
29699
29103
26451
27552
30326
28988
26242
27584
29752
28386
27505
29784
30145
27218
27028
30182
30026
26647
26753
29350
28457
26461
28330
30148
27806
26690
30054
31107
27094
25606
28961
29856
27182
27506
29867
28495
26442
28614
30198
26856
24573
27560
29473
27052
26741
29885
29805
26848
27411
29860
28217
25551
27645
30019
27537
25852
28704
30073
27834
27667
29942
29081
26233
27241
29776
28207
25930
28173
30841
29110
27339
29365
30022
26972
26526
29539
29251
26442
27711
30886
29818
27527
28900
29930
27234
26157
29028
29566
26385
26456
30155
30210
26970
27113
29271
27871
25957
28296
29930
26853
25471
28821
30105
27356
26689
28829
28347
26118
27420
29740
27852
25679
28128
30485
28159
26083
28124
29112
26853
27178
29995
28880
25734
27025
29896
28351
25681
27093
28837
27148
26493
28925
29063
26187
26386
29517
29062
25891
26456
29160
28390
26756
28444
29438
26789
25990
29065
29567
26151
25524
28372
28423
26061
26910
28955
27261
25591
28228
29979
26941
24971
27673
29098
26792
26647
29090
28231
25725
27388
30029
27605
24232
26134
28818
27123
26075
28638
29085
26290
26282
28873
27965
24898
25840
28321
26849
25098
27380
28904
26445
25529
28304
28445
24930
24730
27775
27294
24820
26426
29065
27400
25559
27649
28498
25240
24105
27227
27988
25058
25175
28495
28288
25445
26103
28081
26028
23726
26134
28158
25618
24586
27990
29203
26382
25793
27885
26770
24111
25980
28647
26308
24355
27488
29480
26807
25646
28119
28091
25166
25850
28708
27181
24327
26371
29299
27520
25301
27020
27896
25344
25187
28419
28293
24909
25346
28764
28216
25269
26109
28119
26443
25287
28032
28774
25297
24727
28278
28574
25253
25081
27590
27155
25450
27148
28893
26677
25358
28245
29576
26650
25282
27571
28090
26060
26709
28899
27261
24620
26467
29125
27153
24708
26768
28605
26640
26263
28646
27961
25308
26576
29106
27136
24200
25885
28234
26727
25821
28243
28610
25717
25836
29056
28241
24131
24435
28019
27690
25208
26478
28652
26997
25550
27791
28427
25056
24084
27184
27768
25302
26022
28597
27216
24973
27054
28900
25857
23477
26123
27832
25325
24876
27957
28065
25386
26102
28509
26591
23527
25450
28042
25850
24267
27275
28810
26256
25657
28120
27488
24251
25047
27987
26653
24258
26409
28788
26613
24809
27115
27882
24751
24234
27378
27325
24375
25275
28594
27879
25343
26386
27699
25431
24619
27783
28412
25155
25219
28602
28326
25632
26471
28463
26838
25124
27384
28862
25979
24529
27579
28994
26386
25456
27615
27683
25814
26998
29127
27061
24523
26710
29230
27096
24946
27056
28276
25828
25578
28106
27253
24544
25957
28677
27209
24706
25784
27156
25852
25755
28095
27974
25259
25685
28766
28178
24937
25419
28055
27277
25587
27226
28378
25932
25185
28395
29052
25395
24498
27636
28098
25738
26537
28744
27063
25091
27396
29037
26008
23922
26534
28234
26203
25856
28173
27666
25256
26556
29112
26929
23733
25748
28211
25877
24566
27457
28157
25581
26073
28842
27434
23934
25098
28056
26619
24465
26663
28758
26798
25713
28130
28333
24973
24544
27498
27446
25097
26368
29233
28000
25791
27619
28966
25684
23856
26901
28066
25278
25521
29007
28762
25974
26809
28692
26509
24463
27079
28655
25437
24390
28273
29559
26358
25671
28296
27841
25036
26009
28360
26461
24408
27111
29495
27191
25278
27105
27577
25186
25641
28371
27275
24638
26434
29305
27667
25225
26738
28161
26276
25792
28150
27790
24727
25393
28973
28416
25015
25586
27962
26500
25037
27733
28883
25550
24733
28316
29060
25948
25467
27601
27066
25432
27115
28567
25921
24496
27720
29337
26290
24722
27067
27667
25611
26423
28943
27469
24816
26508
28895
26851
24422
26219
27980
26285
25813
28117
27937
25319
26129
29174
27881
24209
25185
28180
27078
25486
27672
28747
26064
25540
28610
28454
24608
24401
27533
27271
25201
26907
29092
26981
25323
27934
28748
24983
23989
27659
28190
25062
25788
28870
27647
25403
27336
28704
25571
23664
26470
28005
25534
25185
28297
28387
25379
25755
28403
26871
23744
25531
28164
25798
23951
27160
29241
26861
25741
27615
27151
24544
25485
28142
26744
24380
26484
29167
27462
25447
27023
27656
25215
25241
28130
27447
24177
25213
28785
28093
25343
26327
28009
26028
24737
27207
27972
25230
25258
28532
28513
25658
25912
27977
26994
25333
27063
28478
25956
24531
27555
29122
26240
25098
27634
27392
24666
26316
29258
26671
23991
27237
29879
26877
24691
27187
28156
25382
25330
28306
27572
24369
25404
28633
27774
25044
25773
27508
26576
26083
27951
28001
25438
25559
28593
28304
25113
25655
28476
27379
25313
27416
29129
26470
25356
28602
29366
25648
24534
27395
27804
25668
26696
29050
27496
25662
28158
29695
26090
23870
27142
28967
26276
25999
29015
28433
25573
27058
29922
27573
24058
26012
28809
26797
25236
27835
28910
26682
26863
29298
27879
24380
25636
28769
27209
24855
27201
29471
27381
26159
28622
28821
25377
25056
28286
28250
25553
26676
29883
28846
26284
27821
29285
26125
24386
27588
28583
25478
25928
29758
29273
26028
26736
28689
26560
24466
26990
28713
25787
24657
28194
29529
26710
26015
28139
27428
25097
26691
28977
26645
24604
27430
29497
27086
25635
27641
27854
25564
26424
29184
27773
24839
26391
29158
27738
25596
26996
27951
25823
25575
28387
28360
25288
25669
29123
28838
25774
26409
28713
27214
25605
28009
29059
25960
25272
28559
29062
26185
25997
28306
28145
26606
27704
28972
27076
26038
28742
30053
27254
25624
27698
28691
27141
27472
29306
28083
25909
27595
29778
27205
24192
26354
28859
27036
26118
28396
28156
25508
26735
30029
28313
24284
25537
28828
27442
25407
27586
29052
26825
26414
28893
27952
24265
25132
28738
27625
24667
26597
29465
27655
25967
28365
29168
25732
24385
27173
27962
25472
25650
28646
28576
26321
27145
28602
26083
23951
26695
28525
25588
24630
28289
29400
26408
25924
28212
27223
24481
25915
28219
25978
24165
27186
29226
26821
25621
27629
27178
24328
25562
28903
27383
24288
26169
29169
27843
25978
27269
27652
25438
25552
28279
27785
24479
24857
28262
27888
24822
25519
27833
26304
24706
27210
28381
25207
24330
27741
28460
25421
25117
27419
26716
24889
26936
28938
26377
24718
27705
29123
26119
24934
27565
28008
25618
26233
28588
26953
24444
26612
29317
27158
24593
26472
28093
26091
25657
27900
27328
25017
26556
29232
27241
24104
25667
28057
26584
25643
27836
27766
24778
25430
29203
28544
24443
24604
27776
27282
25216
26768
28535
26567
25735
28775
29140
24858
23802
27563
28206
25168
25680
28415
27167
25236
27535
28958
25484
23472
26658
28154
25047
24556
28206
28638
25657
26153
28901
27318
24164
25913
28457
26266
24828
27951
29294
26583
26112
28562
27689
24417
25378
28398
27011
24491
26725
29621
27871
25812
27528
27962
25017
25181
28715
28157
24785
26049
29431
28124
25505
27068
28626
26239
25115
27923
28662
25782
25864
29248
29191
26329
26755
28613
26787
24775
27213
29008
25985
24430
27801
29287
26270
25384
28130
28093
25477
26598
29100
26998
24590
27107
29385
27147
25550
27592
28072
25698
26209
29053
27981
24986
26538
29760
28116
24893
26263
28464
26788
25935
28624
28997
25911
25895
28994
28480
25199
25644
28289
27563
25898
27606
29067
27008
26248
29035
29498
26108
25260
27992
28325
26243
27091
29173
27610
25781
28114
29857
26928
24928
27588
28925
26463
26295
28763
27986
25841
27592
29618
26935
24237
26648
29177
27259
26006
28429
29061
26370
26322
29147
28148
24539
25819
29219
27531
24985
27339
29250
26788
25893
28663
28561
25010
25055
28299
27860
25127
26454
29368
27974
25817
27899
29214
25772
24217
27744
28944
25838
25918
29349
28911
26124
27440
29584
26876
24359
27174
28831
25452
24711
28732
29462
26317
26466
28900
27331
24535
26612
29274
26801
24811
28244
30820
28267
26511
28496
28484
25547
26042
29032
27977
25361
27281
30123
28333
25935
27595
28935
26813
26276
28839
28669
25457
25642
28991
29004
26371
26772
28511
27221
26175
28473
29234
26341
25985
29419
29735
26295
25895
28509
28125
25979
27424
29575
27527
25661
28389
30311
27458
25576
27986
28938
26734
27090
29253
27630
25329
27619
30128
27853
25323
27019
28635
27080
26853
28984
28462
25981
27108
29990
28489
25133
26379
29201
27982
26404
28432
29453
27060
26890
30085
29647
25335
25159
28745
28511
26067
27654
29900
27762
26132
28757
29479
25680
24580
28140
29041
26353
26879
29731
28770
26662
28539
30084
26923
24597
27273
28988
26531
26144
29290
29409
26614
27249
29735
27872
24799
26876
29661
27247
25282
28582
30827
28183
26894
29331
29059
25692
26411
29627
28141
25372
27847
30958
29071
27039
28893
29231
26150
26311
29986
29640
26206
27204
30710
29786
27092
28282
29848
27686
26446
29033
29800
26675
26090
29374
29918
27160
27140
29213
28234
26598
28779
30356
27442
26003
29205
30667
28086
27154
29038
28773
26814
27885
29686
27566
25581
28369
30979
28728
26608
28637
29645
27329
27497
30105
28896
26033
27951
31203
29330
26213
27828
29883
27966
27211
29895
29865
26745
27392
30922
30217
26812
27284
29670
28751
27329
29146
30147
27584
26913
30166
30714
27005
26183
29185
29313
27075
28458
30781
28733
26823
29457
30968
27780
25939
28511
29663
27491
27695
30358
29671
27263
28826
31241
28667
25486
27779
30304
27849
26515
29671
30721
28041
28082
30766
29648
26302
27457
30394
28915
26838
29196
31063
28429
27028
29829
30201
26584
26542
30120
29447
26129
27752
31422
30316
28106
29898
30857
27560
26322
29622
30475
27454
27716
31196
30938
28246
29089
30833
28649
26640
29053
30552
27674
26846
30545
31886
29209
28643
30522
29398
26919
28673
31191
28803
26308
28880
31249
29015
27364
29509
30150
27808
28268
30862
29449
26548
28402
31534
29954
27417
28966
30196
27761
27264
30372
30314
26616
26814
30768
30711
27359
27847
30233
28726
27273
30089
31083
27366
26595
30567
31277
27776
27358
30166
30126
28183
29417
31260
29207
27451
30108
31861
28989
27243
29633
30250
27823
28490
31110
29495
26914
29079
31631
29480
27196
29073
30476
28462
28163
30818
30789
28251
29127
32011
30415
26479
27242
30450
29908
28129
29492
30538
28418
28051
31175
30775
26036
25782
29937
29612
26536
28216
30924
29007
27679
30331
30615
26770
25833
29036
29647
27054
27615
30739
30158
27636
28956
30871
28075
25341
27891
30010
27363
26415
30046
31334
28533
27943
29931
28835
26238
27886
30526
28704
27014
29801
31528
28847
27705
30330
30328
27103
27785
31009
29466
26298
28365
31618
30150
28022
29478
30128
27727
27533
30288
30043
27110
27787
30969
30172
27364
28679
30843
28567
26786
29638
30744
27282
26663
30412
31002
27883
27653
29792
28991
27207
29050
30937
28517
26697
29545
31364
28541
26965
29372
29880
27723
28776
30981
28607
26219
28918
30981
28155
26303
28870
30244
28088
27846
30144
29433
26742
28165
31587
30135
26407
27490
30280
28975
27631
29861
30233
27035
27112
31021
30649
26159
26243
30025
29581
27220
29145
31026
28214
26686
29629
30204
26440
25493
28628
29249
27116
27978
30275
28935
27277
29534
30809
27472
25437
28156
29532
27215
27351
30273
29661
27048
28569
31224
28879
25660
27779
30322
27933
26410
29442
30801
28382
28066
30293
29404
26430
27335
30174
29117
26736
28453
31238
30062
28222
29623
29788
26475
25981
29317
29443
26715
27940
31218
29962
27073
28346
30000
27625
26339
29263
30161
27138
27063
30463
30514
27847
28381
30198
28478
26627
28809
30135
27153
26083
29584
30773
27635
26622
28882
28701
26606
27994
30294
28227
26067
28628
30697
28030
26355
29068
29793
26641
26806
30109
29031
25647
27230
30578
29098
26489
28251
30030
28024
27528
30305
29972
26442
26848
30313
29605
26250
26824
29174
28051
26676
28942
30277
27625
26709
29811
30473
27149
26503
29405
29708
27584
28293
29798
27644
26025
29022
30967
27833
25691
28382
30019
27951
27943
30648
30240
27929
29370
31955
29986
26989
28622
30800
29024
28143
30602
30833
28262
28946
31929
30509
26821
28198
31552
30048
27836
30443
32664
30201
28819
31516
31929
28520
28280
31474
31113
28324
29755
32969
31567
28907
30490
31822
28734
27268
30529
31631
28795
29038
32180
31471
28795
30063
31946
29577
27730
30668
32358
29425
28877
32813
33987
31490
31611
33765
32447
30051
32010
34357
32011
30286
33375
35325
32851
31838
34325
34341
31537
32484
35739
34404
31238
32870
35927
34493
32069
33328
34277
32040
31590
34184
34036
31173
31944
35538
35265
32357
32942
35083
33884
32423
34213
34936
32328
31991
35220
35760
32888
32460
34544
34264
32637
33899
35565
33661
32026
34368
35977
33521
31995
34131
34844
32856
33279
35126
33376
31284
33678
36155
33982
31610
33235
34503
32730
32738
35078
34353
31726
32961
35851
34387
31290
32531
34956
33607
32265
34339
35258
32999
33009
36171
35762
31702
31595
34967
34665
32186
33409
35453
33735
32558
35119
35725
32236
31380
34628
35112
32307
32793
35598
34738
32758
34644
36270
33422
31404
34081
35549
33048
32961
36204
36076
33283
34115
36582
34777
31823
33510
35790
33638
32189
35157
36751
34283
33351
35446
35127
32342
32810
35282
34339
32492
34607
37061
35200
33313
35429
36127
32773
32250
35586
35280
32173
33568
37025
35820
33248
34598
35892
33654
32835
35477
35746
32636
32727
36035
35798
32924
33588
35799
34308
32428
34727
36326
33217
31642
35041
36683
33773
32521
34717
34768
32708
33864
35867
33666
31694
34317
36188
33703
32139
34197
34874
32868
33252
35496
34343
31852
33473
36290
34754
32166
33697
35406
33501
32949
35671
35579
32263
32574
36083
35737
32502
32907
35458
34768
33094
34476
35613
33514
32780
35539
35981
32528
31596
34410
34983
32976
33590
35433
33978
32452
34741
36105
33061
31194
33908
35452
33276
32994
35277
34616
32374
33884
36179
33750
30732
32878
35295
33104
31968
34787
35461
33041
33554
36159
34597
30996
32122
35121
33710
31435
33446
35562
33787
32754
35048
35043
31626
31572
34937
34706
31914
33077
35986
34684
32487
34379
35805
32870
31356
34176
34922
31968
32185
35695
35500
32661
33465
35437
33167
30755
33164
34957
32162
31296
34792
35628
32666
32273
34331
33296
31047
32997
35462
33079
30855
33464
35563
33436
31977
33659
33926
31758
31878
33943
33258
31350
32857
35300
33783
31399
32962
34535
32539
32075
34815
34552
31323
31906
35255
34686
31879
32560
34208
32597
31615
34078
34633
31445
31066
34560
35047
32062
31765
33781
33127
31483
33158
34853
32543
30999
34041
35995
33192
31183
33065
33724
31823
32599
35129
33828
31383
33178
35545
33367
30778
32705
34912
33400
32600
34731
35033
32883
33413
36039
35046
31945
32890
35457
34282
32863
34848
35617
33249
33274
36218
35580
31733
31768
34973
34775
32491
33661
35899
34300
32444
34479
35457
32158
30979
34260
34945
31997
32367
35159
34170
32083
33792
35329
32881
30928
32842
34140
32080
31373
33869
34546
32497
32670
34713
33491
30974
32635
34819
32389
30665
33936
36109
33607
32196
34196
33981
31081
31751
34675
33445
30772
32576
35301
33801
31998
33777
34358
31594
31574
34897
34669
31570
32375
35257
34004
31422
32765
34526
32762
31720
34145
35016
32359
31838
34620
34825
32236
32460
34635
33801
32080
33906
35531
32868
31224
34448
36204
32835
30895
33519
34325
31945
32738
35468
33858
31337
33469
35785
33614
31617
33525
34658
32715
32765
35242
34533
31624
32577
35697
34733
31802
32817
34843
33379
32644
35173
35394
32380
32570
35834
35318
32013
32629
35358
34243
32071
33754
35505
33482
32617
35547
36069
32346
31351
34423
34949
32738
33703
36069
34523
32634
34845
36160
32938
31137
34102
35531
32953
32765
35740
35480
32974
34191
36604
34329
31077
32924
35514
33543
32160
35070
36380
33594
32848
35431
34901
31504
32252
35287
33931
31666
34179
36740
34637
33120
35509
35714
32180
32134
35546
34755
31453
33146
36820
35496
32867
34414
35676
32973
31898
34901
35615
32573
32676
36307
36493
33660
33823
35421
33727
31904
34130
35787
33149
31925
35038
36221
33514
33060
35605
34975
32023
33210
35964
33933
31294
33784
36423
34094
31802
33679
34673
32421
32542
35189
34292
31547
33195
36348
34652
31609
33221
35161
32870
31858
34667
34787
31671
32314
35749
34868
31622
32544
34863
33354
32014
34549
35483
32246
31436
34532
34612
31241
31077
33943
34098
32314
33247
34763
32924
31536
34124
35497
32342
30571
33280
34453
32313
32810
35362
34075
31707
33687
35871
33141
30282
32292
34395
32662
32003
34268
34166
31678
32463
35084
33308
29819
31586
34991
33456
31308
33508
35044
32846
32512
35321
34768
30915
31017
34302
33788
31043
32190
34683
33332
31921
34411
35269
31426
29967
33409
34248
31168
31679
35306
34771
31961
33133
35005
32373
29820
32193
34141
31591
30524
33722
34748
32006
31687
33978
32852
30074
31856
34473
32158
30329
33397
35154
32623
31798
33988
33278
30133
31070
34209
32822
29852
31772
34943
33289
30790
32756
34572
32182
30884
33240
33494
30622
30963
34638
34857
31964
32010
33407
31565
30338
33216
34365
31080
30332
33831
34309
31064
30964
33655
33015
30665
32058
34067
32105
30691
33190
34078
31050
29974
32537
33138
31302
32246
34333
32459
30248
32567
34708
32091
29920
32368
33889
31394
30891
33655
33444
30683
31610
34532
33186
30125
31479
33840
32083
30652
33232
34482
32024
31622
34230
33425
29672
30162
33621
33036
30447
31847
34138
32412
31015
33612
34372
30606
29384
32693
33292
30519
31320
34363
33203
30871
32739
34294
31170
29026
31786
33232
30484
30152
33372
33382
30747
31758
34360
32504
29392
31029
33413
31337
29859
32902
34600
31965
31011
33484
32991
29458
30127
33463
32293
29622
31698
34494
32934
31363
33196
33372
30284
30144
33388
33340
30557
31510
34672
33933
31592
32754
34126
31863
30483
32800
33516
30929
30922
33898
33746
31172
31873
34077
32801
30891
32662
33968
31290
30197
33475
34702
31645
30579
32966
32931
30631
31825
34225
32168
29712
31915
33914
31463
29660
32001
33341
31399
31411
33693
32861
30402
31803
34486
32891
29956
30973
32814
31568
30935
32921
32865
30201
30515
33640
33375
30347
30662
33156
32749
31589
33168
33852
31452
31241
34529
34935
31532
30786
33279
33403
31612
32721
34571
32788
31209
33792
35265
31943
29975
32916
34407
32050
32155
34850
33836
31212
33030
35679
33131
29798
31757
34318
32349
31026
33717
34776
32330
32098
34462
33401
30051
31064
34088
32919
31121
33554
35300
32566
31170
33968
34359
30750
30532
34135
34055
31098
32230
35397
34272
31875
33325
34567
31933
30730
33489
34076
31073
31217
34734
34734
31849
32113
33840
32243
30528
32756
34166
31444
30631
34052
35150
32464
31876
33825
33210
31088
32394
34549
32684
30721
33222
35567
33479
31754
33851
34521
31973
32339
35237
34069
31031
32527
35380
33854
31488
32981
34327
32462
32126
34602
34224
31047
31682
35444
35017
31593
32299
34870
33333
31846
34778
35850
32039
31092
34868
35444
32022
31788
34572
34278
32096
33181
34899
32922
31485
34178
35598
32585
30666
32657
33688
32466
33494
35568
33830
31448
33369
35388
32631
29904
32147
34493
32835
32113
34456
34436
31635
32180
35277
33839
29561
30415
34113
33506
31671
33536
34773
32512
32170
35035
34622
30910
31115
34266
33394
30748
32501
35121
33373
31813
34161
34704
31145
30325
33641
33872
30685
31476
35223
34534
31551
32986
35434
33044
30518
32915
34374
31342
30858
34668
35234
32297
32626
34891
33009
30085
32163
34698
32128
30318
33733
35746
32859
31623
34238
34110
30777
31360
34544
33243
30388
32559
35732
33879
31316
32890
33693
30892
30673
34005
33692
30241
31155
34907
34242
31302
32193
34031
32323
31109
33483
34261
31388
31047
34314
34514
31345
31219
33695
33275
31478
32905
34438
32196
30887
33735
34963
31928
30755
33376
33645
31307
32477
34907
32735
30484
33260
35482
32869
30909
32996
34108
32279
32444
34568
33439
30740
32146
35097
33534
30411
31785
34305
32981
31708
33609
34014
31541
31634
34455
33871
30639
31128
33882
33112
31153
32820
34598
32314
30789
33591
34677
31096
29796
33112
34095
31603
32094
34709
33550
31407
33444
35261
32336
30231
33137
34799
31929
31121
34009
34142
31866
33075
35526
33315
30143
32194
34825
32540
30963
34037
35489
32773
32228
34983
34534
31228
31929
34753
33222
30783
33091
35556
33406
31906
34579
34996
31073
30515
34155
34036
30883
32132
35457
34036
31298
32835
34226
31495
30335
33372
33948
30722
31013
34802
34690
31678
32213
34258
32711
30955
33246
34728
31831
30581
33714
34914
32459
32059
34146
33518
31455
33075
35201
32831
30791
33636
35911
33644
32008
33850
34059
31511
31889
34493
33245
30284
31800
34921
33585
31012
32650
34595
32885
32357
34779
34225
30865
31419
34694
33995
31202
32224
34563
33397
31772
33309
34256
32009
31583
34823
35291
31437
30426
33575
34260
32251
33124
34939
32972
31282
33845
35129
31779
30077
33100
34437
31981
31949
34510
33786
31813
33979
36377
33449
30117
32332
35037
33162
31908
34194
34502
32012
32635
35464
33825
29980
31352
34545
32821
30924
33901
35780
33111
32231
34846
34360
30921
31586
34850
33731
30969
33024
36065
34275
32239
34419
35359
32011
30777
33957
34996
32437
32761
36035
35683
32809
33549
35519
33367
31069
33529
35387
32654
31715
35060
35917
33236
33244
35568
34396
31593
33005
35504
33673
31850
34379
36142
33715
32364
34387
34355
31780
32791
35748
33980
30756
32833
36336
35000
32651
34331
35766
33528
32578
34671
34336
31471
32236
35807
35502
32499
32854
34608
33157
32024
34543
35586
32605
31955
35461
36100
32722
32273
34867
34295
32296
34292
36157
33328
31733
34629
35358
32047
31224
34038
34661
32867
33684
35519
33643
31589
34050
36365
33661
30972
33156
35228
33443
32837
34923
34497
32199
33489
36167
34261
30817
32188
34878
33506
32213
34536
35350
32703
32598
35743
35158
31160
31383
34760
34179
31878
33756
36018
33746
32074
34798
35720
32123
30949
34057
34558
31812
32465
35451
34445
32129
34106
36045
32990
30679
33590
34981
31729
31431
35251
35403
32451
33179
35542
33682
30858
32560
34716
32527
31036
34085
35960
33447
32241
34496
34371
31469
32216
34950
33234
30614
33030
35870
33977
32153
34171
34731
31866
31752
34784
34311
31363
32641
36051
35102
32452
33381
34379
31896
30945
33907
34525
31147
30911
34703
35043
31771
31914
34519
33394
31092
33097
34959
32016
30333
33626
35300
32535
31173
33016
33197
31547
32545
34405
32672
30818
33071
35100
32883
30839
32501
33585
31935
32116
34303
33403
30781
32053
34970
33492
30586
32306
34514
32242
31080
34087
34490
31166
31331
34570
33766
30411
31089
33800
33099
31518
33171
34525
32253
31246
34274
35071
31252
29970
33265
34221
31852
32244
34355
32944
31112
33219
34591
31543
29635
32336
33888
31646
31353
33927
33454
30853
32176
34944
32613
28998
31131
34245
32153
30472
33201
34340
32221
32730
35327
33784
30237
31553
34605
33011
30868
33217
35035
32702
31827
34566
34532
30893
30748
34133
34083
31474
32679
35712
34560
32182
33744
35064
32072
30403
33401
34741
32044
31920
35307
35433
32502
32693
34448
32544
30419
32897
34844
32086
30853
34042
35117
32525
32065
33862
32828
30632
32363
34613
32177
29863
32646
35130
32668
30614
32720
33509
31079
31648
34810
33729
30474
31761
34722
33386
30989
32339
33509
31372
30921
33631
33567
30570
31159
34643
34234
31161
31667
33753
32533
31403
33739
34496
31368
30716
33987
34330
31034
30627
33111
32955
31328
32777
34313
32155
30949
33602
34474
31496
30548
33318
34188
32056
32184
34433
33543
31087
32557
35186
32929
29591
31583
34344
32575
31591
34100
34176
31595
32549
35370
33462
29627
31018
34409
33251
31111
32935
34532
32595
32042
34688
34509
30915
30896
34242
34063
31539
32646
34940
33362
31609
33654
34689
31788
30631
33353
34013
31444
31720
34701
34239
31635
32568
34408
32181
30058
32638
34432
31673
30766
34045
34785
32119
32242
34484
32967
30008
31717
34485
32496
30515
33376
35559
33072
31605
33908
33858
30671
31406
34592
32984
30113
32584
35607
33586
31446
33230
33926
31420
31241
33977
33513
30259
30903
34547
34099
30911
31666
33981
32316
30690
33288
34525
31468
30819
34236
34572
31209
30931
33348
32757
31175
33362
35061
32062
30321
33317
34457
31359
30627
33605
33801
31321
32465
34994
32817
30220
32849
35470
32979
30626
32661
33954
31888
31965
34598
33640
30407
31736
35528
34536
30950
31641
34069
32951
31824
34018
34665
31885
31784
35328
35163
30886
30423
33630
33424
31266
32642
34296
32201
31271
34099
34473
30829
30151
33532
34238
31957
32679
35006
33543
31455
33449
34950
31905
29860
32670
34436
32067
31557
34357
34224
31466
32516
35583
33774
30175
31971
34864
32524
30600
33695
35363
32598
31844
34557
34264
31054
31746
34769
33591
31176
33263
35868
34126
32414
34330
34849
31814
31102
33927
34209
31620
32175
35291
34804
32196
33174
34728
32182
30756
34124
35409
32069
31652
35191
35488
32870
33206
34712
32917
31241
33605
35141
32345
31173
34408
35601
32806
32136
34401
33864
31561
33265
35725
33130
30519
33257
35783
33521
31715
33697
34389
32190
32613
35312
34305
31368
32649
35623
34289
31571
32937
34832
33109
32252
34821
35272
32133
31691
34844
35010
32074
32400
34888
33970
32334
34390
35788
33099
32044
35158
36048
32963
32193
34600
34656
32970
34304
35870
33393
31612
34379
35928
32945
31376
34058
35241
33148
33297
35588
34555
32223
33926
36234
33693
30676
32845
35357
33365
32143
34581
34972
32318
32732
35653
34259
30352
31540
35044
33775
31518
33780
35779
33625
32693
35246
35131
31554
31376
34346
33881
31584
33268
35818
34032
32216
34564
35649
32309
30898
33816
34526
31743
32086
35402
35156
32643
33482
34981
32581
30655
33356
34969
32025
31166
34651
35499
32614
32352
34561
33502
30965
32553
34848
32695
30937
33708
35550
33442
32687
34773
34189
31238
32219
35150
33487
30560
32528
35306
33428
31185
33004
34299
32229
31928
34585
34471
31649
32287
35595
35199
32511
33329
35104
33200
31827
34336
35026
31853
31603
34999
34981
31847
32071
34589
34000
32204
33787
35614
33537
31901
34436
35976
33280
31714
33781
34197
32298
33530
36005
34008
31478
33884
36391
33928
31285
33016
34818
33573
33525
35477
34645
32050
33209
36136
34694
31313
32381
35103
34055
32622
34449
35149
32584
32330
