50568
50499
50417
50312
50188
50054
49911
49759
49607
49465
49327
49186
49056
48948
48852
48766
48699
48649
48603
48561
48533
48519
48504
48484
48465
48445
48418
48384
48343
48291
48226
48150
48067
47975
47866
47747
47623
47486
47333
47178
47021
46857
46681
46495
46305
46112
45914
45714
45520
45329
45134
44942
44759
44576
44390
44211
44041
43875
43714
43561
43420
43282
43143
43012
42889
42763
42634
42511
42394
42276
42155
42047
41953
41858
41755
41654
41556
41455
41353
41262
41178
41089
40995
40906
40822
40737
40656
40581
40500
40411
40320
40239
40158
40066
39970
39877
39782
39682
39582
39490
39400
39310
39227
39150
39072
38992
38912
38832
38748
38666
38594
38528
38455
38376
38298
38219
38134
38046
37961
37874
37784
37700
37626
37554
37490
37450
37438
37460
37527
37660
37884
38219
38681
39290
40046
40919
41865
42840
43799
44706
45538
46286
46944
47506
47974
48359
48671
48908
49075
49192
49273
49317
49327
49324
49312
49283
49241
49200
49162
49118
49070
49030
48993
48958
48933
48928
48931
48934
48940
48950
48959
48961
48961
48963
48956
48934
48900
48851
48784
48698
48600
48486
48353
48212
48069
47922
47767
47613
47473
47344
47223
47120
47040
46977
46929
46903
46899
46905
46912
46920
46931
46939
46941
46941
46940
46928
46903
46874
46842
46796
46732
46656
46570
46470
46349
46213
46069
45914
45751
45583
45409
45226
45035
44843
44659
44477
44295
44123
43956
43786
43616
43453
43297
43143
42995
42860
42729
42590
42443
42301
42171
42047
41931
41830
41738
41645
41549
41458
41374
41291
41213
41144
41074
40999
40925
40855
40780
40697
40616
40539
40457
40368
40281
40198
40114
40029
39949
39870
39784
39687
39586
39482
39372
39259
39152
39052
38954
38865
38789
38715
38640
38576
38534
38511
38508
38542
38634
38794
39045
39418
39926
40561
41310
42153
43045
43932
44782
45580
46312
46962
47528
48019
48437
48772
49037
49250
49421
49554
49654
49727
49776
49803
49813
49817
49815
49801
49782
49764
49744
49714
49681
49655
49633
49607
49581
49563
49552
49546
49544
49550
49559
49563
49559
49547
49518
49469
49404
49322
49217
49089
48950
48809
48662
48512
48367
48235
48114
48009
47926
47866
47815
47766
47727
47703
47684
47666
47659
47663
47663
47658
47655
47651
47633
47604
47570
47529
47474
47406
47329
47237
47126
47000
46866
46718
46555
46386
46216
46039
45849
45660
45475
45290
45104
44919
44738
44559
44376
44200
44038
43881
43722
43570
43430
43288
43145
43014
42896
42781
42666
42556
42447
42329
42205
42086
41972
41856
41742
41640
41548
41455
41365
41286
41213
41132
41044
40961
40882
40797
40709
40622
40529
40426
40327
40238
40152
40070
39998
39935
39870
39796
39723
39651
39571
39481
39392
39310
39225
39133
39039
38943
38842
38740
38647
38562
38474
38388
38316
38254
38192
38132
38095
38094
38132
38231
38424
38736
39182
39776
40518
41378
42306
43263
44211
45110
45935
46679
47334
47892
48356
48740
49055
49306
49501
49649
49760
49835
49884
49925
49958
49978
49990
50000
50004
49996
49985
49982
49985
49982
49977
49977
49984
49991
50002
50025
50060
50096
50134
50176
50216
50242
50262
50277
50278
50259
50226
50179
50117
50039
49950
49856
49746
49621
49496
49375
49255
49143
49046
48966
48897
48837
48791
48756
48723
48696
48680
48670
48652
48630
48612
48593
48563
48530
48500
48460
48404
48341
48275
48196
48101
47998
47890
47770
47637
47494
47344
47182
47008
46831
46656
46475
46290
46110
45933
45748
45558
45373
45197
45028
44867
44718
44577
44436
44297
44166
44038
43910
43784
43663
43544
43423
43307
43202
43099
42991
42882
42776
42668
42558
42451
42351
42252
42152
42054
41959
41858
41754
41660
41571
41479
41382
41287
41195
41101
41012
40932
40854
40770
40686
40609
40533
40452
40371
40294
40215
40131
40044
39956
39859
39750
39639
39534
39427
39312
39200
39097
38997
38895
38795
38701
38613
38528
38452
38386
38324
38268
38232
38229
38267
38360
38539
38835
39267
39845
40573
41425
42350
43299
44239
45142
45979
46734
47407
47992
48482
48886
49218
49485
49684
49830
49943
50023
50065
50085
50098
50100
50085
50063
50041
50013
49981
49956
49942
49931
49922
49916
49921
49934
49950
49968
49988
50008
50023
50037
50048
50045
50024
49993
49953
49890
49801
49700
49586
49457
49315
49171
49026
48876
48729
48592
48463
48342
48242
48168
48110
48057
48014
47988
47970
47955
47947
47949
47951
47946
47935
47926
47911
47883
47848
47806
47748
47676
47599
47517
47423
47314
47197
47072
46932
46777
46617
46453
46282
46103
45925
45748
45564
45373
45188
45008
44825
44646
44479
44318
44157
44000
43857
43722
43584
43446
43319
43199
43080
42970
42868
42761
42649
42543
42449
42359
42269
42188
42116
42042
41968
41902
41841
41774
41697
41617
41536
41452
41367
41289
41211
41119
41021
40931
40847
40757
40661
40568
40479
40387
40290
40197
40108
40023
39943
39874
39807
39744
39694
39667
39665
39697
39786
39959
40234
40628
41158
41822
42592
43431
44305
45179
46024
46818
47551
48211
48783
49264
49670
50011
50282
50491
50650
50769
50849
50901
50936
50953
50953
50942
50927
50907
50880
50849
50822
50802
50786
50774
50769
50772
50779
50793
50815
50835
50843
50848
50850
50842
50817
50785
50741
50674
50586
50494
50399
50286
50155
50018
49881
49742
49610
49490
49378
49267
49162
49075
49006
48942
48888
48854
48835
48824
48818
48817
48818
48810
48798
48790
48777
48752
48718
48679
48631
48566
48489
48406
48313
48201
48080
47956
47821
47668
47504
47332
47149
46959
46773
46593
46409
46222
46038
45855
45667
45483
45310
45143
44975
44814
44666
44524
44384
44248
44121
43999
43876
43750
43630
43513
43394
43277
43169
43061
42949
42842
42741
42640
42532
42425
42325
42226
42127
42034
41946
41857
41770
41690
41609
41524
41437
41360
41288
41216
41143
41075
41005
40929
40851
40775
40697
40615
40535
40463
40387
40299
40203
40109
40015
39915
39813
39718
39629
39538
39446
39360
39275
39187
39107
39042
38987
38939
38910
38909
38945
39035
39211
39504
39936
40517
41254
42122
43070
44047
45019
45953
46819
47602
48295
48888
49380
49784
50117
50384
50590
50750
50877
50971
51031
51070
51098
51111
51109
51106
51105
51102
51097
51098
51107
51118
51128
51145
51170
51197
51223
51255
51291
51325
51355
51383
51412
51431
51439
51447
51451
51435
51400
51346
51270
51168
51047
50917
50775
50621
50467
50323
50185
50049
49926
49819
49721
49632
49560
49504
49453
49404
49367
49345
49330
49312
49294
49274
49247
49211
49171
49129
49082
49028
48969
48899
48812
48709
48598
48480
48351
48209
48061
47904
47734
47554
47373
47193
47011
46832
46660
46489
46315
46139
45975
45820
45664
45508
45358
45211
45061
44909
44763
44624
44482
44337
44196
44057
43920
43786
43661
43538
43414
43300
43196
43090
42979
42874
42774
42672
42570
42476
42386
42292
42196
42104
42014
41924
41833
41744
41654
41559
41467
41382
41295
41201
41110
41025
40936
40845
40758
40677
40597
40515
40439
40372
40306
40234
40165
40104
40043
39980
39921
39868
39809
39741
39677
39611
39535
39451
39370
39290
39210
39131
39056
38983
38907
38828
38755
38685
38615
38552
38509
38492
38506
38570
38714
38963
39338
39863
40548
41375
42304
43283
44266
45216
46104
46913
47635
48264
48795
49235
49593
49877
50096
50261
50384
50472
50533
50577
50608
50627
50636
50639
50635
50628
50619
50617
50624
50630
50635
50649
50673
50693
50710
50735
50765
50788
50806
50834
50864
50880
50879
50868
50840
50790
50722
50644
50547
50426
50290
50150
50002
49846
49695
49556
49422
49293
49180
49091
49018
48957
48909
48872
48841
48819
48809
48804
48795
48786
48783
48778
48764
48742
48716
48677
48624
48562
48495
48418
48325
48216
48097
47964
47816
47660
47505
47350
47184
47009
46831
46649
46461
46274
46092
45914
45738
45575
45426
45282
45142
45010
44884
44755
44629
44510
44392
44271
44152
44040
43932
43821
43713
43615
43526
43438
43351
43274
43200
43125
43055
42993
42931
42854
42768
42680
42595
42507
42415
42327
42243
42159
42077
42002
41927
41844
41755
41667
41576
41478
41382
41286
41181
41067
40957
40857
40757
40654
40558
40469
40381
40297
40220
40143
40057
39970
39899
39847
39807
39791
39817
39899
40052
40309
40702
41236
41896
42671
43535
44441
45346
46223
47051
47808
48482
49077
49591
50016
50357
50628
50836
50991
51102
51188
51252
51287
51299
51302
51298
51280
51253
51231
51210
51179
51140
51109
51087
51064
51042
51032
51032
51034
51044
51066
51084
51090
51088
51079
51055
51011
50954
50883
50791
50679
50558
50429
50286
50128
49968
49817
49673
49540
49426
49331
49247
49170
49110
49066
49031
49001
48986
48980
48971
48960
48956
48953
48934
48901
48865
48828
48775
48705
48625
48534
48424
48301
48174
48040
47892
47732
47568
47393
47206
47014
46823
46629
46427
46225
46027
45830
45632
45440
45260
45087
44918
44755
44598
44442
44291
44151
44018
43884
43754
43637
43526
43413
43300
43192
43087
42984
42886
42798
42716
42627
42536
42453
42375
42290
42200
42116
42034
41951
41870
41793
41708
41613
41517
41425
41330
41234
41144
41062
40979
40893
40814
40742
40667
40587
40510
40430
40342
40252
40165
40076
39979
39879
39782
39686
39590
39494
39406
39323
39240
39153
39071
38993
38911
38826
38748
38677
38609
38547
38494
38437
38376
38321
38286
38277
38295
38360
38496
38723
39069
39563
40216
41014
41933
42935
43970
44983
45942
46830
47631
48330
48924
49422
49828
50148
50395
50586
50728
50821
50875
50906
50918
50907
50884
50867
50851
50826
50796
50770
50746
50722
50707
50703
50701
50697
50704
50725
50749
50777
50810
50847
50880
50908
50934
50950
50948
50925
50882
50817
50725
50613
50495
50370
50227
50075
49927
49781
49634
49490
49361
49247
49141
49042
48957
48881
48807
48739
48687
48644
48602
48563
48530
48494
48447
48396
48345
48286
48215
48139
48057
47960
47849
47734
47618
47491
47350
47202
47043
46874
46701
46528
46348
46152
45951
45752
45551
45346
45142
44947
44759
44575
44399
44238
44085
43934
43787
43647
43512
43378
43252
43140
43032
42920
42809
42706
42607
42504
42400
42304
42208
42103
42000
41909
41820
41729
41641
41557
41468
41376
41293
41216
41135
41051
40969
40892
40812
40726
40641
40558
40473
40388
40305
40220
40131
40047
39973
39900
39821
39745
39683
39626
39562
39493
39422
39350
39277
39204
39136
39070
39003
38940
38886
38831
38765
38698
38637
38574
38510
38451
38399
38341
38275
38209
38145
38076
38003
37936
37879
37824
37771
37727
37688
37647
37612
37590
37583
37594
37639
37738
37904
38151
38507
39002
39652
40442
41348
42337
43357
44356
45299
46164
46932
47593
48153
48622
48999
49288
49505
49663
49766
49826
49862
49884
49884
49866
49842
49812
49771
49725
49683
49648
49616
49588
49567
49548
49525
49508
49506
49513
49521
49533
49553
49571
49575
49569
49558
49535
49487
49416
49331
49224
49092
48945
48796
48640
48474
48310
48153
47999
47848
47711
47594
47489
47395
47324
47278
47242
47213
47195
47183
47172
47164
47158
47150
47133
47112
47094
47067
47018
46952
46887
46818
46723
46603
46474
46337
46181
46013
45840
45661
45471
45280
45095
44908
44721
44545
44384
44229
44076
43927
43786
43642
43496
43352
43206
43055
42911
42783
42667
42553
42446
42352
42265
42178
42093
42014
41935
41846
41749
41660
41580
41495
41409
41336
41274
41205
41126
41049
40975
40894
40812
40734
40652
40559
40467
40384
40304
40224
40145
40068
39986
39904
39833
39772
39711
39652
39595
39538
39475
39408
39341
39269
39183
39090
39004
38925
38844
38765
38702
38654
38612
38581
38581
38622
38715
38881
39147
39525
40026
40667
41439
42305
43221
44151
45060
45910
46681
47373
47984
48507
48942
49297
49585
49813
49987
50114
50199
50246
50260
50255
50243
50223
50193
50165
50136
50098
50054
50017
49990
49963
49937
49919
49906
49891
49884
49892
49903
49909
49916
49922
49917
49892
49850
49792
49715
49613
49492
49356
49205
49036
48863
48693
48522
48357
48207
48072
47951
47847
47767
47710
47665
47627
47600
47580
47555
47521
47492
47471
47441
47405
47375
47351
47321
47281
47239
47190
47123
47041
46955
46860
46746
46620
46484
46332
46162
45984
45803
45613
45417
45227
45048
44868
44686
44511
44343
44174
44003
43838
43682
43527
43375
43232
43092
42947
42806
42677
42562
42454
42352
42259
42170
42082
41997
41916
41835
41752
41675
41610
41545
41473
41399
41326
41251
41168
41086
41012
40937
40859
40780
40701
40620
40534
40448
40369
40290
40207
40129
40053
39976
39896
39822
39757
39688
39612
39544
39483
39414
39338
39267
39196
39117
39034
38961
38892
38816
38740
38673
38607
38530
38452
38388
38335
38281
38227
38177
38126
38079
38048
38045
38072
38138
38267
38486
38814
39278
39897
40664
41553
42527
43543
44547
45492
46351
47124
47810
48403
48903
49321
49661
49923
50119
50269
50381
50456
50506
50540
50559
50556
50540
50524
50505
50479
50457
50451
50452
50448
50447
50456
50463
50461
50464
50480
50502
50524
50550
50580
50603
50615
50623
50621
50599
50556
50501
50435
50347
50240
50125
50000
49862
49716
49573
49433
49295
49169
49063
48973
48889
48816
48762
48717
48671
48628
48600
48580
48553
48518
48483
48446
48399
48350
48307
48255
48182
48098
48011
47915
47804
47684
47552
47401
47238
47078
46921
46752
46570
46385
46200
46012
45822
45637
45455
45275
45103
44942
44785
44627
44473
44325
44179
44032
43890
43759
43632
43507
43388
43278
43167
43054
42946
42846
42747
42640
42535
42438
42341
42242
42146
42056
41964
41865
41768
41679
41586
41487
41392
41306
41223
41141
41065
40991
40912
40828
40747
40668
40584
40501
40426
40352
40269
40180
40096
40016
39930
39841
39758
39678
39596
39515
39443
39376
39305
39238
39179
39117
39048
38984
38924
38859
38787
38720
38661
38603
38541
38481
38426
38370
38309
38250
38194
38134
38068
38012
37965
37918
37870
37834
37812
37796
37792
37822
37889
37996
38173
38453
38852
39388
40078
40908
41843
42840
43857
44850
45774
46601
47328
47955
48477
48903
49248
49524
49729
49868
49963
50023
50049
50039
50009
49971
49921
49863
49810
49765
49716
49662
49617
49587
49563
49545
49537
49535
49533
49533
49544
49560
49568
49568
49567
49554
49520
49468
49399
49305
49182
49037
48882
48720
48551
48379
48210
48044
47883
47735
47604
47481
47368
47279
47214
47159
47108
47069
47045
47021
46994
46980
46977
46971
46960
46950
46934
46905
46867
46824
46765
46682
46588
46491
46379
46245
46098
45946
45786
45615
45437
45256
45068
44874
44683
44496
44308
44123
43949
43785
43626
43467
43316
43173
43030
42883
42747
42621
42496
42371
42261
42165
42069
41972
41885
41807
41729
41648
41571
41491
41401
41311
41230
41154
41078
41008
40945
40884
40816
40749
40693
40644
40589
40530
40476
40418
40350
40282
40217
40153
40087
40022
39959
39891
39818
39744
39666
39575
39477
39388
39308
39224
39139
39064
38997
38921
38836
38760
38694
38629
38568
38521
38483
38443
38409
38399
38419
38472
38579
38767
39051
39444
39970
40637
41424
42301
43237
44190
45111
45969
46750
47445
48042
48542
48955
49293
49558
49761
49921
50048
50138
50189
50216
50228
50221
50198
50174
50150
50115
50070
50029
49992
49954
49923
49907
49899
49890
49889
49903
49924
49944
49963
49984
50000
50000
49982
49951
49905
49839
49755
49655
49536
49399
49252
49102
48942
48774
48612
48464
48322
48186
48065
47960
47869
47800
47755
47721
47685
47650
47622
47600
47577
47550
47524
47498
47459
47406
47351
47289
47211
47120
47029
46933
46821
46700
46575
46435
46275
46104
45924
45735
45542
45353
45172
44990
44805
44625
44454
44282
44113
43957
43813
43674
43539
43416
43304
43193
43082
42976
42873
42768
42669
42586
42511
42432
42354
42280
42204
42122
42041
41967
41891
41812
41736
41659
41578
41495
41418
41351
41285
41213
41139
41065
40986
40902
40818
40737
40651
40558
40467
40378
40288
40195
40105
40021
39936
39851
39775
39704
39621
39526
39433
39347
39260
39178
39107
39042
38980
38924
38879
38837
38783
38723
38663
38600
38530
38460
38392
38325
38260
38199
38140
38082
38021
37967
37919
37872
37820
37770
37725
37676
37621
37572
37537
37515
37510
37536
37608
37737
37945
38261
38705
39288
40017
40883
41847
42852
43854
44819
45713
46512
47215
47828
48348
48776
49123
49404
49624
49782
49891
49967
50011
50027
50029
50023
50002
49964
49929
49904
49877
49844
49818
49801
49787
49781
49784
49791
49798
49808
49824
49848
49870
49887
49904
49921
49926
49917
49901
49870
49810
49723
49624
49511
49375
49222
49070
48917
48759
48605
48467
48339
48214
48103
48013
47934
47857
47790
47736
47690
47649
47617
47593
47566
47535
47509
47484
47450
47408
47363
47316
47253
47174
47092
47003
46896
46772
46644
46512
46363
46198
46031
45860
45676
45483
45295
45112
44924
44738
44558
44379
44201
44038
43887
43736
43581
43434
43299
43170
43042
42918
42806
42697
42588
42490
42402
42313
42218
42124
42032
41938
41848
41767
41689
41608
41523
41444
41369
41291
41212
41137
41061
40976
40886
40803
40724
40637
40546
40462
40381
40294
40210
40132
40054
39970
39883
39795
39702
39607
39518
39436
39351
39261
39176
39100
39023
38945
38874
38813
38752
38690
38630
38564
38492
38421
38363
38312
38253
38188
38129
38072
38007
37936
37868
37804
37736
37668
37614
37575
37539
37510
37500
37519
37570
37672
37851
38127
38514
39037
39709
40517
41434
42414
43409
44371
45263
46070
46781
47388
47897
48321
48664
48924
49111
49244
49338
49395
49419
49423
49415
49385
49333
49274
49211
49137
49058
48987
48922
48856
48798
48753
48713
48670
48634
48613
48597
48584
48579
48575
48555
48516
48467
48412
48340
48244
48131
48005
47858
47696
47536
47381
47224
47069
46931
46811
46703
46604
46525
46463
46408
46363
46335
46316
46300
46287
46280
46270
46250
46226
46208
46187
46156
46119
46084
46042
45983
45915
45837
45739
45620
45493
45362
45221
45069
44912
44748
44570
44384
44204
44029
43853
43680
43517
43357
43194
43034
42887
42754
42620
42486
42361
42245
42127
42009
41905
41815
41731
41650
41575
41502
41425
41347
41275
41204
41126
41049
40981
40915
40847
40779
40712
40641
40563
40482
40402
40319
40232
40147
40068
39986
39903
39830
39771
39714
39653
39594
39537
39472
39401
39332
39262
39184
39100
39019
38943
38867
38795
38729
38659
38576
38492
38413
38335
38252
38171
38097
38026
37955
37885
37824
37764
37701
37645
37595
37542
37489
37447
37422
37418
37443
37516
37650
37857
38160
38593
39172
39890
40729
41663
42647
43627
44566
45444
46241
46936
47530
48035
48455
48790
49055
49267
49428
49538
49610
49659
49688
49697
49699
49699
49682
49643
49596
49554
49515
49480
49458
49450
49449
49455
49474
49502
49527
49552
49579
49603
49617
49623
49627
49625
49605
49565
49510
49441
49352
49245
49130
49009
48875
48730
48588
48452
48310
48166
48033
47906
47778
47657
47554
47467
47387
47321
47271
47228
47191
47165
47147
47130
47113
47096
47075
47043
46998
46948
46891
46818
46730
46634
46527
46406
46273
46130
45978
45813
45639
45465
45288
45101
44907
44716
44528
44334
44135
43947
43771
43598
43428
43271
43129
42987
42843
42704
42570
42435
42305
42188
42074
41957
41846
41748
41653
41558
41471
41388
41297
41199
41101
41003
40904
40803
40706
40617
40526
40432
40344
40258
40166
40075
39992
39911
39825
39737
39656
39580
39500
39425
39359
39294
39221
39143
39071
39001
38923
38842
38766
38689
38610
38531
38458
38389
38316
38245
38181
38118
38054
37993
37936
37877
37820
37775
37739
37695
37641
37589
37541
37486
37426
37368
37313
37254
37193
37142
37094
37044
36999
36964
36928
36889
36854
36829
36813
36807
36826
36877
36968
37117
37349
37691
38163
38774
39529
40415
41389
42400
43403
44362
45241
46017
46692
47265
47732
48102
48399
48635
48809
48924
48994
49031
49038
49025
49001
48961
48903
48841
48783
48725
48667
48616
48574
48532
48486
48447
48420
48400
48382
48369
48367
48371
48372
48372
48368
48354
48321
48271
48204
48111
47993
47863
47718
47552
47371
47190
47017
46847
46681
46530
46394
46263
46140
46035
45949
45877
45818
45770
45729
45691
45663
45651
45645
45635
45622
45608
45587
45550
45497
45432
45354
45257
45145
45023
44892
44751
44604
44451
44287
44114
43943
43777
43604
43420
43239
43067
42892
42712
42537
42369
42204
42042
41892
41755
41626
41509
41408
41313
41213
41115
41027
40943
40855
40774
40708
40648
40585
40521
40463
40405
40335
40258
40182
40106
40022
39937
39857
39780
39702
39627
39559
39493
39425
39364
39312
39258
39202
39150
39101
39053
39003
38955
38904
38845
38779
38715
38648
38570
38493
38423
38353
38277
38200
38127
38054
37974
37890
37809
37732
37655
37582
37521
37473
37434
37417
37436
37495
37607
37801
38099
38507
39043
39719
40524
41418
42359
43312
44243
45107
45883
46566
47158
47658
48072
48407
48667
48858
48995
49093
49154
49180
49181
49162
49126
49076
49025
48981
48937
48885
48834
48792
48755
48719
48693
48680
48674
48674
48687
48708
48722
48723
48718
48712
48695
48658
48603
48532
48439
48327
48202
48067
47918
47754
47593
47440
47292
47149
47021
46909
46803
46708
46634
46575
46520
46475
46451
46437
46419
46399
46384
46363
46331
46293
46258
46220
46173
46119
46061
45991
45909
45815
45704
45570
45423
45275
45126
44961
44783
44602
44421
44231
44036
43847
43663
43477
43290
43111
42940
42768
42598
42447
42308
42170
42040
41926
41823
41722
41630
41551
41475
41398
41324
41255
41187
41116
41044
40977
40912
40840
40768
40700
40628
40548
40471
40399
40323
40244
40168
40095
40022
39951
39891
39836
39776
39712
39656
39600
39537
39471
39416
39365
39304
39234
39169
39108
39040
38967
38903
38846
38786
38724
38668
38608
38537
38462
38390
38315
38240
38170
38105
38038
37967
37900
37839
37778
37720
37673
37636
37605
37579
37572
37595
37649
37752
37940
38234
38645
39189
39873
40683
41589
42557
43543
44500
45392
46200
46920
47543
48065
48494
48849
49136
49355
49515
49627
49701
49743
49763
49774
49773
49760
49743
49726
49706
49680
49658
49641
49623
49603
49592
49596
49605
49616
49631
49651
49672
49695
49728
49768
49797
49813
49822
49815
49783
49727
49652
49557
49441
49314
49183
49043
48890
48736
48591
48449
48305
48171
48057
47960
47875
47806
47751
47702
47647
47592
47544
47496
47442
47390
47346
47302
47257
47212
47165
47106
47032
46946
46851
46739
46617
46498
46380
46240
46074
45897
45718
45538
45354
45177
45004
44826
44650
44483
44313
44138
43970
43815
43666
43515
43371
43238
43110
42983
42858
42738
42619
42506
42403
42305
42204
42101
42007
41919
41826
41729
41639
41560
41480
41397
41319
41243
41158
41068
40986
40912
40837
40762
40693
40627
40550
40467
40392
40319
40240
40160
40083
40005
39925
39846
39769
39690
39604
39520
39443
39366
39289
39218
39155
39087
39015
38947
38882
38809
38730
38652
38581
38507
38429
38356
38288
38216
38143
38078
38019
37957
37896
37841
37790
37738
37687
37643
37602
37558
37518
37489
37464
37438
37425
37441
37493
37599
37785
38073
38482
39028
39723
40549
41470
42442
43423
44374
45259
46055
46758
47370
47883
48299
48638
48907
49109
49253
49356
49426
49463
49473
49469
49453
49421
49386
49355
49321
49277
49235
49207
49190
49175
49163
49158
49157
49155
49158
49174
49197
49214
49224
49235
49237
49219
49184
49136
49070
48984
48888
48782
48660
48524
48383
48238
48089
47940
47803
47681
47571
47472
47393
47332
47277
47226
47189
47166
47144
47124
47116
47109
47092
47070
47055
47040
47017
46985
46946
46896
46830
46751
46666
46568
46451
46318
46175
46019
45853
45680
45501
45318
45134
44957
44791
44627
44462
44300
44141
43977
43813
43660
43517
43380
43251
43134
43022
42906
42793
42693
42606
42520
42432
42350
42272
42187
42104
42032
41960
41882
41807
41740
41676
41606
41535
41466
41395
41323
41257
41197
41137
41077
41023
40974
40921
40856
40791
40730
40668
40604
40544
40483
40410
40328
40252
40179
40095
40004
39917
39832
39745
39665
39597
39529
39452
39376
39312
39252
39190
39135
39096
39080
39091
39148
39273
39486
39806
40254
40842
41557
42375
43268
44191
45098
45954
46745
47461
48089
48626
49083
49465
49771
50014
50207
50357
50465
50537
50585
50614
50622
50621
50624
50626
50616
50596
50580
50565
50545
50526
50523
50529
50534
50543
50565
50590
50611
50636
50666
50697
50723
50739
50740
50720
50675
50612
50538
50448
50339
50220
50092
49952
49804
49663
49532
49403
49277
49164
49068
48988
48924
48876
48836
48799
48768
48746
48726
48702
48681
48665
48646
48617
48582
48542
48492
48427
48348
48264
48175
48074
47961
47843
47711
47562
47407
47251
47088
46916
46740
46564
46380
46185
45993
45809
45627
45442
45265
45096
44926
44753
44589
44434
44285
44142
44011
43891
43771
43652
43539
43428
43313
43207
43114
43026
42940
42859
42781
42700
42613
42523
42432
42337
42235
42139
42055
41962
41853
41739
41633
41533
41433
41337
41244
41147
41046
40954
40871
40789
40710
40643
40584
40519
40454
40397
40341
40272
40196
40122
40048
39969
39892
39820
39746
39665
39585
39512
39440
39364
39290
39221
39150
39077
39006
38941
38878
38814
38748
38689
38636
38583
38538
38512
38502
38518
38587
38727
38948
39272
39728
40321
41042
41880
42811
43785
44751
45674
46536
47317
48005
48603
49117
49546
49894
50175
50402
50578
50706
50802
50880
50939
50978
51006
51032
51054
51068
51077
51090
51102
51108
51116
51135
51162
51191
51228
51275
51323
51372
51427
51485
51534
51570
51600
51626
51640
51637
51621
51595
51552
51492
51422
51337
51233
51114
50990
50856
50715
50583
50465
50355
50251
50160
50087
50024
49965
49918
49889
49868
49842
49820
49808
49796
49778
49759
49739
49713
49675
49629
49578
49512
49429
49336
49237
49126
49007
48891
48776
48648
48506
48360
48206
48042
47876
47714
47554
47390
47230
47081
46932
46776
46622
46480
46344
46207
46071
45938
45805
45670
45538
45413
45288
45154
45019
44895
44775
44658
44553
44455
44349
44233
44117
44009
43900
43791
43692
43601
43507
43408
43311
43210
43101
42984
42872
42765
42661
42557
42460
42365
42266
42168
42077
41990
41898
41796
41690
41586
41485
41386
41294
41201
41106
41019
40944
40871
40796
40729
40668
40603
40533
40470
40410
40343
40271
40199
40122
40033
39937
39851
39771
39689
39611
39546
39486
39417
39343
39278
39217
39149
39083
39039
39019
39022
39065
39170
39349
39620
40016
40556
41236
42045
42954
43916
44877
45799
46663
47455
48153
48753
49266
49702
50060
50341
50563
50739
50865
50940
50985
51009
51015
51012
51011
51006
50990
50971
50957
50945
50930
50917
50917
50928
50939
50954
50983
51022
51053
51076
51100
51117
51121
51121
51117
51096
51055
51004
50945
50869
50774
50673
50565
50449
50326
50204
50082
49957
49833
49726
49639
49563
49496
49447
49415
49388
49366
49355
49349
49338
49325
49319
49315
49304
49290
49275
49249
49207
49155
49097
49028
48944
48851
48756
48653
48535
48408
48278
48142
47994
47842
47687
47527
47358
47188
47029
46866
46688
46509
46340
46177
46013
45852
45701
45556
45413
45273
45140
45013
44889
44773
44660
44544
44428
44316
44204
44090
43978
43874
43776
43681
43586
43491
43393
43292
43194
43112
43034
42939
42835
42741
42650
42557
42467
42379
42289
42197
42109
42022
41930
41836
41749
41666
41578
41485
41396
41307
41209
41109
41019
40934
40839
40742
40660
40591
40518
40442
40381
40339
40312
40322
40399
40561
40822
41207
41732
42385
43140
43972
44845
45719
46563
47359
48096
48763
49351
49862
50296
50647
50923
51142
51313
51444
51545
51625
51679
51706
51713
51714
51714
51705
51690
51685
51690
51689
51683
51686
51697
51705
51712
51725
51737
51737
51732
51733
51736
51735
51733
51728
51705
51660
51602
51532
51442
51335
51223
51100
50958
50803
50651
50504
50365
50238
50130
50037
49952
49880
49831
49806
49798
49803
49815
49830
49842
49849
49854
49850
49831
49799
49762
49722
49672
49613
49549
49477
49392
49296
49193
49077
48940
48792
48639
48479
48305
48122
47943
47765
47586
47415
47254
47092
46928
46769
46615
46456
46292
46133
45985
45839
45696
45561
45427
45286
45145
45013
44888
44768
44652
44545
44444
44346
44253
44168
44085
43994
43899
43809
43723
43630
43534
43442
43349
43249
43150
43061
42972
42878
42786
42699
42612
42520
42428
42336
42240
42142
42047
41956
41862
41766
41679
41602
41528
41455
41388
41325
41261
41198
41143
41088
41022
40950
40883
40817
40744
40662
40576
40492
40408
40324
40243
40164
40080
39993
39910
39834
39762
39704
39668
39654
39669
39741
39891
40132
40491
40996
41650
42434
43323
44291
45288
46255
47157
47985
48729
49378
49936
50412
50806
51121
51371
51568
51714
51813
51879
51926
51952
51960
51962
51967
51972
51975
51982
51994
52003
52007
52012
52027
52045
52063
52089
52127
52168
52206
52247
52290
52327
52358
52390
52419
52432
52427
52409
52374
52314
52229
52128
52017
51892
51758
51627
51503
51382
51269
51169
51074
50981
50899
50833
50775
50718
50671
50637
50608
50575
50545
50521
50501
50478
50453
50423
50377
50316
50247
50175
50097
50009
49918
49824
49716
49594
49469
49339
49196
49038
48873
48704
48524
48335
48151
47976
47795
47607
47425
47250
47071
46889
46711
46530
46346
46166
45996
45829
45664
45510
45369
45234
45103
44982
44872
44765
44661
44565
44477
44388
44292
44194
44098
44003
43905
43809
43718
43623
43522
43427
43342
43256
43164
43079
42996
42901
42797
42699
42606
42506
42404
42309
42218
42124
42030
41947
41870
41786
41702
41623
41539
41447
41359
41277
41199
41123
41058
41002
40944
40882
40820
40752
40673
40583
40497
40418
40335
40243
40154
40067
39978
39891
39815
39744
39668
39590
39517
39448
39383
39340
39328
39348
39404
39524
39735
40056
40503
41090
41823
42682
43622
44600
45575
46503
47357
48126
48806
49393
49883
50286
50610
50857
51037
51166
51254
51301
51314
51310
51298
51268
51221
51171
51125
51078
51032
50999
50981
50969
50960
50965
50988
51015
51041
51072
51104
51129
51152
51176
51192
51193
51180
51153
51102
51025
50927
50810
50674
50517
50348
50178
50010
49849
49698
49552
49415
49292
49193
49112
49040
48978
48932
48902
48880
48867
48866
48867
48856
48832
48812
48801
48784
48760
48735
48701
48650
48586
48513
48423
48308
48182
48056
47920
47768
47610
47449
47279
47099
46922
46755
46585
46401
46212
46024
45837
45655
45482
45320
45165
45014
44876
44749
44617
44475
44334
44202
44076
43958
43854
43765
43678
43590
43510
43437
43359
43274
43194
43113
43026
42941
42864
42784
42698
42610
42525
42438
42352
42270
42197
42125
42048
41973
41904
41835
41759
41680
41602
41521
41433
41350
41271
41186
41091
40993
40897
40796
40688
40588
40500
40413
40324
40240
40163
40092
40031
39982
39943
39914
39920
39986
40124
40348
40686
41165
41785
42522
43353
44250
45168
46063
46907
47689
48392
49004
49534
49991
50374
50683
50926
51113
51246
51332
51387
51416
51420
51410
51402
51393
51373
51349
51329
51313
51295
51276
51267
51268
51273
51285
51314
51354
51390
51415
51435
51442
51429
51404
51375
51332
51271
51199
51120
51024
50908
50782
50652
50515
50371
50229
50100
49981
49868
49760
49659
49566
49485
49418
49362
49308
49254
49211
49177
49139
49096
49059
49021
48965
48892
48820
48753
48681
48599
48515
48422
48311
48186
48056
47916
47762
47604
47447
47284
47104
46916
46728
46542
46358
46181
46007
45835
45667
45509
45355
45199
45041
44894
44760
44626
44492
44370
44262
44157
44052
43955
43870
43787
43699
43615
43533
43443
43347
43255
43159
43049
42938
42838
42742
42638
42534
42440
42348
42249
42146
42052
41962
41872
41782
41699
41621
41544
41472
41405
41336
41262
41194
41135
41076
41014
40962
40919
40867
40803
40734
40656
40568
40477
40391
40307
40222
40139
40059
39975
39885
39793
39706
39620
39527
39435
39352
39269
39174
39079
38997
38926
38864
38818
38805
38836
38924
39095
39386
39808
40365
41069
41911
42847
43827
44807
45748
46620
47410
48117
48740
49266
49699
50053
50335
50549
50708
50828
50913
50968
51001
51025
51041
51045
51045
51049
51054
51057
51065
51082
51102
51117
51135
51169
51215
51261
51306
51353
51396
51430
51457
51483
51505
51521
51536
51547
51543
51522
51490
51442
51372
51285
51187
51076
50947
50809
50676
50552
50431
50315
50217
50139
50070
50010
49965
49929
49892
49856
49828
49802
49770
49731
49692
49649
49595
49539
49489
49438
49379
49317
49258
49194
49115
49028
48936
48827
48703
48579
48456
48324
48182
48039
47898
47748
47592
47438
47283
47119
46952
46790
46631
46470
46312
46160
46013
45864
45718
45581
45447
45309
45172
45037
44902
44766
44632
44501
44365
44228
44093
43961
43826
43689
43555
43425
43291
43156
43029
42913
42803
42700
42602
42504
42403
42300
42203
42109
42005
41895
41790
41697
41607
41516
41427
41336
41237
41134
41038
40949
40860
40770
40683
40593
40489
40381
40282
40188
40089
39987
39896
39812
39728
39644
39564
39478
39387
39301
39216
39125
39032
38943
38861
38781
38697
38614
38531
38445
38356
38276
38203
38128
38059
38013
37996
38007
38062
38186
38395
38704
39140
39730
40471
41328
42264
43240
44207
45122
45973
46750
47437
48024
48521
48936
49275
49543
49749
49902
50009
50082
50135
50170
50183
50175
50158
50137
50107
50072
50041
50018
50001
49989
49989
49994
49998
50004
50020
50043
50064
50087
50116
50145
50161
50164
50162
50152
50122
50071
50002
49908
49786
49645
49501
49355
49200
49043
48895
48751
48609
48478
48365
48263
48169
48092
48029
47972
47924
47890
47869
47846
47820
47799
47782
47761
47733
47705
47676
47632
47572
47508
47441
47360
47266
47163
47044
46905
46757
46604
46445
46273
46095
45916
45731
45542
45360
45187
45015
44839
44667
44505
44342
44173
44008
43852
43700
43546
43400
43260
43122
42987
42862
42749
42639
42530
42434
42349
42255
42155
42064
41982
41891
41791
41697
41609
41514
41414
41323
41240
41158
41079
41009
40944
40874
40809
40748
40681
40606
40531
40461
40389
40311
40227
40138
40046
39951
39860
39775
39689
39601
39514
39421
39323
39226
39137
39054
38969
38885
38808
38739
38673
38616
38577
38557
38558
38591
38673
38810
39020
39331
39768
40341
41041
41856
42760
43704
44642
45544
46384
47136
47790
48350
48824
49213
49526
49772
49956
50085
50168
50216
50241
50241
50220
50190
50157
50115
50064
50014
49971
49933
49895
49865
49846
49833
49827
49834
49848
49854
49853
49854
49857
49852
49840
49826
49798
49741
49661
49572
49463
49326
49173
49016
48847
48665
48484
48315
48157
48009
47877
47759
47652
47557
47482
47424
47375
47330
47296
47274
47252
47228
47210
47202
47190
47168
47141
47111
47065
47008
46945
46865
46760
46639
46517
46389
46241
46076
45908
45737
45558
45372
45182
44988
44786
44585
44387
44189
43988
43793
43610
43428
43242
43069
42913
42766
42626
42496
42369
42241
42117
42002
41896
41792
41693
41602
41518
41436
41358
41287
41221
41151
41075
40998
40920
40835
40748
40665
40583
40497
40412
40335
40263
40190
40122
40061
40001
39934
39864
39795
39726
39656
39587
39522
39454
39386
39325
39267
39203
39129
39054
38978
38894
38801
38709
38624
38539
38453
38374
38305
38236
38167
38111
38064
38013
37960
37914
37875
37845
37835
37861
37934
38067
38290
38634
39117
39746
40524
41434
42431
43460
44472
45434
46313
47097
47791
48394
48902
49319
49665
49949
50165
50322
50440
50524
50578
50610
50631
50640
50634
50620
50609
50604
50600
50597
50603
50615
50623
50634
50654
50677
50693
50710
50735
50763
50785
50803
50824
50838
50839
50834
50824
50799
50751
50685
50605
50502
50373
50228
50072
49910
49751
49602
49459
49319
49187
49070
48969
48881
48808
48754
48712
48666
48617
48574
48538
48504
48476
48459
48445
48422
48391
48357
48317
48258
48182
48094
47995
47881
47756
47624
47477
47313
47141
46969
46795
46617
46434
46249
46063
45875
45690
45510
45331
45156
44991
44836
44683
44532
44392
44264
44140
44019
43906
43798
43681
43562
43451
43344
43232
43120
43018
42920
42818
42719
42627
42525
42413
42304
42207
42115
42025
41941
41861
41777
41693
41615
41541
41465
41382
41298
41219
41137
41052
40972
40894
40815
40733
40649
40564
40475
40384
40293
40202
40105
40003
39912
39835
39759
39682
39610
39540
39465
39391
39327
39268
39203
39136
39071
39003
38923
38836
38753
38675
38597
38521
38449
38380
38313
38253
38199
38140
38078
38025
37979
37931
37881
37844
37826
37830
37874
37986
38181
38479
38903
39482
40218
41085
42049
43070
44101
45088
45999
46826
47559
48187
48716
49160
49525
49810
50026
50193
50318
50395
50438
50463
50472
50465
50453
50446
50437
50422
50406
50392
50377
50360
50349
50346
50344
50346
50360
50384
50408
50432
50464
50499
50522
50536
50545
50544
50524
50485
50431
50354
50249
50125
49994
49851
49695
49537
49385
49241
49103
48978
48873
48787
48710
48641
48584
48531
48480
48438
48410
48387
48366
48352
48342
48324
48294
48260
48221
48169
48108
48043
47967
47871
47762
47651
47532
47400
47256
47106
46946
46772
46591
46415
46241
46056
45866
45682
45500
45316
45129
44948
44771
44593
44420
44261
44109
43954
43801
43661
43528
43396
43271
43155
43040
42922
42806
42697
42588
42480
42381
42287
42188
42087
41995
41908
41820
41734
41658
41587
41509
41423
41343
41268
41186
41101
41025
40953
40874
40791
40715
40644
40566
40489
40421
40349
40271
40197
40129
40058
39981
39909
39844
39781
39720
39662
39600
39524
39435
39349
39269
39188
39105
39029
38959
38889
38819
38758
38706
38659
38617
38592
38586
38601
38654
38773
38975
39273
39694
40261
40962
41777
42682
43640
44603
45529
46396
47184
47876
48463
48957
49369
49699
49957
50161
50315
50419
50482
50517
50532
50527
50503
50473
50441
50404
50361
50320
50284
50246
50205
50171
50148
50126
50103
50094
50097
50097
50093
50091
50085
50064
50027
49979
49907
49808
49691
49566
49427
49273
49113
48953
48795
48635
48480
48340
48214
48096
47998
47921
47854
47796
47753
47721
47689
47656
47633
47622
47608
47585
47559
47533
47498
47452
47401
47345
47272
47181
47084
46978
46854
46716
46573
46421
46259
46095
45934
45765
45585
45407
45235
45056
44867
44677
44485
44285
44081
43881
43686
43494
43307
43132
42971
42820
42672
42529
42396
42270
42150
42044
41955
41870
41789
41718
41652
41577
41494
41416
41341
41258
41170
41090
41020
40949
40878
40809
40739
40664
40594
40533
40472
40405
40341
40280
40213
40140
40068
39996
39918
39834
39749
39665
39574
39473
39372
39271
39166
39059
38963
38879
38793
38703
38621
38549
38478
38409
38350
38302
38254
38207
38180
38181
38206
38264
38376
38559
38829
39209
39730
40397
41192
42090
43055
44034
44982
45874
46695
47428
48067
48624
49106
49506
49825
50080
50280
50425
50523
50589
50633
50656
50662
50661
50654
50638
50620
50607
50600
50595
50593
50600
50614
50623
50630
50651
50686
50718
50741
50766
50795
50814
50823
50835
50841
50825
50785
50730
50658
50558
50439
50314
50181
50033
49882
49740
49601
49466
49344
49237
49140
49049
48970
48901
48838
48783
48741
48706
48670
48636
48610
48589
48560
48527
48494
48452
48390
48319
48249
48174
48088
47991
47889
47778
47646
47497
47341
47174
46990
46794
46598
46401
46193
45980
45774
45569
45364
45171
44994
44822
44653
44494
44347
44203
44061
43928
43803
43675
43546
43425
43310
43190
43068
42956
42852
42747
42643
42549
42458
42358
42253
42159
42073
41984
41890
41798
41707
41615
41530
41453
41374
41287
41200
41120
41042
40962
40882
40805
40730
40649
40570
40491
40405
40313
40224
40140
40054
39961
39871
39786
39700
39615
39540
39474
39401
39324
39254
39193
39132
39073
39016
38953
38879
38805
38740
38680
38616
38556
38507
38465
38422
38375
38330
38286
38242
38207
38192
38198
38233
38323
38495
38766
39164
39717
40426
41265
42201
43195
44198
45160
46054
46870
47600
48236
48781
49242
49620
49913
50135
50306
50435
50521
50574
50614
50644
50656
50651
50642
50634
50622
50609
50605
50603
50593
50586
50590
50601
50616
50643
50683
50721
50750
50774
50797
50808
50812
50813
50808
50788
50749
50696
50628
50540
50431
50309
50179
50038
49891
49748
49611
49470
49330
49205
49097
49005
48929
48875
48837
48801
48767
48741
48715
48683
48653
48627
48597
48563
48527
48491
48449
48395
48334
48269
48191
48095
47989
47879
47756
47614
47462
47306
47138
46960
46786
46615
46436
46251
46070
45887
45694
45501
45315
45134
44955
44780
44618
44467
44312
44157
44010
43867
43719
43575
43447
43330
43214
43099
42990
42881
42769
42657
42554
42459
42357
42250
42142
42029
41914
41811
41720
41629
41533
41442
41357
41273
41187
41104
41021
40934
40849
40770
40696
40617
40538
40470
40409
40341
40264
40188
40107
40014
39920
39837
39758
39675
39592
39511
39429
39341
39252
39172
39097
39022
38956
38895
38833
38773
38716
38662
38609
38560
38523
38510
38521
38566
38672
38866
39156
39563
40111
40805
41622
42532
43502
44484
45433
46315
47118
47829
48438
48952
49384
49736
50007
50208
50356
50458
50514
50535
50539
50530
50503
50464
50428
50394
50353
50315
50288
50263
50238
50221
50214
50210
50207
50209
50215
50215
50209
50206
50205
50193
50165
50121
50059
49972
49861
49737
49609
49471
49321
49171
49022
48870
48720
48581
48451
48326
48216
48130
48065
48014
47976
47954
47945
47940
47939
47946
47955
47955
47948
47936
47911
47871
47828
47782
47720
47641
47550
47446
47324
47190
47052
46903
46737
46558
46377
46195
46005
45809
45619
45435
45242
45041
44847
44661
44473
44289
44117
43953
43794
43644
43509
43380
43250
43123
43003
42886
42766
42654
42552
42453
42354
42263
42184
42104
42017
41931
41852
41777
41700
41624
41550
41467
41374
41286
41211
41142
41077
41018
40959
40895
40829
40768
40710
40651
40594
40535
40469
40392
40313
40236
40155
40067
39978
39897
39817
39731
39642
39561
39484
39404
39331
39274
39224
39177
39147
39150
39187
39279
39457
39750
40171
40732
41440
42271
43185
44142
45103
46028
46889
47668
48363
48969
49483
49917
50284
50583
50809
50974
51096
51182
51232
51259
51279
51290
51286
51276
51268
51256
51239
51229
51228
51229
51229
51232
51244
51260
51276
51299
51332
51360
51378
51397
51419
51432
51425
51401
51358
51298
51222
51136
51036
50918
50787
50648
50502
50347
50191
50046
49913
49787
49676
49587
49512
49439
49374
49328
49294
49265
49240
49220
49201
49182
49170
49159
49139
49106
49060
49004
48932
48844
48757
48677
48586
48474
48348
48214
48063
47896
47726
47553
47370
47178
46987
46795
46600
46406
46222
46045
45865
45686
45517
45360
45202
45045
44900
44761
44618
44478
44348
44223
44095
43972
43856
43737
43614
43497
43393
43294
43194
43096
43004
42908
42806
42709
42615
42516
42411
42314
42225
42133
42038
41947
41856
41757
41658
41572
41491
41403
41314
41236
41167
41091
41007
40925
40842
40754
40670
40598
40528
40450
40368
40286
40204
40116
40028
39946
39866
39783
39705
39631
39552
39467
39383
39300
39215
39130
39056
38991
38924
38856
38797
38748
38703
38661
38634
38627
38647
38712
38851
39088
39450
39964
40644
41475
42416
43421
44450
45457
46404
47273
48056
48737
49309
49781
50172
50486
50726
50903
51034
51128
51188
51227
51254
51264
51256
51248
51245
51237
51223
51217
51219
51219
51214
51213
51216
51219
51224
51241
51268
51297
51327
51363
51399
51427
51446
51462
51467
51449
51404
51340
51258
51149
51019
50883
50736
50574
50408
50247
50089
49937
49801
49684
49579
49484
49406
49349
49301
49254
49216
49193
49173
49150
49128
49111
49090
49058
49024
48986
48933
48861
48782
48697
48597
48489
48374
48248
48107
47958
47809
47655
47487
47311
47138
46960
46775
46588
46400
46206
46007
45812
45631
45457
45283
45115
44958
44803
44643
44490
44352
44217
44082
43952
43830
43711
43597
43494
43394
43287
43173
43060
42948
42826
42698
42575
42455
42333
42219
42124
42035
41936
41834
41737
41640
41540
41440
41348
41256
41157
41061
40979
40899
40810
40719
40631
40541
40447
40359
40275
40188
40094
39999
39908
39814
39717
39624
39538
39449
39353
39262
39177
39089
38994
38900
38808
38710
38612
38527
38450
38370
38293
38225
38160
38094
38034
37982
37933
37879
37830
37799
37785
37783
37803
37863
37977
38156
38428
38826
39363
40042
40857
41789
42796
43823
44828
45777
46639
47402
48068
48637
49098
49456
49730
49936
50079
50173
50236
50274
50283
50267
50241
50210
50169
50122
50077
50028
49970
49911
49858
49806
49755
49715
49691
49683
49679
49677
49679
49676
49664
49649
49628
49593
49536
49463
49378
49271
49141
48997
48839
48663
48479
48298
48125
47957
47797
47658
47539
47432
47340
47274
47227
47190
47158
47138
47126
47114
47103
47098
47092
47079
47063
47045
47015
46965
46904
46839
46762
46662
46547
46427
46299
46153
45997
45835
45661
45471
45274
45077
44878
44675
44473
44274
44075
43879
43694
43522
43355
43189
43030
42880
42733
42590
42463
42343
42219
42093
41978
41875
41775
41677
41587
41499
41406
41315
41237
41165
41091
41016
40947
40876
40799
40725
40666
40612
40548
40477
40404
40326
40240
40165
40106
40048
39981
39914
39849
39778
39705
39637
39575
39504
39421
39337
39255
39167
39080
39006
38936
38861
38788
38730
38675
38610
38545
38488
38437
38390
38354
38338
38346
38391
38495
38687
38983
39400
39959
40671
41519
42465
43462
44463
45420
46303
47108
47824
48438
48953
49380
49729
50005
50218
50381
50498
50567
50598
50607
50598
50575
50546
50515
50472
50413
50348
50297
50263
50232
50204
50185
50173
50159
50147
50143
50143
50140
50140
50144
50144
50137
50123
50096
50049
49972
49869
49744
49600
49444
49284
49120
48949
48774
48604
48443
48292
48155
48037
47938
47850
47775
47719
47676
47637
47602
47573
47547
47517
47488
47466
47443
47411
47370
47326
47273
47203
47122
47037
46938
46816
46682
46541
46387
46215
46033
45843
45641
45428
45215
45003
44784
44561
44345
44140
43941
43747
43564
43393
43226
43066
42920
42788
42660
42535
42417
42304
42192
42087
41991
41897
41796
41694
41602
41515
41423
41333
41250
41162
41061
40957
40863
40771
40676
40586
40502
40417
40326
40231
40133
40028
39914
39802
39697
39602
39514
39432
39354
39269
39178
39094
39013
38928
38846
38776
38715
38653
38594
38544
38500
38447
38384
38322
38261
38193
38119
38050
37988
37922
37856
37796
37735
37666
37599
37537
37474
37407
37348
37298
37248
37190
37135
37091
37059
37042
37051
37097
37185
37330
37563
37917
38410
39061
39873
40824
41858
42920
43969
44971
45889
46707
47422
48032
48536
48944
49271
49525
49708
49836
49926
49984
50007
50006
49995
49974
49935
49890
49852
49817
49778
49744
49725
49712
49698
49688
49683
49679
49681
49690
49704
49718
49729
49743
49760
49767
49755
49731
49691
49625
49532
49418
49284
49127
48958
48785
48610
48428
48248
48083
47930
47785
47650
47532
47428
47329
47239
47165
47104
47045
46985
46932
46883
46836
46793
46753
46707
46655
46601
46540
46464
46373
46271
46163
46044
45910
45764
45607
45434
45248
45062
44878
44686
44491
44301
44114
43924
43741
43565
43389
43210
43036
42873
42719
42567
42421
42289
42164
42036
41914
41798
41679
41553
41428
41309
41196
41089
40989
40895
40802
40710
40621
40533
40439
40342
40253
40174
40093
40012
39938
39871
39796
39713
39633
39552
39468
39388
39315
39242
39159
39071
38994
38924
38845
38765
38699
38639
38570
38496
38428
38360
38284
38207
38140
38078
38013
37945
37874
37802
37726
37649
37573
37494
37410
37334
37270
37210
37149
37093
37042
36987
36927
36869
36808
36745
36690
36650
36621
36603
36607
36653
36752
36914
37168
37546
38068
38732
39530
40449
41442
42451
43437
44374
45232
45995
46662
47237
47712
48089
48386
48613
48773
48875
48933
48960
48955
48918
48864
48802
48729
48647
48571
48505
48444
48388
48341
48303
48265
48228
48203
48189
48179
48172
48173
48181
48188
48192
48192
48174
48127
48057
47968
47856
47714
47551
47381
47207
47027
46848
46682
46528
46383
46250
46135
46034
45947
45879
45829
45794
45768
45756
45757
45760
45765
45777
45793
45802
45802
45797
45783
45750
45702
45649
45590
45516
45428
45334
45228
45099
44952
44799
44636
44457
44269
44083
43894
43696
43497
43306
43117
42929
42752
42587
42429
42275
42130
42001
41879
41759
41645
41535
41420
41303
41197
41104
41013
40923
40839
40760
40677
40593
40515
40441
40358
40267
40180
40100
40019
39938
39864
39795
39724
39658
39601
39544
39481
39418
39359
39299
39235
39171
39110
39043
38966
38886
38814
38743
38666
38591
38518
38438
38351
38266
38184
38104
38023
37948
37882
37820
37759
37707
37675
37662
37680
37753
37901
38133
38478
38966
39595
40350
41215
42158
43127
44075
44967
45787
46509
47122
47634
48058
48394
48651
48849
49004
49114
49180
49217
49237
49239
49224
49199
49170
49136
49099
49064
49033
49000
48966
48937
48912
48891
48877
48872
48872
48865
48856
48857
48865
48864
48852
48835
48804
48750
48678
48593
48487
48362
48227
48084
47929
47767
47605
47455
47318
47188
47069
46968
46878
46795
46721
46660
46607
46563
46534
46519
46506
46493
46485
46482
46471
46449
46419
46380
46322
46246
46163
46071
45965
45847
45723
45594
45452
45299
45137
44968
44790
44606
44428
44249
44062
43869
43686
43511
43336
43167
43009
42854
42700
42556
42421
42289
42158
42030
41909
41798
41694
41598
41508
41418
41327
41243
41170
41098
41024
40954
40889
40817
40736
40657
40582
40502
40418
40341
40270
40200
40128
40061
39993
39912
39825
39740
39657
39563
39461
39360
39262
39164
39071
38986
38910
38836
38767
38706
38643
38570
38492
38414
38333
38252
38182
38121
38062
38005
37956
37906
37850
37788
37730
37676
37622
37575
37541
37510
37472
37427
37387
37351
37314
37281
37265
37272
37301
37364
37490
37698
38001
38433
39019
39751
40608
41562
42568
43572
44526
45404
46196
46900
47511
48021
48436
48767
49026
49226
49379
49485
49553
49593
49609
49606
49591
49576
49561
49536
49501
49464
49424
49379
49342
49327
49332
49344
49359
49387
49423
49456
49484
49506
49519
49520
49513
49507
49489
49449
49391
49314
49212
49090
48960
48824
48679
48526
48373
48225
48078
47932
47797
47681
47572
47471
47386
47316
47253
47198
47153
47113
47074
47037
47007
46981
46947
46906
46869
46836
46794
46739
46675
46596
46496
46386
46271
46147
46008
45860
45708
45547
45371
45188
45007
44824
44634
44450
44276
44101
43920
43744
43580
43421
43267
43123
42986
42848
42712
42584
42464
42339
42207
42084
41973
41866
41762
41669
41586
41494
41395
41311
41241
41170
41096
41022
40942
40855
40765
40675
40586
40493
40401
40318
40238
40152
40066
39986
39911
39834
39754
39677
39602
39523
39447
39381
39320
39255
39190
39124
39045
38951
38855
38763
38671
38584
38503
38422
38342
38269
38206
38146
38081
38017
37964
37915
37855
37790
37726
37663
37592
37518
37452
37388
37320
37254
37201
37156
37109
37067
37033
37004
36983
36986
37023
37097
37218
37413
37710
38127
38683
39386
40222
41156
42142
43138
44105
44999
45792
46483
47079
47577
47982
48309
48566
48757
48892
48991
49063
49106
49130
49145
49145
49121
49084
49047
49012
48971
48927
48890
48857
48822
48790
48770
48756
48737
48722
48716
48709
48696
48685
48670
48640
48591
48526
48446
48347
48230
48103
47970
47826
47668
47509
47351
47188
47027
46880
46751
46637
46541
46466
46403
46349
46308
46281
46262
46242
46227
46221
46217
46206
46191
46174
46147
46109
46065
46014
45947
45862
45764
45656
45537
45406
45269
45121
44950
44764
44576
44388
44194
43997
43803
43614
43424
43234
43055
42890
42729
42571
42424
42284
42149
42022
41907
41799
41694
41591
41495
41401
41306
41212
41130
41056
40978
40899
40824
40745
40659
40577
40504
40430
40352
40275
40203
40127
40043
39960
39882
39805
39726
39654
39592
39533
39472
39415
39359
39293
39219
39151
39089
39021
38947
38872
38791
38700
38611
38538
38474
38408
38342
38288
38240
38186
38127
38071
38016
37958
37908
37871
37851
37853
37899
38009
38191
38462
38853
39389
40066
40865
41757
42701
43648
44557
45410
46186
46869
47456
47957
48375
48708
48968
49170
49324
49428
49492
49536
49568
49581
49577
49565
49546
49520
49497
49482
49468
49449
49431
49424
49423
49420
49421
49435
49453
49466
49479
49495
49505
49507
49504
49495
49471
49427
49365
49287
49190
49072
48944
48810
48669
48522
48377
48241
48112
47991
47887
47800
47727
47668
47630
47601
47573
47549
47533
47521
47506
47489
47473
47452
47417
47376
47337
47296
47244
47185
47120
47039
46937
46824
46703
46565
46408
46240
46067
45887
45699
45508
45316
45120
44919
44729
44550
44369
44188
44020
43865
43717
43574
43443
43316
43186
43057
42931
42803
42671
42544
42431
42328
42226
42125
42030
41938
41845
41754
41670
41589
41501
41409
41319
41229
41137
41049
40968
40886
40803
40723
40650
40577
40500
40424
40353
40282
40205
40127
40052
39973
39891
39815
39741
39663
39584
39509
39434
39352
39271
39200
39129
39048
38965
38891
38821
38742
38660
38587
38519
38446
38370
38301
38236
38165
38097
38036
37971
37901
37838
37789
37746
37705
37679
37674
37691
37740
37843
38023
38301
38698
39239
39931
40751
41667
42646
43640
44597
45488
46304
47033
47663
48198
48650
49023
49310
49525
49698
49833
49926
49988
50034
50060
50067
50062
50053
50038
50018
50002
49996
49993
49993
50004
50027
50054
50083
50118
50161
50198
50227
50258
50293
50322
50341
50357
50363
50353
50327
50289
50236
50157
50054
49940
49819
49684
49537
49391
49249
49110
48978
48859
48747
48643
48555
48483
48422
48369
48325
48293
48266
48233
48200
48178
48154
48118
48074
48026
47972
47908
47839
47768
47690
47606
47521
47430
47325
47208
47081
46943
46787
46616
46443
46270
46091
45909
45735
45566
45395
45227
45070
44919
44766
44614
44468
44323
44171
44021
43879
43735
43582
43429
43287
43152
43019
42891
42770
42651
42530
42414
42308
42203
42097
41999
41910
41825
41742
41667
41596
41512
41418
41323
41225
41114
40995
40878
40766
40652
40539
40435
40336
40232
40123
40019
39920
39814
39704
39598
39490
39374
39259
39149
39040
38929
38826
38733
38645
38558
38478
38404
38328
38249
38174
38109
38046
37979
37911
37846
37777
37698
37621
37552
37479
37397
37320
37250
37178
37111
37057
37014
36976
36950
36946
36973
37044
37179
37407
37746
38208
38810
39559
40433
41385
42370
43355
44298
45163
45940
46627
47211
47694
48092
48411
48657
48840
48975
49067
49115
49128
49118
49098
49069
49031
48997
48966
48930
48890
48854
48819
48782
48751
48734
48728
48725
48725
48731
48741
48745
48740
48737
48733
48716
48684
48639
48573
48479
48367
48242
48097
47934
47767
47603
47440
47283
47141
47021
46915
46823
46751
46696
46648
46602
46565
46542
46528
46521
46520
46522
46514
46496
46479
46457
46420
46372
46319
46260
46185
46094
45995
45887
45765
45626
45480
45326
45155
44973
44791
44605
44408
44205
44004
43805
43609
43421
43244
43075
42912
42761
42620
42483
42347
42221
42103
41984
41865
41756
41659
41565
41468
41378
41295
41206
41108
41013
40918
40815
40707
40605
40508
40406
40299
40196
40100
40003
39905
39815
39730
39648
39570
39502
39437
39368
39299
39232
39161
39083
39005
38930
38853
38771
38689
38616
38545
38470
38392
38319
38245
38160
38071
37982
37892
37802
37721
37646
37570
37501
37448
37410
37384
37376
37394
37445
37535
37675
37888
38191
38598
39128
39802
40610
41510
42462
43426
44354
45207
45970
46640
47207
47673
48059
48385
48649
48852
49009
49127
49205
49253
49283
49302
49307
49302
49293
49284
49270
49248
49232
49225
49222
49223
49237
49258
49277
49290
49303
49313
49314
49314
49319
49324
49318
49298
49265
49216
49141
49047
48948
48837
48702
48549
48395
48240
48075
47912
47759
47613
47477
47360
47260
47174
47103
47050
47008
46969
46933
46907
46889
46868
46846
46826
46804
46773
46732
46687
46638
46573
46489
46395
46295
46179
46046
45910
45767
45608
45440
45270
45090
44896
44697
44503
44313
44122
43936
43764
43598
43428
43257
43096
42941
42787
42634
42490
42348
42208
42074
41945
41813
41679
41556
41444
41335
41223
41118
41021
40924
40827
40735
40650
40562
40472
40388
40312
40226
40131
40043
39962
39879
39798
39726
39655
39579
39503
39432
39360
39280
39197
39120
39046
38967
38887
38814
38736
38648
38559
38475
38391
38308
38232
38163
38093
38021
37957
37898
37834
37767
37708
37657
37602
37542
37483
37429
37371
37307
37248
37192
37130
37068
37010
36950
36883
36818
36760
36701
36638
36580
36536
36506
36493
36509
36576
36706
36907
37205
37637
38217
38945
39815
40789
41809
42824
43799
44706
45523
46245
46870
47395
47820
48156
48420
48624
48771
48868
48931
48972
48992
48998
48999
48996
48988
48978
48972
48966
48956
48948
48955
48966
48972
48980
48998
49016
49034
49062
49100
49135
49158
49172
49181
49175
49146
49108
49063
49002
48919
48822
48718
48603
48475
48342
48209
48070
47927
47793
47670
47548
47427
47316
47224
47144
47072
47015
46970
46928
46892
46867
46846
46818
46782
46748
46719
46686
46647
46601
46544
46476
46403
46323
46226
46104
45966
45820
45663
45492
45315
45133
44945
44750
44553
44360
44167
43973
43786
43609
43435
43267
43108
42961
42817
42676
42544
42414
42275
42134
42003
41873
41737
41601
41473
41349
41221
41093
40975
40860
40739
40622
40516
40414
40315
40227
40150
40074
39995
39916
39839
39760
39674
39588
39509
39433
39351
39272
39205
39135
39050
38964
38885
38804
38719
38642
38570
38488
38398
38312
38232
38149
38067
37991
37914
37831
37748
37671
37596
37519
37444
37380
37319
37250
37180
37115
37050
36982
36916
36857
36803
36753
36708
36668
36625
36577
36539
36513
36493
36485
36503
36559
36664
36839
37114
37511
38041
38707
39512
40431
41412
42403
43367
44272
45090
45816
46456
47002
47448
47809
48102
48328
48484
48588
48659
48701
48711
48699
48681
48656
48618
48575
48541
48512
48480
48451
48429
48405
48381
48363
48357
48359
48368
48385
48403
48416
48418
48409
48391
48351
48289
48217
48135
48038
47924
47797
47662
47515
47353
47189
47028
46865
46714
46586
46475
46371
46283
46224
46184
46154
46140
46142
46149
46151
46147
46146
46145
46134
46117
46097
46066
46024
45975
45914
45835
45738
45635
45522
45392
45249
45096
44934
44757
44567
44381
44201
44014
43821
43630
43443
43252
43059
42875
42703
42537
42379
42228
42076
41921
41774
41641
41507
41371
41241
41122
41008
40891
40778
40677
40582
40487
40398
40318
40242
40166
40099
40041
39982
39922
39866
39813
39760
39703
39644
39588
39526
39456
39388
39323
39249
39171
39097
39022
38937
38846
38755
38662
38562
38462
38370
38277
38177
38082
37999
37916
37828
37740
37661
37590
37520
37456
37402
37357
37322
37318
37371
37494
37698
38011
38465
39068
39811
40668
41595
42545
43477
44367
45191
45928
46572
47131
47605
47989
48298
48546
48737
48871
48968
49044
49096
49128
49151
49168
49179
49183
49181
49181
49183
49182
49183
49197
49222
49244
49267
49301
49338
49371
49402
49432
49458
49478
49500
49525
49539
49535
49520
49488
49432
49355
49265
49163
49041
48903
48762
48619
48473
48335
48218
48119
48029
47947
47880
47825
47777
47736
47708
47689
47672
47656
47648
47642
47631
47618
47605
47584
47550
47510
47466
47411
47342
47264
47178
47073
46950
46816
46675
46520
46351
46178
45996
45799
45594
45398
45213
45029
44850
44682
44519
44356
44199
44049
43903
43760
43624
43496
43369
43238
43109
42990
42874
42754
42638
42533
42434
42333
42232
42135
42032
41917
41801
41693
41589
41481
41373
41275
41177
41074
40974
40881
40787
40691
40598
40510
40420
40328
40239
40152
40065
39984
39911
39840
39766
39690
39616
39541
39464
39386
39312
39241
39164
39082
39007
38935
38858
38778
38707
38641
38571
38497
38426
38352
38267
38182
38103
38024
37942
37865
37796
37730
37664
37604
37553
37508
37480
37489
37552
37678
37888
38212
38674
39280
40025
40901
41870
42873
43862
44810
45692
46485
47182
47788
48297
48708
49037
49300
49500
49645
49747
49821
49870
49894
49901
49905
49905
49896
49886
49886
49894
49902
49917
49948
49981
50015
50052
50083
50104
50119
50134
50149
50160
50172
50192
50214
50226
50226
50223
50207
50166
50095
50010
49918
49807
49681
49554
49427
49290
49152
49021
48890
48757
48633
48528
48435
48354
48289
48239
48192
48145
48101
48062
48023
47981
47941
47901
47851
47789
47724
47663
47596
47518
47439
47360
47265
47150
47021
46880
46725
46560
46393
46220
46034
45844
45655
45464
45267
45074
44889
44705
44517
44329
44150
43975
43797
43623
43467
43323
43181
43047
42930
42819
42703
42597
42501
42397
42280
42169
42068
41964
41853
41742
41633
41519
41403
41289
41179
41069
40963
40864
40768
40669
40571
40485
40405
40322
40236
40158
40088
40016
39941
39867
39791
39700
39593
39481
39365
39242
39118
39004
38901
38799
38700
38612
38531
38454
38384
38320
38259
38199
38141
38075
37999
37922
37856
37802
37740
37658
37573
37494
37417
37340
37269
37202
37130
37059
36998
36944
36891
36850
36827
36814
36808
36830
36903
37043
37263
37583
38035
38640
39393
40274
41256
42287
43317
44305
45220
46044
46767
47386
47908
48329
48656
48908
49098
49226
49305
49349
49368
49361
49336
49304
49266
49218
49164
49113
49064
49008
48950
48900
48860
48822
48792
48778
48776
48777
48785
48804
48820
48823
48815
48794
48751
48683
48597
48495
48370
48227
48080
47930
47774
47609
47447
47292
47136
46976
46824
46687
46562
46446
46347
46270
46202
46141
46096
46069
46047
46026
46010
45995
45976
45958
45947
45931
45894
45837
45770
45689
45580
45452
45323
45186
45030
44861
44684
44494
44293
44090
43890
43690
43484
43281
43087
42893
42699
42513
42339
42168
41999
41840
41691
41541
41393
41254
41124
40999
40876
40762
40652
40543
40441
40359
40289
40217
40141
40069
40000
39927
39851
39775
39699
39620
39537
39454
39370
39276
39176
39087
39004
38919
38840
38770
38698
38615
38530
38455
38383
38308
38235
38164
38092
38017
37945
37877
37805
37727
37650
37573
37487
37398
37319
37252
37188
37123
37066
37017
36971
36941
36943
36985
37071
37222
37470
37836
38335
38984
39777
40675
41633
42614
43580
44488
45316
46059
46714
47272
47729
48097
48397
48629
48796
48919
49013
49074
49108
49124
49128
49119
49098
49077
49060
49042
49024
49014
49010
49005
49002
49010
49020
49023
49025
49035
49049
49051
49040
49033
49026
49004
48967
48921
48859
48770
48661
48542
48415
48279
48136
47992
47847
47706
47577
47462
47354
47249
47157
47081
47011
46944
46887
46839
46792
46748
46716
46693
46672
46649
46628
46603
46569
46528
46487
46438
46371
46293
46210
46116
46001
45869
45729
45575
45403
45219
45032
44842
44644
44449
44264
44079
43888
43703
43529
43353
43170
42987
42809
42634
42465
42308
42163
42021
41883
41758
41640
41520
41402
41296
41199
41098
40995
40900
40812
40722
40629
40541
40454
40360
40265
40183
40104
40012
39915
39826
39739
39644
39544
39450
39357
39262
39172
39089
39004
38917
38832
38749
38665
38579
38494
38410
38321
38226
38136
38053
37974
37897
37830
37770
37708
37638
37566
37492
37412
37326
37243
37165
37082
36997
36918
36842
36767
36699
36644
36594
36543
36499
36461
36424
36394
36392
36436
36540
36721
37008
37437
38018
38748
39618
40597
41627
42650
43630
44541
45361
46079
46702
47229
47660
48002
48275
48488
48643
48751
48831
48887
48920
48938
48952
48958
48953
48940
48931
48929
48925
48920
48922
48926
48931
48940
48961
48985
49005
49028
49065
49108
49141
49165
49188
49201
49194
49177
49154
49113
49048
48961
48861
48744
48615
48486
48356
48223
48090
47965
47848
47736
47635
47552
47479
47412
47357
47321
47297
47269
47243
47228
47217
47197
47176
47158
47135
47097
47047
46996
46942
46873
46793
46710
46619
46511
46393
46274
46149
46011
45864
45719
45567
45397
45218
45035
44843
44645
44450
44260
44070
43880
43703
43540
43384
43235
43090
42949
42810
42677
42548
42414
42275
42134
41994
41850
41701
41557
41421
41287
41154
41034
40927
40823
40714
40606
40505
40405
40304
40207
40115
40027
39936
39843
39749
39648
39542
39439
39340
39238
39132
39025
38919
38810
38695
38583
38472
38361
38258
38170
38090
38008
37926
37850
37781
37708
37632
37565
37504
37437
37360
37282
37204
37120
37031
36945
36853
36751
36648
36553
36459
36363
36277
36206
36140
36075
36019
35971
35921
35866
35815
35776
35745
35727
35741
35803
35926
36130
36445
36895
37487
38222
39098
40079
41104
42124
43110
44032
44863
45583
46201
46721
47139
47465
47717
47905
48032
48116
48174
48207
48215
48209
48196
48172
48141
48110
48077
48044
48018
48002
47994
47987
47981
47983
47994
48005
48014
48026
48040
48048
48048
48044
48034
48003
47950
47893
47833
47754
47653
47544
47424
47283
47132
46988
46845
46697
46552
46420
46300
46189
46094
46022
45963
45908
45862
45833
45814
45797
45787
45786
45785
45779
45771
45760
45735
45694
45641
45577
45502
45415
45319
45214
45095
44963
44826
44681
44517
44334
44145
43956
43765
43572
43378
43182
42980
42775
42581
42396
42215
42044
41885
41728
41565
41402
41250
41104
40955
40804
40659
40522
40388
40262
40146
40029
39909
39796
39688
39578
39470
39368
39275
39185
39100
39023
38951
38872
38791
38712
38634
38548
38460
38380
38307
38225
38135
38051
37969
37882
37796
37722
37652
37576
37495
37416
37332
37240
37146
37054
36962
36870
36783
36710
36646
36580
36519
36468
36419
36371
36342
36345
36378
36451
36592
36825
37165
37633
38250
39011
39882
40822
41792
42750
43656
44489
45247
45915
46479
46951
47346
47668
47913
48092
48224
48316
48369
48397
48411
48407
48384
48354
48325
48295
48259
48224
48197
48178
48162
48152
48154
48157
48155
48161
48180
48199
48212
48223
48226
48213
48185
48150
48102
48031
47934
47819
47686
47531
47366
47203
47045
46890
46742
46608
46486
46376
46280
46202
46142
46088
46042
46011
45993
45975
45960
45956
45957
45953
45945
45934
45910
45870
45825
45775
45707
45622
45532
45441
45336
45211
45080
44944
44792
44623
44452
44276
44087
43891
43692
43488
43272
43055
42852
42662
42477
42302
42141
41991
41845
41705
41576
41454
41328
41200
41082
40970
40857
40748
40647
40549
40453
40365
40281
40188
40087
39985
39884
39781
39682
39595
39516
39432
39343
39256
39175
39090
39000
38913
38833
38752
38670
38601
38541
38477
38407
38340
38274
38206
38131
38056
37980
37899
37814
37730
37647
37559
37472
37391
37310
37223
37135
37056
36978
36894
36814
36744
36683
36624
36569
36518
36466
36417
36386
36375
36378
36406
36484
36632
36869
37221
37722
38380
39170
40069
41050
42067
43063
44000
44862
45637
46311
46888
47376
47773
48081
48321
48509
48646
48737
48800
48846
48873
48885
48889
48886
48878
48862
48842
48831
48824
48814
48809
48818
48832
48847
48873
48908
48941
48967
48994
49024
49052
49076
49098
49110
49102
49080
49052
49006
48931
48836
48733
48622
48492
48347
48205
48069
47932
47799
47680
47575
47472
47379
47305
47242
47184
47141
47115
47091
47064
47036
47010
46974
46925
46874
46824
46769
46709
46648
46585
46510
46418
46320
46218
46102
45969
45827
45677
45513
45341
45167
44992
44809
44619
44434
44254
44070
43887
43715
43549
43382
43219
43068
42923
42773
42624
42480
42337
42192
42046
41903
41762
41617
41476
41346
41216
41084
40961
40852
40747
40642
40545
40454
40355
40248
40144
40044
39941
39838
39743
39653
39560
39464
39373
39287
39201
39117
39035
38946
38846
38748
38661
38569
38473
38386
38312
38242
38170
38100
38031
37968
37905
37841
37781
37724
37663
37600
37537
37467
37388
37310
37234
37153
37067
36980
36891
36795
36695
36606
36532
36468
36417
36380
36351
36327
36316
36341
36414
36542
36751
37075
37537
38144
38898
39787
40764
41774
42774
43733
44615
45399
46082
46672
47166
47564
47874
48113
48291
48410
48485
48534
48556
48549
48530
48514
48496
48478
48460
48436
48406
48382
48372
48368
48359
48350
48354
48369
48382
48396
48417
48443
48459
48466
48470
48466
48450
48423
48386
48328
48240
48131
48009
47872
47722
47565
47410
47256
47107
46964
46832
46710
46597
46500
46426
46365
46312
46267
46232
46202
46175
46155
46143
46128
46107
46082
46053
46014
45966
45918
45863
45784
45681
45573
45464
45338
45195
45048
44898
44735
44558
44376
44188
43991
43796
43607
43418
43222
43028
42841
42659
42482
42316
42170
42038
41908
41782
41666
41553
41437
41327
41230
41137
41042
40948
40854
40759
40664
40571
40480
40388
40300
40220
40142
40061
39978
39906
39839
39757
39665
39581
39507
39432
39354
39277
39202
39122
39044
38976
38914
38846
38772
38696
38618
38537
38456
38377
38297
38214
38132
38052
37971
37890
37814
37744
37673
37602
37543
37504
37479
37472
37502
37588
37736
37974
38336
38836
39470
40232
41099
42026
42965
43887
44767
45574
46285
46899
47421
47851
48192
48458
48667
48827
48936
49009
49062
49095
49106
49101
49086
49062
49031
48997
48961
48923
48889
48865
48847
48827
48805
48794
48795
48799
48803
48813
48828
48835
48830
48812
48782
48730
48656
48566
48457
48331
48198
48063
47921
47770
47619
47475
47338
47204
47079
46968
46872
46783
46707
46648
46603
46565
46536
46517
46500
46480
46464
46455
46440
46416
46386
46351
46303
46245
46180
46102
46005
45893
45775
45648
45502
45342
45177
45005
44819
44623
44431
44241
44041
43835
43641
43459
43275
43085
42894
42711
42539
42384
42249
42121
41991
41866
41754
41643
41530
41427
41330
41226
41120
41024
40938
40850
40756
40664
40576
40483
40381
40282
40190
40099
40009
39931
39863
39785
39701
39621
39544
39461
39375
39291
39208
39127
39049
38976
38906
38833
38757
38686
38617
38547
38483
38423
38354
38277
38196
38113
38028
37946
37877
37820
37763
37699
37635
37574
37513
37447
37380
37309
37236
37169
37115
37074
37038
37009
37000
37021
37082
37206
37418
37735
38173
38748
39466
40313
41252
42236
43224
44178
45056
45843
46538
47135
47631
48040
48375
48639
48834
48976
49075
49136
49165
49179
49188
49188
49183
49180
49183
49182
49179
49181
49190
49201
49213
49233
49256
49269
49281
49305
49338
49361
49371
49379
49386
49378
49354
49324
49289
49234
49164
49085
48991
48878
48757
48630
48492
48349
48213
48085
47960
47834
47716
47615
47527
47449
47381
47321
47268
47221
47183
47153
47114
47066
47020
46982
46941
46894
46845
46796
46738
46668
46593
46515
46422
46313
46196
46069
45923
45765
45605
45438
45263
45089
44918
44743
44558
44370
44183
43992
43802
43624
43459
43303
43151
43006
42867
42731
42597
42472
42354
42238
42118
41999
41884
41767
41650
41540
41439
41338
41236
41143
41055
40961
40865
40776
40691
40601
40510
40422
40331
40236
40143
40057
39971
39880
39787
39702
39622
39537
39448
39366
39288
39206
39122
39040
38958
38869
38782
38703
38623
38543
38472
38408
38342
38272
38201
38127
38046
37961
37882
37807
37728
37648
37578
37518
37466
37434
37432
37458
37511
37612
37794
38075
38468
38988
39648
40435
41313
42243
43189
44104
44954
45730
46431
47044
47563
47997
48356
48644
48869
49043
49174
49266
49330
49375
49408
49426
49428
49424
49421
49413
49401
49391
49382
49369
49358
49354
49354
49349
49344
49348
49367
49389
49410
49431
49443
49437
49421
49401
49366
49309
49240
49162
49066
48947
48813
48674
48529
48373
48214
48058
47908
47763
47626
47497
47372
47254
47152
47069
47000
46942
46904
46878
46846
46803
46762
46719
46664
46600
46535
46469
46396
46316
46234
46147
46051
45948
45840
45722
45584
45432
45269
45091
44887
44664
44428
44176
43907
43628
43353
43088
42836
42605
42398
42193
41979
41773
41587
41410
41235
41071
40921
40777
40639
40515
40403
40298
40202
40115
40035
39959
39893
39840
39792
39739
39687
39641
39600
39560
39527
39504
39480
39444
39401
39361
39319
39265
39204
39143
39069
38980
38889
38805
38720
38622
38517
38409
38289
38163
38045
37937
37837
37736
37642
37558
37475
37392
37322
37271
37231
37202
37195
37221
37283
37385
37545
37784
38114
38555
39129
39832
40635
41503
42406
43302
44149
44932
45654
46310
46888
47389
47826
48205
48523
48792
49019
49203
49347
49467
49574
49664
49737
49802
49863
49912
49950
49986
50025
50057
50079
50096
50113
50123
50123
50122
50120
50107
50091
50076
50060
50034
50001
49970
49936
49895
49855
49822
49781
49724
49656
49580
49490
49384
49273
49159
49040
48918
48797
48680
48564
48450
48342
48242
48149
48059
47976
47903
47834
47764
47700
47640
47577
47511
47448
47382
47308
47232
47160
47086
46998
46893
46780
46662
46536
46404
46272
46140
46001
45854
45708
45564
45420
45279
45144
45007
44859
44707
44561
44419
44273
44123
43980
43841
43697
43555
43422
43288
43149
43013
42880
42746
42613
42489
42379
42278
42182
42095
42014
41924
41823
41721
41626
41529
41426
41327
41233
41130
41018
40911
40812
40716
40622
40539
40464
40387
40313
40248
40184
40113
40040
39971
39902
39825
39745
39668
39587
39497
39406
39314
39215
39115
39026
38949
38874
38801
38736
38683
38641
38622
38648
38729
38877
39119
39485
39986
40611
41339
42150
43001
43844
44657
45424
46116
46724
47259
47726
48117
48432
48689
48904
49078
49214
49324
49422
49502
49562
49610
49654
49689
49711
49723
49733
49736
49735
49738
49746
49750
49752
49759
49765
49753
49723
49684
49635
49569
49489
49406
49325
49244
49167
49097
49027
48941
48839
48735
48635
48533
48437
48361
48304
48250
48196
48152
48122
48104
48097
48098
48091
48044
47938
47762
47511
47197
46857
46533
46259
46066
45976
45978
46045
46154
46290
46427
46540
46617
46669
46694
46682
46633
46556
46453
46327
46182
46021
45837
45624
45392
45154
44912
44670
44447
44254
44092
43964
43878
43833
43817
43816
43824
43836
43844
43841
43827
43801
43755
43682
43585
43470
43339
43194
43046
42902
42757
42609
42470
42342
42224
42114
42020
41942
41869
41797
41729
41664
41596
41527
41462
41395
41320
41238
41158
41074
40975
40860
40737
40607
40465
40318
40180
40052
39932
39827
39746
39697
39688
39741
39887
40150
40547
41087
41763
42544
43388
44263
45138
45973
46740
47433
48046
48573
49013
49387
49704
49958
50151
50300
50411
50478
50511
50529
50537
50524
50495
50466
50436
50405
50374
50348
50323
50294
50268
50256
50248
50240
50242
50256
50266
50269
50270
50275
50272
50251
50212
50157
50084
49992
49885
49765
49627
49474
49311
49139
48963
48794
48641
48501
48364
48238
48133
48043
47954
47869
47797
47736
47675
47617
47573
47534
47491
47446
47411
47380
47336
47280
47225
47167
47092
46999
46893
46771
46633
46489
46343
46191
46030
45867
45708
45549
45385
45221
45056
44885
44710
44542
44382
44218
44045
43881
43733
43586
43440
43299
43157
43005
42847
42690
42536
42382
42229
42090
41963
41838
41714
41597
41484
41369
41256
41153
41053
40952
40854
40766
40684
40604
40528
40460
40398
40340
40287
40237
40179
40113
40048
39987
39923
39854
39792
39732
39663
39586
39510
39431
39339
39240
39147
39056
38954
38841
38731
38621
38502
38380
38269
38168
38070
37983
37924
37901
37913
37975
38114
38343
38680
39154
39780
40538
41395
42313
43253
44170
45033
45831
46556
47192
47738
48202
48587
48896
49141
49333
49476
49569
49624
49658
49678
49681
49674
49669
49671
49671
49669
49671
49671
49666
49660
49661
49664
49661
49655
49659
49671
49676
49675
49674
49666
49646
49616
49580
49525
49448
49359
49263
49157
49039
48920
48803
48681
48553
48431
48316
48205
48099
48003
47921
47845
47776
47722
47678
47636
47599
47574
47549
47519
47493
47478
47466
47446
47416
47380
47338
47284
47216
47138
47048
46947
46839
46727
46606
46470
46326
46176
46016
45845
45674
45507
45331
45147
44967
44797
44634
44473
44316
44168
44025
43884
43749
43615
43479
43343
43214
43093
42971
42851
42738
42626
42507
