28522
28271
28194
28095
28264
28255
28371
28387
28410
28531
28232
28260
28302
28333
28532
28515
28262
28452
28478
28339
28503
28691
28357
28383
28396
28457
28706
28822
28425
28608
28398
28585
28341
28693
28388
28610
28926
28730
28718
28727
28848
28668
28577
28679
28790
28577
28822
29025
28756
28563
28748
28906
28779
28561
29052
28598
29031
28860
28755
28627
28735
28944
29189
28962
29087
28928
28983
28917
28894
28801
28767
28789
28942
28632
28892
28630
28620
28514
28297
28708
28183
28015
27984
28022
27972
27898
28053
28267
28144
28007
28051
27829
27716
27967
28068
27806
28044
27878
28155
27946
27953
27958
27909
28055
27940
27846
28174
28146
27872
27975
28001
28120
28080
27737
28130
28154
27831
28124
28229
27805
27846
28299
28052
28074
27958
27987
28033
28053
28055
28079
28267
28237
28152
27989
28067
28232
28377
28101
28029
28215
28222
28216
28193
28197
28209
28233
28270
28267
28153
28275
28275
28259
28317
28279
28378
28377
28349
28367
28444
28432
28464
28450
28491
28522
28441
28545
28476
28468
28595
28802
28539
28489
28575
28598
28479
28668
28570
28603
28810
28832
28821
28642
28693
28734
28776
28678
28868
28711
28930
28859
28961
28922
28937
28923
28908
28924
29009
28949
28993
29011
28966
28989
29035
29007
29116
29067
29126
29174
29168
29120
29063
29174
29126
29170
29122
29183
28972
29401
29144
29177
29240
29267
29221
29207
29194
29219
29140
29188
29183
29111
28825
29115
28908
29024
28618
28527
28481
28688
28610
28497
28139
28127
28224
28364
28202
28296
28077
27950
27825
27940
28037
27883
27900
28101
28001
28086
28119
28172
28149
28195
27974
27730
27928
27882
28034
28045
27921
28254
28078
27817
28099
27801
28078
28321
28268
28379
28229
28212
27981
28059
28122
27951
28117
28145
28081
28111
28157
28101
28070
28127
27980
28135
28264
28349
28179
27962
28133
28028
28157
28162
28172
28221
28155
28182
28137
28151
28177
28218
28221
28199
28203
28196
28119
28318
28402
28208
28198
28277
28526
28394
28157
28343
28137
28360
28375
28311
28397
28364
28378
28397
28328
28557
28484
28515
28556
28715
28380
28322
28721
28377
28345
28490
28247
28524
28359
28416
28241
28339
28789
28729
28615
28443
28689
28288
28754
28490
28646
28520
28668
28730
28616
28651
28758
28609
28782
28865
28766
28818
28926
28862
28980
28870
29152
28832
29150
28763
29167
28848
29012
29109
29216
28808
28754
28887
28876
29081
29007
28968
28752
28503
28535
28699
28382
28181
28265
28069
28012
28078
28041
28186
27930
27843
27832
27970
27680
27812
27742
27758
27822
27730
27594
27784
27630
27664
28100
27527
27972
27752
27657
27920
27938
27851
27788
27872
27709
27595
27842
28061
27830
27842
27786
27862
28012
27870
27836
27927
28066
27927
27816
27977
28033
27998
27953
27890
27909
28008
28037
28009
27971
28104
28015
28059
27999
27964
27988
27871
28159
28174
28008
28153
27798
27785
27996
28177
28107
28115
28143
28091
28284
28273
27925
28081
28100
28124
28150
28115
28158
28233
28187
28199
28146
28206
28218
28194
28042
28153
28240
28234
28258
28274
28260
28293
28277
28322
28296
28298
28310
28302
28332
28281
28352
28334
28292
28378
28237
28247
28327
28212
28346
28583
28478
28498
28448
28312
28294
28237
28324
28438
28436
28426
28442
28386
28619
28673
28580
28568
28576
28771
28548
28684
28749
28747
28788
28618
28836
28670
28826
28827
28882
28799
28788
28880
28876
28793
28843
28784
28839
28713
28772
28713
28602
28544
28518
28369
28329
28292
28124
28173
28050
27966
28216
27961
28113
27792
27790
28064
28025
27790
27866
27657
27745
27822
27956
27813
27881
27806
27823
27786
27754
27677
27821
27962
27956
28039
28021
28068
27685
27935
28145
27968
27784
27999
27896
27995
28001
27964
28032
28046
28080
27945
28090
27902
28275
28259
28214
28272
28193
27932
28130
28076
28047
27945
28266
28067
28430
28227
28416
28196
28121
28267
28237
28295
28336
28320
28376
28338
28190
28403
28421
28279
28364
28462
28377
28391
28429
28565
28626
28450
28517
28385
28435
28433
28453
28322
28618
28573
28538
28612
28601
28756
28680
28743
28819
28469
28864
28687
28376
28549
28682
28724
28523
28514
28608
28638
28616
28500
28614
28750
28639
28486
28595
28628
28560
28596
28612
28625
28564
28558
28337
28555
28417
28450
28350
28623
28478
28327
28337
28585
28505
28397
28697
28380
28734
28484
28685
28593
28400
28676
28437
28303
28631
28633
28543
28491
28332
28387
28596
28317
28188
28179
28027
28050
28124
27972
28013
27844
27925
27847
27699
27941
27772
27955
27913
27759
27770
27849
27826
27883
27793
27879
27912
27573
27663
27979
27702
27798
27834
28022
27753
27938
27871
28023
27917
27727
27894
27862
28197
28056
27822
28083
27829
27833
27875
28108
27951
28175
28008
28057
28004
27729
27973
28182
27914
28033
28026
27968
27932
27948
28247
27924
27837
28072
28133
27956
28286
28005
28238
27901
28144
28062
28233
27959
28379
28221
28163
28214
28284
28102
28242
28160
28279
28078
28201
28150
28262
28084
28265
28197
28245
28442
28246
28009
28378
28377
28054
28192
28383
28429
28529
28338
28380
28269
28456
28497
28320
28150
28358
28517
28358
28435
28405
28363
28438
28425
28511
28418
28489
28470
28499
28541
28672
28584
28716
28482
28307
28588
28634
28471
28484
28428
28804
28406
28586
28706
28718
28636
28797
28609
28805
28553
28764
28620
28813
28547
28783
28675
28578
28831
28534
28545
28247
28160
28041
28321
27915
28266
27959
28015
27685
27863
27717
27827
27904
27814
27796
27726
27895
27831
27846
27868
27831
27775
27795
27977
27915
27964
27864
27978
27978
28080
27704
27974
27723
27795
27916
27658
27653
27700
27775
27765
27780
28037
27833
27877
27951
27939
28146
27933
27936
27798
28033
27702
27940
27792
28186
28068
27861
28250
27877
28167
27905
28168
27867
27873
27797
28053
28273
27972
28123
28120
28303
27922
28189
27918
28217
28310
27917
28056
28093
28363
28147
27953
28276
27968
28102
28460
28215
28384
28055
28521
28309
28213
28288
28280
28137
28399
28358
28275
28394
28242
28297
28381
28273
28486
28311
28441
28394
28507
28395
28230
28386
28462
28590
28319
28533
28339
28590
28266
28564
28761
28447
28276
28383
28569
28881
28530
28612
28476
28611
28713
28505
28642
28631
28850
28442
28654
28883
28835
28900
28542
28914
28896
28602
28558
28783
28829
28923
28809
28800
28755
28738
29079
28612
28749
28709
28722
28757
28596
28364
28273
28575
28275
28142
28118
28340
28045
27695
27813
27971
27690
27801
28052
27882
27856
27782
27605
27747
27746
27723
27516
27735
27991
27564
27743
27536
27785
27951
27701
27906
27730
27765
27753
27942
27959
27665
27852
27505
27814
27880
27849
27935
28122
27828
27648
27754
27675
27831
28151
27814
27979
27811
27684
28020
27932
28094
27930
28102
28032
28049
27987
27864
27973
28117
28047
28089
27938
28228
28049
28063
27982
28213
27814
28039
27814
28105
27964
28278
28100
28068
27864
28255
27951
28333
28393
28316
28339
28107
28182
28020
28291
28537
28232
28343
28287
28546
28439
28298
28236
28481
28449
28460
28618
28540
28726
28513
28514
28501
28491
28561
28432
28644
28408
28470
28561
28503
28789
28896
28568
28504
28749
28870
28890
28718
28821
28837
28728
28613
29000
28989
28957
29163
29009
28727
28720
28797
28777
28871
28725
28840
29010
28928
28862
29020
28870
28877
29082
29065
28920
28945
29038
28952
29103
29063
28994
29099
28995
29213
29054
29155
29042
28610
28868
28307
28711
28395
28145
28114
28391
28110
28168
28040
27725
28122
27929
28097
27734
27772
27973
27736
28134
27773
27954
28154
27812
27629
27868
27871
27962
28050
27737
27914
27777
27841
28012
27911
28153
27899
27890
27998
27748
28012
28112
28025
27874
28050
28069
28175
28122
28182
28072
28217
28077
28368
28171
28317
28195
28318
28245
28275
27922
28162
28022
28321
28160
27834
28117
27951
28359
28090
28154
27966
27917
28085
28079
27967
28145
28034
28212
28134
28200
28157
28308
28038
28217
28081
28322
28457
28220
28359
28156
28272
28201
28145
28457
28550
28193
28255
28391
28365
28331
28464
28137
28443
28201
28357
28576
28483
28432
28503
28589
28575
28488
28725
28562
28494
28507
28397
28546
28309
28735
28629
28436
28301
28645
28924
28573
28685
28575
28768
28515
28830
28498
28684
28609
28652
28567
28892
28488
28722
28774
28678
28824
28982
28834
29120
28947
29157
28868
28828
29097
29224
28859
29176
29027
28745
29037
28917
29042
28870
28939
28681
28489
28471
28245
28268
28201
28260
28062
28226
28124
27936
27864
27933
28099
27922
27838
27764
27895
27778
27842
27626
27702
27932
27704
27947
27824
27993
27693
28041
27906
27838
27648
27778
27537
27797
28078
27843
27847
27766
27833
27875
27784
27859
27961
28169
27952
27966
28030
28151
27991
27792
27965
27736
28146
28240
27854
28113
27890
28090
28268
28047
27958
28070
28202
28058
27794
28168
28119
28227
28204
28113
28298
28012
28284
28141
28200
28116
28267
28097
28172
27961
28264
27972
28067
28332
28143
28188
28160
28066
28388
28521
28132
28423
28138
28461
28644
28261
28550
28218
28113
28538
28207
28438
28198
28488
28414
28549
28594
28396
28637
28297
28595
28349
28687
28311
28666
28718
28558
28669
28437
28495
28758
28694
28716
28714
28546
28733
28453
28811
28939
28801
28551
28568
28836
28741
28829
28601
28873
28626
28843
29067
28852
28758
28868
29082
29001
28937
28793
29021
29097
28775
28760
28953
29198
29037
29027
28934
28851
28925
28952
28901
29103
28812
28877
28761
28993
28753
28799
28821
28460
28100
28405
28061
28297
28265
28058
27818
27912
27600
27713
27943
27749
27745
27703
27895
27555
27816
27825
27640
27493
27558
27445
27692
27972
27588
27800
27549
27767
27505
27697
27858
27721
27576
27622
27966
27738
27576
27715
28050
27657
27802
27856
27768
28113
27959
27990
27830
27677
27856
27991
27890
27872
27887
27719
27993
27735
27886
27971
27985
27883
27981
28146
28099
27895
28123
28137
28086
27913
27850
28209
27975
28161
28344
28261
28302
28415
28233
28010
28151
28268
28208
28471
28163
28214
28298
28447
28322
28299
28383
28297
28355
28351
28193
28383
28587
28348
28611
28410
28372
28258
28294
28324
28567
28454
28546
28548
28532
28638
28435
28569
28594
28233
28625
28496
28338
28715
28409
28573
28342
28624
28726
28371
28279
28609
28553
28724
28574
28642
28716
28520
28640
28554
28695
28539
28618
28372
28683
28677
28574
28606
28783
28729
28600
28964
28628
29002
28617
28630
28777
28822
28818
28911
28669
28815
28883
28716
28976
28721
28975
28576
28422
28663
28667
28487
28337
28303
27961
28211
28072
28170
27816
27691
27673
27543
27767
27922
27662
27877
27583
27616
27548
27721
27883
27720
27928
27747
27553
27680
27445
27601
27458
27821
27846
27568
27912
27698
27872
27842
27547
27468
27772
27747
27860
27710
27777
28008
27912
28046
27683
27997
27682
27615
27809
27749
27644
27797
27738
27836
28086
27836
27842
27791
28037
27741
27811
27929
27867
27742
28049
27602
27849
27869
27896
27820
27801
27980
28061
28135
28022
28138
27843
27799
27785
27990
28226
28063
27937
27937
28090
28003
27884
28075
27982
28063
28037
28148
28486
28244
28243
28292
28077
28220
28286
28236
28382
28137
28230
28545
28449
28401
28278
28126
28544
28393
28602
28385
28243
28280
28669
28518
28315
28452
28283
28466
28426
28468
28522
28518
28484
28413
28614
28562
28595
28551
28592
28614
28627
28703
28624
28421
28753
28382
28793
28767
28824
28819
28597
28595
28786
28916
28664
28845
28745
28734
28715
28642
28925
28750
28791
28360
28633
28180
28155
28344
28091
28243
28003
27862
27895
27807
27761
27772
27723
27734
27723
27697
27723
27671
27822
27652
27526
27593
27623
27629
27486
27470
27884
27771
27505
27651
27653
27705
27675
27424
27724
27664
27714
27871
27580
27615
27836
27776
27698
27826
27826
27639
27683
27920
28212
27854
27811
27914
27658
27936
27848
27816
27790
27917
27910
28164
28046
27986
27925
27821
28006
27753
28018
27897
28034
28014
28248
28231
28272
28204
28250
28007
28407
28230
28041
28199
28128
28136
28515
28416
28230
28436
28580
28538
28348
28311
28539
28354
28318
28489
28508
28346
28456
28726
28582
28447
28409
28473
28476
28345
28507
28498
28559
28500
28391
28616
28439
28716
28802
28661
28396
28573
28654
28569
28456
28810
28764
28893
28931
28639
28866
28942
28714
28675
28697
28675
28706
28997
28750
29002
28985
28823
28877
29003
28776
29103
29163
28838
29100
28975
29254
29053
28775
28961
28883
28957
29069
29131
29079
28930
29095
29151
29103
28993
29125
29112
29117
29258
29009
29011
29013
29119
28704
28690
28471
28514
28170
28180
28118
28182
28008
27873
27734
27709
27732
27769
28074
27739
28009
27796
27627
27547
27874
27797
27646
27869
27789
27632
27908
27701
27609
27967
27776
27532
27677
27805
27568
27645
27413
27696
27896
27626
27480
27661
27798
27705
27806
27687
27872
27788
27908
27895
27721
27840
27889
28042
27886
27893
27858
27793
27776
27787
27696
27630
28068
27644
28021
27741
27686
27760
27848
28039
27857
27898
28128
28051
27714
27820
27996
27824
28040
28246
28012
28235
28077
28156
28026
28215
28178
27993
28063
28206
28158
28051
28154
28071
27923
28253
28391
28136
28387
28202
28189
28264
28356
28277
28397
28272
28152
28304
28310
28560
28364
28622
28375
28343
28400
28484
28239
28578
28359
28677
28548
28200
28265
28371
28654
28605
28588
28471
28372
28372
28533
28471
28482
28709
28562
28624
28477
28725
28497
28768
28774
28423
28598
28746
28627
28847
28705
28747
28726
28738
28725
28713
28797
28797
28933
28803
28920
28733
28553
28765
28572
28608
28710
28370
28323
28194
28103
27951
27890
27893
28080
27863
27943
27649
27713
27936
27609
27525
27545
27538
27635
27618
27587
27936
27652
27762
27535
27608
27395
27698
27885
27544
27826
27745
27912
27448
27427
27583
27810
27760
27763
27441
27690
27867
27618
27517
27687
27526
27788
27550
27823
27689
27815
27733
27753
27809
27632
27822
27600
27847
28076
27973
27976
27752
27768
27764
27816
27753
27839
27715
27654
27805
28051
27819
27851
27773
27971
27876
27885
27837
27927
28172
27929
27977
27917
28095
28023
28187
28004
28100
28249
28131
27953
28129
28281
28150
28258
28150
28181
28201
28128
28100
28141
27990
28232
28451
28131
28255
28420
28026
28238
28054
28495
28313
28192
28614
28232
28614
28669
28410
28582
28353
28429
28429
28338
28557
28410
28482
28501
28322
28314
28686
28446
28604
28672
28679
28677
28666
28668
28939
28522
28399
28776
28821
28500
28700
28775
28649
28511
28718
28898
28729
28886
28765
28984
28777
28610
28898
28609
28737
29065
28834
28934
28704
28836
28833
28970
29179
28844
28719
28837
28987
28918
28664
28489
28615
28584
28431
28033
28058
28208
27873
28001
27693
27853
27908
27519
27770
27500
27699
27603
27838
27840
27605
27585
27568
27578
27478
27560
27551
27584
27388
27561
27368
27572
27492
27673
27485
27745
27359
27406
27547
27875
27686
27456
27849
27854
27637
28023
27887
27821
27749
27768
27710
27949
28098
27827
28037
27778
27859
27868
27806
28091
27905
27954
28082
27811
28020
27888
27725
27902
28175
28047
27905
27955
28108
28246
28050
27911
28082
28210
28030
28036
28146
28056
28392
28186
28077
28266
28013
28188
28438
28244
28396
28295
28317
28157
28405
28288
28109
28189
28403
28235
28470
28531
28573
28162
28370
28240
28607
28537
28341
28559
28548
28396
28687
28341
28768
28507
28398
28596
28743
28497
28603
28715
28697
28674
28597
28700
28367
28509
28571
28547
28590
28514
28719
28638
28714
28811
28774
28580
28795
28734
28542
28992
28632
28660
28708
28884
28928
28945
28858
28853
28951
28926
28718
28993
28642
28881
28917
29016
28785
28952
29017
28942
29093
28808
28940
29157
28855
29016
28821
28627
28710
28595
28493
28371
28052
28075
28191
28028
27894
27885
27606
27833
27636
27839
27779
27681
27582
27532
27533
27673
27641
27542
27786
27823
27609
27752
27729
27424
27555
27477
27591
27389
27760
27567
27489
27734
27482
27478
27792
27723
27644
27723
27480
27570
27586
27744
27548
27762
27749
27774
27913
27737
27827
27797
27845
27908
27890
27905
27821
27784
27868
27765
27891
27796
27753
27785
28072
27865
28040
28022
27773
27838
27748
27859
27899
27777
27865
27924
28079
27967
27893
28083
27990
28112
28009
27903
28088
28034
28079
27858
27908
28003
28002
27925
28229
28165
28129
28170
28214
28227
27863
28135
28337
28159
28074
28036
28074
28207
28047
28058
28343
28140
28416
27989
28174
28173
28324
28369
28339
28295
28212
28405
28473
28074
28472
28495
28336
28512
28601
28367
28276
28480
28449
28449
28596
28526
28352
28664
28634
28531
28622
28772
28598
28717
28709
28380
28731
28451
28770
28861
28830
28471
28605
28590
28743
28603
28883
28706
28651
28814
28664
28901
28839
28832
29086
28776
28798
28714
28506
28638
28406
28551
28555
28540
28387
28442
28035
27761
27879
28045
27907
27716
27617
27486
27742
27769
27712
27575
27489
27557
27820
27554
27683
27538
27340
27677
27647
27611
27750
27622
27584
27488
27365
27466
27371
27702
27490
27355
27637
27697
27702
27677
27444
27516
27770
27355
27509
27520
27462
27521
27698
27528
27613
27854
27711
27639
27787
27605
27965
27814
27907
27866
27902
27925
27719
27960
27685
27857
27720
27552
27718
27618
27763
27844
27814
27751
27824
27769
27666
27794
28051
27827
27862
27787
28070
27876
27761
27990
28035
27868
27786
27930
28207
28066
28108
28265
28063
27855
28102
28101
28166
28144
28066
27972
28337
28292
28067
28119
28406
28246
28049
28279
28112
28361
28553
28327
28480
28291
28350
28301
28218
28490
28415
28452
28449
28471
28452
28462
28583
28546
28503
28676
28717
28527
28689
28759
28599
28577
28540
28849
28876
28509
28793
28701
28607
28711
28799
28669
28783
28832
29004
29004
28989
28819
28775
28728
28805
28744
28866
28677
29053
28942
28915
29213
29103
28839
29000
28860
28966
28702
28855
28621
28624
28354
28284
28224
28229
27933
27709
27873
27718
27721
27698
27831
27863
27683
27720
27492
27702
27557
27672
27383
27847
27583
27566
27702
27676
27685
27655
27547
27691
27702
27698
27890
27877
27644
27934
27775
27784
27811
27845
27830
27697
27863
27985
27919
27882
27883
27950
27877
27964
27974
27968
27763
28015
28000
27978
27820
27863
28047
27796
27890
28007
28021
27947
27937
27868
28016
27985
28090
28104
28150
27986
28246
28269
28022
28327
28091
28285
28325
28027
28350
28119
28323
28187
28303
28251
28128
28120
28219
28311
28264
28409
28260
28155
28309
28479
28194
28453
28430
28127
28380
28259
28212
28372
28449
28153
28286
28316
28318
28293
28317
28606
28404
28506
28489
28403
28553
28461
28777
28544
28788
28650
28538
28731
28564
28719
28497
28378
28628
28504
28554
28481
28601
28695
28734
28659
28732
28644
28799
28700
28485
28661
28605
28851
28921
28695
28858
28646
28972
28844
29082
28867
28604
28683
28868
28582
28650
28700
28377
28155
28147
27972
28253
27785
27981
28119
27736
27719
27957
27754
27638
27615
27588
27676
27688
27658
27758
27650
27769
27711
27595
27626
27692
27751
27644
27401
27585
27577
27625
27670
27662
27366
27674
27457
27802
27816
27664
27578
27907
27753
27759
27714
27991
27644
27898
27950
27694
27876
27823
27666
27991
27667
27646
27898
28021
27860
27940
27810
27821
27693
27729
27659
27948
27764
27733
28139
28046
27813
27985
27952
27657
28000
28177
28026
28124
28132
28183
27884
28263
28137
27929
27963
28162
28146
28196
28036
28116
28437
28177
28281
28261
28063
28283
28167
28253
28087
28434
28360
28117
28496
28454
28282
28218
28387
28150
28228
28417
28418
28133
28414
28618
28407
28410
28615
28492
28222
28464
28241
28501
28623
28533
28615
28482
28606
28579
28620
28477
28681
28754
28510
28693
28623
28495
28789
28876
28866
28659
28691
28963
28723
29052
28716
28649
28735
28891
28761
28932
28640
29063
29192
28840
28923
28900
28805
29075
29205
29151
28899
28901
29253
28811
28966
28835
29075
28790
28866
28596
28829
28775
28662
28207
28165
28358
27970
27802
28125
27775
28019
27976
27622
27804
27754
27804
27981
27840
27617
27542
27873
27577
27723
27498
27620
27465
27704
27918
27662
27471
27742
27426
27736
27954
27779
27738
27602
27686
27901
27622
27499
27926
27881
27761
27740
28023
27901
27728
27818
27758
28162
28008
28143
27980
27877
27693
27951
28056
27978
28068
28039
27836
28116
28098
28162
28008
28195
28112
28053
28131
27804
27920
28111
28099
28031
28217
27952
28035
28087
28106
28270
28098
28448
28146
28206
28113
28238
28257
28254
28583
28387
28328
28372
28153
28477
28470
28328
28477
28633
28608
28524
28520
28491
28534
28415
28687
28531
28676
28746
28605
28581
28786
28732
28721
28824
28916
28764
28996
28836
28600
28761
29082
28740
28885
28821
28898
29012
28731
28913
28794
29204
29157
28790
29036
28885
29013
29153
28940
29019
29069
28972
29019
28930
29128
29152
28940
29114
29359
29311
29060
29209
29062
29161
29384
29116
29303
29044
29314
29063
29384
29027
29225
29033
29130
28902
29013
29166
28975
28872
28744
28735
28500
28364
28300
28201
28115
27990
28212
28013
27981
27991
27723
27809
27708
27793
27989
27989
28091
28001
27944
27979
27916
28051
27913
27550
27819
27907
27678
27741
27938
27577
27675
27852
27993
27696
28019
28055
27733
27916
27986
27899
27898
27887
27773
27912
27819
27916
28098
28113
27967
28059
28002
27891
28166
28048
28075
28132
28097
28013
28164
27804
28193
28143
28241
28220
28173
28188
27957
28270
28417
28324
28316
28268
28020
28343
28422
28367
28076
28207
28502
28548
28299
28424
28531
28573
28547
28602
28502
28704
28415
28460
28474
28325
28607
28391
28584
28499
28544
28593
28617
28572
28659
28599
28653
28625
28627
28743
28416
28712
28793
28854
28633
28738
28899
28647
28633
28700
28814
28632
28681
28807
28702
28967
28735
28580
29010
28931
29090
28725
28967
28864
28930
29074
28903
28814
28912
28911
28987
28879
29028
29114
29305
29174
28955
29076
29141
28973
29166
29129
29211
29064
29175
29189
29168
29144
29119
29250
29028
29064
28820
28991
28627
28595
28828
28469
28252
28280
28407
28018
28037
27895
28223
28032
28047
28093
27847
28063
27772
27778
27822
27800
27834
27676
27672
27922
27896
27905
27808
27767
27584
27739
27578
27720
27648
27751
27644
27800
27754
27656
27826
27819
27867
27793
27869
27772
27937
28163
27987
27689
27999
27786
28152
27978
28206
27776
28117
28297
27916
28182
28018
28180
28059
28080
28225
27910
28077
28007
28259
27972
27867
27937
27860
28181
28218
28116
28041
28294
28118
28397
28176
28382
28064
27935
28231
27953
28205
28335
28317
28243
28183
28176
28144
28207
28008
28390
28523
28181
28583
28274
28412
28365
28202
28274
28221
28475
28528
28329
28504
28441
28631
28704
28538
28353
28558
28853
28489
28555
28509
28697
28711
28647
28870
28806
28836
28579
28823
28906
28983
28867
29002
28671
29050
29024
28641
29034
28777
28741
29066
29245
29006
29236
29084
29288
29026
29185
29190
28920
29245
29287
29252
29359
29384
29072
29070
29178
29167
29196
29252
29186
29011
29266
29376
29192
29030
29226
29053
28858
28923
28507
28506
28489
28461
28183
28369
28099
28219
28045
28176
27922
27935
28059
28193
28083
27735
27938
27752
27886
27943
27956
28190
27935
27830
27846
27846
28005
27803
27674
27833
27682
27917
27892
28049
27726
27895
27953
28005
27826
28275
28132
28305
28413
28180
28323
28305
28170
28349
28106
27975
28338
28188
28357
28203
28384
28409
28345
28368
28332
28249
28431
28256
28417
28140
27995
28212
28072
28199
28250
28187
28351
28318
28288
28372
28336
28201
28407
28528
28451
28113
28331
28164
28310
28610
28520
28218
28380
28701
28619
28313
28700
28379
28420
28387
28515
28385
28356
28506
28763
28640
28490
28471
28485
28730
28641
28560
28677
28506
28589
28906
28657
28559
28656
28607
28740
28727
28765
28749
28616
28716
28889
28794
28964
28789
28564
28683
28847
28983
28999
28685
28806
28714
29049
28993
28778
29118
29077
28756
28966
29065
29020
29049
29055
28919
28967
29200
28962
29014
28894
28985
29038
28984
28874
28844
28850
28808
28648
28559
28560
28329
28144
28310
28140
28039
27956
27782
27961
28093
27784
27789
27895
27820
27906
27903
27584
27778
27598
27681
27851
27474
27856
27501
27850
27836
27548
27630
27585
27840
27564
27689
27769
27699
27501
27564
27783
27719
27769
27849
27794
28040
27858
27642
27853
27967
27871
28002
27875
27923
27875
28010
27881
27941
27932
27925
27897
28048
27835
27992
27945
28089
27842
27859
28005
28016
27866
28132
27917
28008
27988
27958
28125
28320
28096
28333
28151
28210
28296
28402
27987
28425
28250
28280
28240
28114
28189
28276
28134
28299
28102
28144
28183
28249
28094
28317
28320
28523
28406
28183
28194
28196
28399
28458
28282
28688
28635
28474
28308
28330
28597
28482
28537
28591
28394
28471
28468
28593
28775
28603
28769
28520
28671
28523
28649
28661
28897
28808
28764
28946
28781
28787
28874
28670
28719
29064
28810
28580
28797
28883
28720
28992
28807
28851
29035
29073
29095
28829
28810
29038
28956
29119
29053
28915
29171
29003
29117
29010
28936
28958
28854
29165
28643
28480
28630
28674
28424
28115
28244
28240
27910
27865
27985
27863
27775
27822
27635
27767
27630
27737
27494
27624
27931
27692
27931
27489
27565
27793
27633
27826
27481
27636
27661
27940
27719
27643
27685
27911
27824
27604
27887
27740
27668
27708
27996
27847
28094
27847
27908
27842
27911
27862
27733
28065
27779
28005
27760
28097
27870
27869
28003
27847
28097
27924
27791
27756
27949
28165
27847
28024
27857
28094
27879
27762
27846
27858
28197
28112
27832
28090
28138
28120
28283
28133
28416
28145
28269
28278
28122
28254
28113
28009
28117
28312
28276
28314
28327
28049
28159
28382
28363
28121
28269
28312
28383
28229
28249
28407
28363
28519
28213
28540
28597
28424
28266
28558
28743
28559
28716
28427
28509
28783
28611
28696
28693
28834
28631
28608
28698
28789
28565
28923
28597
28477
28764
28784
28768
28890
28656
28725
28787
28803
29048
28893
29024
28942
28860
28846
28750
28786
28970
29085
28888
29137
29027
28916
28885
28871
28886
29232
28943
29131
28983
28984
29107
29029
29052
28813
29006
29005
29035
28573
28723
28569
28273
28409
28063
28247
27987
28111
28014
27778
27804
27735
27727
27956
27783
27969
27747
27525
27644
27631
27761
27562
27842
27442
27676
27617
27729
27520
27767
27660
27499
27587
27714
27539
27716
27574
27893
27572
27527
27741
27903
28086
27863
27764
27835
27815
27894
28145
27964
27942
27942
27817
28053
27824
28071
27919
27826
28010
28020
28143
28196
28005
28210
27996
27819
28046
28119
28183
28319
28055
28216
28306
28195
28322
28182
28389
28147
28401
28301
28333
28416
28340
28362
28152
28388
28494
28413
28232
28257
28390
28200
28379
28714
28396
28640
28387
28705
28676
28557
28727
28513
28838
28538
28860
28674
28657
28514
28697
28653
28567
28855
28874
28702
28629
28799
28632
28633
28793
28690
28818
28918
28791
28668
28813
29066
28876
29083
28802
28863
28851
28954
28968
29015
28971
28991
28869
28988
28863
28972
28786
29059
28993
29075
29078
29139
28869
29041
29034
28951
29087
28948
29005
29402
29210
29128
29316
29000
29361
29423
29349
29461
29196
29415
29397
29105
28990
29113
29331
29086
28787
28732
28638
28409
28507
28362
28526
28092
28090
27929
28068
27833
28038
27939
27975
27944
28002
28005
27779
27855
27797
27768
27898
27857
27798
27731
27684
27958
28113
27789
27903
28042
27993
27716
27617
27790
28178
28073
28106
28013
27895
27886
28173
27882
28240
28064
27916
28331
27952
27922
27964
28104
28102
28159
28316
28119
28293
28082
28289
28076
27952
28246
28078
28112
28402
28189
28089
28362
28256
28373
28198
28405
28281
28493
28260
28137
28409
28230
28245
28300
28527
28669
28528
28334
28488
28330
28726
28545
28325
28557
28441
28650
28629
28512
28725
28717
28736
28635
28762
28586
28644
28615
28849
28718
28865
28660
28734
29087
28838
28812
28778
28881
29027
28980
28977
28952
28864
28962
28848
28946
29167
28952
29050
28977
29081
29160
28884
28884
28895
29178
28881
29140
28912
29259
29013
29029
28956
28940
29147
28899
29210
29105
29275
29123
28991
29076
29031
29223
28974
29224
29442
29229
29248
29197
29182
29244
29230
29285
29224
29077
29150
28923
29009
28994
28866
28708
28511
28501
28367
28601
28160
28051
28048
28220
28158
27776
27896
27963
27970
27729
28043
27925
28059
27945
27911
27951
27803
27850
27862
27943
27859
28036
27823
27877
27821
27836
27852
27607
27821
27916
27935
28120
28109
27808
27822
27946
28031
28076
28203
28007
28030
27990
28321
28025
28228
28039
28318
28256
28096
28213
28135
27890
28208
28133
28235
27957
28154
27950
28178
28112
28094
27998
28100
28261
28388
28334
28361
28295
28007
28352
28298
28283
28069
28387
28342
28461
28439
28475
28159
28276
28203
28320
28446
28599
28401
28733
28406
28597
28523
28641
28479
28547
28692
28537
28697
28704
28520
28661
28699
28598
28834
28720
28792
28583
28822
28593
28668
28849
28623
28682
28915
28935
28577
28670
28773
28896
28954
28809
28957
28680
28901
28913
29016
28992
28739
28940
28877
28953
28842
28962
28970
28989
28823
29014
29242
28938
29171
29176
29214
29042
29065
29125
29076
29043
29218
29013
29103
29050
29229
28924
29060
29143
28901
29074
28991
28800
28712
28672
28473
28584
28382
28408
28205
27955
27880
28008
27819
27804
28070
28098
27974
27955
27925
28108
27920
28064
27829
27796
27909
28041
27905
27718
27969
27833
28048
27888
28062
27963
27696
28011
28136
27951
28132
28180
27690
28170
27958
28203
28161
28263
28103
28060
28412
28449
28257
28406
28343
28332
28269
28418
28472
28105
28429
28141
28463
28419
28314
28569
28536
28434
28411
28530
28468
28564
28684
28449
28349
28601
28431
28467
28648
28672
28697
28357
28609
28418
28623
28862
28761
28708
28722
28984
28756
28958
28753
28680
28919
28768
29057
28929
29083
28967
28708
28981
29119
29024
29023
28893
28886
28838
29165
28883
28848
29175
29146
29266
29006
29298
29057
28988
29023
28805
29189
28851
29070
28933
29231
29084
29001
29075
29051
29199
29233
28951
29100
28902
28859
28930
28968
29063
29058
28917
29251
28912
29184
29016
28919
29332
29087
29162
29093
28942
29169
28940
29001
29255
29118
29073
28768
28854
28995
28601
28562
28529
28199
28283
27994
27904
28169
28020
27662
27854
27912
27701
27748
27552
27738
27915
27746
27688
27526
27373
27604
27368
27536
27869
27462
27458
27765
27860
27586
27427
27680
27731
27352
27434
27643
27573
27673
27784
27498
27772
27612
27942
27746
27915
27745
27814
27762
27836
27809
27941
27863
27668
27798
27771
27899
27861
27995
28004
27590
27708
27979
27996
28082
27913
27713
28025
27880
27865
27675
27921
28173
27904
28080
28173
27884
28099
28137
27866
28127
27878
28162
27931
27922
27912
28277
28321
28160
28023
28373
28030
28125
28108
27934
28245
27986
28111
28298
28322
28397
28258
28219
28260
28309
28355
28354
28318
28427
28157
28426
28304
28422
28557
28513
28646
28516
28254
28393
28553
28503
28297
28713
28465
28502
28637
28756
28459
28564
28678
28375
28760
28476
28487
28396
28424
28656
28522
28673
28772
28762
28891
28670
28643
28610
28635
28878
28590
28900
28646
28597
28930
28595
28893
28991
28852
28764
28820
28569
28421
28236
28217
28426
28053
28005
28091
27864
27643
27714
27711
27606
27804
27625
27287
27495
27355
27658
27651
27559
27440
27442
27404
27574
27427
27432
27521
27417
27583
27210
27542
27702
27552
27579
27333
27238
27373
27418
27595
27495
27525
27615
27544
27536
27367
27703
27845
27531
27546
27907
27906
27575
27711
27623
27687
27645
27975
27748
27742
27763
27876
27833
28063
27761
27911
27772
27884
27703
27697
28043
27782
28044
27705
27770
27814
28012
27983
27915
28016
27856
28232
27876
28015
28186
28085
27891
28050
27971
28133
28062
28161
28024
28207
28218
28131
28337
28299
28314
28430
28236
28074
28274
28495
28271
28580
28397
28160
28490
28438
28387
28199
28330
28393
28389
28386
28247
28403
28414
28689
28340
28678
28433
28801
28912
28563
28459
28633
28820
28965
28855
28723
28850
28986
28790
28629
28858
28649
28713
28670
28963
28938
28731
28909
28932
28976
29150
28903
28744
29061
29261
29083
28858
29072
28798
28856
29255
29185
28935
29209
29106
28801
28907
29056
28879
28629
28913
28872
28700
28331
28496
28313
28063
28060
28103
28021
27652
27893
27591
27876
27629
27644
27518
27551
27866
27794
27493
27596
27753
27687
27661
27577
27647
27673
27580
27534
27509
27649
27495
27478
27441
27535
27409
27454
27537
27547
27551
27684
27696
27644
27869
27697
27792
27863
27638
27990
28128
28011
28029
27844
28094
27696
27744
27724
27958
27871
27958
28231
27853
28004
28102
28135
28014
28080
27926
28061
27776
28036
28197
28133
28027
27944
28297
27983
28305
28000
28097
28290
28105
28043
28317
27961
28136
28145
28364
28016
28152
28427
28169
28525
28198
28245
28306
28292
28520
28495
28204
28346
28632
28467
28500
28437
28524
28425
28634
28450
28655
28516
28660
28655
28544
28314
28584
28690
28664
28509
28653
28862
28685
28497
28748
28513
28686
28796
28585
28844
28698
28811
28503
28782
28503
28754
28563
28889
28922
28910
28675
28888
28624
28657
28840
28648
28837
28769
28755
29062
28808
28673
28868
28661
28982
28854
28892
28678
29064
28866
29063
28833
29089
28705
28725
28628
28702
28495
28339
28393
28383
28205
27666
27704
27683
27963
27634
27761
27660
27535
27593
27776
27586
27532
27569
27482
27432
27491
27485
27466
27401
27433
27553
27497
27245
27378
27628
27632
27654
27536
27334
27635
27637
27399
27389
27433
27486
27369
27488
27392
27718
27920
27837
27759
27703
27565
27940
27784
27782
27617
27640
27928
27575
27856
27807
27901
27866
27798
27847
27869
27715
27785
27816
27987
27780
27814
27936
27814
27994
27718
27811
28066
28032
28012
28003
28106
27898
27779
28248
27852
28255
28081
28280
28263
28250
28017
28359
28245
27946
28278
28504
28076
28372
28346
28080
28196
28412
28094
28322
28527
28354
28128
28382
28605
28483
28322
28504
28303
28331
28544
28471
28439
28503
28422
28793
28396
28477
28482
28774
28585
28591
28715
28613
28648
28656
28724
28703
28554
28580
28686
28779
28740
28599
28788
28765
28703
28924
28799
28918
28950
28797
28850
28920
28797
28983
28827
28696
28924
29084
28859
29073
29012
28952
28946
28924
28919
28989
28957
29039
28783
28897
28854
29109
29182
29109
28843
29110
28930
28825
28882
28936
28781
28660
28624
28540
28460
28066
28115
28267
28153
27995
27949
27762
27910
27672
27694
27651
27633
27678
27583
27611
27597
27579
27627
27646
27606
27640
27680
27604
27544
27540
27629
27459
27548
27318
27499
27363
27635
27675
27512
27597
27728
27745
27719
27718
27606
27663
27678
27732
27721
27779
27754
27862
27873
27872
27764
27796
27833
27891
27915
27775
27684
27949
27853
28154
27966
28123
27949
27749
27859
28180
27869
27961
27994
28185
28196
28248
28030
28278
28173
27895
27987
28027
28040
28016
28432
28176
28350
28184
28095
28170
28140
28493
28343
28357
28416
28308
28454
28298
28446
28457
28515
28544
28537
28547
28586
28599
28557
28626
28855
28639
28628
28846
28622
28609
28681
28584
28781
28700
28783
28671
28969
28908
28579
28777
28799
28991
28831
28667
28912
28668
28963
28827
28875
28971
28872
28900
29010
28899
29049
28925
28732
28981
29145
29028
29094
29001
28906
29089
28901
28979
29093
29172
28984
29039
29011
29144
29244
29128
29187
28847
28978
29280
29024
29045
29014
29196
29257
29299
29147
29286
28911
29052
28873
28917
29077
28786
28988
28538
28475
28304
28350
28331
28126
28100
27979
28173
27885
27643
27851
27594
27811
27848
27778
27721
27893
27834
27873
27951
27711
27523
27579
27532
27795
27801
27739
27840
27470
27774
27810
27857
27873
27546
27482
27554
27559
27605
27604
27714
27661
27643
27989
27868
28001
27765
27803
28010
28021
27785
28146
27925
27806
27936
28041
27944
28262
28006
28089
28016
27922
28094
27986
28052
28270
27911
28155
27886
28193
27858
28182
28366
28152
27919
28274
28076
28301
28423
28306
27984
28458
28242
28266
28134
28456
28473
28211
28306
28461
28217
28389
28614
28616
28355
28202
28378
28282
28367
28694
28668
28681
28690
28563
28427
28577
28770
28549
28521
28608
28716
28645
28671
28720
28636
28793
28711
28976
28713
28884
28852
28639
28860
28941
28865
28782
28770
28777
28804
28764
28975
28911
29159
28925
28894
28852
28806
28982
29082
29111
28783
29137
29193
28916
28926
28922
28974
29214
28948
29191
28888
29336
28937
28981
28905
28977
28937
29232
29121
29315
29044
28983
28959
29106
29095
29186
29093
29107
29320
29177
29184
29017
29054
29008
29002
28851
28874
29008
28701
28511
28441
28570
28410
28214
28104
28182
27948
27889
27826
27998
28022
27985
27644
27945
27838
27970
27649
27605
27967
27766
27466
27858
27599
27523
27765
27905
27696
27834
27702
27829
27732
27830
27854
27631
27830
27791
27837
27927
27823
27810
28229
27945
28224
28021
27782
28079
27877
28002
28361
28207
28361
28250
28000
28133
28190
28351
28339
28339
28048
27981
28303
28099
28080
28268
28359
27996
28400
28009
28180
28182
28171
28045
28296
28206
28202
28157
28174
28497
28599
28337
28504
28550
28374
28609
28533
28327
28477
28578
28570
28805
28564
28788
28629
28638
28656
28612
28769
28735
28526
28769
28764
28773
28885
28832
28801
28881
28610
28678
29051
28693
28868
28707
28618
29089
29155
28762
29013
28969
28887
29184
28964
28880
29071
28995
28932
28834
28985
29237
29155
28940
29016
29029
29200
29120
29371
29178
29089
29035
29326
29255
29067
29297
29111
29178
29264
29238
29248
29240
29271
29053
29237
29514
29217
29299
29306
29089
29192
29299
29308
29402
29345
29553
29649
29427
29525
29400
29127
29193
29533
29208
29153
29181
29085
29117
28950
29173
28917
28996
28739
28434
28477
28593
28372
28475
28271
27998
28054
28292
27997
27943
27907
27956
28121
28222
28206
27939
28174
28017
27985
27862
28158
27814
27888
28077
28149
27854
27986
28240
28133
27886
28128
28375
28086
28393
28046
28045
28138
28411
28153
28104
28230
28601
28282
28375
28541
28280
28502
28552
28568
28614
28239
28582
28566
28547
28628
28339
28412
28531
28355
28645
28575
28294
28513
28301
28568
28710
28546
28690
28557
28566
28652
28638
28521
28704
28542
28689
28898
28742
28598
28848
28597
28924
28787
28806
28698
28959
28589
28859
28613
28603
28988
28908
29060
29023
29062
29130
29088
29087
28941
29031
29076
29159
28980
29165
28888
28976
29182
29060
29167
29091
29256
29083
28853
29040
29172
28996
29117
29249
29148
28955
29131
29178
29122
29299
29141
29361
29194
28882
29226
28992
29206
29098
29286
29154
29050
29000
29381
29250
29332
29273
29002
29135
29272
29226
29339
29344
29286
29308
29085
29267
29364
29227
29260
29012
29111
29028
29107
29428
29312
29170
28981
28985
28879
28897
28988
28676
28382
28536
28572
28305
28450
28384
28173
28351
28269
27923
28091
27898
28176
28186
27986
27938
28030
27839
27968
28222
27943
27847
27984
27988
27802
27765
27998
27867
28171
28030
28132
28104
27850
28223
28000
28148
28170
28031
28409
28304
28042
28243
28197
28129
28202
28334
28383
28093
28390
28494
28471
28495
28314
28526
28446
28466
28522
28271
28519
28316
28452
28425
28610
28326
28246
28477
28664
28370
28668
28478
28421
28456
28422
28654
28548
28487
28659
28798
28753
28741
28805
28843
28719
28832
28796
28821
28599
28848
28833
28777
28621
28781
28945
28804
29030
28822
28813
28893
28806
28943
28828
29020
28812
28935
28941
28929
28954
28975
28967
28985
29068
29131
28978
29205
28999
29129
29024
29203
28993
29259
28860
29032
28822
29160
29230
29123
28816
29098
28853
29276
29308
28988
29392
29181
28988
29110
28880
29278
29159
29194
29226
29334
29245
29020
29200
28985
29032
29378
29236
29060
29059
29276
29084
29276
29197
29289
29460
29278
29198
29325
29267
29282
29156
29181
29160
29011
29039
28817
28949
28526
28673
28584
28447
28112
28507
28011
28129
28392
28209
28229
27974
28174
27986
27839
27966
27775
27823
27857
27971
28037
27655
27969
27962
28061
27717
28054
27840
28050
27851
28134
27888
28093
27919
27700
27968
27965
28064
28125
28128
28037
28021
28144
28221
28138
28177
28174
28095
28146
28314
28118
27917
28217
28297
28282
28340
28215
28047
27984
28005
28130
28097
28323
28178
27994
28075
28100
28379
28263
28341
28450
28084
28351
28189
28248
28490
28484
28488
28324
28165
28297
28340
28569
28307
28681
28744
28749
28597
28500
28677
28479
28769
28589
28812
28615
28733
28942
28888
29128
28882
28835
28900
29190
29134
29050
28789
28960
28916
28969
29243
28869
29266
29131
28762
29132
28806
28792
29086
28979
29242
29127
29035
28888
29219
29204
28919
29294
28906
28845
28985
28869
29257
29109
29086
29175
29253
29140
29210
29116
29194
29117
28946
29337
29293
29378
29077
29114
29509
29169
29568
29443
29556
29584
29392
29598
29544
29351
29318
29467
29286
29188
29517
29245
29523
29147
29426
29155
29059
29015
29012
28864
28993
28695
28673
28852
28509
28721
28596
28693
28515
28538
28631
28902
28520
28762
28644
28414
28549
28867
28651
28719
28531
28482
28473
28804
28464
28680
28559
28675
28869
28906
28464
28619
28559
28956
28699
28982
28796
28935
28749
28906
28858
28970
28918
29321
28933
28772
29194
29266
28888
29133
28900
29121
29095
29139
28739
28888
28992
28804
28722
28853
28950
28715
28990
29103
28908
28894
29002
28762
29172
28809
29057
29217
29030
28779
28949
28938
29021
29186
29068
29065
28883
29170
28977
29122
29253
29072
28916
29013
28904
29073
29038
29201
28836
29236
29167
28971
29139
29108
29024
28928
29382
29115
29282
29062
28984
29198
29366
29185
29129
29220
29026
29391
29053
29154
28975
29128
29024
29146
29216
29219
29393
29124
29366
29333
29041
29185
29307
29347
29036
29338
29273
29104
29297
29265
29172
29046
29060
29348
29375
29411
29421
28998
29071
29151
29277
29077
29083
29382
29355
29083
29114
29254
29003
28863
28973
28682
28464
28665
28629
28285
28486
28407
28279
28452
28133
27845
28186
27948
28120
28107
28038
27987
27832
27908
27932
28087
28142
27972
28136
27915
28090
28132
28270
27973
27799
28213
28099
28122
27858
28074
28332
28307
28244
28163
28220
28009
28244
28382
28459
28603
28373
28715
28500
28630
28421
28288
28545
28586
28318
28485
28304
28616
28759
28492
28366
28377
28307
28571
28569
28687
28666
28790
28570
28832
28627
28555
28611
28525
28807
28538
28687
28930
28943
28967
28662
28662
29012
28833
28733
28862
29119
28852
28852
28907
29011
28985
29160
29011
28971
29069
29121
29056
29174
29240
29183
29075
28920
28981
29168
29117
29111
29153
29027
29202
29316
28993
28966
29248
29107
29143
28873
29196
29454
29087
29230
29197
29273
29244
29140
29277
29410
29313
29045
29239
29289
29481
29267
29380
29185
29283
29420
29064
29473
29471
29331
29455
29565
29463
29174
29433
29502
29383
29425
29465
29241
29305
29188
29415
29542
29544
29249
29194
29435
29290
29181
28928
29028
29099
29012
28478
28510
28623
28610
28755
28391
28324
28451
28369
28458
28335
28471
28311
28444
28322
28418
28293
28178
28311
28313
28291
28137
28277
28384
28522
28306
28258
28221
28044
28214
28162
28471
28481
28300
28285
28310
28608
28392
28751
28589
28795
28573
28599
28586
28608
28763
28740
28915
28556
28905
28778
28947
28908
28535
28547
28739
28566
28756
28778
28774
28722
28819
28828
28791
28838
28828
28826
28912
28858
28810
28854
29060
28797
28873
28831
29225
28977
28758
28955
29061
28859
29289
28963
28991
29183
28891
29305
29045
29005
29261
29009
29245
29287
29328
28963
29195
29094
29370
29156
29234
29025
29003
29263
29005
29192
29219
29221
29092
29258
29455
29249
29210
29445
29358
29148
29179
29475
29299
29032
29342
29457
29300
29418
29311
29302
29423
29533
29297
29075
29507
29580
29610
29238
29487
29451
29172
29238
29209
29587
29532
29550
29335
29259
29317
29489
29200
29407
29631
29244
29518
29698
29461
29677
29384
29538
29447
29132
29183
28983
29111
28938
29016
28736
28696
28637
28739
28515
28311
28451
28373
28404
28427
28372
28172
28523
28481
28367
28292
28626
28184
28084
28356
28114
28212
28598
28154
28437
28251
28570
28195
28221
28355
28392
28492
28389
28463
28345
28536
28724
28714
28425
28745
28603
28449
28504
28783
28807
28585
28714
28848
28777
28763
28591
28811
28674
28730
29061
28873
28950
28650
28779
28610
28759
29004
28724
28809
28753
28917
28719
28679
28745
28963
29022
28932
28791
29243
29171
28707
29053
28914
28948
29125
28983
29193
29006
28962
28928
28987
29065
29226
29285
28943
28968
29230
29044
28917
29129
29365
29084
28940
29225
29275
29164
29109
29148
29243
29220
29207
29467
29226
29037
29350
29130
29310
29541
29211
29093
29184
29425
29344
29026
29423
29210
29508
29458
29545
29374
29283
29432
29159
29145
29153
29365
29330
29452
29132
29484
29328
29122
29322
29506
29298
29165
29330
29207
29493
29251
29391
29323
29402
29321
29286
29500
29060
29375
29255
29169
28829
28953
28657
28979
28549
28563
28782
28604
28715
28290
28191
28453
28168
28329
28416
28181
28333
28447
28417
28466
28231
28245
28162
28291
28476
28063
28373
28386
28483
28270
28348
28400
28287
28221
28088
28376
28090
28435
28623
28210
28339
28494
28285
28416
28525
28705
28591
28366
28703
28440
28675
28537
28517
28667
28765
28782
28724
28561
28667
28843
28671
28692
28741
28606
28758
28762
28731
28543
28869
28687
28867
28815
28748
28751
28843
28786
28835
28862
28832
28895
28867
28961
28911
28892
28867
28933
28901
28963
29075
29005
29120
29022
28986
29170
28777
28938
28812
28964
28834
29057
29102
29014
28908
28913
28876
28929
29175
28933
29077
29081
29350
29231
29293
28931
29055
29376
29107
29206
29247
29178
29270
29248
28981
29238
29120
29223
29431
29316
29370
29129
29178
29286
29092
29343
29142
29152
29401
29473
29153
29111
29348
29218
29448
29119
29181
29002
29157
29382
29512
29371
29088
29398
29557
29285
29148
29160
29152
28929
29143
28785
28594
28738
28497
28646
28469
28549
28304
28107
28287
28302
28202
28418
28340
28095
28104
28239
28102
28259
28351
28159
28213
28247
28170
28299
28354
28081
28031
28000
28147
28307
28187
28185
28044
28372
28433
28333
28080
28198
28232
28222
28571
28598
28362
28334
28463
28495
28602
28593
28522
28546
28697
28621
28845
28711
28657
28673
28750
28663
28608
28659
28706
28650
28680
28640
28653
28819
28843
28564
28721
28902
28961
28737
28703
28771
28776
29034
28765
28627
28763
28871
28749
28892
28870
28887
28807
29048
28823
29134
29002
28886
29240
28950
29192
29061
28921
28928
29055
28968
29207
29366
29217
29378
29057
29438
29269
29352
29069
29304
29289
29124
29269
29300
29196
29205
29312
29226
29014
29367
29233
29286
29217
29147
29060
29151
29199
29140
29122
29143
29139
29397
29150
29507
29472
29434
29204
29512
29176
29343
29200
29130
29230
29268
29497
29390
29246
29476
29103
29354
29546
29310
29174
29498
29578
29535
29249
29474
29318
29151
29245
29144
29181
28785
28991
29024
28867
28676
28683
28628
28409
28317
28404
28466
28313
28278
28100
28412
28482
28443
28132
28411
28009
28351
28216
28087
28301
28374
28443
28456
28385
28309
28298
28511
28301
28145
28363
28566
28178
28112
28185
28337
28420
28366
28586
28391
28742
28554
28764
28524
28724
28716
28522
28755
28606
28604
28744
28653
28691
28829
28645
28599
28672
28953
28569
28510
28597
28597
28580
29009
28950
28973
28859
28679
28709
29013
28935
28989
28706
28843
28774
28746
29123
29052
28699
28871
28690
28792
29147
29204
28985
29190
28979
28846
29003
28837
29044
29112
29013
29166
29093
29149
28967
29050
29122
29074
28996
29171
28923
29085
29328
29232
29423
29073
29441
29038
29395
29223
29170
29230
29467
29097
29415
29401
29160
29255
29148
29250
29286
29363
29369
29299
29379
29159
29356
29267
29470
29260
29253
29319
29426
29342
29413
29305
29353
29367
29383
29344
29357
29314
29485
29353
29413
29247
29358
29367
29363
29685
29429
29119
29313
29032
29088
28930
29170
28993
28638
28615
28570
28418
28364
28567
28570
28249
28210
28498
28322
28371
28406
28410
28370
28473
28336
28277
28456
28443
28205
28325
28420
28608
28207
28468
28203
28297
28464
28358
28214
28338
28446
28346
28529
28433
28439
28396
28641
28522
28409
28516
28660
28554
28757
28550
28726
28422
28577
28666
28846
28695
28811
28910
28617
28399
28487
28660
28555
28593
28548
28715
28577
28794
28483
28661
28973
28802
28561
28676
28890
28915
28939
28722
28716
28968
29010
29057
28947
28776
28993
29171
28916
28748
28830
29193
28953
29184
28870
28963
28884
29132
28853
29056
29274
29080
28835
28982
28885
29129
29209
29206
29223
29252
29163
28956
29281
28862
29147
29327
29201
28915
29054
29436
29195
29055
29203
29415
29118
29248
29384
28967
29186
29372
29045
29319
29125
29301
29057
29106
29488
29399
29279
29235
29167
29349
29123
29524
29339
29600
29356
29528
29195
29343
29302
29357
29389
29212
29370
29514
29187
29404
29159
29370
29367
29276
29529
29266
28964
29126
28865
29127
28853
28568
28895
28582
28517
28572
28480
28430
28334
28048
28184
28347
28333
28003
28324
28047
28313
28036
28063
28065
28425
28096
28375
28172
28233
28124
28007
28317
28401
28191
28417
28316
27982
28422
28126
28124
28086
28074
28496
28034
28489
28575
28435
28776
28454
28468
28433
28630
28585
28360
28766
28439
28781
28698
28563
28515
28595
28771
28765
28549
28909
28913
28919
28869
28889
28547
28674
28507
28805
28699
28786
28551
28839
28876
28882
29003
28988
28933
28892
28917
29048
28926
28794
29065
28787
29056
29247
29054
28926
28990
29081
29175
29255
28956
28906
29269
29258
29099
29191
29247
29302
29181
29356
29371
29165
28928
29185
29084
29266
29352
29122
29232
29470
29476
29024
29233
29045
29315
29011
29422
29070
29222
29104
29313
29141
29418
29305
29426
29324
29203
29401
29206
29278
29097
29342
29565
29402
29451
29216
29102
29189
29459
29240
29224
29388
29362
29298
29502
29151
29465
29550
29527
29400
29269
29683
29288
29230
29461
29244
29561
29328
29650
29511
29494
29197
29336
29228
28879
28959
28951
28910
28557
28815
28585
28665
28325
28543
28395
28437
28409
28366
28374
28362
28371
28348
28343
28332
28310
28224
28321
28594
28221
28309
28477
28350
28489
28383
28396
28371
28220
28338
28397
28244
28317
28369
28379
28647
28485
28565
28444
28709
28757
28588
28784
28931
28811
28708
28843
28958
28814
28803
28644
28779
28818
28708
28862
28795
28841
28782
28952
28903
28621
28716
28720
28522
28787
28952
28778
28722
28665
28827
28925
28756
28712
28683
28825
29107
28961
29094
29141
29039
28754
29010
29030
29108
29211
28943
28789
28975
29208
29108
29258
29240
29203
28944
29055
29169
29196
28958
28959
28935
29255
28932
29203
29016
29184
28992
29047
29034
29389
29250
29035
29103
29045
29068
29048
29080
29103
29056
29322
29080
29316
29212
29038
29364
29251
29086
29159
29050
29188
29467
29291
29271
29302
29563
29162
29546
29232
29335
29537
29489
29500
29332
29103
29377
29445
29380
29502
29432
29233
29165
29223
29174
29006
29162
28856
28795
29107
28943
28817
28807
28478
28413
28499
28219
28263
28206
28507
28517
28471
28195
28224
28156
28130
28361
28280
28472
28360
28197
28211
28454
28211
28176
28565
28472
28140
28620
28260
28409
28390
28589
28483
28696
28400
28756
28565
28554
28429
28524
28761
28679
28613
28628
28525
28729
28902
28727
28969
28775
28544
28746
28926
28869
28938
28926
28965
28625
28782
28766
28830
28908
28807
29060
28829
28648
28835
28626
29043
28957
28825
28681
28789
28957
28807
28869
28844
28982
28772
28911
28786
28917
28969
28943
28975
28907
29101
29056
29223
29006
29325
28989
29064
29081
29329
29022
28972
29383
29053
28954
29292
29195
29262
29190
29337
29236
29378
29225
29454
29212
29477
29201
29103
29286
29484
29203
29257
29263
29202
29080
29379
29197
29422
29190
29255
29246
29152
29341
29133
29364
29438
29378
29428
29055
29407
29335
29341
29438
29224
29431
29206
29442
29590
29309
29440
29378
29414
29554
29463
29485
29394
29553
29389
29424
29306
29372
29348
29319
29319
29512
29407
29408
29039
28967
29138
29073
29055
28619
28817
28472
28438
28529
28305
28567
28526
28367
28143
28226
28501
28185
28189
28339
28301
28169
28344
28530
28305
28342
28371
28285
28452
28229
28374
28429
28297
28276
28089
28327
28220
28371
28275
28476
28550
28422
28389
28425
28339
28493
28638
28549
28541
28803
28624
28656
28587
28890
28574
28452
28740
28866
28558
28900
28843
28880
28706
28659
28650
28896
28521
28697
28825
28649
28574
28644
28932
28986
28958
28970
28964
28743
28778
28993
28733
29018
28990
29150
28854
28992
28824
29184
28832
29262
28994
28849
29121
29180
28943
28974
29233
29041
29147
29106
29040
29088
29243
29117
29118
29156
29133
29162
28981
29284
28995
28921
29137
28954
29213
29212
29024
29293
29028
29038
29390
29042
29418
28981
29106
29107
29322
29114
29520
29310
28994
29115
29534
29401
29073
29074
29467
29272
29473
29334
29246
29461
29185
29225
29235
29045
29180
29550
29358
29526
29491
29219
29190
29277
29438
29416
29142
29266
29125
29448
29252
29138
28944
29109
29250
29001
28935
28652
28675
28385
28465
28489
28463
28282
28181
28276
28146
28104
28238
28455
28049
28367
28047
28000
28085
28141
27986
28137
28232
28076
28258
28042
28044
28037
27953
28009
28318
28282
28069
28201
28268
28442
28215
28490
28324
28315
28504
28480
28280
28639
28383
28264
28444
28597
28477
28678
28604
28649
28533
28657
28586
28584
28755
28720
28486
28606
28738
28743
28453
28642
28504
28883
28479
28668
28860
28534
28686
28873
28736
28950
28736
29091
28954
28748
28871
28842
29055
28981
29095
28952
28931
28956
28913
29019
28776
29121
28828
28968
29118
28988
29032
29012
29224
29191
29247
29062
29197
29000
29272
29150
29035
29272
29087
29403
29045
29367
29013
29161
29096
29406
28975
29196
29327
29307
29020
29387
29110
29417
29448
29420
29393
29107
29021
29035
29287
29150
29358
29202
29487
29081
29500
29424
29246
29575
29367
29535
29250
29588
29569
29353
29627
29397
29420
29396
29428
29303
29107
29361
29462
29385
29173
29102
29139
28864
29017
28707
28651
28801
28709
28271
28483
28287
28299
28370
28376
28207
28173
28381
28244
28366
28013
28019
28330
28053
28366
28156
28129
28155
28122
28058
28035
28024
28104
28108
28105
28279
28102
28003
28153
28113
28165
28088
28259
28250
28207
28021
28473
28324
28306
28418
28540
28347
28401
28562
28766
28537
28669
28462
28748
28482
28374
28714
28702
28476
28428
28594
28700
28636
28671
28861
28599
28782
28800
28756
28610
28892
28484
28795
28565
28568
28760
28575
28651
28732
28506
28755
28669
28782
28784
28766
28943
28882
28800
28776
28735
28598
28694
28760
28880
29032
28708
28733
29007
28710
29040
28886
29109
29070
29193
28904
29110
28857
28945
29030
28948
28954
29272
29030
28899
28972
29153
29293
29219
28958
29349
29102
29179
28968
29168
28979
29297
29198
29075
28931
29286
29127
29073
29320
29150
29054
29340
29258
29245
29219
29411
29236
29323
29281
29023
29232
29225
29243
29502
29166
29517
29150
29222
29083
29304
29066
29443
29572
29314
29044
29454
29507
29199
29292
29241
28914
29084
29267
29213
29060
28802
28728
28682
28551
28408
28365
28195
28183
28044
28431
28125
28345
28342
28083
28247
28388
28195
27994
28289
27986
28263
28165
28339
28051
28227
28282
28336
28081
27978
28422
28189
28200
28401
28327
28586
28399
28433
28243
28405
28393
28729
28651
28649
28400
28601
28610
28509
28587
28753
28485
28684
28793
28804
28741
28530
28505
28530
28443
28857
28756
28500
28720
29004
28724
28922
28646
28855
28700
28685
28878
28729
28835
28886
28725
28888
28991
28952
29059
28918
28761
28914
28741
29026
28737
28911
28870
29017
28804
28902
28871
29126
29107
29309
29129
28821
29151
29027
29207
29056
29128
28881
29189
28871
29154
28919
29317
28944
29002
29315
29293
29131
29334
29321
29404
29079
29416
29390
29364
29156
29331
29073
29287
29082
29300
29406
29313
29055
29253
29081
29460
29569
29484
29290
29404
29377
29186
29420
29588
29422
29412
29456
29547
29368
29531
29266
29278
29297
29251
29430
29441
29235
29216
29201
29187
28890
28891
28706
28642
28557
28690
28774
28368
28327
28294
28498
28505
28231
28137
28297
28009
28176
27974
28293
28139
28322
28045
28132
28090
28150
27991
28313
28133
28053
28254
27941
28112
27976
28179
28290
28234
28176
28218
28392
28472
28322
28255
28328
28482
28554
28296
28459
28787
28743
28670
28621
28788
28701
28567
28769
28428
28600
28557
28594
28525
28575
28785
28710
28776
28616
28742
28677
28867
28563
28870
28643
28834
28879
28743
28840
28948
28839
28953
28815
28694
28757
29041
28961
28763
28979
28978
28990
28862
28791
28880
29133
28866
28922
29034
28679
28926
28738
28809
29232
29022
29181
29077
28880
29003
28933
28938
28901
28997
28934
29194
29009
29150
28924
29082
29254
29021
29316
28972
29321
29045
29006
29217
28974
29117
29024
29134
29130
29090
29166
29214
29287
29129
29159
29142
29252
29367
29231
29193
29289
29018
29336
29077
29253
29385
29348
29113
29159
29141
28929
29013
28802
28360
28626
28360
28345
28285
28415
28311
28246
28196
28443
28316
28251
28139
28081
27960
28184
28276
28076
28145
28082
28324
28129
27953
28128
28278
28108
28128
28078
28199
27972
28207
28303
28238
28063
28312
28128
28512
28617
28541
28225
28459
28748
28341
28596
28556
28491
28416
28726
28503
28467
28700
28653
28500
28494
28771
28755
28468
28555
28757
28576
28683
28714
28717
28773
28753
28634
28876
28985
28860
29044
28840
28829
28910
28841
28899
28892
28875
28972
28839
28981
28941
28870
28708
28934
29207
29168
29223
28870
28984
29265
29009
29005
29145
28918
29254
29123
29112
28881
28998
29194
29288
29305
29274
29219
29116
29007
29029
29178
29374
29307
29379
29400
29111
29429
29337
29103
29108
29392
29120
29358
29237
29333
29330
29512
29327
29576
29373
29499
29375
29603
29484
29573
29360
29407
29359
29411
29373
29425
29269
29502
29352
29481
29239
29293
29564
29455
29387
29189
29403
29034
29080
28787
28482
28378
28496
28231
28534
28471
28365
28485
28201
28478
28377
28416
28406
28096
28226
28504
28072
28045
28151
28352
28066
28313
28299
28340
28387
28467
28179
28309
28310
28423
28384
28346
28495
28751
28636
28421
28700
28536
28637
28909
28961
28544
28916
28583
28849
28787
28956
28781
28951
28810
29034
29000
29063
28760
28904
28990
28949
28972
28708
29033
28802
29096
28974
29126
28866
28670
28934
28744
28802
28740
29058
28933
28990
28912
29098
28837
29113
29198
29187
29153
29026
28892
29193
28869
29269
29200
28985
29251
29206
29018
29115
29303
29093
29030
29163
29270
29130
28932
29203
29184
29077
29422
29021
28941
29308
29224
29234
28950
28992
29344
29429
29208
29036
29311
28925
29114
29496
29109
29453
29169
29152
29452
29129
29370
29266
29222
29196
29532
29196
29320
29245
29460
29449
29111
29189
29114
29363
28979
29143
29098
28847
28908
28695
28854
28414
28725
28425
28350
28389
28270
28083
28394
28020
27955
28211
28224
28093
28271
28250
27905
28282
27981
28101
28044
28103
28072
28043
27961
28115
28017
27827
28200
28362
28185
28256
28036
28088
28247
28202
28190
28202
28280
28540
28176
28345
28125
28406
28612
28522
28581
28549
28279
28618
28541
28381
28389
28745
28339
28792
28728
28622
28645
28493
28576
28856
28737
28814
28578
28464
28842
28759
28823
28596
28920
28849
28887
28728
28788
28812
28668
28902
28814
29021
28919
28811
29092
29053
29114
29092
28998
29029
28880
28937
28925
28824
28954
29071
29156
29025
29102
29077
28998
29275
28934
29181
28917
29218
28874
28971
28873
29165
29002
29277
29216
29201
29121
29320
29074
29169
29091
29034
29177
29227
29322
29345
29231
29266
29264
29414
29272
29243
29142
29363
29387
29419
29329
29299
29344
29401
29109
29232
29428
29438
29305
29159
29493
29405
29363
29387
29502
29437
29347
29471
29344
29322
28969
29238
29038
28644
28658
28906
28691
28297
28505
28491
28221
28349
28472
28270
28436
28228
28427
28229
28024
28136
27971
28428
28070
28416
28167
28395
28090
28088
28403
28320
28297
28348
28421
28382
28326
28232
28248
28582
28473
28266
28580
28409
28487
28521
28325
28540
28521
28549
28657
28622
28453
28564
28621
28568
28664
28654
28486
28446
28728
28731
28614
28835
28615
28367
28681
28610
28538
28542
28852
28769
28563
28871
28639
28990
28969
28835
29039
29033
28816
29076
29016
28876
28986
28913
29235
28939
29178
28901
29139
29236
28959
28904
29068
29242
29097
29231
29066
29014
29036
29129
29158
29027
29124
29027
29289
28959
29340
29192
28950
29103
29391
29273
29033
29296
29374
28978
29215
29229
29197
29060
28998
29338
29077
29339
29101
29341
29198
29035
29198
29060
29187
29126
29284
29227
29120
29259
29506
29301
29501
29240
29515
29200
29140
29383
29369
29358
29173
29471
29216
29456
29329
29182
29387
29214
29295
29294
29326
29432
29260
29136
29353
29253
29129
29237
28883
28769
28840
28711
28631
28480
28445
28419
28580
28304
28495
28274
28454
28173
28020
28146
28362
28019
28320
28334
28314
28269
28156
28183
28136
28310
28332
28362
28341
28221
28212
28176
28108
28382
28533
28313
28518
28400
28497
28474
28646
28509
28413
28616
28583
28493
28614
28661
28871
28615
28678
28819
28827
28897
28822
28678
28862
28612
28938
28599
28760
28732
28997
28617
28959
28723
28717
28752
28772
29000
28868
28872
28669
29044
28696
28929
28882
28920
28862
29187
28985
28941
28956
28825
29177
28912
29102
28958
29035
28905
28980
29099
29240
29187
29358
29137
29249
29167
29200
29217
29436
29142
29348
29196
29372
29314
29056
29133
29166
29170
29339
29353
29341
29283
29139
29196
29156
29486
29223
29088
29388
29392
29244
29464
29229
29473
29189
29386
29192
29443
29324
29449
29223
29492
29603
29469
29515
29552
29562
29440
29441
29663
29500
29700
29416
29201
29392
29528
29385
29279
29568
29429
29442
29375
29304
29468
29319
29403
29560
29544
29230
29435
29514
29499
29297
29629
29496
29545
29268
29606
29316
29603
29288
29089
29130
29256
29023
28706
28891
28774
28641
28838
28760
28567
28651
28505
28764
28548
28514
28518
28425
28653
28695
28566
28802
28675
28486
28631
28477
28782
28689
28703
28739
28762
28546
28866
28883
28672
28688
28694
28736
28737
28691
29094
29036
28863
29090
28838
28731
28899
29018
28931
29118
28914
28892
28971
28928
28923
28972
28817
28974
29155
29042
29074
29023
29231
29091
28820
28967
29014
28915
29157
28869
28826
29225
29222
28996
29043
29107
28967
29061
29028
29092
29121
29357
29175
29359
29023
29068
29132
29240
29334
29114
29096
29226
29205
29291
29179
29135
29053
29360
29401
29387
29397
29274
29235
29394
29145
29364
29255
29437
29231
29227
29422
29576
29250
29423
29227
29534
29443
29252
29225
29353
29142
29304
29374
29357
29528
29412
29511
29341
29611
29511
29395
29308
29190
29229
29515
29202
29232
29386
29312
29444
29417
29415
29549
29353
29538
29170
29582
29614
29603
29391
29263
29615
29406
29312
29608
29507
29278
29398
29491
29626
29377
29335
29343
29409
29336
29483
29383
29054
29255
28909
29107
29170
28847
28806
28892
28594
28814
28561
28497
28740
28510
28481
28371
28577
28395
28480
28689
28581
28861
28748
28659
28544
28774
28794
28837
28822
28854
28629
28570
28441
28678
28945
28587
28754
28935
28837
28847
29086
28801
29097
28807
28785
28735
28898
29096
28964
29164
28942
28956
29051
28908
28967
29104
29175
29279
29003
28996
28896
29187
29339
29171
28879
29136
29348
29134
28966
29200
29108
29191
28980
29106
29306
29332
29104
28991
29201
28986
29229
29461
29183
29384
29191
29166
29204
29465
29478
29436
29463
29374
29305
29295
29222
29330
29326
29471
29451
29405
29430
29315
29522
29235
29279
29365
29483
29451
29454
29325
29383
29376
29555
29381
29350
29689
29276
29213
29288
29668
29614
29569
29428
29286
29342
29633
29504
29515
29456
29526
29331
29618
29687
29428
29693
29388
29366
29292
29521
29330
29476
29703
29486
29567
29448
29353
29571
29713
29563
29731
29579
29352
29568
29493
29478
29591
29381
29528
29424
29638
29404
29648
29713
29493
29777
29576
29511
29699
29525
29628
29477
29593
29396
29563
29220
29540
29154
29182
29194
28986
29042
28913
28836
28802
28635
28709
28846
28696
28916
28820
28969
28855
28957
28895
28933
28918
28714
28729
28739
28690
28708
28555
28905
28968
28809
28921
28794
29082
29057
29062
28787
29208
28829
28726
28835
28876
29202
28946
29198
29141
28922
29004
29336
29125
29022
29296
29200
29289
28994
28973
29252
28981
29190
28947
29194
28995
29239
29206
29211
29349
29079
29407
29273
29405
29327
29431
29225
29361
29099
29212
29068
29506
29374
29455
29454
29349
29532
29274
29098
29453
29409
29270
29420
29218
29405
29631
29370
29196
29385
29411
29414
29436
29559
29352
29440
29564
29690
29454
29557
29386
29511
29322
29725
29553
29267
29596
29630
29395
29282
29442
29320
29716
29339
29632
29388
29271
29540
29268
29637
29660
29641
29636
29708
29424
29388
29637
29697
29678
29401
29426
29780
29464
29282
29655
29259
29669
29728
29527
29637
29415
29547
29468
29616
29785
29552
29520
29567
29428
29646
29713
29556
29782
29541
29291
29644
29412
29443
29199
29476
29170
29224
29303
29283
29044
28950
28847
28895
28817
28758
28770
28755
28708
28803
28653
28426
28620
28473
28796
28665
28414
28609
28887
28629
28577
28641
28652
28679
28633
28678
28604
28572
28663
28713
28713
28701
28736
28882
28927
29051
28963
28614
28869
28834
29103
28956
29065
28910
28797
29083
29030
29033
29032
29046
29064
28884
28988
28853
28916
29197
28905
28859
28929
29011
29180
28963
28944
28966
28946
29281
28898
28876
28898
29109
28987
29238
29139
29127
29261
29081
29092
28995
29084
29228
29230
29244
29359
29299
29218
29260
29211
29393
29193
29169
29310
29226
29121
29140
29174
29366
29350
29407
29421
29261
29334
29391
29547
29211
29256
29188
29367
29494
29179
29431
29350
29468
29581
29388
29235
29556
29474
29538
29333
29636
29393
29540
29323
29146
29382
29310
29321
29497
29329
29535
29452
29333
29452
29475
29537
29594
29473
29443
29456
29358
29475
29607
29554
29304
29400
29408
29226
29428
29408
29526
29389
29288
29214
29279
29124
28972
28980
28863
28837
28834
28750
28702
28737
28843
28439
28659
28781
28746
28893
28640
28541
28601
28389
28492
28819
28696
28631
28745
28406
28499
28752
28572
28508
28495
28660
28882
28846
29002
28832
28634
28731
28590
28938
29051
29101
29033
28825
28856
29033
28970
29152
28966
28714
29028
28815
28879
28799
28879
29053
28827
29077
28698
29064
28817
28972
29089
28972
29190
28851
29015
29008
28849
29074
28772
28993
29061
29031
28892
29266
28977
29132
29052
28913
28989
28977
29062
28985
28927
29039
28899
29169
29043
28877
29077
29052
28992
29247
28853
29029
29374
29238
28916
29231
29204
28979
29118
28987
29292
29173
29037
29163
29081
29293
29309
28968
29286
29100
29062
29375
29155
29013
29312
29271
29013
29172
29079
29159
29386
29275
29072
29324
29159
29173
29469
29213
29033
29103
29343
29086
29164
29505
29376
29168
29445
29205
29178
29619
29204
29475
29306
29288
29411
29278
29375
29193
29037
29008
29071
28832
28810
28589
28768
28590
28352
28499
28319
28173
28288
28299
28279
28380
28283
28347
28300
28374
28078
28074
28158
28086
28213
28342
27904
28352
27912
28010
27880
28280
28004
28156
28024
28236
28273
28202
28058
28340
28284
28470
28333
28496
28464
28240
28493
28766
28604
28554
28656
28766
28513
28576
28597
28555
28488
28623
28614
28532
28836
28556
28894
28574
28907
28647
28414
28518
28880
28567
28561
28682
28577
28720
28882
28558
28826
28988
28767
29073
28837
28613
28807
29120
28974
28910
28910
28796
28669
28821
28683
29019
29179
28977
28769
28948
28930
29127
28943
28930
28777
29064
29288
29130
28840
29103
28895
28916
29197
28943
28977
28866
29149
29319
29119
29173
29057
29320
29110
29168
29175
29120
29295
29179
29135
29150
29333
29222
29047
29314
29399
29199
28962
29324
29363
29289
29273
29440
29201
29048
29121
29060
29289
29167
29428
29165
29324
29254
29082
29071
29262
29195
29015
29399
29008
29242
29022
29033
28835
28673
28778
28622
28420
28498
28526
28210
28144
28442
28182
28300
28043
28056
27980
27804
28219
27968
28177
28269
28033
27904
27924
28050
27964
28085
28153
27994
28005
28047
28000
28083
27886
27939
28276
28203
28335
28067
28002
27962
28070
27985
28271
28473
28244
28256
28278
28600
28347
28298
28549
28245
28195
28472
28435
28328
28668
28538
28712
28521
28348
28381
28364
28569
28407
28502
28266
28617
28743
28485
28597
28330
28618
28423
28677
28597
28796
28469
28514
28862
28835
28691
28888
28750
28596
28695
29005
28766
28657
28712
28917
28828
29043
28946
28818
28885
28941
28866
28919
28943
28935
29148
28967
29187
28990
28975
29024
29134
29046
29083
29158
28913
28890
28895
29030
29296
29213
29279
28922
29061
29261
29090
29320
29032
29126
29044
29049
28953
29295
29221
28976
29140
29198
29377
29192
29331
29272
29211
29157
28941
29076
28988
29355
29089
29250
29315
28981
29211
29095
29180
29376
29189
29401
29283
29081
29152
29160
29115
29043
29032
29181
28929
29034
28634
28664
28647
28633
28640
28369
28496
28289
28280
28073
28345
28228
28324
27925
28242
28202
28030
28271
28091
28305
27879
28271
28054
28073
28125
27789
27887
27868
27852
27975
28167
27994
28112
28034
28198
28226
28386
28030
28026
28106
28104
28453
28530
28225
28355
28368
28596
28578
28491
28715
28463
28334
28482
28394
28479
28255
28651
28451
28351
28754
28497
28596
28566
28435
28548
28575
28561
28603
28626
28649
28572
28597
28737
28673
28756
28814
28764
28863
28725
28875
28794
28809
28767
28861
28755
28935
28850
28838
28886
28727
28917
28829
28955
28826
28631
28881
28892
28907
28732
28896
28744
28897
28908
29017
29003
29047
29138
28705
28885
29138
28976
29161
28959
29245
28959
28921
28916
29049
29018
29033
29007
29023
29027
29021
29141
29050
29083
29057
29093
29056
29086
29068
29129
29186
29106
29267
29140
29305
29150
29147
29169
29103
29162
29225
29198
29145
29211
29236
29177
29244
29217
29203
29259
29230
29246
29281
29281
29230
29420
29148
28928
29206
28846
29120
29125
28864
28699
28633
28434
28433
28422
28276
28279
28206
28119
28150
28155
27994
27969
27919
28161
27936
28002
28021
28037
28075
27819
28053
28242
28062
27972
28149
28187
27967
27902
27950
28064
28297
28268
28274
28144
28205
28110
28400
28305
28562
28352
28235
28425
28339
28286
28573
28338
28341
28685
28513
28581
28578
28575
28484
28589
28539
28384
28559
28680
28619
28364
28629
28387
28717
28714
28689
28481
28845
28573
28770
28530
28924
28655
28532
28725
28690
28872
28772
28760
28619
28882
28947
28802
28946
28893
28857
28673
28847
28889
28945
28993
28901
28899
28891
28966
28836
28964
29180
29023
28752
29006
28897
28934
28974
29201
29164
28941
28889
29229
28937
29292
29307
29034
29110
29152
29032
28938
29242
29416
29180
29004
29367
29321
29219
29071
29032
29094
29217
29138
29453
29310
29254
29123
29396
29147
29170
29212
29102
29119
29225
29191
29171
29549
29446
29244
29412
29486
29401
29516
29456
29359
29559
29456
29553
29379
29468
29400
29246
29460
29512
29427
29332
29379
29550
29194
29333
29234
29375
29161
28961
29145
28913
28680
28845
28579
28576
28765
28474
28577
28507
28578
28303
28192
28377
28115
28471
28179
28229
28543
28276
28358
28326
28369
28495
28441
28252
28285
28455
28524
28612
28426
28671
28527
28435
28715
28392
28723
28542
28645
28597
28525
28751
28739
28744
28767
28694
28849
28944
28845
28692
28815
28992
28742
28651
28801
28621
28804
28745
28919
29069
28995
28791
29049
29143
28967
28782
28898
29039
28712
28875
28804
29041
28788
28861
28915
29123
29242
29019
28929
29289
29115
29353
29084
29301
29130
29053
29123
29331
29243
28899
29225
29025
28974
29144
29096
29146
28959
29215
29201
29176
29211
29279
29232
29316
29087
29305
29158
29089
29269
29342
29251
29375
29243
28993
29278
29441
29263
29034
29292
29319
29228
29279
29199
29295
29089
29085
29429
29428
29195
29245
29367
29162
29337
29350
29407
29458
29258
29504
29255
29436
29254
29488
29366
29229
29298
29093
29477
29268
29325
29262
29262
29434
29344
29355
29435
29273
29107
29304
29434
29306
28894
29010
29039
28821
29023
28563
28424
28448
28697
28569
28463
28643
28484
28208
28458
28550
28287
28293
28453
28382
28176
28535
28191
28196
28208
28111
28425
28538
28250
28466
28440
28492
28312
28310
28547
28454
28606
28452
28417
28414
28546
28801
28550
28722
28744
28901
28626
28483
28866
28696
28867
28650
28915
28602
28912
28881
28626
28832
28621
28814
28776
28856
28769
28836
28938
28887
29081
28722
29064
28821
28771
28982
29069
28926
28866
28813
28932
28973
28986
29077
28922
28916
29089
28975
29169
29242
28868
28837
28834
28949
29282
29202
28812
29191
29156
29047
28882
29295
29294
29273
29269
29339
29265
29404
29082
29209
29339
29295
29076
29373
29383
29526
29398
29087
29118
29437
29366
29254
29328
29260
29540
29359
29544
29230
29507
29318
29370
29308
29343
29342
29138
29457
29532
29283
29562
29537
29479
29636
29466
29599
29358
29535
29397
29228
29389
29618
29303
29449
29345
29492
29309
29391
29288
29506
29725
29595
29396
29484
29431
29549
29336
29640
29610
29423
29181
29633
29355
29473
29292
29382
29047
29192
28967
28777
28710
28834
28516
28716
28520
28748
28305
28281
28501
28253
28346
28355
28330
28430
28223
28396
28250
28245
28124
28286
28394
28422
28221
28433
28216
28129
28273
28115
28320
28394
28378
28399
28454
28468
28510
28490
28523
28500
28718
28584
28418
28603
28416
28479
28893
28754
28833
28505
28696
28695
28689
28737
28469
28717
28579
28616
28802
28515
28598
28911
28868
28881
28801
28534
28613
28959
28943
28877
28600
28850
28895
28830
28635
28865
28945
28922
28963
28909
28952
29035
28940
29066
29039
29193
29054
29023
28985
28814
29003
29166
28955
29306
29217
29041
29206
29179
29159
29203
28905
28980
29144
29046
29384
29032
29183
29229
29235
29042
29151
29079
29269
29327
29208
29392
29010
29320
29277
29468
29115
29036
29376
29214
29352
29460
29244
29205
29344
29173
29444
29278
29062
29306
29048
29231
29103
29268
29111
29316
29168
29429
29420
29455
29152
29447
29455
29476
29285
29577
29366
29136
29279
29425
29510
29241
29545
29193
29358
29555
29313
29383
29453
29138
29244
29018
29229
28947
29003
28759
28889
28758
28584
28464
28457
28626
28438
28171
28368
28429
28350
28189
28383
28458
28344
28175
28146
28470
28414
28160
28458
28233
28501
28392
28155
28369
28085
28446
28281
28280
28194
28504
28214
28409
28380
28313
28523
28523
28632
28430
28751
28449
28610
28844
28721
28463
28798
28480
28552
28575
28740
28740
28885
28687
28863
28742
28581
28768
28742
28742
28688
28889
28725
28706
28795
28858
28714
28757
28752
28626
28845
28696
28957
28751
28937
28731
29073
28947
28939
29024
28916
28890
28892
28912
28791
29018
28804
28985
28859
29041
29110
29159
29111
29147
28972
28960
28872
29183
29315
29069
28944
29173
29014
29017
29264
29012
29066
29154
29333
29387
29316
29226
29154
29208
29382
29198
29014
29195
29246
29248
29058
29239
29403
29306
29355
29433
29135
29415
29191
29381
29157
29480
29258
29463
29205
29235
29146
29063
29333
29430
29207
29192
29395
29135
29306
29135
29180
29417
29293
29226
29357
29310
29204
29495
29565
29489
29352
29254
