43785
43770
43769
43819
43882
43975
44021
44135
44300
44338
44492
44697
44780
44881
44984
45067
45166
45213
45296
45326
45333
45418
45424
45420
45486
45473
45512
45554
45557
45639
45660
45633
45700
45768
45853
45854
45835
45933
45975
45991
46050
46026
46088
46169
46180
46238
46281
46331
46397
46351
46381
46466
46528
46598
46594
46627
46720
46705
46778
46850
46810
46853
46936
46992
47039
47031
47104
47129
47093
47162
47204
47227
47308
47316
47361
47397
47421
47515
47532
47551
47653
47646
47649
47670
47689
47752
47757
47806
47900
47864
47928
48010
47966
47994
48055
48070
48082
48080
48166
48180
48099
48065
47940
47761
47610
47343
47093
46844
46571
46334
46001
45667
45452
45199
44993
44793
44575
44433
44245
44073
43993
43845
43737
43634
43523
43505
43429
43320
43285
43200
43144
43081
43025
43044
42995
42963
43019
43002
43049
43101
43105
43207
43320
43430
43586
43705
43883
44006
44080
44278
44445
44535
44627
44655
44730
44788
44823
44899
44892
44900
44979
44962
45000
45037
45014
45089
45165
45194
45242
45266
45374
45454
45478
45552
45574
45623
45737
45734
45777
45866
45925
46000
46027
46098
46195
46154
46216
46326
46338
46383
46415
46431
46494
46529
46622
46668
46677
46766
46789
46814
46919
46934
46977
47014
47024
47111
47168
47227
47309
47286
47357
47453
47463
47513
47560
47612
47663
47627
47721
47831
47833
47888
47939
47971
48014
47999
48080
48121
48056
48047
47978
47846
47755
47602
47434
47167
46858
46654
46373
46040
45785
45497
45271
45045
44794
44617
44402
44211
44102
43909
43763
43649
43516
43434
43296
43175
43145
43045
42988
42934
42846
42813
42738
42685
42697
42634
42646
42684
42664
42681
42695
42791
42978
43071
43204
43346
43465
43668
43831
43952
44084
44139
44248
44344
44382
44455
44494
44576
44699
44677
44698
44766
44805
44884
44921
44976
45093
45109
45143
45186
45223
45309
45324
45367
45476
45461
45489
45561
45597
45644
45632
45671
45803
45835
45883
45928
45946
46023
46057
46109
46205
46194
46246
46297
46271
46310
46346
46382
46446
46417
46437
46462
46469
46534
46546
46583
46676
46649
46671
46698
46667
46717
46752
46756
46784
46748
46773
46797
46815
46913
46916
46880
46929
46913
46895
46848
46770
46712
46552
46389
46248
45923
45623
45386
45090
44770
44432
44195
44014
43680
43424
43275
43105
42949
42759
42610
42528
42374
42291
42199
42045
41984
41916
41820
41777
41694
41639
41568
41517
41542
41481
41435
41491
41468
41505
41594
41653
41739
41824
42002
42233
42321
42455
42616
42701
42805
42892
42988
43081
43079
43174
43278
43291
43341
43363
43391
43502
43572
43651
43693
43745
43877
43900
43911
44046
44109
44141
44161
44220
44352
44389
44429
44539
44551
44631
44740
44783
44861
44921
44997
45132
45193
45280
45331
45347
45441
45501
45574
45685
45688
45756
45834
45860
45975
46058
46087
46166
46215
46287
46306
46326
46429
46433
46438
46546
46546
46552
46579
46609
46686
46683
46705
46837
46883
46937
46985
47003
47058
47070
47117
47183
47079
47020
46983
46835
46678
46477
46248
46008
45660
45367
45072
44731
44460
44170
43900
43696
43423
43227
43061
42857
42708
42539
42401
42317
42132
42007
41927
41845
41829
41755
41664
41647
41611
41653
41643
41550
41571
41603
41604
41657
41693
41779
41848
41943
42137
42258
42383
42598
42743
42927
43105
43222
43381
43505
43630
43785
43823
43876
43943
44010
44111
44107
44090
44159
44184
44283
44375
44400
44492
44565
44621
44695
44700
44788
44879
44921
45034
45102
45143
45220
45234
45326
45437
45505
45598
45630
45694
45826
45849
45932
46048
46097
46146
46156
46225
46358
46367
46412
46455
46445
46507
46554
46583
46621
46579
46624
46661
46626
46663
46685
46686
46706
46661
46717
46768
46729
46737
46724
46722
46757
46701
46718
46753
46743
46776
46747
46727
46799
46806
46842
46875
46886
46939
46932
46954
47018
46935
46889
46834
46667
46526
46361
46145
45905
45575
45298
44975
44581
44299
44029
43751
43520
43241
43036
42842
42626
42472
42267
42083
41997
41846
41745
41675
41588
41532
41402
41278
41231
41135
41128
41121
41027
40992
40990
41020
41059
41018
41099
41226
41298
41431
41569
41724
41911
42034
42249
42458
42600
42820
43021
43183
43358
43452
43574
43694
43809
43944
43990
44089
44248
44268
44366
44504
44531
44589
44675
44775
44896
44944
45025
45060
45076
45203
45280
45328
45428
45460
45537
45584
45576
45642
45683
45721
45798
45807
45907
46008
46029
46103
46138
46153
46224
46231
46272
46304
46330
46398
46378
46394
46491
46464
46504
46601
46633
46666
46642
46648
46744
46753
46769
46794
46846
46960
46951
46928
47004
47010
47066
47112
47104
47171
47209
47238
47328
47358
47431
47477
47491
47576
47594
47608
47719
47746
47766
47779
47782
47789
47673
47577
47528
47304
47103
46919
46647
46418
46150
45826
45566
45311
45098
44843
44608
44490
44320
44172
44091
43895
43781
43738
43637
43543
43404
43284
43238
43134
43078
42988
42867
42876
42853
42763
42747
42766
42863
42910
42929
43055
43149
43256
43437
43537
43692
43871
44000
44126
44175
44257
44409
44441
44482
44510
44497
44555
44563
44547
44612
44633
44658
44647
44653
44730
44707
44696
44793
44814
44874
44923
44905
44958
45010
45070
45163
45165
45213
45267
45293
45364
45380
45431
45541
45529
45569
45630
45637
45710
45760
45802
45898
45938
46012
46041
46033
46116
46157
46189
46253
46217
46255
46319
46313
46327
46325
46381
46476
46438
46478
46556
46570
46639
46687
46725
46796
46790
46837
46883
46903
46961
46938
46946
47040
47034
47075
47126
47122
47182
47205
47191
47215
47169
47147
47099
46981
46813
46532
46320
46166
45802
45476
45242
44943
44644
44360
44147
43973
43690
43493
43367
43224
43124
42981
42846
42757
42597
42534
42491
42369
42296
42212
42135
42105
42023
42011
41987
41908
41892
41849
41833
41906
41919
41977
42043
42124
42314
42441
42526
42706
42880
43080
43216
43317
43497
43605
43684
43811
43845
43910
43980
44025
44122
44175
44252
44389
44430
44533
44670
44752
44828
44848
44927
45074
45115
45230
45350
45374
45447
45501
45533
45622
45679
45757
45772
45789
45930
45997
46022
46117
46149
46235
46332
46397
46503
46542
46605
46749
46777
46823
46889
46940
47018
47006
47020
47140
47157
47172
47187
47207
47297
47297
47284
47371
47399
47456
47497
47516
47598
47617
47656
47775
47790
47841
47894
47906
47985
48017
48037
48120
48127
48166
48188
48191
48269
48296
48331
48409
48371
48412
48494
48493
48486
48450
48461
48492
48340
48187
48043
47848
47680
47432
47152
46916
46600
46326
46048
45751
45551
45304
45037
44868
44669
44494
44274
44034
43905
43755
43604
43496
43313
43224
43143
42972
42860
42751
42638
42568
42455
42416
42382
42336
42371
42369
42401
42514
42552
42658
42791
42891
43061
43210
43357
43528
43628
43814
43987
44059
44167
44262
44358
44472
44493
44568
44621
44619
44703
44779
44832
44879
44852
44958
45096
45136
45198
45239
45296
45387
45400
45491
45576
45608
45727
45809
45848
45933
45984
46094
46166
46194
46304
46364
46427
46558
46574
46597
46635
46681
46774
46798
46869
47020
47027
47055
47130
47192
47283
47305
47346
47452
47466
47543
47605
47588
47648
47695
47719
47775
47777
47859
47933
47949
48013
48040
48103
48197
48148
48182
48253
48241
48288
48343
48399
48479
48485
48560
48621
48624
48674
48674
48700
48778
48745
48798
48879
48866
48874
48863
48862
48882
48771
48669
48540
48331
48123
47867
47667
47492
47133
46839
46622
46348
46109
45862
45620
45403
45127
44971
44844
44657
44533
44393
44262
44182
44033
43962
43910
43821
43788
43711
43652
43674
43623
43620
43619
43592
43632
43629
43646
43762
43841
43988
44127
44232
44422
44572
44703
44890
45007
45151
45289
45409
45550
45581
45625
45747
45764
45824
45893
45895
45950
45981
46013
46090
46083
46108
46139
46170
46255
46262
46295
46401
46393
46451
46548
46591
46675
46733
46794
46887
46893
46975
47057
47076
47146
47171
47191
47260
47257
47330
47414
47435
47482
47494
47561
47679
47659
47709
47800
47824
47877
47892
47919
48015
48042
48113
48163
48176
48255
48258
48255
48344
48365
48409
48421
48412
48521
48583
48592
48634
48603
48629
48656
48656
48715
48702
48694
48758
48733
48771
48822
48811
48836
48830
48860
48956
48957
49003
49004
48903
48881
48845
48748
48627
48398
48205
48000
47744
47493
47151
46853
46642
46310
46028
45769
45441
45194
44998
44842
44705
44469
44316
44179
43996
43901
43799
43692
43624
43485
43413
43360
43289
43281
43214
43160
43194
43149
43139
43151
43165
43248
43283
43348
43504
43575
43688
43842
43984
44134
44203
44316
44492
44535
44630
44741
44778
44870
44946
45000
45098
45141
45207
45251
45300
45392
45374
45383
45499
45520
45592
45675
45675
45707
45723
45768
45894
45951
46017
46032
46018
46094
46141
46206
46311
46289
46327
46410
46453
46522
46542
46596
46721
46748
46814
46872
46868
46909
46945
47034
47134
47069
47087
47178
47215
47267
47252
47236
47312
47342
47397
47436
47478
47569
47549
47544
47643
47637
47667
47708
47709
47780
47796
47790
47872
47908
47947
47944
47946
48027
48040
48088
48185
48129
48160
48257
48264
48290
48306
48313
48323
48244
48224
48174
48034
47909
47709
47487
47287
46978
46723
46448
46090
45826
45590
45342
45107
44815
44626
44452
44234
44102
43967
43845
43749
43549
43429
43352
43231
43156
43060
42996
42987
42881
42831
42809
42758
42760
42733
42739
42809
42801
42881
43005
43075
43161
43233
43384
43601
43708
43884
44074
44178
44311
44416
44510
44632
44685
44791
44859
44870
44958
44991
44991
45063
45092
45145
45167
45186
45288
45319
45354
45461
45482
45560
45635
45646
45740
45830
45906
46009
46033
46102
46154
46167
46237
46266
46331
46454
46457
46527
46621
46643
46713
46767
46820
46900
46896
46956
47021
47043
47107
47111
47134
47222
47221
47294
47364
47347
47391
47433
47469
47526
47509
47584
47664
47671
47713
47709
47727
47809
47806
47875
47933
47896
47903
47905
47941
48023
48016
48080
48113
48060
48108
48174
48217
48271
48247
48282
48296
48258
48276
48226
48157
48113
47938
47786
47622
47370
47125
46846
46602
46379
46038
45815
45635
45351
45139
44980
44837
44727
44559
44449
44331
44196
44126
44009
43941
43952
43849
43807
43795
43707
43656
43615
43607
43626
43569
43624
43696
43690
43752
43819
43896
44029
44115
44263
44403
44514
44668
44747
44840
45002
45065
45179
45293
45328
45395
45439
45503
45606
45617
45692
45789
45853
45963
46010
46060
46181
46230
46324
46384
46397
46521
46610
46634
46695
46747
46876
46934
46903
46954
46978
47005
47108
47160
47277
47363
47386
47500
47591
47684
47849
47927
48000
48041
48104
48267
48308
48294
48391
48442
48486
48491
48498
48581
48592
48608
48655
48577
48622
48715
48680
48690
48743
48802
48849
48797
48815
48843
48850
48924
48949
48997
49085
49044
49095
49172
49155
49200
49257
49290
49321
49282
49332
49359
49310
49327
49301
49237
49176
49000
48876
48724
48475
48278
48049
47795
47577
47275
47023
46784
46534
46338
46072
45844
45729
45533
45386
45263
45121
45063
44953
44808
44736
44623
44551
44473
44399
44397
44336
44304
44330
44237
44232
44294
44306
44373
44451
44558
44704
44771
44907
45030
45102
45261
45399
45509
45633
45674
45782
45885
45937
46050
46111
46149
46211
46176
46207
46259
46265
46303
46290
46307
46392
46369
46381
46397
46379
46434
46462
46503
46610
46626
46677
46754
46828
46929
46943
46987
47072
47015
47055
47163
47190
47247
47286
47311
47365
47356
47413
47450
47452
47526
47551
47595
47696
47672
47697
47754
47781
47853
47843
47817
47893
47922
47964
47985
48013
48103
48094
48095
48170
48131
48168
48241
48234
48256
48242
48235
48300
48287
48280
48270
48301
48406
48402
48392
48443
48386
48424
48498
48470
48467
48433
48342
48250
48086
47964
47797
47567
47373
47133
46930
46754
46425
46186
46002
45726
45520
45369
45222
45065
44831
44712
44639
44525
44437
44296
44204
44188
44056
43979
43942
43865
43836
43777
43734
43754
43704
43713
43730
43740
43847
43890
43907
44036
44147
44274
44389
44531
44713
44790
44936
45191
45261
45301
45384
45467
45592
45644
45681
45778
45808
45871
45919
45943
46027
46047
46082
46197
46216
46263
46315
46328
46387
46412
46480
46600
46595
46651
46744
46781
46844
46879
46944
47040
47025
47088
47173
47190
47260
47308
47346
47392
47356
47441
47552
47571
47602
47614
47681
47787
47764
47822
47923
47967
48044
48056
48041
48087
48110
48220
48263
48205
48255
48304
48309
48336
48311
48358
48382
48372
48444
48434
48401
48477
48497
48515
48513
48530
48610
48590
48599
48713
48712
48738
48766
48724
48732
48702
48631
48572
48430
48321
48135
47852
47655
47436
47193
47008
46773
46580
46345
46056
45852
45651
45505
45415
45201
45058
44965
44831
44756
44654
44551
44502
44373
44284
44216
44164
44172
44090
44013
44020
43946
43937
43959
43949
44010
44050
44081
44150
44166
44281
44413
44502
44660
44791
44923
45089
45155
45259
45336
45347
45420
45457
45490
45575
45570
45590
45626
45671
45759
45756
45784
45899
45885
45892
45938
45964
46028
46040
46078
46171
46153
46187
46258
46295
46358
46370
46422
46534
46526
46578
46669
46700
46739
46741
46798
46911
46898
46936
46987
46974
47017
47049
47096
47179
47169
47215
47257
47241
47264
47264
47317
47408
47350
47354
47387
47357
47397
47415
47409
47458
47465
47522
47553
47572
47661
47648
47629
47711
47700
47710
47733
47747
47812
47792
47779
47855
47829
47826
47865
47916
47984
47932
47914
48003
47985
48011
48068
48084
48149
48169
48183
48238
48218
48284
48348
48331
48351
48346
48378
48468
48461
48521
48567
48532
48579
48610
48623
48692
48694
48709
48692
48682
48755
48752
48770
48859
48813
48821
48880
48895
48943
48938
48948
49036
49041
49077
49091
49083
49172
49215
49248
49338
49316
49319
49336
49349
49412
49376
49349
49429
49418
49437
49471
49485
49538
49507
49488
49550
49523
49571
49640
49626
49621
49591
49633
49728
49686
49729
49811
49806
49830
49836
49870
49952
49925
49935
49943
49939
50017
50013
49979
50029
50027
50073
50078
50023
50054
50049
50047
50121
50113
50132
50123
50087
50143
50146
50137
50189
50150
50153
50141
50099
50169
50194
50169
50196
50178
50230
50264
50250
50300
50297
50312
50382
50315
50292
50301
50294
50371
50400
50390
50408
50348
50365
50395
50372
50376
50295
50198
50130
49933
49777
49588
49268
48985
48720
48486
48274
47932
47629
47358
47077
46840
46536
46269
46104
45861
45685
45502
45245
45098
44973
44818
44692
44525
44427
44322
44197
44136
44042
44028
44104
44025
43964
43964
43968
44050
44145
44282
44421
44418
44521
44710
44834
44927
44966
45054
45174
45172
45262
45383
45402
45437
45452
45467
45504
45464
45500
45555
45582
45649
45653
45684
45784
45786
45853
45939
45981
46098
46172
46193
46252
46263
46322
46353
46379
46503
46552
46569
46650
46658
46730
46836
46902
46959
46948
47017
47153
47124
47150
47242
47271
47317
47344
47396
47476
47448
47503
47598
47650
47722
47720
47742
47847
47871
47948
48004
47981
48025
48053
48089
48175
48157
48169
48211
48271
48363
48341
48350
48460
48452
48491
48563
48584
48648
48677
48717
48800
48789
48842
48913
48942
48996
48974
48968
49029
48958
48875
48759
48600
48509
48337
48092
47876
47586
47328
47052
46760
46552
46277
45993
45805
45567
45375
45179
44959
44833
44681
44531
44454
44303
44190
44079
43955
43914
43825
43740
43735
43653
43600
43544
43474
43491
43489
43502
43539
43497
43601
43752
43793
43883
44011
44159
44314
44382
44524
44680
44793
44914
44958
45042
45194
45208
45248
45330
45398
45505
45534
45544
45612
45623
45697
45758
45763
45833
45874
45923
46016
46008
46055
46138
46195
46271
46276
46316
46410
46385
46450
46552
46569
46630
46671
46687
46738
46753
46836
46862
46835
46923
46983
47004
47050
47022
47063
47114
47135
47214
47229
47240
47306
47295
47368
47440
47431
47490
47523
47534
47604
47621
47663
47666
47661
47744
47772
47816
47896
47845
47882
47954
47944
48011
48096
48140
48166
48101
48078
48034
47947
47870
47677
47486
47358
47084
46814
46560
46248
45953
45640
45393
45197
44887
44691
44566
44369
44222
44094
43998
43954
43826
43726
43625
43522
43484
43390
43334
43348
43249
43215
43203
43137
43164
43191
43188
43238
43275
43364
43419
43485
43666
43790
43904
44066
44129
44261
44437
44569
44722
44810
44892
45016
45057
45158
45242
45252
45323
45374
45411
45468
45458
45539
45610
45597
45655
45707
45755
45830
45820
45868
45921
45940
46011
46034
46082
46185
46180
46245
46339
46364
46415
46443
46492
46557
46518
46588
46682
46685
46749
46810
46852
46918
46922
46984
47018
47025
47124
47167
47182
47236
47208
47257
47325
47342
47406
47433
47476
47553
47514
47551
47621
47641
47719
47756
47776
47845
47829
47847
47870
47902
47999
48019
48041
48098
48039
48083
48162
48118
48084
48024
47919
47787
47553
47378
47179
46907
46675
46410
46170
45967
45650
45429
45263
45029
44842
44667
44530
44433
44232
44096
44003
43894
43839
43739
43658
43629
43486
43405
43380
43333
43316
43252
43222
43250
43184
43198
43242
43239
43308
43374
43451
43587
43667
43786
43883
43973
44160
44301
44431
44593
44661
44794
44917
44951
45034
45087
45114
45186
45215
45297
45348
45354
45417
45438
45488
45586
45563
45614
45713
45750
45807
45822
45854
45951
45962
46003
46032
46042
46131
46178
46234
46320
46286
46327
46408
46444
46533
46593
46646
46727
46741
46849
46934
46913
46954
47003
47049
47100
47067
47135
47212
47211
47262
47293
47336
47418
47405
47452
47497
47503
47601
47671
47709
47758
47729
47803
47876
47855
47880
47886
47906
47973
47965
48034
48099
48087
48112
48101
48108
48156
48079
48024
47950
47801
47691
47511
47278
47060
46758
46510
46262
45974
45754
45505
45260
45047
44760
44606
44503
44313
44167
44020
43872
43769
43629
43560
43444
43264
43199
43140
43058
43007
42907
42886
42839
42744
42762
42752
42694
42711
42723
42775
42798
42838
42977
43061
43171
43350
43400
43488
43631
43756
43907
43999
44093
44221
44251
44346
44451
44480
44524
44546
44612
44720
44720
44790
44870
44871
44916
44973
45058
45131
45084
45152
45261
45278
45320
45361
45428
45514
45509
45589
45667
45673
45749
45792
45812
45909
45975
46060
46092
46114
46214
46229
46244
46334
46327
46383
46449
46437
46483
46527
46574
46641
46621
46675
46742
46752
46794
46810
46887
47003
46974
47020
47091
47071
47112
47159
47196
47261
47265
47314
47335
47341
47428
47442
47446
47504
47467
47518
47612
47643
47689
47664
47611
47595
47486
47391
47250
47045
46878
46635
46369
46144
45804
45483
45179
44886
44699
44476
44233
44051
43819
43657
43502
43318
43219
43087
42931
42814
42645
42570
42513
42408
42359
42284
42213
42187
42102
42108
42099
42006
42011
42063
42109
42139
42106
42208
42346
42422
42557
42699
42870
43052
43114
43248
43413
43527
43674
43781
43883
43992
43998
44076
44159
44172
44241
44296
44347
44420
44421
44514
44623
44656
44701
44718
44802
44940
44939
44990
45084
45130
45203
45230
45276
45381
45402
45461
45509
45535
45654
45716
45730
45793
45811
45886
45949
45990
46106
46161
46200
46280
46262
46311
46381
46395
46451
46470
46500
46568
46540
46587
46638
46621
46665
46696
46740
46829
46829
46876
46910
46904
46975
46999
47010
47068
47049
47097
47144
47143
47211
47238
47251
47311
47295
47334
47376
47382
47431
47397
47338
47332
47207
47067
46909
46706
46499
46198
45933
45730
45392
45106
44846
44513
44265
44059
43860
43701
43498
43353
43191
43015
42931
42805
42684
42631
42495
42419
42376
42294
42242
42159
42113
42098
41979
41966
41994
41933
41922
41939
41985
42082
42149
42299
42401
42438
42598
42776
42932
43110
43211
43326
43399
43462
43621
43715
43771
43858
43863
43931
43997
44005
44082
44140
44194
44285
44306
44385
44455
44481
44557
44578
44614
44735
44758
44779
44813
44858
44936
44942
45016
45162
45142
45149
45205
45212
45255
45300
45370
45433
45370
45409
45510
45544
45571
45564
45613
45698
45661
45724
45826
45832
45862
45880
45914
45996
46007
46059
46079
46069
46155
46196
46224
46319
46340
46379
46368
46325
46412
46488
46529
46593
46585
46644
46701
46704
46748
46757
46798
46876
46831
46860
46912
46864
46829
46759
46653
46511
46240
46022
45797
45497
45233
44917
44580
44290
43945
43680
43445
43198
43030
42832
42643
42508
42294
42165
42095
42004
41951
41844
41752
41728
41617
41542
41486
41414
41388
41300
41240
41273
41216
41172
41162
41186
41279
41315
41385
41542
41599
41690
41820
41949
42130
42237
42314
42440
42496
42585
42660
42701
42782
42803
42843
42946
42942
42973
43036
43076
43138
43143
43186
43295
43317
43406
43477
43458
43531
43637
43712
43771
43784
43901
43985
43987
44071
44124
44163
44299
44400
44479
44502
44541
44633
44616
44653
44814
44838
44858
44913
44964
45072
45109
45112
45175
45202
45289
45337
45325
45385
45403
45417
45495
45493
45520
45554
45581
45662
45675
45706
45796
45776
45817
45880
45864
45883
45889
45925
46005
45989
46033
46088
46106
46182
46204
46213
46267
46228
46236
46268
46262
46246
46116
45982
45903
45706
45523
45275
44894
44565
44243
43902
43609
43282
42998
42707
42440
42268
42028
41808
41703
41520
41359
41222
41089
41022
40891
40739
40641
40490
40415
40356
40246
40184
40109
40058
40037
39929
39919
39947
39903
39890
39882
39928
40032
40050
40121
40233
40347
40513
40626
40752
40920
40995
41131
41270
41322
41406
41493
41584
41638
41577
41641
41756
41788
41848
41897
41951
42039
42064
42139
42192
42212
42313
42375
42426
42519
42531
42597
42682
42742
42841
42879
42941
43083
43127
43188
43250
43301
43422
43481
43532
43668
43750
43854
43926
43970
44086
44138
44175
44283
44317
44384
44467
44537
44623
44617
44651
44783
44784
44787
44826
44856
44908
44913
44981
45094
45056
45091
45198
45241
45289
45321
45394
45478
45441
45491
45569
45579
45650
45701
45729
45785
45794
45875
45928
45923
45983
45998
45995
46021
45952
45924
45840
45638
45483
45282
44996
44707
44350
44026
43686
43339
43047
42690
42376
42163
41875
41672
41498
41249
41091
40995
40902
40797
40607
40500
40417
40303
40241
40140
40066
40052
39928
39831
39774
39730
39748
39718
39701
39739
39705
39748
39819
39853
39955
40056
40172
40335
40448
40631
40788
40873
41020
41142
41243
41372
41428
41527
41612
41652
41730
41753
41798
41903
41911
41964
42038
42065
42128
42168
42251
42384
42391
42417
42494
42585
42703
42744
42822
42967
42977
43023
43127
43211
43311
43353
43424
43553
43576
43639
43735
43812
43919
43957
44009
44113
44125
44202
44289
44325
44430
44503
44542
44615
44641
44723
44759
44746
44833
44891
44923
44992
44996
45068
45120
45116
45195
45235
45242
45301
45313
45371
45406
45413
45475
45468
45478
45570
45571
45611
45661
45672
45742
45741
45691
45703
45667
45621
45490
45294
45127
44853
44545
44269
43877
43535
43240
42912
42631
42338
42088
41919
41674
41485
41349
41212
41098
40928
40826
40810
40659
40526
40434
40330
40294
40232
40165
40148
40083
40083
40066
40009
40046
40061
40074
40173
40236
40327
40440
40594
40771
40824
40928
41149
41259
41388
41524
41597
41721
41815
41866
41940
41971
42037
42069
42093
42204
42250
42284
42371
42378
42445
42532
42587
42700
42756
42780
42855
42889
42985
43068
43109
43190
43207
43242
43348
43356
43406
43493
43576
43701
43734
43745
43838
43877
43943
44003
44055
44151
44166
44210
44344
44361
44383
44441
44498
44578
44589
44651
44777
44749
44743
44789
44818
44879
44897
44945
45034
45008
45048
45124
45153
45216
45226
45238
45319
45320
45348
45390
45436
45512
45497
45521
45624
45591
45588
45626
45627
45658
45614
45520
45458
45312
45140
44875
44542
44259
43904
43526
43194
42790
42465
42167
41838
41619
41418
41204
41047
40872
40758
40603
40404
40312
40215
40108
40032
39875
39784
39723
39630
39576
39484
39424
39442
39375
39335
39307
39265
39283
39280
39316
39405
39401
39468
39589
39691
39837
39954
40081
40228
40304
40484
40654
40708
40819
40951
41045
41107
41117
41232
41326
41337
41406
41463
41524
41614
41630
41717
41814
41853
41921
41952
42026
42183
42235
42285
42349
42434
42571
42612
42650
42772
42828
42930
43031
43072
43152
43203
43281
43411
43438
43505
43608
43684
43756
43769
43860
44003
43978
44003
44074
44083
44162
44242
44290
44372
44414
44477
44491
44508
44603
44622
44664
44782
44773
44804
44868
44878
44917
44926
44948
45011
44992
45038
45076
45066
45138
45192
45222
45280
45283
45351
45380
45326
45353
45381
45374
45321
45143
45033
44882
44567
44252
43924
43581
43246
42846
42531
42218
41856
41581
41325
41103
40938
40708
40564
40442
40259
40127
39988
39868
39790
39631
39526
39436
39307
39232
39139
39066
39025
38885
38817
38803
38768
38783
38775
38785
38839
38836
38932
39061
39127
39215
39301
39440
39596
39652
39823
40023
40101
40187
40259
40310
40397
40454
40552
40611
40650
40747
40773
40819
40936
40947
40997
41092
41165
41263
41297
41347
41478
41540
41620
41668
41694
41816
41881
41900
42010
42126
42265
42318
42335
42456
42541
42607
42699
42715
42825
42960
43014
43083
43123
43175
43252
43260
43379
43506
43538
43624
43703
43753
43809
43811
43906
43996
44013
44060
44078
44150
44291
44299
44316
44369
44424
44513
44520
44540
44632
44626
44666
44732
44764
44826
44831
44858
44962
44985
45040
45081
45090
45172
45200
45202
45265
45251
45200
45055
44846
44688
44449
44157
43856
43420
43030
42686
42325
42025
41689
41357
41116
40853
40667
40514
40355
40247
40082
39941
39866
39693
39578
39497
39382
39344
39306
39244
39179
39053
39029
39014
38930
38903
38870
38850
38887
38884
38953
39020
39064
39203
39316
39420
39603
39755
39928
40067
40188
40358
40452
40542
40667
40687
40772
40878
40912
40990
41050
41090
41163
41194
41274
41325
41348
41438
41481
41535
41650
41671
41734
41820
41876
41970
42017
42080
42189
42206
42288
42398
42460
42544
42586
42650
42754
42764
42848
42962
43011
43077
43113
43184
43290
43292
43366
43459
43482
43546
43590
43633
43693
43687
43779
43851
43834
43897
43950
43966
44023
44057
44135
44160
44164
44273
44314
44313
44367
44363
44428
44505
44538
44599
44617
44675
44778
44739
44729
44753
44758
44815
44785
44680
44618
44483
44291
43987
43631
43324
42930
42533
42211
41792
41424
41141
40868
40629
40382
40229
40136
39912
39769
39670
39486
39367
39284
39187
39099
38971
38910
38835
38754
38757
38676
38570
38576
38570
38590
38580
38568
38649
38693
38749
38885
38968
39108
39253
39362
39528
39650
39769
39963
40077
40145
40170
40240
40398
40450
40474
40574
40585
40608
40655
40711
40804
40815
40837
40941
40953
40976
41022
41082
41186
41201
41222
41336
41397
41497
41566
41579
41687
41783
41841
41920
41955
42053
42124
42158
42271
42339
42390
42492
42534
42632
42732
42778
42848
42892
42997
43130
43109
43154
43247
43275
43355
43441
43523
43609
43602
43650
43716
43790
43928
43970
43978
44052
44063
44122
44165
44169
44256
44313
44352
44444
44483
44580
44652
44665
44729
44750
44772
44842
44834
44912
45010
45034
45080
45093
45128
45199
45162
45200
45290
45335
45374
45357
45406
45519
45476
45463
45518
45573
45652
45646
45649
45735
45727
45738
45773
45813
45885
45868
45890
45997
45978
45997
46051
46075
46147
46175
46201
46271
46251
46283
46323
46337
46408
46403
46395
46478
46500
46550
46581
46587
46665
46683
46694
46764
46764
46842
46914
46897
46926
46962
47026
47088
47044
47127
47222
47179
47191
47245
47302
47351
47312
47347
47379
47377
47448
47468
47490
47563
47524
47530
47561
47578
47658
47675
47680
47723
47677
47715
47758
47727
47767
47784
47776
47815
47798
47835
47847
47831
47900
47912
47917
47970
47915
47934
48014
48045
48045
47965
47973
48080
48050
48066
48101
48063
48095
48128
48147
48189
48162
48199
48211
48178
48223
48225
48233
48298
48268
48288
48315
48295
48324
48296
48251
48244
48110
47945
47714
47405
47107
46700
46247
45834
45323
44849
44395
43937
43576
43194
42832
42584
42307
42072
41842
41620
41487
41302
41117
41012
40840
40721
40618
40482
40401
40276
40157
40123
40044
40010
39967
39916
39962
39979
39995
40091
40140
40222
40289
40357
40520
40625
40698
40833
40920
41041
41130
41161
41221
41249
41317
41413
41379
41425
41523
41551
41596
41622
41652
41715
41727
41821
41894
41904
41997
42086
42157
42236
42241
42332
42433
42481
42574
42616
42661
42786
42855
42943
43002
43043
43157
43197
43227
43341
43389
43462
43541
43619
43736
43749
43764
43887
43942
44003
44039
44055
44139
44165
44181
44253
44246
44292
44356
44389
44473
44531
44620
44720
44673
44695
44758
44763
44827
44892
44945
44991
44958
45027
45102
45099
45150
45187
45218
45265
45242
45316
45372
45305
45276
45224
45125
45008
44779
44543
44233
43858
43563
43217
42830
42506
42143
41839
41559
41290
41112
40908
40751
40692
40524
40359
40236
40116
40010
39854
39782
39777
39609
39488
39468
39434
39407
39340
39297
39305
39239
39242
39274
39284
39351
39384
39426
39528
39588
39738
39900
40009
40164
40267
40362
40540
40675
40794
40849
40904
41040
41092
41118
41196
41200
41262
41324
41325
41378
41402
41417
41501
41547
41622
41669
41719
41858
41922
41966
42093
42152
42225
42303
42382
42504
42540
42585
42700
42723
42800
42911
42969
43038
43088
43203
43359
43353
43371
43454
43537
43634
43666
43728
43827
43810
43878
43972
43965
43988
44039
44126
44212
44202
44291
44390
44410
44483
44527
44542
44593
44599
44669
44717
44726
44799
44822
44840
44909
44917
45012
45088
45038
45025
45032
45027
44960
44740
44579
44395
44064
43715
43334
42967
42649
42254
41907
41589
41286
41070
40827
40608
40451
40210
40058
39965
39822
39692
39523
39379
39308
39178
39092
38996
38872
38831
38756
38655
38611
38537
38518
38471
38395
38428
38450
38458
38517
38556
38679
38787
38839
38971
39091
39190
39305
39381
39558
39706
39750
39860
39978
40063
40141
40155
40233
40304
40335
40408
40427
40457
40539
40516
40525
40587
40638
40678
40666
40731
40811
40729
40770
40890
40885
40912
40974
40991
40996
41006
41107
41154
41155
41235
41258
41285
41395
41418
41457
41511
41562
41644
41643
41666
41783
41814
41867
41927
41962
42055
42117
42187
42274
42267
42352
42451
42484
42610
42720
42750
42804
42868
42986
43034
43061
43193
43260
43306
43422
43453
43506
43588
43657
43722
43699
43710
43748
43630
43559
43466
43204
42950
42703
42396
42064
41688
41371
41039
40738
40575
40366
40133
39978
39781
39634
39475
39274
39156
39028
38888
38777
38600
38503
38433
38325
38257
38163
38105
38107
38032
38008
37983
37928
37982
38010
37966
37980
38032
38139
38191
38239
38384
38480
38598
38800
38916
39058
39209
39324
39481
39601
39710
39834
39883
40013
40144
40186
40248
40283
40333
40444
40511
40639
40763
40832
40918
40961
41057
41211
41253
41356
41483
41537
41623
41698
41777
41868
41883
41976
42067
42099
42197
42265
42308
42386
42409
42487
42554
42593
42696
42758
42830
42927
42923
43010
43112
43127
43209
43278
43299
43356
43421
43573
43668
43699
43785
43798
43810
43918
43951
43975
43986
44022
44144
44178
44184
44259
44266
44308
44339
44328
44376
44376
44370
44437
44436
44438
44397
44308
44253
44093
43863
43645
43311
42973
42596
42151
41758
41374
41054
40790
40432
40170
39983
39757
39576
39386
39208
39067
38853
38705
38587
38458
38384
38250
38104
38038
37942
37890
37803
37656
37580
37499
37424
37385
37283
37260
37267
37247
37287
37313
37363
37474
37513
37591
37702
37812
37943
38019
38142
38312
38352
38441
38569
38621
38672
38734
38854
38977
38956
38978
39042
39085
39174
39229
39294
39402
39437
39514
39574
39597
39714
39835
39950
40069
40103
40222
40359
40439
40556
40642
40737
40880
40948
41062
41197
41319
41463
41534
41640
41817
41879
41970
42061
42112
42249
42370
42456
42566
42629
42740
42821
42878
43017
43091
43144
43268
43327
43416
43496
43542
43613
43617
43666
43797
43818
43870
43940
43979
44086
44160
44210
44294
44331
44430
44498
44486
44513
44515
44508
44463
44264
44123
43933
43560
43217
42921
42602
42258
41851
41531
41233
40925
40684
40402
40150
39987
39754
39580
39422
39213
39079
38959
38849
38758
38610
38564
38516
38385
38330
38287
38234
38221
38163
38133
38074
38023
38075
38085
38098
38181
38196
38268
38391
38516
38677
38786
38920
39105
39197
39340
39496
39582
39680
39744
39806
39872
39862
39965
40082
40087
40105
40115
40144
40233
40275
40354
40412
40471
40616
40698
40760
40875
40918
41013
41123
41197
41304
41360
41435
41569
41610
41698
41807
41891
42023
42087
42129
42232
42286
42390
42491
42556
42648
42683
42761
42903
42927
43006
43115
43156
43221
43263
43315
43379
43353
43421
43526
43567
43619
43633
43682
43792
43808
43877
43952
43966
44016
44051
44120
44199
44159
44223
44335
44358
44410
44470
44536
44590
44560
44630
44673
44591
44576
44561
44459
44280
43982
43713
43413
43054
42708
42274
41853
41531
41149
40838
40598
40351
40130
39878
39695
39594
39387
39235
39117
38942
38813
38698
38611
38544
38397
38334
38283
38175
38144
38112
38061
38028
37953
37955
37947
37905
37950
37977
38003
38098
38157
38269
38403
38524
38645
38701
38847
39085
39187
39313
39452
39518
39628
39732
39806
39888
39924
39998
39998
39954
40040
40132
40192
40260
40267
40346
40424
40462
40570
40647
40706
40788
40806
40914
41031
41075
41150
41184
41224
41348
41421
41497
41538
41583
41709
41759
41794
41893
41916
41991
42090
42145
42209
42231
42308
42436
42433
42461
42490
42477
42575
42663
42667
42669
42668
42754
42790
42775
42853
42896
42917
42959
42922
42974
43026
43003
43056
43099
43099
43124
43123
43206
43272
43288
43344
43348
43389
43514
43550
43621
43683
43668
43678
43648
43598
43537
43338
43144
42909
42592
42304
41933
41503
41147
40791
40499
40241
40019
39843
39571
39344
39240
39036
38856
38741
38622
38521
38367
38251
38219
38120
38071
38031
37938
37881
37811
37779
37800
37746
37746
37742
37685
37706
37732
37754
37803
37806
37889
37995
38097
38267
38386
38499
38677
38793
38927
39037
39124
39277
39366
39425
39536
39588
39669
39743
39791
39866
39890
39977
40163
40237
40311
40397
40441
40498
40546
40678
40828
40817
40886
41010
41040
41097
41183
41286
41387
41409
41503
41590
41645
41783
41868
41907
41989
42027
42110
42176
42198
42241
42221
42255
42373
42365
42385
42459
42517
42582
42568
42574
42655
42660
42709
42756
42760
42829
42877
42929
43021
43043
43130
43199
43188
43219
43240
43295
43383
43351
43375
43452
43501
43550
43544
43605
43731
43727
43772
43839
43846
43920
43981
43994
44016
43988
43991
43916
43752
43597
43316
42966
42659
42275
41901
41507
41100
40798
40501
40239
40067
39838
39646
39446
39208
39047
38894
38767
38666
38454
38305
38213
38100
38030
37944
37886
37852
37724
37684
37681
37618
37605
37581
37557
37591
37593
37633
37658
37695
37820
37900
37994
38162
38261
38401
38539
38615
38711
38778
38871
39004
39034
39092
39168
39229
39326
39358
39392
39498
39562
39672
39741
39744
39840
39940
40012
40096
40136
40256
40357
40393
40491
40589
40707
40830
40847
40953
41081
41127
41222
41325
41431
41565
41627
41727
41824
41907
42028
42100
42220
42364
42366
42479
42658
42715
42775
42866
42961
43011
42966
43044
43151
43176
43227
43254
43307
43416
43432
43478
43521
43545
43632
43663
43698
43791
43806
43873
43921
43910
43992
44067
44105
44148
44155
44270
44360
44353
44405
44445
44463
44484
44397
44329
44226
44055
43892
43596
43214
42886
42519
42182
41809
41421
41154
40881
40610
40418
40186
40014
39871
39708
39570
39390
39272
39221
39051
38950
38902
38777
38670
38598
38586
38573
38459
38462
38483
38387
38351
38371
38407
38460
38466
38547
38634
38719
38872
38977
39098
39272
39346
39466
39617
39731
39869
39955
40038
40154
40179
40244
40312
40346
40424
40449
40478
40576
40615
40690
40741
40752
40832
40868
40896
41005
41066
41147
41229
41325
41462
41504
41572
41734
41774
41818
41914
42011
42102
42118
42200
42361
42391
42463
42576
42631
42712
42797
42923
43056
43054
43114
43223
43291
43370
43412
43509
43649
43630
43635
43713
43792
43861
43839
43874
44009
44040
44096
44147
44144
44210
44262
44297
44351
44339
44407
44491
44530
44586
44591
44636
44714
44663
44707
44812
44822
44836
44865
44933
44976
44882
44869
44851
44684
44493
44254
43964
43632
43205
42864
42510
42065
41690
41337
41013
40773
40516
40336
40149
39921
39760
39576
39422
39341
39188
39089
38994
38853
38795
38734
38659
38610
38518
38513
38502
38410
38344
38280
38293
38375
38339
38340
38402
38475
38573
38593
38642
38809
38933
39068
39173
39244
39356
39419
39509
39653
39679
39706
39747
39783
39878
39918
39938
39986
39962
40003
40054
40055
40099
40125
40173
40249
40238
40309
40405
40436
40509
40582
40678
40798
40835
40954
41083
41154
41295
41432
41561
41705
41779
41941
42118
42247
42414
42537
42671
42848
42930
43052
43161
43215
43332
43418
43479
43554
43545
43601
43688
43752
43831
43838
43886
43996
43977
44013
44107
44166
44252
44285
44309
44367
44355
44437
44534
44569
44656
44705
44754
44863
44893
44949
45019
45088
45162
45118
45126
45256
45259
45243
45241
45230
45267
45209
45079
44972
44771
44547
44242
43867
43551
43214
42896
42596
42159
41806
41577
41386
41260
41077
40870
40726
40552
40463
40391
40271
40166
39974
39798
39765
39717
39675
39579
39450
39409
39348
39304
39312
39225
39183
39184
39177
39203
39183
39198
39288
39314
39429
39588
39705
39860
39990
40129
40302
40387
40505
40596
40644
40768
40853
40898
40967
40983
41062
41145
41199
41288
41302
41315
41387
41390
41464
41546
41560
41624
41664
41690
41750
41768
41871
41948
41944
42005
42056
42118
42247
42313
42404
42473
42518
42623
42669
42740
42901
42969
43058
43159
43220
43282
43309
43429
43592
43577
43627
43761
43838
43926
43966
43983
44043
44050
44085
44109
44118
44135
44037
43977
43999
43855
43696
43578
43441
43321
43144
42998
42935
42809
42751
42688
42576
42566
42581
42609
42678
42685
42766
42867
42959
43124
43225
43310
43460
43551
43701
43844
43926
44039
44103
44183
44307
44348
44464
44562
44567
44648
44742
44812
44884
44889
44951
44972
44941
45000
45034
45051
45095
45058
45094
45123
45083
45120
45156
45190
45242
45193
45209
45264
45303
45368
45352
45372
45479
45490
45560
45656
45697
45779
45823
45872
45987
46032
46120
46203
46243
46301
46293
46340
46457
46432
46458
46535
46556
46602
46621
46660
46723
46682
46739
46829
46847
46896
46930
47008
47124
47113
47155
47228
47270
47366
47430
47519
47651
47662
47735
47835
47885
47981
48039
48110
48224
48237
48327
48441
48492
48560
48564
48595
48710
48731
48788
48852
48878
48930
48910
48938
49066
49087
49140
49186
49186
49280
49348
49380
49430
49418
49497
49546
49517
49583
49633
49659
49712
49685
49709
49701
49656
49721
49748
49749
49786
49749
49801
49845
49834
49930
49985
49979
50044
50089
50152
50145
50123
50193
50184
50185
50260
50206
50187
50197
50138
50063
49890
49694
49532
49251
49002
48742
48409
48105
47754
47416
47130
46757
46469
46202
45892
45695
45489
45234
45039
44814
44618
44421
44259
44150
43938
43786
43730
43527
43402
43375
43292
43238
43183
43139
43127
43049
43053
43083
43108
43197
43221
43266
43424
43532
43670
43780
43827
43912
43982
44102
44234
44218
44284
44380
44347
44321
44333
44399
44467
44407
44408
44427
44426
44525
44590
44607
44653
44667
44765
44801
44765
44871
44972
44982
45001
45006
45086
45132
45167
45299
45341
45351
45452
45501
45568
45603
45623
45753
45837
45894
46003
46039
46109
46152
46160
46246
46277
46294
46386
46410
46455
46474
46479
46575
46618
46639
46689
46650
46689
46726
46682
46709
46725
46728
46766
46734
46758
46791
46813
46874
46848
46852
46941
46912
46929
46973
46968
47014
47045
47099
47190
47169
47204
47272
47318
47397
47382
47346
47381
47365
47414
47414
47298
47232
47133
46991
46854
46626
46420
46160
45846
45625
45367
45095
44926
44720
44525
44300
44082
43968
43814
43684
43627
43451
43307
43216
43114
43047
42940
42880
42881
42772
42733
42727
42651
42616
42596
42639
42734
42727
42769
42837
42895
43028
43142
43282
43464
43547
43690
43834
43911
44047
44167
44270
44383
44404
44483
44559
44595
44685
44716
44741
44823
44822
44870
44933
44972
45052
45057
45075
45172
45181
45222
45271
45306
45399
45409
45396
45466
45494
45570
45611
45598
45662
45706
45756
45836
45821
45892
45992
46038
46139
46202
46248
46323
46320
46381
46422
46409
46481
46529
46573
46673
46682
46713
46744
46777
46872
46885
46903
46988
46977
47041
47116
47116
47181
47225
47243
47305
47318
47380
47419
47441
47540
47575
47610
47681
47630
47672
47774
47795
47812
47800
47824
47888
47829
47819
47818
47742
47662
47496
47325
47198
46966
46774
46570
46295
46083
45849
45613
45430
45187
45028
44915
44775
44646
44457
44339
44296
44111
43990
43945
43859
43804
43722
43655
43635
43539
43509
43494
43466
43534
43585
43647
43763
43818
43969
44140
44267
44476
44681
44873
45054
45126
45279
45435
45499
45579
45610
45656
45766
45798
45876
45969
46051
46189
46253
46325
46474
46509
46553
46611
46657
46722
46703
46743
46893
46928
46982
47053
47088
47169
47219
47301
47429
47431
47479
47561
47608
47672
47669
47697
47789
47773
47816
47857
47837
47915
47971
47958
47958
47936
48012
48054
48029
48082
48114
48177
48291
48271
48273
48269
48234
48307
48347
48343
48385
48360
48355
48340
48333
48382
48352
48377
48484
48432
48436
48507
48518
48546
48529
48523
48592
48587
48593
48567
48522
48542
48494
48460
48464
48304
48159
48028
47814
47596
47305
47013
46780
46457
46175
45914
45659
45492
45275
45059
44925
44728
44603
44519
44407
44319
44164
44058
44060
43957
43873
43829
43804
43833
43787
43755
43802
43757
43762
43808
43850
43950
44009
44106
44292
44400
44535
44654
44728
44860
44963
45072
45171
45137
45199
45284
45265
45290
45314
45334
45402
45404
45414
45406
45432
45529
45512
45509
45611
45607
45632
45680
45689
45752
45795
45862
45967
45962
46014
46091
46122
46174
46181
46233
46333
46308
46363
46462
46487
46529
46541
46574
46657
46647
46687
46738
46760
46830
46849
46893
46978
46941
46982
47051
47040
47075
47103
47150
47249
47249
47258
47265
47290
47384
47388
47402
47483
47442
47460
47525
47541
47588
47596
47616
47671
47628
47652
47679
47624
47597
47510
47390
47278
47044
46826
46591
46301
46031
45676
45323
45049
44703
44417
44142
43833
43623
43395
43152
42998
42843
42742
42588
42404
42354
42295
42215
42173
42059
42010
41977
41904
41880
41836
41843
41910
41876
41924
42024
42061
42113
42157
42287
42513
42643
42785
42926
43054
43233
43342
43439
43566
43604
43723
43840
43861
43933
43986
44022
44122
44186
44254
44265
44286
44412
44466
44517
44630
44648
44731
44819
44834
44916
44994
45057
45157
45219
45352
45437
45439
45498
45537
45606
45718
45710
45750
45803
45799
45837
45856
45912
46017
45999
46024
46089
46135
46203
46188
46190
46263
46254
46314
46356
46300
46320
46377
46439
46475
46401
46434
46479
46437
46457
46479
46522
46624
46635
46652
46643
46637
46724
46738
46717
46733
46665
46670
46682
46600
46531
46404
46228
46023
45681
45384
45091
44736
44417
44058
43711
43420
43053
42769
42539
42296
42117
41921
41769
41688
41520
41415
41333
41213
41169
41096
41003
40973
40916
40909
40878
40815
40807
40749
40717
40755
40699
40710
40787
40839
40894
40910
41007
41205
41317
41475
41646
41766
41937
42078
42210
42379
42468
42573
42649
42692
42787
42834
42903
43009
42999
43065
43171
43204
43263
43312
43383
43481
43483
43547
43643
43714
43808
43829
43881
44020
44066
44149
44241
44303
44428
44507
44566
44658
44683
44788
44897
44947
45045
45095
45134
45214
45221
45304
45405
45446
45502
45525
45596
45677
45613
45663
45776
45787
45836
45905
45964
46006
45962
46007
46066
46092
46172
46187
46205
46280
46267
46316
46357
46342
46424
46485
46489
46525
46520
46551
46558
46533
46502
46359
46254
46184
45909
45660
45440
45094
44760
44451
44160
43894
43576
43354
43155
42930
42751
42517
42331
42283
42174
42071
41945
41802
41753
41693
41645
41628
41495
41421
41417
41392
41362
41285
41292
41359
41285
41296
41372
41366
41390
41459
41594
41756
41809
41917
42050
42171
42352
42482
42602
42737
42767
42877
43029
43115
43194
43234
43323
43432
43390
43407
43482
43518
43584
43613
43652
43736
43741
43812
43913
43976
44041
44038
44100
44243
44258
44304
44366
44379
44460
44516
44539
44588
44582
44645
44708
44745
44826
44836
44873
44991
45014
45085
45157
45172
45255
45326
45386
45466
45476
45573
45675
45707
45767
45799
45870
45979
45967
46043
46155
46190
46266
46327
46389
46481
46491
46556
46609
46629
46731
46794
46838
46897
46855
46900
46973
46973
46999
46999
47015
47048
46932
46815
46672
46444
46212
45901
45578
45275
44850
44485
44156
43785
43484
43187
42911
42685
42387
42158
41959
41747
41609
41450
41321
41255
41100
40998
40915
40796
40747
40673
40586
40543
40458
40454
40447
40398
40432
40430
40409
40476
40541
40664
40769
40852
40982
41076
41235
41450
41511
41610
41753
41837
41935
41992
42045
42142
42170
42222
42252
42282
42400
42432
42403
42419
42417
42515
42582
42559
42618
42670
42696
42777
42839
42942
43002
43042
43153
43208
43278
43397
43406
43495
43626
43683
43752
43781
43808
43879
43900
43994
44062
44063
44153
44239
44313
44406
44417
44499
44576
44583
44620
44634
44688
44770
44736
44797
44883
44877
44931
45005
45059
45090
45030
45051
45082
45082
45147
45138
45087
45078
44989
44928
44852
44749
44717
44644
44586
44579
44463
44414
44425
44420
44451
44436
44465
44583
44611
44673
44723
44741
44862
44955
45005
45082
45105
45184
45228
45231
45323
45354
45348
45417
45440
45490
45514
45510
45547
45521
45543
45626
45571
45592
45679
45697
45730
45746
45786
45860
45840
45891
45953
45951
45971
45960
46008
46106
46062
46063
46091
46084
46153
46185
46170
46181
46144
46188
46233
46239
46276
46233
46209
46263
46212
46213
46252
46247
46261
46244
46281
46348
46279
46306
46374
46355
46394
46441
46474
46524
46513
46569
46610
46619
46695
46700
46702
46774
46745
46746
46760
46764
46842
46866
46894
46988
46975
46972
46961
46951
47038
47053
47026
47063
47041
47069
47107
47127
47173
47121
47099
47184
47177
47216
47263
47248
47285
47289
47283
47312
47268
47306
47358
47355
47376
47327
47304
47393
47400
47403
47396
47382
47403
47312
47186
47090
46850
46607
46328
45941
45563
45141
44711
44315
43846
43456
43105
42731
42424
42109
41850
41680
41422
41215
41059
40899
40783
40612
40470
40414
40280
40191
40130
40061
40054
39988
39910
39910
39883
39916
39920
39887
39968
40039
40073
40155
40230
40390
40529
40624
40793
40931
41056
41189
41224
41331
41456
41510
41590
41627
41664
41750
41761
41806
41870
41932
42013
42013
42053
42156
42136
42194
42318
42380
42449
42479
42516
42613
42662
42749
42794
42786
42845
42883
42953
43075
43088
43141
43209
43244
43335
43386
43435
43527
43530
43576
43639
43694
43799
43833
43869
43963
43959
43993
44037
44061
44153
44182
44187
44274
44334
44434
44492
44498
44545
44523
44527
44631
44650
44694
44744
44776
44867
44897
44924
45014
45025
45070
45105
45087
45106
45092
45104
45149
45046
44937
44790
44550
44330
44042
43703
43398
43044
42745
42430
42090
41857
41618
41392
41247
41074
40985
40876
40697
40614
40535
40431
40365
40257
40216
40194
40184
40234
40186
40127
40170
40171
40218
40260
40276
40384
40490
40613
40787
40888
41044
41220
41370
41546
41665
41811
41990
42038
42134
42249
42289
42349
42377
42398
42440
42407
42444
42500
42521
42569
42550
42551
42626
42632
42697
42759
42769
42858
42917
42928
42966
42981
43080
43137
43132
43224
43286
43309
43373
43404
43509
43588
43626
43756
43835
43872
43965
43998
44046
44075
44108
44211
44258
44345
44500
44505
44532
44610
44661
44719
44713
44745
44860
44872
44913
44975
45015
45089
45103
45152
45270
45269
45299
45362
45402
45470
45460
45448
45518
45510
45498
45443
45327
45224
45024
44797
44577
44193
43808
43449
43082
42785
42458
42131
41864
41561
41365
41200
40990
40856
40726
40598
40489
40310
40227
40158
40022
39957
39904
39848
39793
39678
39674
39647
39518
39503
39539
39540
39553
39549
39620
39688
39765
39916
39988
40073
40262
40382
40529
40674
40758
40840
40886
40990
41112
41077
41101
41174
41177
41211
41244
41283
41340
41325
41369
41420
41452
41539
41562
41596
41712
41740
41767
41781
41793
41882
41913
41945
42064
42122
42188
42215
42205
42270
42318
42389
42495
42491
42545
42628
42662
42731
42769
42827
42937
42960
43036
43119
43176
43300
43358
43387
43485
43548
43662
43760
43820
43920
43951
43992
44085
44079
44146
44245
44274
44332
44390
44476
44569
44540
44576
44636
44609
44568
44479
44404
44313
44037
43763
43486
43141
42840
42508
42141
41792
41413
41156
40916
40632
40460
40308
40147
40024
39835
39681
39519
39357
39283
39160
39030
38961
38825
38751
38702
38622
38594
38548
38519
38527
38460
38476
38521
38521
38583
38649
38730
38838
38887
39045
39237
39361
39498
39606
39748
39942
40035
40140
40212
40234
40330
40403
40453
40523
40534
40610
40666
40669
40741
40783
40814
40901
40925
40983
41055
41135
41253
41278
41326
41474
41525
41588
41677
41748
41826
41845
41923
42055
42060
42137
42259
42310
42385
42434
42473
42554
42601
42709
42768
42772
42869
42936
42981
43078
43115
43196
43283
43347
43431
43445
43517
43648
43625
43650
43727
43755
43829
43875
43909
44001
44062
44148
44171
44173
44279
44336
44352
44394
44354
44362
44348
44224
44073
43843
43581
43287
42857
42518
42208
41791
41411
41063
40755
40524
40257
40039
39849
39683
39557
39357
39209
39124
38900
38761
38715
38597
38482
38364
38271
38221
38117
38065
38013
37950
37949
37894
37842
37854
37800
37809
37851
37878
37971
38040
38134
38308
38415
38527
38636
38756
38925
39006
39079
39203
39230
39294
39379
39420
39483
39514
39567
39649
39645
39729
39849
39895
39957
40019
40118
40215
40194
40278
40419
40466
40493
40512
40604
40747
40769
40823
40905
40963
41061
41121
41208
41337
41355
41414
41495
41544
41643
41699
41747
41836
41850
41911
41979
42017
42098
42132
42193
42310
42321
42382
42478
42527
42589
42624
42713
42835
42825
42883
42977
42998
43045
43085
43146
43234
43234
43283
43319
43308
43364
43372
43327
43286
43132
42958
42728
42441
42165
41786
41384
41041
40632
40307
40032
39740
39536
39349
39180
39048
38844
38698
38579
38439
38339
38190
38071
38027
37898
37800
37723
37638
37619
37552
37464
37422
37337
37318
37314
37290
37324
37331
37355
37426
37443
37561
37697
37754
37867
37993
38119
38272
38364
38478
38552
38590
38684
38738
38813
38937
38946
38977
39053
39124
39202
39213
39265
39370
39375
39458
39577
39624
39711
39796
39872
39962
39995
40091
40167
40199
40290
40359
40452
40573
40577
40639
40747
40822
40922
40957
40985
41088
41141
41215
41265
41297
41396
41457
41541
41653
41628
41656
41742
41821
41960
42036
42063
42141
42197
42298
42353
42370
42465
42514
42563
42659
42672
42747
42842
42880
42941
42968
43018
43110
43108
43162
43222
43206
43199
43132
43035
42929
42682
42420
42112
41718
41332
40910
40529
40209
39814
39523
39307
39063
38883
38683
38458
38279
38082
37958
37823
37661
37579
37452
37309
37235
37115
37035
36965
36887
36854
36751
36647
36607
36502
36463
36476
36461
36455
36427
36473
36575
36574
36657
36799
36898
37052
37198
37317
37460
37569
37716
37815
37884
38016
38077
38128
38253
38326
38422
38490
38528
38645
38725
38770
38856
38902
39013
39132
39219
39330
39372
39452
39627
39710
39794
39897
39982
40056
40071
40173
40328
40324
40390
40538
40621
40710
40794
40899
41024
41070
41172
41272
41336
41446
41509
41572
41659
41651
41725
41837
41890
41965
41986
41983
42006
41969
42004
42019
41956
41937
41888
41844
41854
41799
41798
41797
41783
41872
41926
41946
42014
42045
42153
42267
42350
42479
42536
42595
42737
42822
42949
43061
43118
43212
43263
43324
43412
43380
43410
43502
43565
43615
43597
43626
43704
43673
43741
43833
43796
43786
43823
43897
43978
43975
44042
44081
44050
44106
44157
44193
44241
44211
44261
44323
44347
44434
44466
44473
44532
44532
44588
44629
44635
44722
44749
44741
44805
44834
44904
44926
44904
44973
45030
45103
45197
45172
45224
45304
45319
45389
45436
45468
45540
45549
45605
45647
45676
45786
45818
45814
45858
45840
45910
45987
45989
46038
46069
46105
46146
46082
46131
46236
46261
46279
46267
46304
46376
46324
46370
46465
46469
46480
46457
46461
46532
46516
46534
46564
46588
46657
46651
46672
46748
46692
46710
46790
46799
46803
46780
46823
46925
46905
46928
46961
46936
46955
46946
46967
47044
47029
47073
47122
47117
47163
47164
47169
47239
47237
47283
47318
47300
47315
47245
47135
47040
46808
46558
46257
45859
45446
44951
44467
44048
43546
43110
42701
42248
41879
41528
41214
41001
40763
40572
40366
40141
39999
39820
39651
39554
39371
39223
39109
38996
38939
38827
38724
38705
38633
38610
38588
38530
38529
38522
38567
38674
38688
38765
38891
39003
39166
39284
39399
39569
39671
39800
39925
40014
40101
40114
40181
40304
40281
40304
40394
40441
40476
40458
40483
40596
40643
40707
40747
40770
40883
40966
41042
41160
41223
41358
41470
41502
41604
41694
41759
41860
41911
42004
42091
42177
42315
42373
42445
42578
42597
42663
42763
42812
42879
42908
42950
43018
42982
43018
43085
43105
43158
43176
43211
43288
43272
43328
43419
43478
43572
43590
43598
43687
43717
43775
43833
43887
43977
43964
43973
44111
44175
44225
44259
44283
44356
44353
44357
44441
44430
44431
44436
44392
44326
44152
43964
43787
43455
43144
42840
42462
42127
41801
41496
41215
40877
40655
40464
40220
40078
39967
39844
39743
39592
39511
39433
39321
39251
39141
39065
39044
38918
38865
38865
38805
38756
38698
38706
38784
38769
38788
38830
38866
38969
39067
39216
39412
39510
39678
39871
39999
40160
40294
40405
40521
40554
40635
40717
40770
40858
40879
40906
40993
41008
41091
41185
41222
41321
41408
41483
41580
41601
41679
41776
41858
41974
42025
42117
42289
42341
42411
42511
42591
42698
42743
42812
42960
43029
43140
43250
43315
43418
43472
43539
43663
43700
43785
43881
43938
44025
44055
44114
44250
44294
44368
44447
44485
44553
44570
44605
44680
44658
44732
44833
44846
44894
44934
44996
45119
45176
45260
45312
45338
45431
45449
45445
45503
45479
45472
45428
45305
45185
44964
44708
44503
44182
43817
43408
43005
42707
42372
42048
41823
41554
41334
41116
40878
40737
40588
40442
40354
40214
40144
40080
39966
39892
39769
39664
39651
39567
39482
39395
39342
39375
39321
39251
39295
39313
39355
39379
39395
39492
39588
39742
39938
40033
40222
40397
40432
40540
40708
40830
40914
40941
41013
41058
41109
41223
41228
41228
41329
41356
41386
41396
41383
41455
41488
41499
41580
41614
41666
41700
41735
41824
41824
41862
42038
42128
42183
42222
42277
42409
42468
42520
42640
42668
42716
42787
42872
43018
43080
43122
43223
43258
43351
43432
43449
43521
43563
43601
43686
43690
43720
43743
43769
43882
43921
43928
44012
44030
44060
44086
44117
44188
44173
44199
44325
44346
44394
44454
44463
44518
44551
44596
44697
44718
44748
44718
44624
44596
44508
44336
44115
43756
43426
43104
42732
42387
42012
41689
41429
41070
40792
40574
40342
40200
40040
39837
39684
39534
39453
39325
39151
39074
38975
38866
38810
38688
38611
38545
38455
38419
38354
38319
38336
38254
38225
38250
38264
38318
38345
38418
38572
38651
38774
38921
39052
39225
39339
39442
39583
39662
39799
39898
39903
39970
40045
40108
40171
40160
40211
40249
40255
40350
40427
40487
40575
40600
40686
40764
40800
40906
40995
41090
41223
41275
41376
41476
41542
41680
41759
41797
41908
41981
42054
42087
42141
42282
42338
42391
42515
42550
42632
42721
42742
42801
42861
42954
43069
43070
43128
43200
43217
43285
43341
43410
43492
43457
43484
43542
43558
43611
43625
43660
43746
43752
43827
43894
43885
43942
44006
44067
44129
44098
44138
44203
44212
44217
44150
44096
44066
43855
43599
43318
42970
42629
42254
41920
41609
41167
40818
40566
40298
40096
39909
39744
39618
39424
39292
39176
39033
38943
38816
38699
38630
38473
38375
38316
38224
38162
38093
38076
38075
37949
37915
37940
37893
37877
37883
37926
38007
38046
38174
38302
38390
38575
38748
38887
39046
39154
39295
39377
39406
39517
39585
39609
39678
39711
39789
39851
39878
39936
39948
40004
40115
40131
40233
40348
40365
40458
40590
40679
40737
40769
40910
41004
41016
41111
41191
41254
41374
41457
41572
41635
41668
41805
41892
41926
41999
42044
42176
42281
42292
42339
42378
42457
42572
42568
42607
42685
42743
42830
42848
42885
43007
43044
43091
43119
43124
43201
43253
43320
43407
43382
43446
43550
43579
43630
43655
43685
43766
43780
43822
43839
43815
43826
43764
43683
43596
43347
43107
42845
42483
42155
41816
41469
41161
40794
40467
40154
39878
39723
39542
39375
39277
39077
38893
38746
38618
38555
38438
38323
38259
38114
38027
37979
37907
37869
37796
37752
37768
37713
37715
37728
37708
37763
37814
37873
37983
38053
38193
38329
38434
38618
38752
38858
39039
39173
39278
39345
39436
39561
39556
39573
39704
39731
39755
39800
39824
39875
39896
39959
40069
40064
40099
40172
40221
40294
40327
40395
40511
40536
40629
40727
40760
40860
40959
41040
41136
41186
41311
41407
41446
41561
41647
41711
41806
41839
41935
42032
42094
42215
42296
42376
42477
42470
42532
42623
42662
42736
42770
42815
42932
42977
43034
43077
43119
43216
43222
43227
43312
43322
43385
43450
43461
43530
43573
43609
43694
43723
43805
43874
43888
43921
43887
43867
43894
43783
43648
43474
43213
42940
42580
42211
41910
41508
41105
40757
40475
40254
39957
39713
39585
39355
39173
39093
39001
38857
38661
38587
38578
38396
38285
38255
38145
38072
38045
38023
37982
37878
37866
37872
37848
37864
37837
37847
37933
37940
38003
38121
38242
38407
38522
38651
38840
38958
39128
39303
39410
39513
39565
39655
39805
39848
39912
39999
40060
40136
40169
40239
40325
40288
40356
40486
40534
40604
40675
40739
40803
40817
40935
41056
41109
41201
41270
41363
41495
41530
41622
41717
41763
41872
41938
41974
42074
42148
42252
42294
42306
42424
42492
42525
42622
42666
42733
42786
42830
42928
42960
43007
43103
43090
43157
43265
43291
43335
43373
43444
43545
43543
43590
43636
43641
43714
43748
43777
43869
43897
43948
43967
43976
44103
44208
44264
44289
44223
44283
44383
44371
44351
44285
44183
44069
43832
43585
43274
42898
42594
42251
41875
41533
41138
40837
40584
40324
40137
39921
39714
39582
39395
39270
39179
39072
39000
38875
38781
38759
38645
38578
38542
38473
38437
38358
38286
38272
38203
38202
38233
38250
38314
38350
38426
38555
38602
38738
38907
39008
39151
39319
39525
39725
39780
39857
39963
40048
40145
40185
40260
40371
40348
40372
40454
40502
40552
40552
40585
40673
40660
40685
40735
40758
40814
40828
40866
40947
40918
40941
41014
41069
41140
41132
41122
41175
41176
41254
41349
41379
41424
41426
41458
41557
41575
41632
41682
41692
41773
41817
41847
41937
41979
42053
42096
42116
42219
42265
42297
42391
42417
42475
42526
42553
42644
42683
42723
42828
42864
42952
43045
43084
43142
43160
43232
43373
43406
43481
43572
43639
43783
43856
43842
43876
43880
43859
43769
43670
43572
43293
42996
42793
42463
42129
41833
41511
41212
40896
40639
40447
40176
39998
39861
39660
39519
39403
39299
39198
39029
38966
38927
38816
38738
38622
38497
38440
38364
38347
38290
38184
38174
38163
38150
38164
38112
38138
38200
38247
38356
38420
38491
38654
38773
38907
39031
39173
39380
39484
39551
39679
39759
39882
39965
39971
40043
40101
40142
40229
40269
40331
40361
40377
40452
40468
40516
40642
40677
40756
40849
40889
40980
41050
41128
41263
41343
41465
41570
41640
41756
41821
41911
42063
42106
42181
42283
42365
42481
42522
42562
42683
42747
42844
42936
43009
43128
43170
43200
43281
43293
43390
43492
43506
43559
43620
43699
43760
43713
43791
43897
43893
43934
43986
44032
44105
44113
44156
44184
44207
44284
44283
44313
44421
44402
44412
44455
44473
44546
44566
44558
44608
44607
44622
44579
44483
44433
44272
44029
43804
43482
43169
42855
42521
42213
41834
41490
41231
40878
40594
40396
40195
40042
39869
39728
39636
39460
39355
39270
39124
39029
38936
38868
38841
38721
38639
38591
38558
38572
38504
38438
38460
38430
38453
38494
38507
38573
38629
38735
38909
38995
39134
39311
39465
39642
39765
39901
40069
40130
40236
40341
40378
40446
40499
40573
40684
40698
40744
40799
40833
40910
40939
40999
41120
41119
41137
41212
41312
41447
41496
41555
41675
41702
41784
41883
41923
42001
42077
42195
42337
42354
42415
42499
42553
42664
42742
42815
42926
42968
43077
43170
43196
43287
43352
43393
43462
43494
43633
43740
43736
43795
43853
43893
43954
43954
44008
44036
44009
44025
43990
43981
44036
43994
44010
44047
44037
44093
44140
44198
44287
44294
44377
44478
44543
44676
44762
44824
44920
44947
45052
45161
45204
45265
45288
45352
45455
45430
45477
45562
45576
45614
45619
45634
45701
45711
45785
45813
45753
45776
45806
45831
45866
45827
45902
45986
45959
45938
45885
45876
45948
45935
45959
45980
45975
46040
46051
46062
46144
46121
46104
46111
46135
46192
46162
46198
46329
46304
46293
46315
46303
46351
46382
46418
46487
46461
46490
46545
46592
46688
46708
46734
46818
46797
46838
46899
46886
46906
46908
46942
47009
46957
46973
47032
47047
47084
47083
47130
47212
47147
47154
47220
47239
47299
47324
47360
47459
47473
47506
47523
47534
47629
47663
47694
47760
47713
47754
47827
47832
47892
47915
47896
47912
47897
47972
48012
47993
48071
48105
48107
48170
48180
48246
48281
48264
48323
48353
48398
48482
48445
48474
48523
48504
48534
48549
48592
48673
48631
48633
48661
48685
48792
48824
48814
48863
48852
48894
48946
48957
48969
48892
48856
48852
48648
48457
48288
48015
47733
47407
47063
46731
46340
46067
45802
45442
45155
44902
44673
44448
44125
43919
43776
43584
43432
43267
43133
43031
42843
42772
42717
42558
42477
42441
42411
42412
42347
42329
42326
42341
42395
42368
42417
42575
42613
42718
42898
43029
43172
43279
43390
43531
43577
43665
43764
43849
43970
44011
44049
44125
44105
44170
44257
44269
44339
44391
44418
44492
44526
44593
44607
44599
44673
44687
44721
44856
44913
44996
45053
45064
45160
45212
45224
45301
45345
45414
45431
45425
45504
45525
45547
45638
45638
45680
45722
45713
45767
45796
45823
45875
45852
45934
46013
45990
46022
46064
46110
46165
46136
46196
46249
46229
46281
46302
46297
46340
46336
46395
46420
46398
46456
46465
46463
46524
46505
46535
46578
46608
46695
46690
46672
46760
46803
46872
46898
46893
46978
47001
46983
47026
47006
47012
46994
46919
46841
46659
46499
46408
46157
45894
45664
45427
45232
44986
44759
44596
44350
44196
44102
43964
43846
43685
43557
43502
43356
43265
43212
43137
43097
43005
42942
42941
42844
42819
42826
42781
42787
42769
42760
42814
42815
42877
42955
43029
43163
43229
43321
43520
43638
43750
43821
43860
43982
44063
44126
44229
44257
44339
44417
44442
44506
44533
44574
44639
44607
44682
44774
44760
44800
44854
44905
44986
45008
45078
45112
45122
45224
45264
45284
45377
45398
45436
45441
45418
45497
45564
45634
45716
45693
45765
45854
45853
45914
45988
46055
46112
46081
46143
46193
46182
46275
46337
46327
46355
46376
46470
46507
46494
46567
46581
46590
46689
46718
46771
46812
46824
46880
46872
46917
47074
47103
47104
47117
47143
47212
47189
47201
47316
47331
47366
47393
47364
47391
47397
47403
47424
47315
47238
47151
46978
46802
46573
46366
46169
45825
45560
45348
45064
44833
44639
44488
44348
44096
43931
43807
43648
43564
43473
43395
43369
43271
43240
43213
43149
43154
43119
43080
43097
43056
43103
43176
43209
43283
43320
43410
43605
43711
43828
43952
44088
44292
44422
44533
44681
44750
44894
44995
44960
44986
45052
45118
45174
45144
45195
45244
45249
45321
45328
45313
45379
45388
45414
45433
45464
45545
45528
45531
45614
45592
45641
45730
45750
45814
45882
45959
46025
45984
46056
46146
46143
46198
46247
46290
46375
46389
46442
46488
46530
46622
46608
46609
46734
46772
46806
46823
46826
46908
46940
46972
47059
47054
47104
47152
47145
47209
47250
47277
47321
47291
47364
47432
47395
47405
47417
47454
47535
47522
47553
47576
47559
47598
47567
47488
47404
47195
47039
46875
46623
46401
46128
45817
45534
45203
44981
44785
44536
44348
44167
44037
43943
43720
43578
43515
43424
43353
43252
43196
43181
43058
43021
42989
42860
42818
42818
42812
42827
42818
42909
42971
42979
43090
43177
43261
43442
43572
43686
43768
43874
44033
44103
44213
44368
44351
44406
44524
44534
44547
44579
44629
44681
44646
44692
44748
44754
44802
44832
44912
45004
44947
44999
45118
45154
45228
45290
45337
45421
45463
45561
45638
45707
45852
45906
45931
46014
46032
46143
46249
46247
46280
46292
46307
46386
46393
46413
46418
46431
46510
46510
46546
46663
46647
46670
46727
46740
46803
46814
46794
46836
46853
46938
46979
46958
47014
47043
47084
47154
47112
47145
47205
47193
47210
47206
47227
47283
47198
47117
47048
46951
46844
46623
46409
46227
45884
45596
45360
45080
44878
44673
44444
44261
44045
43888
43736
43597
43531
43380
43245
43210
43071
42956
42896
42832
42776
42671
42654
42691
42567
42521
42554
42510
42480
42464
42491
42562
42579
42695
42824
42896
43022
43131
43270
43451
43528
43662
43813
43925
44084
44179
44248
44374
44425
44484
44516
44546
44649
44668
44675
44759
44770
44826
44882
44892
44946
44963
45007
45100
45091
45148
45229
45260
45340
45377
45410
45512
45556
45640
45702
45730
45817
45851
45908
46019
46010
46055
46111
46113
46198
46260
46278
46332
46341
46397
46424
46425
46488
46490
46530
46648
46635
46668
46746
46768
46785
46762
46798
46882
46843
46895
46983
46978
47010
47041
47088
47177
47190
47248
47286
47282
47321
47271
47196
47156
46974
46773
46563
46331
46137
45853
45544
45276
44924
44661
44442
44167
43935
43704
43520
43385
43164
43038
42963
42822
42687
42526
42424
42384
42248
42183
42114
41972
41940
41920
41841
41801
41776
41810
41789
41758
41813
41809
41836
41946
41966
42072
42233
42336
42464
42576
42714
42900
43008
43167
43304
43374
43488
43577
43684
43809
43827
43921
44017
44024
44091
44166
44242
44344
44374
44450
44506
44536
44641
44680
44705
44807
44840
44901
44960
45004
45097
45127
45186
45310
45325
45397
45480
45493
45561
45610
45645
45711
45722
45806
45862
45863
45952
46005
46026
46085
46072
46113
46153
46170
46251
46276
46318
46414
46394
46433
46505
46527
46582
46590
46614
46706
46709
46746
46792
46829
46927
46933
46915
46981
46975
46978
46951
46879
46832
46691
46537
46424
46167
45909
45653
45357
45102
44802
44520
44312
44027
43796
43600
43394
43245
43065
42929
42851
42652
42518
42446
42352
42304
42208
42112
42091
42012
41959
41899
41838
41848
41797
41770
41831
41798
41805
41864
41932
42038
42091
42196
42379
42451
42569
42720
42833
42981
43067
43140
43280
43367
43482
43566
43623
43738
43769
43784
43878
43902
43950
44007
44065
44174
44189
44198
44299
44356
44466
44536
44532
44620
44710
44769
44842
44862
44976
45085
45128
45220
45274
45336
45441
45452
45534
45632
45668
45741
45775
45812
45879
45858
45936
46045
46080
46140
46170
46220
46305
46293
46368
46457
46463
46508
46527
46560
46640
46630
46666
46697
46699
46767
46755
46730
46814
46860
46916
46925
46914
46987
47015
47058
47137
47067
47010
46942
46782
46622
46378
46085
45825
45491
45186
44861
44515
44253
43953
43674
43487
43233
43030
42856
42666
42525
42339
42181
42094
41921
41814
41737
41617
41565
41506
41452
41444
41355
41320
41324
41317
41305
41205
41195
41325
41367
41457
41592
41685
41814
41939
42099
42269
42331
42477
42618
42663
42772
42881
42946
43009
43020
43087
43119
43135
43256
43325
43361
43454
43478
43537
43605
43657
43733
43730
43781
43933
43976
44047
44134
44179
44280
44340
44389
44496
44525
44564
44596
44643
44734
44725
44751
44883
44900
44937
44995
45016
45079
45108
45164
45283
45305
45359
45411
45432
45511
45539
45577
45673
45674
45715
45759
45777
45865
45889
45892
45975
46013
46093
46156
46198
46284
46281
46290
46400
46413
46428
46450
46457
46492
46436
46372
46348
46183
46021
45836
45556
45283
44976
44695
44446
44093
43817
43565
43256
43040
42843
42647
42502
42301
42137
41974
41820
41739
41599
41492
41471
41346
41274
41248
41181
41142
41070
41021
41029
40968
40975
40992
40963
41005
41058
41139
41237
41256
41393
41547
41610
41751
41922
42080
42250
42358
42512
42660
42801
42967
43013
43081
43251
43307
43368
43456
43542
43664
43709
43770
43920
43996
44093
44173
44229
44354
44419
44458
44546
44570
44653
44733
44770
44860
44907
44964
45060
45054
45116
45194
45216
45302
45360
45410
45509
45544
45615
45645
45637
45720
45767
45811
45907
45905
45942
45991
46028
46138
46182
46208
46289
46280
46303
46338
46371
46470
46491
46491
46532
46484
46518
46569
46562
46626
46664
46680
46754
46774
46822
46854
46868
46901
46819
46769
46813
46703
46570
46443
46259
46068
45780
45473
45220
44883
44591
44321
44038
43818
43564
43344
43204
42975
42793
42632
42460
42397
42314
42182
42062
41902
41862
41841
41750
41695
41605
41538
41551
41502
41500
41500
41488
41555
41551
41531
41624
41708
41819
41891
41969
42165
42324
42472
42669
42790
42973
43150
43268
43443
43554
43601
43692
43766
43882
43939
43950
44032
44076
44137
44231
44216
44294
44403
44411
44449
44508
44591
44666
44631
44684
44755
44767
44837
44893
44956
45040
45044
45147
45253
45267
45321
45348
45372
45438
45430
45479
45534
45569
45659
45689
45743
45865
45882
45957
46039
46061
46151
46218
46262
46344
46363
46429
46463
46458
46539
46583
46634
46744
46747
46788
46863
46919
46982
46971
47024
47140
47100
47123
47209
47236
47289
47297
47294
47349
47344
47375
47390
47387
47439
47425
47460
47580
47561
47574
47619
47613
47640
47638
47658
47704
47640
47669
47722
47694
47709
47690
47672
47728
47732
47772
47768
47735
47804
47820
47815
47863
47827
47855
47899
47904
47950
47941
47965
48067
48044
48043
48084
48129
48205
48186
48181
48252
48237
48320
48415
48383
48374
48398
48486
48578
48524
48565
48669
48709
48746
48738
48794
48915
48893
48908
48951
48964
49043
49080
49117
49209
49205
49240
49273
49280
49348
49361
49386
49441
49375
49419
49506
49497
49521
49538
49576
49658
49642
49666
49674
49653
49720
49729
49728
49791
49767
49791
49792
49735
49774
49804
49830
49876
49825
49868
49929
49907
49916
49920
49982
50068
50010
50055
50144
50121
50108
50087
50103
50154
50096
50105
50138
50130
50159
50138
50142
50171
50059
50022
49996
49833
49660
49441
49202
48982
48662
48368
48048
47708
47471
47173
46854
46643
46391
46161
45931
45723
45595
45392
45212
45107
44894
44786
44770
44698
44622
44514
44466
44497
44431
44434
44496
44548
44625
44615
44645
44821
44921
45008
45118
45279
45476
45539
45642
45883
46001
46088
46170
46232
46349
46436
46544
46652
46626
46700
46798
46787
46840
46902
46924
46969
46980
47034
47026
46993
47054
47059
47076
47160
47134
47158
47194
47171
47218
47263
47315
47393
47372
47419
47471
47470
47522
47526
47533
47597
47563
47575
47597
47595
47656
47661
47674
47754
47734
47758
47791
47794
47858
47860
47865
47959
47956
47942
47924
47941
48036
48031
48033
48135
48136
48163
48186
48175
48250
48277
48261
48297
48310
48404
48448
48400
48424
48453
48514
48590
48521
48519
48560
48555
48587
48544
48464
48434
48319
48186
47977
47735
47587
47353
47060
46833
46552
46306
46027
45721
45528
45313
45081
44907
44687
44550
44404
44200
44092
43983
43868
43799
43669
43605
43543
43450
43428
43363
43310
43334
43279
43269
43270
43245
43285
43321
43427
43592
43638
43761
43933
44047
44191
44292
44399
44583
44711
44852
44941
45003
45141
45219
45304
45447
45468
45499
45537
45578
45706
45764
45778
45852
45900
46029
46131
46157
46243
46303
46370
46476
46494
46594
46700
46734
46824
46876
46904
46973
46979
47043
47109
47157
47255
47263
47271
47358
47361
47420
47496
47515
47557
47550
47564
47618
47565
47614
47705
47710
47724
47707
47723
47797
47782
47826
47868
47868
47948
47982
47985
48027
47996
48037
48087
48096
48147
48137
48149
48244
48239
48256
48264
48229
48241
48172
48061
47980
47793
47613
47396
47133
46940
46670
46345
46077
45757
45494
45244
45002
44862
44679
44498
44401
44229
44109
44024
43926
43872
43764
43688
43677
43559
43514
43509
43445
43428
43427
43471
43531
43492
43571
43681
43715
43830
43957
44066
44218
44357
44561
44692
44754
44907
45013
45085
45218
45280
45345
45374
45391
45478
45487
45501
45593
45581
45595
45627
45651
45747
45783
45811
45923
45973
46043
46079
46098
46223
46296
46340
46433
46441
46492
46553
46601
46706
46747
46810
46941
46949
46978
47029
47073
47182
47228
47252
47309
47286
47351
47413
47396
47451
47488
47496
47546
47551
47614
47633
47600
47652
47666
47685
47757
47721
47732
47756
47750
47813
47832
47849
47924
47908
47921
47927
47909
47953
47941
47933
47975
47898
47836
47730
47528
47368
47151
46882
46647
46336
46031
45695
45359
45111
44805
44518
44317
44046
43865
43728
43550
43452
43352
43244
43183
43084
43070
43037
42944
42931
42910
42903
42929
42862
42870
42903
42915
43030
43144
43241
43370
43454
43637
43821
43939
44098
44238
44409
44598
44657
44783
44901
44914
44980
45041
45069
45109
45091
45132
45171
45197
45266
45237
45229
45320
45304
45294
45289
45269
45321
45317
45302
45359
45363
45423
45474
45473
45515
45519
45563
45672
45663
45700
45768
45794
45843
45840
45871
45977
45984
46035
46097
46117
46183
46209
46262
46374
46375
46418
46493
46534
46582
46569
46625
46755
46738
46770
46850
46887
46966
46994
47008
47090
47117
47174
47215
47246
47324
47321
47340
47401
47290
47210
47186
47082
46924
46683
46469
46271
45918
45621
45347
44998
44717
44461
44212
43998
43736
43570
43433
43268
43152
42991
42868
42816
42679
42618
42556
42401
42340
42318
42276
42238
42144
42124
42113
42084
42094
42035
42032
42148
42186
42280
42397
42468
42600
42735
42902
43102
43203
43352
43480
43545
43680
43792
43886
44012
44057
44124
44170
44204
44311
44354
44401
44518
44536
44580
44628
44658
44755
44807
44859
44972
45003
45067
45112
45125
45235
45330
45404
45461
45396
45426
45515
45545
45566
45534
45566
45687
45687
45693
45705
45707
45777
45795
45815
45892
45881
45925
45973
45976
46037
46065
46105
46192
46168
46177
46189
46182
46261
46293
46309
46386
46393
46437
46470
46467
46511
46503
46523
46596
46527
46463
46385
46234
46101
45880
45584
45281
44893
44579
44289
43951
43639
43312
43075
42927
42649
42415
42251
42072
41933
41784
41686
41623
41454
41390
41373
41260
41167
41091
41059
41062
40987
40985
40989
40937
40935
40919
40927
40982
40978
41076
41192
41244
41373
41531
41702
41875
41968
42156
42341
42427
42537
42619
42692
42779
42797
42903
43002
43007
43048
43090
43177
43293
43280
43312
43387
43448
43546
43599
43686
43829
43863
43953
44059
44107
44200
44278
44376
44503
44535
44640
44763
44821
44894
44939
45036
45165
45160
45231
45336
45375
45468
45537
45576
45644
45673
45776
45850
45866
45932
45951
46010
46144
46153
46180
46214
46220
46291
46313
46326
