25088
25543
25550
25682
25698
25769
25967
25902
25903
25964
26032
26038
25947
26325
26282
26532
26424
26527
26658
26582
27130
27028
27457
27061
27254
27217
27382
27403
27654
27767
27653
28007
28146
27991
27921
28037
27843
27878
27814
27879
27801
27767
27648
27670
27922
27667
27582
27665
27695
27453
27552
27795
27524
27409
27446
27527
27393
27240
27583
27629
27502
27620
27705
27741
27634
27651
27902
27775
27638
27786
27866
27824
27893
27805
27774
27818
27817
27944
27772
27690
27777
27812
27785
27327
27770
27681
27734
27436
27680
27668
27602
27642
27511
27721
27377
27292
27681
27547
27592
27354
27380
27339
27091
27205
27298
27087
26818
26914
27043
26806
26594
26863
26743
26611
26718
26750
26769
26572
26702
26611
26734
26736
26720
26607
26539
26117
26793
26596
26407
26338
26482
26120
26193
26298
26283
26305
26294
26425
26223
26394
26206
26565
26458
26379
26408
26541
26707
26219
26296
25805
26122
25893
25971
26008
25900
25612
25795
25759
25637
25768
25892
26017
25754
25969
26112
26129
25830
26170
26390
26158
26106
26182
26496
26483
26460
26643
26660
26491
26630
26701
26639
26375
26555
26682
26701
26600
26979
27127
27107
27225
27369
27528
27331
27534
27656
27797
27736
27835
28052
27848
27406
27962
27748
27749
27734
27929
27875
27670
27513
27759
27624
27520
27709
27795
27813
27624
27735
27721
27592
27981
27728
27635
27423
27499
27512
27522
27568
27645
27520
27583
27604
27576
27594
27551
27953
27616
28026
27501
27590
27687
27584
27814
27252
27390
27540
27524
27486
27538
27374
27475
27481
27441
27274
27329
27322
27519
27343
27422
27377
27172
27176
27143
27315
27228
27270
27204
27219
27113
26934
27165
27047
27094
27053
27179
27090
27025
27070
27199
27088
26892
27111
27270
26870
27024
26973
27065
26918
26748
26937
26846
26833
26761
26818
26794
26508
26746
26562
26626
26420
26513
26607
26504
26288
26437
26726
26316
26363
26491
26365
26262
26193
26405
26298
26321
26304
26210
26275
26046
26442
26437
26266
25971
26250
26341
26066
26441
26359
26496
26265
26772
26565
26488
26555
26636
26609
26636
27173
26158
26965
27458
26929
27059
27234
27041
27434
27719
27610
27421
27893
27767
27978
27885
28067
28415
28032
28366
28183
28285
28274
28356
28231
28174
28121
28199
28137
28034
28153
28267
28210
28123
27979
28273
28075
27985
28061
28032
28035
27977
28003
28008
28046
27911
28104
28100
27958
28036
28002
28047
27926
27959
27916
27981
27649
27882
28008
27488
27724
27791
27946
27742
27749
27909
27967
27720
27741
27842
27693
27556
27689
27525
27649
27402
27605
27635
27550
27425
27562
27510
27509
27404
27520
27397
27287
27320
27659
27332
27247
27391
27361
27306
27249
27360
27071
27179
27266
27286
26922
27141
27280
27363
27223
27219
27074
27277
27080
27139
27215
27093
27022
27026
27173
27133
26929
27069
27146
27005
26829
26800
26968
26960
26825
27080
26879
26793
26495
26707
26793
26565
26589
26726
26600
26547
26527
26626
26613
26314
26624
26720
26546
26527
26604
26807
26674
26764
26783
26797
26594
26872
26888
26989
26924
27085
27235
27185
27094
27354
27451
27646
27671
27675
27953
27802
27887
28232
28167
28284
28339
28383
28449
28328
28480
28320
28399
28366
28546
28422
28398
28454
28562
28422
28355
28420
28619
28464
28313
28479
28638
28246
28382
28540
28348
28356
28460
28395
28378
28341
28406
28361
28466
28344
28448
28642
28308
28307
28346
28351
28183
28185
28389
28387
28332
28113
28550
28240
28023
28242
28219
28199
28013
28304
28186
28031
28101
28145
28152
27977
28004
28053
28001
27915
27919
27745
27944
27675
27882
27898
27891
27909
27867
27996
27739
27820
28054
27911
27693
27487
27690
27733
27707
27640
27623
27496
27415
27581
27727
27340
27388
27476
27409
27245
27396
27419
27308
27227
27302
27257
27300
27111
27531
27404
27146
27224
27006
27424
26931
27314
27031
26783
27059
26627
26661
26766
26523
26473
26716
26229
26240
26460
26399
26361
26311
26468
26488
26434
26434
26379
26477
26408
26569
26732
26617
26479
26721
26821
26696
26691
26782
26821
26794
26904
26952
27223
27069
27306
27263
27325
27454
27621
27640
27681
27743
27867
27783
27849
28008
28139
28026
27914
28010
27907
27834
27838
27957
27628
27899
27155
27704
27743
27450
27639
27971
27755
27759
27526
27488
27681
27737
27655
27463
27516
27340
27530
27634
27457
27477
27456
27521
27424
27348
27444
27402
27143
27371
27540
27468
27249
27565
27483
27410
27383
27730
27465
27255
27406
27467
27431
27292
27533
27678
27350
27157
27396
27456
27229
27091
27392
27400
27187
27032
27471
27165
26900
27115
27158
27179
27150
27187
26983
27138
27165
27231
27094
27128
27171
27184
27272
27054
27172
27326
27178
27373
27220
27399
27234
27110
27403
27327
27119
27238
27423
27295
27212
27285
27230
27261
27220
27270
27231
27251
26932
27118
27006
26920
26955
27005
27086
26874
26881
26978
26897
26670
26933
26862
26743
26775
26753
26636
26658
26522
26660
26639
26623
26666
26687
26706
26506
26729
26768
26719
26765
26834
26793
26903
26711
27106
27217
27065
27155
27531
27532
27375
27774
27796
27786
27967
28056
28190
28176
28028
28393
28408
28478
28302
28493
28430
28342
28375
28374
28438
28250
28276
28438
28435
28327
28262
28435
28226
28315
28575
28318
28245
28222
28249
28134
27992
27965
27929
28003
27756
27929
27770
27786
27835
28075
27978
27813
27768
27993
27855
27607
27797
27993
28003
27866
27850
27827
27789
27638
27669
27742
27962
27556
27806
27908
27647
27702
28088
27965
27802
27955
28040
27912
28049
28321
28118
27995
27874
28095
28110
28141
28120
28383
28318
27997
28163
28314
28082
27926
28097
28134
28071
28110
28044
28286
28124
28005
28267
28308
28176
28307
28234
28222
28184
28258
28069
28072
28130
28093
27801
27912
27840
27798
27911
27678
27709
27517
27563
27456
27469
27557
27284
27384
27277
27251
27183
27169
27276
27127
27034
27174
27134
27043
26900
27067
26911
27009
26973
27120
27207
27120
27210
26985
27229
27159
26936
27393
27512
27490
27587
27793
27729
27845
27978
28102
27841
27897
28186
28216
28185
28300
28292
28490
28113
28339
28411
28471
28223
28432
28372
28178
28434
28251
28272
28191
28108
28129
28318
28099
28148
28087
28131
28066
28050
28142
28067
27987
28063
28043
27967
27637
27889
27847
27815
27926
27901
27933
27897
27743
27665
27801
27746
27762
27795
27622
27677
27806
27730
27601
27592
27603
27518
27328
27354
27528
27322
27221
27267
27152
27232
27014
27176
27081
27246
27000
27120
27148
26995
26988
27276
27022
27064
27028
26906
27033
26895
26980
26707
27147
26871
26843
26921
26799
26667
26758
26732
26751
26672
26720
26627
26414
26473
26689
26607
26307
26549
26393
26422
26373
26414
26419
26177
26238
26259
26152
26030
26042
26157
25778
25951
25930
25943
25981
25930
25987
26092
25887
25948
25880
26039
25980
25971
26097
26155
25622
26292
26402
26068
26311
26286
26335
26170
26151
26264
26462
26262
26090
26243
26298
26170
26493
26334
26417
26295
26599
26653
26559
26687
26786
26809
26906
27100
27095
27210
27266
27464
27609
27540
27491
27713
27655
27752
27643
27711
27693
27577
27648
27601
27666
27555
27729
27750
27603
27589
27578
27728
27574
27552
27743
27729
27633
27745
27751
27614
27713
27684
27929
27740
27467
27780
27946
27832
27758
27839
28020
27956
27929
28027
27917
27845
27962
28235
28031
27892
27973
27945
27895
27737
27912
27710
27607
27519
27406
27377
27328
27292
27214
27228
27186
27093
27230
26934
26866
26932
26951
26846
26801
26804
26700
26674
26801
26869
26616
26900
26799
26945
26892
26953
27030
27080
26993
26986
27177
27227
27111
27145
27330
27267
27216
27277
27445
27363
27290
27414
27452
27256
27282
27377
27255
27394
27317
27254
27233
27263
27160
27274
27166
26941
27132
27064
27133
26968
27039
26951
26910
26688
26796
26962
26753
26910
26939
27011
26807
26845
27005
26937
26857
26930
27089
27190
27024
27252
27148
27032
27078
27390
27318
27023
27334
27646
27483
27392
27493
27565
27563
27576
28028
28181
28021
28183
28233
28372
28219
28415
28595
28260
28428
28620
28786
28548
28393
28470
28580
28496
28417
28527
28615
28428
28344
28480
28411
28296
28414
28425
28356
28424
28395
28507
28361
28449
28339
28620
28345
28375
28424
28281
28151
28328
28338
28183
28060
28323
28184
28208
28147
27987
27902
27934
28045
28036
27957
27841
27652
27792
27865
27412
27783
27827
27881
27499
27758
27849
27740
27529
27675
27656
27430
27519
27606
27537
27315
27381
27616
27129
27061
27212
27222
27091
27034
27033
27193
26871
26924
27119
27070
27118
27044
27048
26959
26868
26927
26807
26720
26771
26696
26668
26522
26523
26591
26461
26447
26288
26337
25971
26140
26238
26399
26263
26032
26147
26185
25974
26080
26099
25986
25936
25874
25981
25571
25767
25828
25852
25719
25800
25792
25818
25877
25723
26031
25957
25852
26072
26209
26277
26104
26279
26350
26181
26243
26511
26311
26382
26386
26679
26736
26518
26633
26576
26852
26938
26835
27130
27256
27413
27449
27578
27675
27664
27902
27978
27990
27899
27952
28225
28076
28110
28084
28111
28033
28116
28172
27927
28017
27909
27961
27813
27764
27765
27738
27724
27553
27555
27649
27461
27647
27411
27495
27371
27471
27363
27620
27205
27409
27281
27251
27314
27281
27197
27167
27279
27052
27077
27142
27202
27027
26982
26764
27134
27030
27103
27250
27060
27144
26843
27090
27088
26771
26662
26925
26844
26920
26637
26826
26825
26799
26651
26828
26931
26816
26832
26882
26844
26736
26856
26683
26789
26587
26692
26580
26486
26485
26552
26604
26416
26312
26350
26186
26091
26056
26047
26088
25891
25874
25783
25830
25622
25760
25623
25675
25483
25673
25608
25492
25544
25513
25382
25458
25339
25355
25493
25291
25270
25141
25422
25448
25272
25350
25199
25281
25334
25272
25249
25150
25266
25286
25223
25240
25349
25341
25202
25367
25550
25346
25407
25516
25543
25504
25543
25576
25718
25501
25682
25738
25752
25845
25780
25892
25772
25796
26032
26073
26065
26200
26214
26417
26422
26667
26648
26712
26709
26949
26997
27078
26912
27063
27092
26892
26937
26968
27022
26823
26872
26854
26701
26617
26699
26836
26714
26514
26695
26980
26552
26779
26814
26754
26765
26748
26844
26768
26623
26679
26717
26626
26517
26586
26577
26536
26454
26540
26624
26303
26418
26370
26303
26292
26328
26269
26249
26108
26013
26159
26132
26060
26147
26138
25904
26053
25996
25989
25811
25809
25898
25719
25613
25543
25569
25566
25532
25489
25637
25376
25219
25371
25294
25220
25322
25256
25307
25251
25250
25160
25218
25049
25245
25200
25140
25221
25265
25349
25153
25174
25286
25257
24844
25224
25195
25177
25084
25198
25205
24947
25039
25060
25085
25117
24880
24969
25023
24964
24918
24855
24915
24848
24912
24742
24834
24740
24695
24723
24619
24687
24589
24675
24522
24664
24799
24762
24699
24616
24916
24735
24581
24888
24896
24729
24746
25133
24972
25095
25197
25293
25240
25313
25605
25851
25725
25436
26133
26038
26184
26317
26600
26688
26646
26629
26932
27021
26924
27044
27139
27112
27162
27159
27299
27109
27090
27087
27133
27103
26974
27081
27077
26899
26959
27123
27056
27071
26968
26948
26990
26818
27061
26987
26850
26810
26901
26880
26743
26665
26799
26775
26744
26788
26796
26647
26772
26841
26954
26762
27012
26848
27035
26695
26812
26935
26865
27141
26817
26993
26990
26790
26776
26960
26720
26775
26745
26621
26642
26457
26559
26684
26524
26526
26330
26530
26179
26466
26333
26341
26231
26441
25987
26386
25511
26104
26286
25894
25968
25949
25929
25845
26224
25813
25874
25718
25808
25728
25559
26351
25831
25422
25784
25842
25860
25783
25557
25618
25616
25729
25480
25649
25614
25612
25480
25562
25689
25202
25451
25344
25628
25356
25257
25363
25275
25420
25224
25411
25376
25385
25351
25397
25304
25197
25317
25498
25305
25357
25458
25445
25468
25462
25319
25472
25467
25576
25662
25677
25358
25738
25872
25704
25853
26039
26170
26372
26279
26481
26501
26345
26625
26917
26919
26810
26959
26892
26741
26740
26986
26994
26850
27005
26914
26905
26905
26967
27077
26921
26855
26826
26618
26771
26590
26924
26730
26661
26724
26756
26632
26512
26567
26860
26602
26460
26784
26660
26505
26403
26506
26577
26432
26536
26540
26545
26479
26486
26518
26352
26317
26395
26630
26349
26230
26336
26369
26228
26305
26272
26198
26107
25725
26047
26109
25925
26132
26071
26096
26244
26048
26193
25997
25895
25908
26059
25770
25773
25933
25949
25741
25866
25777
25774
25755
25710
25902
25667
25830
25641
25499
25504
25563
25759
25774
25669
25533
25605
25426
25142
25246
25475
25518
25348
25453
25544
25515
25445
25425
25378
25342
25169
25231
25158
25166
25170
25379
25114
25081
25142
25028
25031
25106
25204
25050
24967
25073
25097
25161
25096
25114
25199
25189
25017
25094
25210
25148
25285
25291
25340
25329
25203
25464
25484
25364
25530
25643
25710
25616
25788
25903
25950
26003
26078
26177
26219
26347
26512
26543
26582
26905
27145
26493
26803
26920
27051
26985
26993
27084
26885
26948
27050
27044
26966
27003
26965
27073
26957
26869
27372
27073
26758
26782
26791
26917
26870
26566
26846
26903
26814
26783
26859
26784
26706
26792
26888
26810
26531
26830
26883
26828
26682
26820
27049
26800
26771
26851
26652
26775
26661
26803
26679
26588
26604
26744
26637
26474
26504
26645
26415
26541
26442
26380
26507
26408
26447
26438
26286
26368
26405
26517
26297
26308
26373
26376
26371
26268
26349
26297
26297
26279
26340
26105
26261
26219
26241
26119
26283
26260
26206
25953
26302
26226
26245
25594
26224
26518
26150
26055
26427
26195
26247
26091
26220
26059
26020
25993
26067
25719
25844
26003
25967
25761
25804
25776
25801
25595
25791
25911
25732
25564
25855
25858
25716
25781
25857
25892
25776
25913
25946
25883
25894
25905
25976
26088
25961
26050
26189
26100
26029
26219
26328
26163
26292
26383
26441
26473
26615
26801
26737
26548
26934
27137
27279
27130
27405
27695
27509
27665
27751
27674
27631
27706
27778
27690
27555
27597
27498
27564
27357
27543
27776
27574
27668
27433
27785
27212
27491
27555
27502
27510
27491
27513
27496
27402
27394
27370
27347
27161
27262
27391
27229
27369
27301
27441
27198
27347
27361
27334
27212
27281
27413
27415
27142
27279
27365
27170
27287
27323
27205
27282
27063
27282
27219
27001
27274
27161
27160
26979
27092
27218
27108
26970
27264
27050
27168
27154
27170
27105
27090
27160
27271
27213
27047
27054
27348
27111
27109
27100
26994
27033
27087
27183
27293
26982
27030
27115
27156
27094
27133
27270
27422
26997
27141
27144
27205
27207
27256
27220
27111
27127
27319
27328
27167
26994
27115
27024
26859
27079
27060
26806
26852
26779
26726
26844
26690
26782
26975
26675
26755
26864
26774
26701
26867
26966
26828
26891
26838
26989
26845
26941
26968
27217
26856
26959
27288
27272
27198
27314
27335
27476
27561
27616
27749
27800
27717
27894
28055
28155
28270
28196
28505
28376
28386
28465
28412
28311
28439
28361
28337
28209
28301
28369
28060
28171
28160
28300
27976
28143
28077
28164
27942
28052
28261
27995
27917
28029
28010
27930
27866
27944
28052
27782
27840
27722
27851
27801
27735
27923
27775
27747
27757
27807
27716
27545
27687
27944
27658
27646
27696
27819
27760
27599
27699
27569
27792
27605
27520
27532
27482
27468
27645
27429
27238
27603
27598
27303
27256
27374
27325
27298
27144
27310
27208
27165
27247
27352
27110
27011
27403
27087
27137
27088
27233
27135
26998
27054
26920
26945
26987
26930
27060
26892
26700
27064
27034
26942
26837
27006
26933
26916
26902
26881
26829
26813
26791
26906
26855
26732
26916
26880
26752
26754
26816
26469
26467
26673
26764
26620
26400
26436
26567
26363
26328
26294
26268
26315
26203
26381
26404
26282
26213
26199
26226
26119
26204
26222
26172
26111
26113
26192
26128
26214
26148
26134
25994
25966
26077
26032
25951
26258
26127
26228
26007
26153
26240
26439
26245
26492
26617
26551
26700
26936
27001
26928
27039
27088
27244
27240
27140
27312
27218
27128
27300
27310
27146
27085
27235
27205
27166
27283
27082
27216
27128
27191
27200
27181
26987
27160
27171
27037
26922
27004
27188
27141
26965
27000
27045
27007
27038
26974
27062
27004
27127
27088
27032
27124
27025
27008
26962
26905
27032
26879
26975
26853
26887
26936
26702
26819
26924
26789
26770
26778
26990
26864
26487
26714
26705
26663
26655
26797
26754
26726
26860
26830
26751
26725
26742
26594
26761
26512
26737
26760
26581
26761
26749
26715
26467
26644
26756
26614
26414
26511
26475
26539
26391
26470
26233
26271
26437
26412
26553
26148
26320
26221
26272
26188
26236
26239
26130
25983
26197
26188
26091
26254
26097
26302
25970
26050
26094
26011
26167
26051
26179
26320
25921
25982
26104
26070
25873
26086
25955
25909
25887
25945
25995
25976
26024
25971
26051
25977
26173
25979
26103
25865
25984
26083
25994
25905
26174
26403
26152
26290
26217
26233
26290
26330
26349
26669
26412
26462
26596
26548
26490
26553
26665
26560
26596
26671
26918
26548
26878
26993
27017
26866
27090
27056
27205
27214
27265
27164
27219
27171
27111
27302
27116
27270
27255
27100
27090
27128
27268
27155
26834
26879
26902
26876
26960
26960
26762
26656
26810
26781
26722
26613
26681
26555
26562
26493
26675
27029
26839
26487
26491
26634
26641
26902
26593
26605
26309
26613
26605
26464
26284
26431
26261
26531
26182
26367
26186
26390
26444
26429
26542
26270
26181
26271
26205
26129
26231
26328
26182
26249
26209
26179
25990
26196
26059
26314
25928
26019
26176
26047
25869
26146
26316
26116
26001
26024
26182
26080
25861
26012
25995
25916
25933
26183
26104
25881
25981
25996
25989
25811
25892
25969
26014
25990
25872
25808
25984
25996
26057
26010
25881
25879
25992
25879
25766
25850
25662
25811
25677
25682
25780
25746
25509
25650
25838
25606
25680
25690
25781
25682
25779
26017
25758
25570
25627
25769
25646
25531
25702
25678
25567
25507
25676
25770
25715
25781
25667
25763
25708
25795
25833
25894
25808
25943
26065
26003
25955
26057
26237
26102
26249
26228
26332
26438
26515
26512
26457
26705
26926
26937
27024
27017
27244
27390
27299
27576
27727
27826
27646
27763
27814
27870
27634
27963
28165
27877
27653
27968
28081
28035
27890
28078
27939
27995
27945
28064
28129
28042
28139
27874
27974
28084
27900
28003
27955
27877
28071
28021
27939
27916
28105
28005
27848
27939
28126
28029
27710
27883
27838
27887
27835
27910
28082
27942
27807
28249
28012
28113
27910
28050
27799
27822
27917
27671
27821
27468
27685
27874
27689
27700
27838
27741
27672
27667
27757
27623
27625
27785
27765
27712
27831
27678
27609
27614
27409
27731
27650
27496
27477
27592
27560
27500
27674
27581
27482
27425
27505
27286
27450
27857
27491
27389
27312
27096
27396
27172
27174
27050
27374
27187
26804
27029
27101
27039
26845
26868
27042
26793
26560
26853
26811
26666
26730
26821
26651
26333
26673
26759
26699
26514
26549
26534
26578
26513
26449
26599
26364
26373
26436
26301
26118
26274
26480
26419
26302
26383
26494
26427
26456
26436
26667
26528
26493
26726
26897
26720
26668
26797
26762
26920
27052
26784
26998
27076
27091
27343
27362
27353
27517
27621
27735
27757
27868
27881
27873
27911
27995
27942
28000
27997
28186
27973
27976
27860
27934
27921
27942
27813
28180
27870
27922
27759
27938
27862
27854
27995
27927
27834
27892
27860
27800
27720
27875
27734
27569
27875
27676
27771
27629
27730
27732
27733
27639
27728
27782
27663
27531
27673
27566
27578
27566
27494
27587
27581
27516
27534
27398
27596
27477
27547
27446
27363
27568
27423
27416
27511
27647
27439
27404
27490
27101
27483
27096
27510
27409
27436
27554
27433
27463
27527
27537
27512
27539
27340
27398
27574
27655
27276
27388
27543
27479
27446
27598
27420
27461
27293
27559
27563
27365
27293
27248
27331
27167
27338
27422
27338
27183
27364
27489
27251
27229
27365
27283
27104
27225
27221
26827
27113
27160
27189
27088
27036
26905
26836
27015
26638
26879
26872
26854
26808
26847
26939
26820
26761
26819
26921
26737
26895
27021
26976
26981
27145
27005
27145
27034
26944
27177
27093
27170
27017
27567
27261
27420
27539
27555
27440
27699
27856
27851
27693
28176
28083
28189
28077
28417
28502
28447
28704
28628
28316
28423
28601
28579
28651
28471
28856
28546
28618
28537
28469
28592
28419
28441
28613
28505
28396
28440
28532
28528
28133
28517
28480
28244
28328
28466
28392
28304
28347
28342
28276
28493
28303
28142
28302
28198
28081
28282
27971
27982
28108
28187
28086
27978
28185
28018
27910
27936
28013
28059
27993
27950
27864
27923
28034
27959
27827
27891
27758
27754
27900
27785
27593
27656
27811
27614
27585
27741
27720
27828
27536
27581
27403
27553
27438
27556
27495
27377
27400
27496
27362
27384
27313
27477
27406
27280
27389
27226
27296
27015
27286
27176
27084
27252
27193
27030
27028
27205
26837
27041
27094
27096
27070
26878
27023
26980
26837
26972
26953
26841
27065
26832
26871
26840
26647
26679
26576
26702
26497
26694
26848
26711
26506
26542
26534
26633
26378
26578
26635
26400
26618
26660
26505
26429
26701
27167
26789
26533
26716
26832
26754
26673
26852
27025
26791
26941
27032
27136
27110
27308
27136
27281
27427
27369
27491
27440
27554
27818
27772
27926
28126
28122
28410
28144
28316
28460
28485
28316
28496
28518
28406
28347
28411
28504
28317
28374
28228
28506
28232
28184
28277
28332
28012
28164
28273
28367
27925
28221
28231
28147
28163
28259
28172
28255
28157
28235
28311
28157
28105
28173
28197
28089
28060
28179
27910
27981
28141
28189
27894
28004
28032
28135
27882
27944
27912
27908
27738
27803
27897
27875
27790
27785
27839
27667
27631
27641
27802
27455
27553
27527
27390
27511
27538
27448
27522
27515
27413
27446
27531
27232
27337
27317
27198
27307
27434
27383
27197
27322
27303
27388
27126
27186
27268
27206
27210
27205
27152
26995
27083
27155
27192
27014
27006
27064
27100
27105
26950
27160
27069
27088
26987
27207
26804
26869
27022
26940
26899
26715
26736
26859
26943
26746
26640
26774
26712
26705
26684
26580
26565
26591
26712
26555
26527
26516
26679
26440
26541
26689
26630
26368
26491
26685
26628
26548
26773
26718
26744
26653
26891
26972
26914
26835
26944
26929
26959
26953
27271
27132
27298
27350
27549
27456
27569
27728
27921
27772
27882
27997
28195
28200
28209
28487
28410
28529
28380
28432
28455
28413
28547
28398
28311
28353
28490
28548
28230
28374
28390
28229
28189
28338
28407
27896
28153
28193
28265
28249
28221
28282
28211
28130
28276
28384
28245
28017
28218
28151
28185
28178
28251
28166
28231
28273
28117
28300
27898
28003
28286
28130
28079
28093
28067
28076
28029
27832
28157
28064
27862
28001
27991
27902
28000
27996
28080
27932
28049
27962
28036
27965
28019
27930
28008
27897
27981
27966
27850
27941
27884
28049
27948
28032
27866
27861
27854
27862
27867
27897
27739
27976
27798
27822
27677
27936
27883
27729
27821
27839
27981
27783
27885
27936
27859
27617
27758
27909
27862
27843
27809
28013
27708
27730
27713
27932
27530
27602
27823
27782
27472
27595
27684
27580
27559
27585
27685
27572
27548
27453
27631
27442
27398
27401
27538
27468
27568
27678
27567
27502
27514
27526
27530
27542
27632
27650
27602
27719
27804
27750
27851
27745
27975
28001
28101
28237
28239
28414
28330
28713
28555
28585
28769
28815
28811
28825
28653
29052
29149
29094
29313
29303
29248
29262
29168
29212
29109
29150
29302
29385
29227
29022
29388
29257
29101
29309
29280
29103
28824
29070
29188
29243
29106
29244
29187
29016
29007
29115
29239
29165
28944
29097
29046
28944
29051
29133
29015
28905
28961
29052
28872
28852
29099
28946
28732
29044
29040
28897
28804
28875
29006
28805
28674
28835
28843
28782
28829
28930
28848
28639
28829
28792
28716
28669
28667
28711
28740
28751
28781
28757
28624
28585
28743
28617
28716
28614
28648
28840
28490
28585
28635
28620
28541
28508
28553
28516
28405
28519
28427
28489
28595
28420
28626
28385
28322
28448
28481
28515
28371
28527
28394
28421
28423
28479
28329
28214
28255
28592
28312
28188
28376
28444
28365
28232
28392
28362
28278
28470
28525
28338
28453
28468
28412
28295
28442
28545
28674
28418
28486
28597
28613
28551
28517
28687
28615
28516
28815
28861
28927
29029
29076
29153
28998
29185
29290
29408
29195
29399
29508
29550
29571
29655
29673
29743
29730
29748
29887
29965
29850
29896
29870
29923
29918
29959
29862
29753
29874
29828
29787
29910
29725
29892
29796
29646
29798
29919
29651
29611
29695
29695
29658
29597
29593
29648
29534
29450
29673
29582
29467
29545
29588
29601
29324
29690
29533
29614
29427
29555
29615
29366
29510
29424
29343
29374
29464
29621
29357
29261
29298
29381
29169
29298
29423
29396
29171
29259
29100
29230
29094
29175
29100
29170
29122
29124
29144
28898
28974
29023
28977
28829
28900
28741
28800
28777
28773
28974
28637
28528
28724
28965
28778
28795
28820
28760
28802
28671
28756
28746
28444
28743
28663
28604
28309
28517
28500
28521
28288
28445
28500
28329
28696
28518
28528
28368
28672
28535
28450
28383
28437
28355
28414
28403
28369
28437
28164
28263
28344
28147
28098
28049
28358
28268
28106
28242
28372
28255
28196
28418
28569
28316
28353
28506
28694
28458
28526
28870
28873
28848
28936
29056
28950
28933
28963
29165
29144
29235
29306
29340
29317
29495
29614
29641
29722
29851
29684
29762
29618
29959
30074
29891
29959
29877
30166
29764
29859
29825
29772
29738
29770
29968
29586
29658
29741
29817
29753
29818
29663
29608
29714
29558
29711
29602
29645
29860
29789
29746
29603
29741
29671
29647
29661
29682
29655
29604
29538
29394
29672
29453
29603
29528
29472
29558
29302
29654
29565
29461
29484
29350
29406
29369
29470
29435
29409
29368
29467
29504
29382
29403
29463
29343
29085
29106
29214
29101
28956
29118
29039
29046
29143
29047
28860
28858
28928
28827
28935
28773
28807
28737
28836
28741
28800
28802
28715
28704
28671
28431
28519
28599
28659
28607
28687
28540
28700
28584
28520
28663
28668
28506
28398
28523
28543
28376
28391
28527
28492
28324
28374
28539
28352
28230
28119
28220
28182
28093
27922
27972
27748
27812
27772
27928
27562
27585
27671
27803
27613
27432
27521
27535
27432
27453
27743
27326
27217
27373
27365
27276
27373
27514
27423
27293
27482
27710
27596
27571
27641
28089
27895
27915
28089
28242
28208
28105
28474
28448
28431
28394
28741
28578
28440
28565
28636
28565
28520
28576
28545
28544
28373
28464
28476
28293
28385
28452
28526
28314
28272
28273
28274
28368
28270
28167
28217
28188
28251
28020
27962
28261
27964
27980
27976
27938
27934
27899
27711
27684
27716
27756
27602
27654
27545
27594
27595
27653
27677
27558
27530
27553
27638
27432
27444
27487
27412
27617
27445
26847
27313
27353
27440
27229
27169
26969
27061
27175
27033
27062
26972
26978
26780
26914
26961
26737
26452
27142
26817
26849
26926
26807
26927
26671
26717
26851
26393
26378
26304
26579
26691
26661
26525
26682
26685
26475
26520
26758
26580
26528
26644
26462
26499
26432
26560
26587
26379
26446
26469
26429
26351
26433
26463
26364
26154
26435
26443
26212
26318
26271
26295
26221
26143
26116
26192
26122
26210
26304
26243
26052
26243
26408
26158
26185
26253
26330
26241
26420
26403
26414
26350
26381
26519
26488
26496
26881
26731
26854
26753
26921
27292
27007
27164
27358
27606
27341
27663
27706
27861
27913
27836
27970
27931
27701
28034
28043
27972
27671
27886
27986
28059
27757
27875
27949
27779
27897
27913
27927
27831
27868
27874
27777
27768
27788
27835
27757
27891
27977
27843
27675
27700
27754
27692
27674
27842
27717
27713
27829
27741
27801
27748
27692
27826
27710
27617
27624
27744
27766
27586
27605
27655
27611
27442
27646
27513
27554
27210
27698
27520
27314
27594
27453
27583
27471
27514
27670
27627
27317
27471
27298
27412
27364
27445
27481
27366
27284
27565
27383
27340
27308
27237
27302
27272
27169
27399
27274
27041
27278
27459
27122
27280
27078
27358
27169
27227
27378
27167
27076
27247
27284
27160
27171
27281
27267
27135
27213
27151
27255
27006
27154
27214
27043
26982
27060
27077
26895
26868
27030
27022
26724
26744
26779
26884
26693
26852
26699
26769
26749
26732
26889
26695
26769
26838
26680
26712
26793
26758
26973
26649
26734
27058
27108
26832
26977
27194
27083
27025
27344
27397
27362
27419
27834
27798
27736
27905
28110
28103
27999
28397
28661
28543
28301
28553
28576
28476
28410
28534
28508
28411
28282
28515
28392
28404
28410
28412
28400
28095
28249
28212
28263
28154
28331
28356
28245
28040
28132
28332
28031
28240
28166
28143
28202
27996
28005
27953
27951
28109
27996
28095
28102
28036
28101
28142
28001
28110
28089
28040
28110
28197
28101
28018
28052
28241
28010
27931
27897
28116
27951
27637
27997
28001
27909
28017
27818
27904
27851
27917
27764
27792
27750
27712
28071
27653
27563
27596
27633
27381
27338
27366
27516
27272
27367
27259
27366
27038
27332
27465
27287
27370
27276
27131
27348
27287
27449
27390
27138
27231
27390
27312
27138
27299
27336
27250
27325
27195
27313
27255
27207
27263
27138
27025
27042
27221
27077
27116
27023
27172
27041
26783
26896
26969
27086
26861
27124
27023
27010
26807
27053
26955
26938
26910
27005
27018
27067
27088
27030
27010
26946
27039
27150
27125
27219
27148
27403
27298
27315
27503
27243
27499
27544
27461
27661
27596
27779
27996
28002
27846
28238
28382
28331
28412
28689
28504
28703
28769
28838
28854
28789
28635
28769
28854
28670
28769
28727
28737
28655
28663
28684
28527
28758
28697
28582
28411
28549
28565
28576
28337
28415
28611
28342
28301
28333
28387
28350
28366
28411
28424
28261
28342
28346
28392
28342
28212
28319
28216
28259
28270
28128
28199
28257
28258
28347
28221
28184
28276
28276
28291
28274
28301
28283
27963
28203
28508
28099
27996
28154
28038
27919
27831
28021
27946
27720
27773
27764
27886
27756
27712
27890
27765
27628
27689
27919
27520
27497
27769
27705
27522
27591
27499
27505
27395
27597
27644
27545
27534
27510
27604
27457
27378
27327
27568
27399
27344
27428
27556
27391
27478
27491
27332
27236
27446
27416
27345
27227
27335
27407
27211
27252
27353
27227
27157
27234
27295
27207
27262
27152
27106
27206
26908
27183
26878
26979
27339
27156
27334
27188
27234
27310
27298
27332
27434
27495
27509
27458
27613
27292
27590
27497
27785
28029
27722
27760
28004
28004
27951
28205
28311
28409
28468
28593
28734
28716
28879
29001
29174
29115
29032
29171
29223
29059
29259
29432
29275
29137
29220
29287
29121
29096
29206
29067
29230
29166
29201
29227
29080
29087
29019
29139
28778
28970
29135
28933
28891
28889
28861
28884
28718
28736
28919
28794
28669
28731
28795
28649
28623
28825
28673
28605
28658
28579
28636
28444
28553
28578
28572
28544
28537
28420
28368
28430
28316
28441
28350
28403
28409
28408
28413
28379
28403
28376
28234
28371
28469
28187
28248
28322
28361
28065
28247
28341
28346
28215
28333
28138
28147
28072
27917
27970
27993
27738
27996
28098
27657
27859
27921
27823
27810
27901
27953
27816
27853
27942
27774
27735
27809
27756
27809
27668
27688
27687
27705
27488
27618
27683
27501
27364
27508
27543
27530
27584
27512
27432
27294
27512
27429
27310
27305
27423
27720
27334
27243
27379
27204
27301
27170
27461
27342
27254
27371
27316
27416
27226
27408
27544
27651
27391
27606
27579
27581
27702
27716
27996
27949
27954
28086
28206
28254
28331
28504
28530
28469
28754
28797
29061
28973
28989
29120
29416
29286
29600
29527
29489
29468
29638
29629
29666
29589
29625
29526
29381
29538
29342
29498
29346
29241
29412
29357
29265
29327
29288
29135
29117
29296
29242
29201
29206
29169
29186
29320
29294
29284
29195
29124
29227
29268
29259
29162
29242
29200
29062
29196
29209
29238
29120
29054
29256
29134
29023
29165
29305
29185
29044
29341
29158
29208
29144
29253
29099
29021
29015
29004
28963
28982
28999
28950
28792
28504
28867
28962
28885
28722
28750
28881
28653
28720
28610
28598
28589
28511
28544
28571
28367
28584
28642
28506
28439
28665
28534
28404
28507
28585
28393
28245
28336
28447
28248
28333
28275
28356
28125
28314
28348
28309
28131
28176
28156
28011
28070
28112
28271
28106
28061
28032
27988
27846
27811
27901
27737
27791
27698
27727
27584
27610
27590
27677
27618
27568
27618
27663
27555
27679
27458
27635
27481
27500
27433
27606
27440
27424
27344
27272
27395
27258
27157
27151
27091
27204
26987
27038
27088
27055
26886
26788
26936
26907
26826
26596
26753
26600
26734
26622
26792
26647
26615
26660
26764
26738
26577
26857
26818
26930
26775
26942
26968
26979
27070
27035
27248
27340
27213
27309
27292
27378
27306
27343
27425
27480
27491
27610
27424
27306
27383
27386
27369
27353
27310
27386
27280
27251
27243
27332
27164
27184
27215
27235
27101
27224
27213
27098
26959
27068
27298
27079
26922
27112
27111
26992
27072
27143
27142
26936
27010
27193
27057
26901
27118
27020
26864
26870
26965
26973
26866
26698
26769
26950
26504
26843
26693
26732
26623
26626
27076
26619
26576
26560
26640
26575
26633
26665
26860
26626
26837
26847
26851
26824
26895
26971
27103
26998
27029
27282
27157
27093
27250
27227
27365
27269
27544
27806
27562
27518
27821
27864
27906
28069
28184
28398
28289
28420
28573
28598
28683
28753
28787
28596
28722
28834
28746
28653
28707
28658
28592
28604
28662
28755
28586
28490
28712
28625
28414
28402
28715
28446
28473
28368
28586
28566
28470
28379
28583
28481
28413
28599
28683
28469
28477
28513
28445
28334
28538
28644
28464
28333
28362
28578
28471
28410
28516
28516
28425
28314
28390
28256
28203
28080
28076
28074
27967
28047
28074
28016
27901
27823
28064
27752
27734
27912
27654
27599
27697
27619
27603
27537
27536
27721
27485
27405
27541
27636
27418
27389
27427
27453
27520
27478
27325
27455
27305
27391
27519
27429
27221
27420
27416
27347
27205
27339
27449
27308
27317
27379
27361
27179
27362
27319
27236
27099
27266
27358
27238
27208
27192
27258
27113
27108
27136
27203
27069
26828
27176
27134
27060
27020
27160
27040
27002
27114
27246
27123
27191
27296
27331
27332
27276
27322
27523
27343
27448
27464
27477
27645
27691
27838
27759
27808
27868
28165
28089
28080
28222
28482
28314
28400
28583
28554
28780
28714
28791
28696
28559
28535
28620
28564
28545
28609
28479
28662
28552
28578
28509
28455
28468
28453
28578
28579
28498
28550
28494
28223
28347
28458
28464
28288
28383
28488
28197
28293
28469
28356
28141
28277
28237
27939
28334
28296
28240
28287
28125
28347
28358
28156
28130
28179
28296
27930
28075
28072
28047
28026
28040
28044
28045
27919
27978
27962
27866
27807
28109
27913
27824
27728
27839
27977
27818
27873
27828
27758
27837
27818
27846
27811
27780
27827
27733
27680
27722
27685
27740
27629
27650
27722
27642
27494
27244
27755
27524
27483
27557
27697
27367
27379
27520
27482
27353
27465
27458
27170
27283
27377
27455
27436
27383
27446
27586
27488
27371
27575
27587
27300
27455
27762
27664
27558
27590
27791
27889
27724
27953
27907
28005
27968
28117
28195
28318
28468
28603
28580
28630
28872
28907
28838
29011
29184
29393
29445
29274
29638
29557
29610
29418
29646
29642
29766
29670
29715
29674
29601
29699
29625
29501
29639
29494
29574
29575
29550
29479
29338
29289
29320
29381
29333
29367
29314
29382
29331
29306
29309
29395
29293
29372
29414
29514
29271
29304
29375
29436
29322
29485
29114
29468
29325
29299
29309
29459
29231
29342
29570
29136
29114
29274
29293
29121
29179
29022
29145
28810
28984
28966
28973
28939
28952
28875
28929
28827
28838
28676
28609
28736
28852
28703
28616
28767
28815
28768
28428
28720
28920
28731
28596
28875
28665
28567
28574
28695
28769
28553
28481
28617
28652
28552
28580
28709
28464
28379
28332
28524
28482
28363
28242
28287
28121
28063
28201
28202
28094
28014
28077
27978
27734
28000
27966
28013
27939
27895
27994
28060
27846
28046
28186
28119
27967
27911
28101
27942
28120
28008
28227
28233
28487
28343
28323
28278
28481
28408
28670
28666
28753
28851
28870
28917
29060
29320
29366
29419
29526
29469
29615
29661
29692
29676
29668
29773
29721
29759
29760
29722
29760
29751
29714
29647
29733
29561
29766
29765
29714
29640
29790
29733
29456
29718
29680
29746
29644
29755
29781
29647
29398
29603
29622
29540
29974
29533
29622
29507
29580
29575
29556
29427
29528
29560
29564
29536
29563
29508
29554
29396
29477
29433
29374
29379
29449
29564
29220
29194
29545
29351
29229
29355
29389
29299
29037
29265
29274
29250
29192
29105
29265
29119
29145
29294
29262
29067
29204
29194
29173
29060
29196
29349
29101
29129
29321
29092
29161
29109
29287
29263
29169
29146
29254
29195
29251
29127
29342
29192
29276
29229
29219
29248
28996
29106
29118
29068
28924
29203
29271
28788
28990
29032
28976
28842
29008
29010
28885
29026
29007
29040
28838
29165
29094
29225
29009
29121
29308
29296
29237
29369
29504
29462
29545
29681
29814
29730
29685
29888
29962
29876
29893
30218
30132
30201
30187
30222
30263
30186
30261
30332
30264
29888
30378
30403
30235
30204
30380
30334
30324
30179
30378
30234
30098
30203
30197
30106
30020
30016
30170
30105
29894
30000
30114
29818
30020
30039
30153
29903
29960
29840
29885
30045
29918
29842
29650
29717
29831
29896
29663
29672
29713
29658
29496
29567
29594
29426
29264
29646
29428
29417
29487
29457
29499
29349
29354
29359
29390
29418
29322
29157
29395
29115
29162
29333
29314
29184
29156
29022
28971
29227
29120
29189
28998
29110
29180
29056
28874
28965
28987
28847
28630
28929
28778
28538
28287
28504
28467
28395
28423
28390
28213
28213
28156
28368
28206
28057
28270
28314
28257
28193
28096
28133
28014
28068
28072
27990
28090
28186
28153
28056
27940
28091
28078
28015
27977
28266
28010
28042
27938
28189
28025
28037
28119
28304
28355
28170
28373
28554
28697
28372
28739
28602
28766
28886
29036
28923
29029
29314
29341
29322
29415
29382
29665
29509
29716
29644
29613
29598
29503
29625
29566
29525
29517
29582
29649
29509
29466
29583
29422
29333
29478
29487
29354
29299
29448
29521
29226
29276
29263
29332
29194
29273
29239
29227
29166
29094
29343
29086
29440
29249
29168
29219
29117
29290
29370
29070
29162
29303
29345
29215
29169
29318
29332
29346
29346
29435
29367
29207
29255
29172
29249
29232
29280
29222
29049
29155
29241
29154
29071
29048
29055
28987
29081
28604
28823
28800
28851
28747
28627
28756
28770
28715
28851
28715
28756
28632
28790
28721
28759
28751
28714
28599
28685
28405
28526
28503
28530
28561
28490
28464
28416
28384
28205
28348
28554
28416
28322
28520
28372
28454
28290
28512
28337
28291
28382
28468
28388
28208
28276
28276
28127
28154
28039
28166
27994
27863
27880
27999
27707
27685
27949
27804
27794
27731
27760
27897
27979
27960
28002
27870
27910
28179
28241
28149
28294
28527
28513
28495
28654
28676
28694
28680
28808
28753
28820
28894
29111
29284
29111
29252
29355
29191
29226
29239
29443
29300
29265
29356
29525
29463
29411
29401
29456
29240
29211
29207
29104
29002
29003
28988
28944
28770
28742
28751
28687
28453
28541
28742
28435
28213
28295
28493
28408
28432
28448
28447
28373
28455
28483
28584
28436
28628
28709
28551
28493
28648
28659
28488
28416
28569
28439
28388
28416
28332
28253
27972
28070
27932
27937
27807
27723
27617
27714
27526
27589
27779
27524
27396
27489
27693
27403
27367
27387
27317
27222
27118
27390
27091
27087
27118
27028
27046
26836
27078
27068
26980
27083
26965
26855
26775
26937
26735
26823
26702
26832
26586
26683
26488
26834
26572
26541
26540
26512
26627
26422
26478
26543
26425
26441
26465
26442
26467
26141
26359
26317
26374
26243
26630
26447
26322
26451
26572
26550
26656
26477
26513
26661
26567
26646
26628
26578
26488
26782
26666
26677
26906
26846
27022
26842
26887
27205
27065
26965
27328
27337
27420
27603
27650
27731
27732
27903
28040
27970
27957
27941
27888
28003
27988
28110
28172
28074
27946
28102
28127
27982
27995
28070
28274
27982
28086
28008
28136
28157
28069
28007
28026
27928
27924
28126
28046
27983
28063
27996
27906
27894
28152
28025
27957
28007
28086
28016
27992
28011
28199
28046
28085
28008
28116
28068
27993
27965
28004
27801
27940
28040
27967
27799
27803
27783
27872
27624
27757
27622
27623
27761
27920
27744
27577
27722
27858
27700
27628
27685
27762
27686
27611
27671
27582
27573
27562
27750
27687
27645
27589
27697
27651
27646
27467
27655
27482
27687
27526
27573
27646
27444
27705
27389
27421
27642
27546
27595
27634
27474
27524
27502
27208
27342
27328
27332
27061
27192
27260
27141
27182
27207
27215
27093
27198
27155
27156
26954
27134
27043
27261
27217
27203
27197
27373
27135
27282
27480
27324
27205
27342
27387
27429
27315
27490
27423
27528
27611
27555
27741
27735
27645
27874
27856
27787
28024
28108
28059
28243
28081
28323
28508
28551
28583
28632
28882
28942
28993
28958
29027
29067
29121
29052
29070
29051
29130
29070
29102
29187
29182
29175
29106
29082
29048
28989
29127
29033
28977
28985
29100
28964
28952
29102
29038
28803
28928
28889
28798
28807
28603
28749
28656
28842
28623
28562
28865
28675
28706
28835
28764
28612
28560
28754
28638
28596
28639
28717
28615
28485
28415
28645
28593
28501
28392
28508
28261
28444
28448
28370
28281
28289
28326
28194
28220
28348
28434
28204
28255
28250
28388
28235
28269
28171
28174
28123
28248
28012
28150
28015
28085
28141
28002
28199
27995
28164
28134
28112
28080
28089
28099
27954
28021
28125
28142
28114
28031
28112
27833
27972
28137
28009
28055
28081
28074
27786
27706
27796
27726
27749
27899
27791
27640
27753
27679
27599
27686
27640
27637
27764
27576
27654
27696
27579
27605
27520
27838
27759
27658
27718
27763
27748
27711
27974
27995
27848
27899
28064
28119
27979
28116
28214
28387
28258
28519
28636
28803
28598
28867
28963
29124
28962
29262
29207
29423
29441
29416
29537
29569
29663
29721
29695
29520
29652
29684
29396
29599
29639
29811
29572
29440
29494
29490
29420
29651
29449
29571
29481
29460
29510
29440
29356
29393
29414
29345
29305
29148
29529
29379
29354
29577
29349
29349
29408
29485
29410
29337
29516
29696
29348
29281
29463
29431
29404
29479
29408
29202
29318
29350
29320
29362
29179
29214
29212
29220
29173
29280
29121
29151
29161
29310
29297
28996
29151
28862
29113
28890
29061
29043
29031
29009
28974
29040
28723
28781
28884
28888
28709
28812
28901
28755
28535
28683
28799
28764
28700
28788
28815
28822
28747
28844
28669
28739
28715
28909
28775
28729
28615
28661
28548
28510
28351
28632
28601
28375
28428
28326
28291
28181
28378
28404
28248
28311
28212
28307
28157
28315
28263
28177
28191
28358
28366
28277
28065
28227
28221
28170
28158
28421
28483
28396
28237
28365
28503
28259
28699
28620
28716
28683
28960
28940
28959
29072
29157
29323
29190
29459
29644
29584
29697
29800
29873
29888
29726
29770
29989
29884
29850
29946
29886
29745
29937
29895
29774
29834
29881
29928
29840
29697
29844
29889
29858
29771
29884
29776
29786
29774
29858
29909
29797
29851
29608
29734
29570
29753
29737
29751
29762
29667
29738
29587
29372
29719
29676
29658
29969
29645
29665
29608
29698
29473
29680
29446
29705
29595
29532
29448
29527
29610
29516
29545
29627
29532
29355
29532
29367
29519
29437
29458
29332
29493
29462
29306
29478
29377
29283
29524
29517
29406
29353
29430
29458
29224
29298
29465
29340
29325
29406
29277
29230
29389
29487
29385
29358
29276
29167
29359
29070
29338
29309
29257
29162
29227
29351
29278
28892
29155
29025
29131
28930
28884
29002
28864
28833
28941
28709
28764
28702
28672
28656
28552
28618
28744
28437
28703
28573
28654
28585
28484
28386
28427
28476
28503
28392
28355
28317
28524
28494
28465
28465
28575
28513
28475
28671
29008
28844
28968
29073
29045
29097
29173
29349
29398
29503
29422
29616
29587
29583
29650
29534
29586
29380
29544
29499
29478
29364
29505
29478
29445
29509
29447
29506
29372
29438
29474
29421
29494
29335
29276
29371
29123
29374
29384
29205
29067
29317
29280
29167
29266
29355
29286
29065
29059
29173
29142
28954
29172
29218
29268
29055
29201
29177
29069
28964
29179
29034
29015
29240
29189
29168
29133
29012
29022
29022
29052
29124
29045
28945
28822
28918
28926
28937
28881
28912
29044
28894
28887
28899
28889
28844
28792
28979
28950
29304
28907
28957
28759
28734
28684
28975
28779
28710
28748
28750
28686
28720
28776
28702
28907
28795
29132
28919
28707
28940
28819
28833
28994
28935
28987
28851
29067
28903
28914
28763
28884
28913
28743
28651
28673
28605
28538
28541
28455
28515
28218
28281
28260
28195
28275
28150
28286
28090
28082
28137
27870
27946
27801
27721
28029
27843
27890
27816
27903
27837
27987
28089
27989
27957
28066
28250
28207
27994
28306
28404
28286
28465
28601
28537
28563
28808
28920
28901
28853
29200
29292
29319
29132
29404
29703
29493
29234
29464
29515
29359
29553
29700
29512
29495
29430
29305
29491
29519
29388
29479
29293
29158
29151
29272
29220
29294
29171
28996
28921
29070
29185
29055
28847
28951
28920
28858
28702
28975
28911
28905
28946
29085
29024
28741
28778
28983
28899
29008
28862
28876
28771
28699
28732
28775
28798
28688
28783
28720
28535
28613
28705
28777
28651
28632
28752
28850
28638
28729
28533
28679
28586
28653
28576
28520
28317
28639
28313
28280
28272
28308
28324
28006
28319
28127
28171
28061
28150
28065
28070
28087
28225
28091
27986
28126
28157
28019
28107
28001
28062
28009
27915
28057
28048
28013
27926
28102
27975
28041
28028
27994
28077
27855
28011
27977
28073
27894
28094
28096
28111
27870
28029
27963
28076
27903
28027
28001
27859
27976
28034
28068
27970
28092
28132
28036
27982
28155
28326
28247
28015
28261
28103
28099
28209
28544
28358
28413
28327
28179
28136
28302
28410
28490
28456
28333
28488
28667
28649
28809
28968
28989
28952
29124
29241
29243
29256
29338
29478
29307
29536
29458
29436
29300
29145
29298
29418
29244
29368
29491
29441
29273
29332
29332
29208
29127
29165
29168
29369
29046
29378
29307
29160
29094
29270
29190
29185
29075
29258
29179
29025
29239
29086
29018
28719
29086
29073
28973
28748
29084
29146
28917
29112
29080
28967
28839
28939
29019
29170
28942
29032
28895
28851
28857
28794
28872
28738
28763
28788
28798
28567
28669
28673
28713
28467
28516
28496
28669
28642
28586
28636
28515
28495
28530
28564
28523
28527
28492
28421
28336
28313
28398
28314
28109
28273
28200
28199
28198
28357
28287
28240
28292
28148
28304
28176
28282
28286
28265
27968
28184
28102
28065
28019
28071
27996
27763
27831
27822
27827
27754
27772
27661
27724
27506
27541
27808
27555
27445
27440
27501
27527
27541
27515
27508
27519
27618
27482
27702
27851
27659
27831
27596
27497
27682
27823
27764
27789
27866
28038
27834
27951
28072
28054
28115
28103
28212
28294
28207
28267
28477
28543
28534
28790
28980
28788
28970
29105
29143
29284
29193
29435
29316
29260
29502
29276
29330
29161
29076
29351
29188
29160
29119
29254
29178
28908
29121
29220
28992
29165
29079
29128
28950
29095
29216
29176
29085
28967
29249
28881
28904
28996
28998
28801
28934
28788
28927
28750
28726
28920
28711
28958
28922
28651
28658
28689
28677
28781
28621
28635
28532
28541
28408
28439
28422
28374
28497
28354
28324
28170
28177
28233
28140
27969
28258
28044
27982
27747
27910
27872
27910
27666
27757
27616
27815
27659
27740
27678
27612
27835
27657
27787
27669
27682
27562
27651
27780
27672
27687
27662
27673
27778
27876
27562
27779
27728
27870
27709
27919
27713
27878
27726
27763
27841
27878
27967
27880
27832
27773
27596
27870
27944
27676
27763
27835
27853
27850
27698
27985
27711
27685
27767
27767
27862
27627
27942
27900
27870
27952
27972
28040
27887
28157
27896
28023
27943
28192
28072
28253
28150
28262
28417
28315
28178
28580
28711
28494
28865
29084
29041
29006
29256
29543
29422
29501
29573
29955
29901
29941
30161
30170
30111
30301
30384
30318
30313
30393
30482
30420
30248
30464
30549
30441
30519
30595
30394
30475
30506
30472
30424
30382
30389
30406
30346
30439
30415
30481
30480
30535
30427
30539
30437
30507
30669
30552
30554
30485
30535
30581
30787
30838
30871
30670
30669
30826
30687
30671
30751
30853
30882
30726
30712
30801
30694
30771
30980
30788
30728
30699
30813
30849
30771
30560
30550
30775
30608
30635
30760
30593
30382
30632
30633
30470
30365
30431
30346
30384
30182
30210
30261
30169
30382
30218
30069
30042
30028
30122
30107
30200
30013
30083
30020
29812
29991
30040
29986
30082
30069
30118
29954
30032
30189
30291
30198
30017
30264
30186
29979
30000
29952
29863
29615
29686
29836
29499
29506
29658
29635
29574
29514
29537
29497
29309
29393
29309
29193
29102
29084
29026
28933
28824
28982
28940
28911
29094
29179
28930
28865
28908
28905
28940
28899
28959
29041
28882
28879
28842
28954
28945
29000
28963
29117
28906
29008
29019
28893
28729
28937
29102
29006
28807
28979
29126
28976
29118
29156
29266
29087
28951
29056
29040
28966
29029
29007
28940
28961
29060
28987
28873
28749
28977
29040
28744
29001
29018
28947
28996
29050
28892
28880
28928
28928
29111
28933
29017
28887
29054
28788
28878
29014
29001
28741
28858
28774
28924
28778
28819
28758
28784
28672
28743
28870
28663
28580
28812
28861
28692
28745
28626
28876
28746
28833
29079
28836
28869
28927
28820
28790
28700
28929
28673
28840
28858
28776
28910
28857
28876
29056
28990
28576
28896
28898
28650
28621
28654
28673
28488
28613
28357
28357
28290
28133
27960
28099
27759
27794
27952
27440
27392
27361
27098
27070
27146
27045
26957
27006
26982
26904
26841
26744
26699
26888
26619
26636
26644
26598
26687
26572
26668
26627
26532
26824
26702
26759
26687
26964
26769
26946
26766
26877
27129
26971
26811
27041
27059
27227
27135
27432
27359
27399
27299
27635
27598
27652
27703
27785
27912
27906
27878
28480
28178
28268
28382
28494
28436
28468
28608
28719
28561
28486
28649
28671
28563
28604
28545
28540
28371
28597
28461
28289
28490
28542
28433
28297
28449
28339
28527
28395
28393
28438
28373
28274
28389
28669
28409
28482
28620
28493
28303
28735
28412
28470
28503
28388
28597
28524
28418
28445
28399
28654
28688
28600
28508
28316
28501
28514
28437
28304
28356
28317
28334
28027
28343
28374
28305
28101
28324
28423
28121
28111
28407
28282
27960
28187
28174
28285
27906
28034
28153
28028
27684
27931
28186
27803
27698
27855
27972
27757
27630
27742
27697
27538
27658
27608
27634
27511
27481
27606
27539
27289
27585
27640
27446
27426
27576
27488
27282
27335
27338
27353
27257
27099
27435
27207
27203
27371
27409
27311
27133
27375
27353
27413
27452
27575
27609
27357
27736
27731
27710
27580
27866
27817
27813
27841
28046
27842
28093
28478
28816
28267
27703
28414
27982
28262
29218
28726
29392
28872
29158
29206
29243
29413
29236
29511
29487
29414
29561
29669
29678
29518
29625
29618
29434
29598
29635
29472
29365
29809
29577
29472
29432
29242
29367
29558
29588
29536
29498
29463
29460
29547
29622
29562
29470
29652
29509
29407
29346
29404
29511
29190
29308
29276
29307
29211
29332
29351
29117
28918
29097
29099
28840
28819
28981
28858
28727
28761
28832
28768
28675
28621
28729
28589
28418
28548
28501
28416
28346
28492
28344
28199
28240
28427
28352
28319
28285
28515
28385
28297
28358
28301
28308
28367
28550
28483
28358
28468
28507
28218
28306
28562
28400
28420
28504
28305
28426
28265
28272
28221
28262
28250
28141
28369
28172
28340
28233
28235
28176
27937
27912
28468
28029
28066
28173
28056
28141
27971
28210
28284
27998
28188
28314
28306
28140
28292
28406
28349
28165
28414
28495
28394
28638
27930
28905
29075
28639
28709
28853
28775
28841
28873
29120
29044
29273
29567
29557
29544
29646
29855
29721
29966
30082
30013
30050
30037
30207
30179
30013
30051
30083
29999
30064
30102
29787
29896
29922
30076
29981
29900
29868
29881
30003
29873
29752
29974
29878
29730
29749
29839
29751
29729
29786
29832
29699
29791
29756
29849
29849
29739
29764
29690
29774
29701
29753
29624
29495
29680
29745
29559
29534
29705
29663
29552
29678
29714
29639
29559
29602
29731
29692
29667
29815
29649
29590
29422
29647
29576
29276
29616
29560
29917
29320
29433
29261
29389
29600
29344
29317
29256
29025
29338
29569
29019
29126
29201
29217
29001
29045
29086
29099
29187
29021
28904
29096
29050
28987
28787
28981
28591
28973
28832
28709
28767
28838
28678
28546
28613
28785
28638
28420
28672
28731
28731
28543
28613
28650
28497
28553
28507
28608
28495
28588
28429
28595
28530
28489
28610
28622
28626
28660
28962
28790
28671
29031
29016
28957
29044
29192
29023
29010
29277
29383
29371
29121
29577
29631
29532
29675
29714
29778
29932
30027
30076
30063
29917
30134
30672
30117
30007
30300
30271
30164
30162
30170
30244
30122
30139
30264
30079
30178
30129
30197
30013
29823
30079
29980
29991
29963
30108
30085
30004
29968
29986
30050
30036
30016
29985
29942
29943
29908
29997
29807
29660
29842
29730
29688
29621
29867
29839
29651
29769
29847
29692
29659
29677
29696
29594
29432
29674
29480
29770
29537
29593
29440
29497
29677
29764
29695
29559
29517
29692
29609
29572
29881
29531
29598
29481
29476
29399
29586
29483
29639
29593
29509
29556
29510
29536
29303
29449
29591
29402
29277
29468
29510
29281
29126
29359
29166
29105
28982
29101
29156
28928
29103
28841
28900
28778
28840
28834
28812
28966
28857
28796
28885
28995
28966
28873
28778
28954
29120
28976
28739
29012
28981
29034
28861
29105
29120
29192
29135
29137
29197
29242
29337
29375
29543
29433
29726
29774
29769
29710
30028
30002
30000
30385
30437
30386
30250
30433
30476
30253
30378
30439
30739
30404
30432
30275
30481
30359
30377
30473
30404
30402
30363
30510
30294
30191
30393
30423
30361
30246
30343
30128
30424
30305
30246
30178
30205
30146
30208
30045
30126
30112
30375
30245
30248
30194
30141
30145
30108
30150
30139
30153
29971
30090
30090
29796
30027
29896
29930
29723
29829
30065
29936
29894
29919
29988
29767
29793
29935
29801
29764
29831
29834
29775
29705
29706
29905
29714
29736
29670
29774
29496
29337
29787
29642
29583
29642
29748
29676
29643
29655
29522
29668
29567
29574
29644
29472
29563
29519
29590
29462
29475
29499
29441
29323
29309
29416
29290
29273
29279
29349
29270
29447
29136
29220
29350
29295
29290
29297
29317
29178
29309
29401
29253
29307
29356
29294
29167
29406
29571
29421
29562
29753
29818
29716
29606
29847
29909
29924
30110
30294
30226
30316
30376
30486
30534
30391
30641
30873
30687
30722
30857
30943
30770
30757
30877
30749
30698
30875
30794
30717
30679
30794
30644
30659
30760
30637
30776
30755
30646
30837
30779
30584
30763
30723
30654
30678
30604
30616
30620
30510
30672
30771
30728
30546
30768
30773
30643
30696
30767
30763
30684
30794
30739
30710
30699
30838
30737
30576
30714
30691
30738
30439
30521
30411
30406
30421
30455
30359
30451
30375
30422
30484
30245
30173
30408
30371
30317
30348
30240
30254
30245
30227
30117
30122
30081
30222
30312
30068
29631
30174
30196
30208
30083
30080
29965
30095
30061
29941
30062
30050
30073
30073
30029
29761
29937
30040
29763
29913
29829
29746
29488
29779
29872
29760
29680
29620
29711
29620
29588
29583
29529
29398
29903
29511
29365
29372
29566
29587
29567
29629
29615
29771
29491
29443
29568
29667
29585
29661
29708
29809
29612
29711
29949
29974
29762
30027
30266
30101
30207
30248
30361
30352
30338
30633
30474
30528
30717
30597
30548
30606
30794
30663
30550
30575
30513
30606
30649
30572
30627
30714
30598
30617
30444
30610
30481
30440
30432
30582
30277
30394
30382
30434
30038
30378
30442
30388
30095
30288
30362
30163
30393
30150
30333
30107
30277
30259
30223
30132
30064
29993
30126
29913
30088
30149
29960
30104
30078
30076
30053
29867
29889
29984
29777
30043
30157
29836
29838
29819
29501
29710
29829
29799
29803
29698
29661
29783
29723
29463
29718
29679
29741
29688
29760
29630
29630
29294
29524
30230
29589
29557
29629
29398
29573
29525
29404
29360
29225
29326
29367
29328
29013
29519
29240
29308
29135
29121
29187
28981
29149
28938
29051
28812
28975
28791
28804
28485
28736
29059
28799
28538
28685
28671
28470
28677
28565
28805
28491
28634
28572
28486
28453
28636
28716
28711
28705
28672
28976
28660
28698
28875
28905
28859
28886
28770
28942
28843
29064
29161
29133
29114
29428
29320
29403
29535
29643
29845
29917
29851
30042
30034
30176
30212
30268
30269
29978
30251
30133
30237
30113
30204
30230
30162
30104
30134
30128
29897
30093
30104
30013
30159
30110
30015
29957
29814
29884
30103
29893
30063
29979
29981
29947
29950
30077
29951
29865
29986
29843
29928
29990
29932
29985
29897
29796
29901
29967
29714
29795
29697
29970
29695
29746
29607
29620
29500
29801
29876
29657
29568
29606
29664
29642
29462
29568
29491
29516
29517
29535
29517
29521
29469
29369
29463
29244
29343
29574
29355
29401
29261
29524
29301
29331
29353
29473
29210
29232
29344
29243
29190
29282
29228
29183
29153
29153
29197
29048
29447
29193
29208
29064
29144
29031
29129
29042
29087
29002
28895
28880
29050
29087
28847
28905
29009
28911
28882
28934
29011
28908
28859
28892
29148
28806
28842
28924
28978
28901
28781
28924
29332
28838
29095
29100
29114
28868
29241
29057
29177
29224
29290
29396
29221
29097
29484
29602
29574
29547
29904
29878
29921
30019
30145
30102
30084
30308
30269
30395
30259
30567
30383
30499
30471
30564
30521
30479
30522
30615
30625
30426
30581
30539
30515
30319
30629
30705
30658
30517
30503
30674
30426
30453
30587
30544
30419
30398
30540
30374
30200
30540
30659
30319
30473
30503
30498
30351
30445
30556
30457
30379
30529
30454
30435
30267
30407
30533
30559
30222
30418
30497
30186
30217
30509
30355
30254
30302
30183
30456
30187
30316
30448
30224
30237
30306
30182
30199
30240
30087
30109
29933
30028
30143
30050
29913
30037
29859
29918
29758
30009
30031
30049
29706
29999
30052
29833
29866
29886
29889
29791
29752
29829
29715
29617
29863
30018
29704
29876
29786
29833
29764
29785
29620
29651
29637
29653
29726
29389
29612
29592
29369
29445
29286
29423
29552
29468
29487
29402
29539
29321
29469
29567
29540
29390
29508
29505
29538
29485
29710
29759
29702
30032
29768
29967
29818
29984
30141
30296
30253
30162
30495
30476
30615
30631
30623
30757
30948
30945
31108
30904
31033
31186
31528
31060
31067
31004
31031
31011
31157
31227
31233
30957
31145
31194
31088
31108
31138
31089
31139
31227
31282
31209
31060
31147
31026
31102
30896
31048
31087
30931
30499
31071
31058
30752
31059
31034
31057
30864
30818
31031
30923
30802
30927
30707
30835
30651
30733
30859
30744
30769
30771
30751
30568
30717
30736
30842
30685
30786
30815
30793
30777
30893
30493
31006
30245
30769
30708
30915
30769
30837
30552
30624
30762
30930
30781
30771
30688
30774
30746
30513
30506
30000
30380
30450
30609
30593
30252
30294
30262
30276
30206
30260
30202
30330
30237
30181
30413
30331
30297
30281
30407
30204
30243
30346
30335
30254
30138
30149
30188
30054
30249
30251
30150
30100
30199
30166
30108
30268
30360
30171
30247
30371
30246
30306
30159
30517
30488
30524
30739
30617
30663
30551
30910
30779
30780
30693
30890
30974
30913
30959
30995
31186
31218
31061
31306
31245
31350
31223
31409
31529
31348
31409
31467
31506
31506
31497
31684
31391
31637
31506
31429
31496
31452
31569
31352
31319
31475
31371
31375
31405
31260
31382
31432
31352
31487
31406
31376
31344
31400
31392
31348
31325
31339
31357
31395
31448
31310
31375
31264
31306
31367
31299
31326
31243
31156
31256
31122
31323
31390
31168
31251
31306
30978
31118
31324
31318
31169
31273
31180
31290
31087
30957
31282
31122
30984
31084
31096
30943
31152
31149
31113
31147
31051
31066
31010
31073
31192
31039
31118
31008
31004
31176
31080
30930
31017
31059
31003
30967
31152
31296
31063
30890
31168
31011
30881
31067
31124
30916
30896
30943
30936
30910
30762
30851
30927
30752
30649
30854
30827
30664
30944
30751
30663
30473
30649
30791
30603
30813
30349
30620
30476
30556
30598
30728
30709
30688
30739
30825
30551
30692
30727
30736
30731
30756
30686
30845
30656
30874
30912
31054
31064
31107
31046
31007
31064
31266
31345
31263
31250
31356
31461
31230
31412
31411
31481
31168
31382
31659
31433
31401
31455
31414
31283
31390
31347
31321
31285
31332
31263
31330
31092
31250
31222
31126
31078
31114
31153
31126
31075
31131
31038
31042
31105
31101
31074
30899
31111
31205
30931
31176
31029
30972
30981
31029
30977
30995
30831
30928
30980
30916
30881
30743
30766
30799
30667
30784
30739
30738
30689
30816
30708
30644
30692
30748
30703
30573
30668
30461
30373
30551
30595
30521
30401
30329
30382
30522
30354
30436
30389
30412
30444
30341
30316
30390
30302
30326
30263
30328
30312
30350
30260
30197
30106
30204
30123
30088
30005
29995
29991
29846
29979
29901
29823
29749
29728
29709
29714
29846
29797
29640
29863
29832
29879
29703
29609
29483
29660
29695
29323
29575
29592
29566
29445
29579
29741
29542
29570
29838
29675
29724
29713
29785
29686
29696
29639
29750
29737
29687
29919
29880
29929
29860
29839
29808
29914
29965
29963
30212
30008
30243
30790
30499
30501
30493
30561
30556
30649
30760
30727
30752
30837
30772
30759
30717
30809
30775
30825
30810
30750
30779
30663
30670
30867
30864
30664
30938
30896
30714
30646
30725
30861
30880
30736
30666
30743
30731
30692
30841
30862
30656
30624
30752
30632
30715
30621
30696
30657
30469
30833
30757
30571
30543
30610
30486
30443
30670
30739
30628
30679
30747
30775
30863
30739
30684
30950
30781
30660
30583
30582
30724
30471
30780
30841
30365
30534
30582
30658
30485
30577
30446
30588
30539
30597
30781
30573
30458
30744
30588
30481
30678
30671
30610
30539
30560
30590
30664
30511
30447
30424
30340
30354
30417
30436
30569
30369
30493
30655
30489
30536
30460
30563
30353
30392
30356
30349
30476
30144
30145
30036
29950
29984
29896
29807
30055
29957
29988
29790
29871
29951
30010
29961
29927
29926
29955
29833
29972
30152
29838
29953
30132
30136
30076
30175
30355
30163
30218
30256
30412
30328
30179
30354
30392
30424
30359
30537
30705
30599
30753
30949
31056
30880
31106
31302
31205
31234
31348
31248
31390
31162
31340
31356
31119
31105
31285
31237
31315
31152
31203
31111
30939
31135
31233
31125
31119
31188
31158
31066
31119
31104
31074
30965
31044
31030
31069
31034
30995
30790
30906
30674
30888
30922
30846
30874
30805
30850
30732
30857
30955
30781
30668
30854
31016
30844
30963
30920
30824
30769
30829
30957
30889
30882
30861
30853
30934
30737
30938
30892
30880
30785
30810
30831
30795
30528
30809
30828
30806
30671
30605
30742
30496
30642
30801
30728
30657
30675
30691
30607
30767
30576
30684
30532
30468
30493
30576
30362
30386
30438
30319
30212
30311
30343
30276
30210
30199
30266
30120
30101
30008
30177
30093
29802
29939
29932
29862
29808
29856
29738
29699
29736
29908
29686
29850
29858
30036
29683
29614
29722
29673
29570
29723
29684
29941
29711
29740
29946
29804
29864
29863
29897
29613
29713
30057
29846
29761
30063
30135
30163
30025
30124
30338
30181
30211
30498
30798
30586
30625
30864
30999
30990
30962
31151
31204
31020
31251
31316
31242
31131
31297
31265
31350
31138
31216
31224
31220
31331
31202
31269
31350
31291
31464
31182
31395
31501
31401
31252
31396
31330
31392
31101
31175
31179
31261
31091
31117
31313
31249
31163
31004
31297
31261
31340
31274
31396
31294
31398
31443
31337
31322
31211
31422
30993
31046
31266
31350
31254
31053
31185
31149
31076
30990
31182
31119
31159
31170
31294
31102
31087
30964
31104
30978
30972
31029
30942
30907
30930
30918
30993
30804
30975
30848
30808
30579
30766
30850
30861
30714
30706
30649
30785
30657
30807
30925
30739
30647
30874
30991
30714
30718
30811
30729
30691
30715
30715
30678
30590
30577
30735
30524
30283
30370
30406
30423
30284
30435
30187
30088
29885
30296
30303
30103
30173
29988
29944
30088
29877
30162
29927
30084
29995
29970
29889
30002
29842
29997
29957
30012
30150
30100
29987
30056
30184
30077
30230
30251
30253
30292
30328
30465
30519
30503
30611
30667
30853
30797
30878
30908
31059
31011
31179
31230
31232
31112
31329
31276
31208
31323
31547
31392
31283
31185
31332
31443
31444
31334
31683
31296
31407
31222
31280
31186
31374
31449
31376
31179
31298
31332
31162
31107
31287
31473
31261
31213
31297
31197
31224
31063
31326
31210
31159
31207
31236
31273
31144
31177
31169
31167
31131
31259
31092
30823
30768
31087
31046
30826
30907
30904
30906
30870
30976
30773
30806
31280
30647
30925
30823
30598
30741
30728
30585
30805
30805
30841
30699
30753
30831
30856
30797
30701
30921
30880
31062
30893
31014
30588
30820
30787
30765
30801
30849
30834
30770
30771
30766
30769
30737
30606
30756
30858
30659
30647
30764
30679
30737
30620
30493
30476
30356
30393
30630
30391
30197
30375
30346
30176
30218
30258
30194
30250
30073
30207
30199
30061
30095
30213
30037
29930
30044
30052
30102
29995
30007
30050
30010
30040
30193
30180
30199
30343
30280
30354
30219
30220
30436
30363
30655
30596
30728
30494
30721
30839
30811
30672
30911
30906
31129
31245
31155
31209
31391
31380
31296
31461
31376
31383
31763
31539
31450
31501
31512
31440
31577
31578
31433
31337
31306
31340
31374
31181
31243
31486
31299
31309
31271
31294
31384
31239
31379
31457
31284
31318
31261
31296
31106
31237
31355
31566
31252
31299
31292
31386
31328
31278
31305
31189
31209
31257
31180
31224
31128
31196
30958
30996
31049
31276
31233
31149
31195
31274
31104
31015
31150
31094
31015
31037
31064
31377
31039
30899
30988
31057
30914
30925
31043
30900
30733
30791
30793
30802
30670
30730
30835
30780
30731
30778
30661
30722
30525
30639
30619
30631
30666
30657
30717
30545
30551
30592
30524
30504
30462
30872
30693
30709
30608
30631
30457
30631
30506
30509
30405
30420
30483
30391
30232
30294
30166
30102
30011
30122
30044
29936
29935
29833
29970
29859
29752
30002
29906
29943
29883
29909
29830
29768
29908
29956
29970
29807
29894
29971
30000
29947
29972
29791
29884
29946
30133
30145
30538
30292
30345
30289
30514
30396
30539
30602
30478
30787
30793
30852
30986
30999
31153
31097
31351
31411
31425
31318
31537
31646
31349
31397
31493
31460
31341
31435
31492
31327
31253
31357
31652
31365
31284
31479
31529
31146
31388
31301
31365
31158
31276
31200
31370
31343
31326
31300
31436
31204
31243
31317
31369
31176
31498
31393
31224
31430
31336
31442
31384
31472
31531
31430
31578
31536
31298
31421
31486
31402
31540
31335
31533
31376
31571
31350
31348
31488
31384
31350
31361
31454
31401
31443
31570
31381
31350
31436
31433
31395
31211
31408
31372
31443
31483
31297
31333
31377
31348
31332
31430
31311
31436
31370
31371
31352
31407
31408
31365
31213
31279
31325
31223
31273
31325
31363
31236
31308
31266
31238
31221
31602
31132
31160
31197
31296
31123
31333
31148
31133
31317
31265
31046
31259
31235
31016
31095
31138
31052
30937
30959
30805
31020
30925
31015
30925
30939
30908
31028
30972
30930
31085
30989
31067
31078
31095
31269
31140
31063
31170
31040
31122
31219
31292
31113
31239
31254
31196
31312
31295
31439
31422
31481
31643
31611
31553
31721
31955
31584
31770
31439
31767
31609
31789
31368
31480
31931
31456
31401
31577
31443
31617
31551
31493
31568
31551
31562
31514
31415
31371
31322
31409
31329
31176
31259
31388
31369
31163
31256
31222
31243
31266
31199
31223
31069
31281
31215
31173
31101
31153
31346
31270
31202
31245
31323
31302
31265
31330
31254
31229
31225
31326
31247
31334
31318
31345
31239
31200
31212
31241
31252
30994
31142
31104
31032
31068
30949
30831
30889
30794
30830
30924
30976
30874
30986
30722
30765
30870
30706
30698
30680
30803
30733
30555
30566
30577
30735
30726
30570
30601
30647
30458
30409
30636
30654
30391
30496
30549
30556
30704
30612
30721
30395
30540
30406
30492
30203
30383
30201
30292
30034
30343
30196
30139
30101
30064
29883
29942
29932
29925
29958
29785
29837
29846
29873
29728
29739
29864
29792
29908
29802
29744
29763
29807
29802
29782
29752
29834
29851
29891
29979
29876
30133
30100
30043
30174
30369
30300
30283
30477
30415
30380
30621
30827
30748
30871
30734
31150
31013
31218
31172
31329
31352
31351
31426
31297
31227
31424
31454
31326
31405
31490
31517
31415
31431
31469
31450
31395
31219
31528
31221
31241
31329
31342
31503
31219
31344
31143
31262
31242
31310
31239
31215
30914
31257
31260
31106
31158
31305
31172
31164
31049
31119
31158
31142
31217
31131
31023
31138
31358
30930
31051
31145
31072
31144
31090
31029
30962
31051
30859
31047
30917
31056
30876
30775
31093
30828
30892
30889
31109
30903
30913
30835
30919
30745
30741
30689
30736
30771
30748
30968
30720
30536
30848
30749
30714
30733
30616
30563
30768
30625
30535
30551
30463
30603
30613
30532
30424
30499
30659
30448
30537
30634
30660
30401
30232
30480
30403
30279
30374
30452
30385
30066
30237
30081
30088
30144
30168
30184
29937
30029
30059
30011
29953
29897
29932
29885
29868
29921
29920
30061
29880
29957
30158
29928
29814
29948
29921
30018
29973
29917
29960
29910
30203
30198
30213
30151
30312
30407
30368
30374
30352
30529
30589
30561
30733
30803
31008
31103
31192
31160
31047
31270
31497
31245
31153
31517
31564
31443
31481
31585
31608
31341
31471
31609
31596
31379
31545
31582
31420
31495
31442
31601
31235
31426
31559
31262
31264
31357
31531
31364
31170
31340
31417
31380
31310
31295
31256
31266
31173
31307
31257
31120
31211
31196
31280
31217
31415
31023
31117
31144
31114
30980
31050
30863
31164
30895
30909
30865
30996
30937
30815
30927
30853
30790
31070
30816
30819
30950
30879
30930
30976
30831
30750
30799
30853
30709
30790
30661
31026
30786
30736
30842
30752
30882
30769
30599
30614
30620
30666
30588
30503
30813
30589
30551
30420
30512
30390
30319
30132
30381
30362
30272
30286
30348
30397
30125
30173
30256
30288
29996
30098
30127
30051
29960
30031
29928
29945
30020
30052
29917
29828
29912
29991
29796
29760
29857
29877
29792
29705
29779
29794
29754
29886
29880
29714
29799
29604
29867
29902
29903
29852
29844
29877
29938
29874
29881
29824
29893
30065
30119
30119
29976
30311
30320
30357
30561
30558
30572
30610
30672
30876
30902
30924
30981
31320
31172
31167
31301
31285
31319
31232
31401
31348
31328
31301
31392
31468
31231
31410
31274
31292
31236
31324
31425
31173
31368
31225
31155
31254
31232
31311
31224
31143
31244
31293
31149
31226
31282
31288
31190
31160
31201
31318
31173
31214
31151
31254
31154
31331
31143
31237
31014
31235
31468
31190
31073
31207
30904
31023
31094
31038
31166
31179
31179
30927
30969
30904
30991
30931
30987
30819
30828
30841
30801
30799
30910
30956
30786
30782
30831
30797
30676
30679
30855
30764
30462
30748
30705
30621
30510
30687
30931
30633
30732
30634
30614
30455
30747
30597
30623
30649
30471
30508
30606
30263
30424
30545
30313
30436
30357
30332
30367
30247
30203
30168
30034
30082
30210
30057
29892
29934
30053
29790
29802
29980
29746
29703
29877
29852
29844
29714
29943
30097
29924
29822
30084
30089
29895
29811
30084
30089
29901
30106
30181
30110
30024
30311
30444
30348
30478
30506
30543
30650
30583
30710
30975
30899
30955
31276
31180
31015
31386
31446
31373
31440
31396
31443
31327
31446
31455
31439
31329
31437
31501
31377
31380
31405
31359
31402
31369
31298
31408
31380
31343
31520
31587
31402
31325
31255
31304
31238
31357
31308
31340
31232
31306
31264
30947
31292
31242
31299
31314
31329
31360
31223
31254
31135
31151
31256
31171
31096
31216
31177
31223
31470
31319
31120
31003
31178
31279
31029
30981
30885
31122
30958
30915
30917
30957
30881
30885
30993
30886
30871
30822
30630
30683
30628
30817
30721
30605
30609
30759
30579
30592
30504
30393
30526
30457
30358
30389
30384
30281
30423
30372
30255
30221
30373
30393
30251
30360
30239
30470
30116
30576
30298
30251
30387
30264
30323
30003
30142
30319
30095
30025
29978
30005
29965
29820
29917
29727
29991
29734
29821
29774
29772
29380
29831
29737
29751
29704
29785
29926
29798
29611
29713
29645
29647
29767
30022
29717
29926
29924
30196
29939
29780
30083
30071
30126
30567
30269
30403
30377
30536
30530
30597
30488
30786
30912
31018
30831
31130
31181
31358
31339
31485
31320
31274
31491
31333
31511
31396
31535
31567
31460
31595
31496
31471
31344
31449
31522
31356
31269
31226
31143
31245
30975
31204
31318
31026
30893
31095
31201
31016
30968
30980
31099
31048
31043
30997
31118
31060
31079
31035
31159
30940
31125
31129
31220
31127
31238
31123
31167
31067
31366
31161
30975
31216
31185
31127
31176
31078
31041
31118
31002
31051
31172
30924
30995
30855
30856
30801
30924
30861
30885
30764
30826
30975
30795
31032
30737
30697
30556
30818
30666
30649
30718
30696
30604
30744
30602
30582
30578
30633
30438
30537
30630
30695
30484
30619
30584
30500
30556
30756
30534
30574
30505
30554
30467
30480
30508
30396
30197
30745
30345
29796
30756
30099
30447
30200
30230
30011
29947
30175
29997
30048
29956
30089
30065
30165
30111
29869
29990
30075
30030
29951
30047
30174
30093
30090
30276
30159
30118
30100
30270
30454
30273
30450
30400
30548
30353
30630
30636
30715
30689
30908
30990
30933
31139
31087
31347
31112
31408
31444
31395
31448
31605
31724
31551
31523
31561
31523
31459
31432
31469
31865
31437
31403
31643
31775
31624
31264
31550
31499
31329
31315
31500
31410
31542
31538
31708
31352
31402
31493
31524
31372
31378
31404
31433
31297
31247
31338
31440
31370
31432
31240
31292
31319
31269
31386
31280
31209
31219
31267
31129
31088
31178
31303
31360
31209
31084
31008
31263
31212
31191
31095
31018
30971
31072
30935
30896
31015
31036
30851
30944
30990
30922
30804
30915
30824
30822
30856
30901
30782
30729
30731
30779
30696
30651
30630
30725
30750
30596
30694
30606
30522
30282
30592
30735
30375
30540
30593
30652
30442
30520
30412
30508
30420
30402
30408
30319
30294
30150
30472
30171
30252
30154
30380
30114
30057
30179
30024
29871
29984
30001
29854
29973
29872
29928
29850
29801
29924
29688
29847
29949
29793
29833
29743
29870
29813
29957
29687
29989
29968
29959
29877
30034
30100
29933
30278
30217
30318
30148
30402
30422
30545
30675
30610
30744
30718
30908
31053
31144
31003
31069
31196
31139
31281
31500
31184
31370
31132
31219
31394
31306
31293
31287
31368
31270
31023
31215
31225
31159
31085
31155
31198
31034
31117
31062
31170
30950
31297
31164
31175
31098
31098
31137
31094
31042
31105
31115
31065
31048
31141
31149
31222
31327
31013
31069
31023
31150
30990
31243
31160
31217
31056
31095
30978
31039
30880
30841
30953
31055
30959
30852
30940
30984
30790
30896
30902
30798
30815
30825
30802
30718
30723
30706
30987
30536
30618
30749
30518
30684
30526
30614
30636
30532
30871
30496
30503
30406
30423
30596
30544
30390
30518
30458
30419
30136
30364
30359
30467
30220
30332
30374
30140
30278
30279
30122
29935
30104
29989
30109
29955
29984
30081
29875
29757
29773
29789
29780
29760
29802
29709
29649
29632
29878
29743
29912
29831
29599
29757
29725
29724
29739
29695
29659
29628
29874
29799
29775
30021
29926
29913
30068
30215
30227
30114
30296
30381
30365
30549
30604
30673
30693
30823
30735
30958
30778
30967
30973
31164
31314
31095
31398
31196
30943
31112
31215
31230
31139
31103
31017
30842
31110
31169
30968
30879
31123
30877
30927
30882
31040
30872
30731
30811
30886
30779
30833
30928
30714
30939
30767
30749
30641
30748
30799
30699
30778
30771
30656
30682
30715
30601
30536
30694
30604
30485
30504
30676
