45871
46496
47027
47431
47877
48395
48809
49101
49402
49696
49834
49841
49912
50022
49973
49815
49739
49715
49601
49440
49357
49300
49156
48996
48933
48896
48773
48649
48636
48619
48475
48334
48312
48268
48119
48016
48029
48015
47909
47848
47872
47819
47641
47508
47480
47416
47287
47233
47264
47229
47122
47106
47183
47188
47133
47173
47270
47273
47237
47321
47465
47497
47466
47516
47582
47519
47400
47366
47333
47186
47048
47040
47048
46940
46814
46778
46709
46501
46290
46183
46052
45827
45659
45590
45468
45272
45164
45177
45147
45019
44931
44920
44861
44730
44649
44602
44453
44252
44151
44100
43953
43778
43731
43756
43703
43625
43645
43689
43630
43535
43521
43522
43422
43306
43296
43292
43170
43038
43015
42985
42842
42725
42729
42711
42590
42492
42485
42424
42243
42089
42007
41865
41650
41511
41482
41449
41403
41479
41687
41884
42066
42382
42818
43222
43620
44155
44768
45303
45813
46422
47045
47539
47961
48426
48857
49129
49335
49586
49756
49751
49716
49757
49743
49577
49397
49310
49203
49015
48872
48822
48740
48585
48494
48495
48448
48321
48237
48220
48145
48000
47910
47850
47698
47527
47468
47438
47305
47145
47093
47095
47007
46883
46856
46835
46700
46552
46524
46538
46464
46385
46414
46432
46354
46312
46389
46467
46467
46500
46632
46726
46704
46698
46750
46720
46590
46513
46518
46464
46322
46222
46169
46025
45801
45664
45596
45448
45262
45181
45149
45022
44858
44797
44777
44682
44586
44597
44624
44540
44443
44449
44438
44299
44154
44113
44060
43900
43763
43758
43759
43649
43537
43501
43424
43264
43167
43176
43140
43006
42911
42888
42796
42618
42494
42431
42289
42088
41985
41949
41824
41648
41577
41578
41503
41379
41335
41321
41210
41075
41039
41008
40858
40694
40639
40583
40403
40199
40092
39984
39796
39662
39679
39714
39688
39763
40010
40280
40530
40905
41439
41982
42483
43061
43724
44323
44840
45395
45962
46384
46683
47021
47373
47584
47687
47827
47967
47968
47880
47857
47848
47708
47520
47417
47327
47134
46910
46771
46646
46440
46258
46190
46122
45970
45844
45810
45748
45603
45501
45484
45408
45227
45095
45069
45010
44884
44827
44842
44778
44651
44618
44660
44617
44517
44527
44613
44602
44527
44564
44659
44631
44540
44557
44625
44601
44534
44545
44558
44461
44356
44369
44382
44272
44159
44148
44126
44004
43891
43855
43786
43622
43469
43367
43202
42955
42763
42670
42535
42303
42123
42036
41895
41689
41576
41536
41417
41245
41161
41128
41010
40857
40814
40814
40699
40527
40441
40362
40179
40010
39978
39978
39894
39805
39813
39802
39672
39552
39536
39507
39385
39297
39309
39260
39085
38937
38892
38836
38710
38629
38628
38569
38420
38324
38308
38233
38092
38027
38027
37933
37769
37697
37666
37518
37315
37235
37239
37185
37157
37295
37517
37701
37929
38307
38728
39098
39537
40122
40728
41258
41811
42474
43097
43555
43974
44433
44800
45008
45189
45411
45540
45542
45565
45622
45564
45397
45271
45183
44995
44739
44587
44513
44340
44093
43941
43864
43725
43560
43480
43423
43276
43114
43065
43045
42908
42752
42710
42678
42536
42397
42371
42329
42184
42064
42040
41993
41878
41828
41884
41917
41880
41896
42011
42079
42059
42097
42221
42300
42313
42390
42515
42540
42485
42490
42522
42430
42261
42186
42170
42052
41870
41769
41700
41522
41302
41188
41119
40958
40772
40681
40598
40411
40236
40182
40110
39914
39728
39643
39538
39345
39186
39108
38977
38760
38601
38556
38481
38328
38232
38201
38092
37919
37831
37805
37692
37530
37475
37482
37398
37255
37204
37214
37150
37056
37043
37037
36932
36806
36769
36737
36607
36490
36507
36534
36428
36306
36278
36229
36080
35964
35973
35975
35896
35871
35953
36028
36061
36201
36480
36748
36992
37349
37815
38254
38675
39236
39898
40471
40985
41583
42196
42657
43006
43381
43734
43935
44041
44190
44309
44255
44126
44080
44027
43847
43657
43570
43473
43249
43011
42884
42763
42557
42391
42343
42282
42128
42022
42037
42010
41883
41807
41811
41748
41610
41527
41492
41387
41240
41179
41156
41033
40888
40896
40987
40978
40903
40916
40985
40987
40977
41059
41146
41125
41101
41188
41277
41263
41268
41388
41476
41423
41364
41401
41396
41250
41114
41094
41041
40863
40709
40652
40528
40292
40107
40007
39851
39632
39508
39469
39342
39132
38995
38918
38757
38540
38430
38399
38276
38103
38043
38030
37915
37772
37740
37733
37607
37438
37345
37253
37082
36941
36914
36880
36735
36606
36602
36603
36523
36468
36482
36437
36320
36268
36282
36218
36066
35985
36007
35973
35852
35792
35802
35753
35661
35655
35682
35597
35454
35406
35399
35273
35078
34970
34910
34772
34634
34647
34744
34807
34923
35202
35554
35878
36278
36848
37469
38029
38614
39303
39972
40510
41040
41646
42165
42515
42859
43245
43513
43644
43793
43972
44043
44000
43995
44022
43913
43703
43561
43465
43279
43046
42931
42901
42786
42631
42591
42594
42499
42389
42390
42400
42279
42132
42086
42033
41859
41685
41627
41562
41397
41269
41268
41265
41167
41092
41112
41091
40987
40958
41045
41093
41073
41132
41274
41350
41355
41420
41523
41509
41416
41424
41482
41415
41275
41221
41193
41058
40908
40886
40908
40831
40723
40692
40642
40465
40280
40207
40133
39941
39759
39705
39637
39458
39292
39209
39077
38822
38590
38448
38257
37991
37814
37759
37653
37473
37386
37394
37323
37168
37078
37053
36971
36861
36866
36942
36911
36805
36783
36791
36690
36538
36469
36412
36249
36083
36029
35992
35870
35759
35770
35799
35716
35628
35643
35619
35458
35323
35293
35235
35082
34960
34935
34867
34694
34560
34515
34439
34315
34265
34277
34197
34022
33917
33888
33782
33626
33583
33623
33629
33656
33846
34143
34405
34700
35167
35734
36261
36815
37495
38199
38825
39463
40186
40845
41342
41823
42359
42794
43070
43323
43610
43810
43864
43896
43957
43933
43805
43709
43674
43552
43336
43205
43165
43062
42917
42862
42850
42739
42571
42510
42528
42486
42413
42423
42451
42364
42231
42189
42172
42052
41909
41891
41902
41806
41690
41671
41658
41555
41486
41529
41530
41416
41344
41386
41395
41305
41281
41383
41448
41442
41513
41667
41729
41669
41636
41643
41563
41440
41421
41451
41362
41202
41152
41175
41095
40943
40857
40778
40564
40310
40162
40031
39809
39620
39565
39518
39368
39214
39161
39085
38886
38691
38607
38520
38339
38210
38214
38185
38048
37951
37930
37832
37626
37481
37447
37370
37227
37168
37190
37124
36971
36895
36881
36784
36634
36584
36611
36560
36464
36465
36487
36392
36257
36229
36241
36145
36039
36062
36089
35992
35909
35929
35904
35761
35631
35596
35553
35434
35358
35365
35302
35136
35023
35002
34928
34765
34647
34593
34456
34238
34109
34089
34039
33977
34062
34256
34407
34572
34920
35393
35820
36251
36834
37500
38099
38684
39361
40035
40601
41161
41811
42417
42846
43214
43634
43965
44109
44217
44392
44503
44463
44402
44391
44298
44093
43950
43891
43766
43582
43484
43458
43346
43151
43038
42992
42851
42655
42570
42553
42444
42285
42241
42269
42210
42106
42099
42127
42051
41945
41943
41970
41898
41829
41881
41921
41835
41746
41744
41708
41564
41471
41537
41608
41596
41642
41781
41839
41770
41736
41796
41808
41726
41679
41677
41597
41456
41394
41377
41236
41014
40889
40813
40639
40438
40349
40303
40148
39958
39871
39794
39623
39449
39359
39258
39040
38826
38753
38699
38540
38408
38396
38342
38152
37979
37894
37745
37495
37321
37282
37207
37033
36912
36889
36834
36728
36689
36695
36596
36442
36394
36403
36309
36150
36098
36130
36076
35974
35980
36012
35912
35790
35784
35766
35604
35428
35393
35400
35306
35205
35194
35155
35013
34891
34872
34845
34711
34584
34559
34497
34335
34243
34276
34274
34198
34194
34289
34376
34471
34715
35084
35408
35722
36197
36788
37327
37864
38564
39347
40007
40577
41201
41802
42227
42579
42996
43360
43534
43631
43800
43938
43927
43894
43927
43886
43689
43492
43398
43275
43049
42864
42800
42699
42482
42303
42237
42148
42003
41956
42009
41976
41846
41784
41784
41660
41439
41317
41276
41169
41035
40990
40984
40905
40814
40833
40884
40835
40770
40827
40933
40970
41010
41147
41257
41220
41178
41252
41309
41277
41290
41410
41497
41456
41413
41441
41406
41265
41174
41184
41127
40961
40836
40750
40578
40362
40242
40178
40024
39820
39709
39619
39398
39126
38961
38847
38640
38401
38273
38180
37983
37778
37715
37705
37605
37515
37557
37598
37497
37373
37356
37328
37193
37081
37075
37042
36904
36790
36761
36687
36528
36415
36386
36315
36172
36113
36159
36144
36071
36082
36131
36056
35898
35818
35786
35644
35452
35401
35412
35294
35134
35085
35067
34947
34810
34792
34800
34719
34688
34827
34996
35105
35309
35712
36186
36637
37163
37808
38439
39006
39638
40348
40963
41451
41960
42502
42926
43210
43498
43785
43925
43954
44047
44173
44162
44052
44008
43975
43810
43601
43495
43419
43224
43000
42901
42859
42744
42615
42577
42555
42449
42355
42362
42344
42210
42100
42110
42085
41915
41755
41716
41661
41502
41397
41419
41411
41335
41337
41427
41443
41386
41446
41619
41718
41754
41892
42085
42123
42063
42117
42236
42245
42194
42214
42219
42074
41881
41799
41752
41615
41487
41467
41438
41301
41170
41130
41042
40814
40603
40495
40343
40080
39873
39799
39696
39488
39317
39223
39071
38858
38738
38715
38618
38454
38383
38352
38183
37930
37781
37708
37530
37300
37199
37173
37067
36952
36963
37001
36917
36789
36743
36686
36528
36387
36343
36260
36043
35844
35770
35668
35455
35291
35257
35216
35092
35026
35054
34994
34814
34702
34670
34548
34353
34258
34245
34147
34014
34035
34174
34260
34353
34647
35110
35545
35971
36552
37249
37896
38516
39238
39990
40621
41189
41820
42443
42926
43350
43828
44233
44451
44623
44847
44985
44954
44909
44945
44926
44790
44708
44740
44702
44548
44444
44419
44343
44216
44167
44176
44104
43979
43960
44010
43952
43818
43778
43792
43705
43571
43533
43523
43393
43207
43109
43029
42845
42668
42630
42621
42512
42407
42432
42466
42402
42390
42523
42618
42568
42537
42613
42625
42496
42395
42384
42303
42116
41999
41984
41897
41718
41611
41577
41451
41264
41211
41241
41129
40902
40762
40683
40501
40263
40119
40005
39783
39537
39431
39368
39167
38924
38783
38644
38396
38167
38078
37999
37803
37619
37562
37495
37326
37199
37178
37099
36917
36800
36779
36697
36550
36497
36534
36505
36412
36414
36477
36426
36304
36289
36330
36241
36076
36013
36005
35901
35769
35764
35788
35681
35545
35531
35534
35412
35278
35274
35298
35246
35252
35439
35674
35833
36054
36453
36893
37281
37771
38439
39126
39764
40481
41296
42034
42642
43263
43911
44428
44798
45172
45528
45695
45731
45842
45992
45997
45904
45872
45852
45700
45479
45341
45217
44973
44709
44565
44468
44316
44184
44154
44110
43960
43841
43863
43899
43824
43747
43767
43742
43592
43452
43381
43256
43028
42847
42780
42682
42512
42429
42447
42382
42214
42119
42097
41978
41812
41802
41878
41841
41741
41753
41831
41821
41781
41867
41994
41983
41906
41911
41914
41790
41647
41603
41537
41355
41193
41138
41055
40840
40621
40496
40334
40058
39828
39705
39530
39276
39108
39033
38864
38586
38395
38316
38158
37911
37752
37670
37516
37342
37311
37338
37241
37092
37058
37067
36951
36789
36743
36710
36536
36349
36307
36294
36195
36119
36147
36154
36041
35955
35989
35975
35829
35712
35695
35640
35505
35436
35475
35465
35368
35340
35396
35374
35292
35355
35569
35775
36021
36469
37054
37579
38088
38770
39557
40232
40820
41473
42143
42676
43133
43659
44165
44497
44757
45079
45329
45356
45303
45335
45333
45165
44996
44974
44928
44720
44516
44423
44283
44046
43885
43835
43727
43533
43415
43402
43328
43165
43086
43093
43014
42869
42826
42832
42698
42489
42400
42356
42187
41992
41945
41955
41854
41718
41699
41707
41605
41508
41551
41599
41513
41436
41500
41542
41429
41324
41357
41382
41304
41271
41348
41373
41285
41246
41301
41259
41082
40980
40995
40934
40752
40625
40565
40406
40187
40079
40011
39787
39487
39312
39197
38966
38713
38609
38559
38398
38211
38145
38084
37880
37670
37610
37572
37410
37242
37190
37127
36950
36806
36786
36723
36548
36426
36394
36287
36089
35988
36026
36005
35864
35781
35780
35700
35537
35453
35433
35303
35106
35050
35081
34997
34876
34934
35116
35253
35433
35810
36286
36703
37157
37790
38485
39089
39710
40472
41224
41811
42374
43035
43626
44019
44351
44724
45005
45108
45173
45282
45310
45216
45165
45196
45131
44951
44840
44809
44685
44488
44407
44417
44311
44132
44092
44144
44080
43945
43906
43893
43743
43540
43463
43436
43299
43153
43139
43115
42939
42771
42782
42829
42767
42752
42889
43005
43001
43023
43139
43195
43149
43181
43341
43455
43475
43575
43771
43870
43846
43874
43976
43988
43924
43964
44057
44001
43846
43800
43818
43703
43509
43412
43342
43121
42836
42682
42562
42289
41987
41853
41774
41571
41358
41280
41202
40997
40811
40759
40685
40477
40291
40228
40126
39909
39732
39642
39486
39239
39097
39094
39033
38874
38790
38778
38653
38453
38370
38355
38221
38027
37987
38043
37989
37882
37895
37957
37906
37818
37843
37887
37825
37805
37994
38290
38565
38929
39480
40056
40548
41134
41904
42660
43292
43953
44734
45461
46028
46582
47179
47650
47945
48230
48544
48730
48795
48941
49157
49219
49155
49191
49279
49196
49012
48962
49000
48921
48766
48694
48644
48492
48335
48310
48324
48241
48153
48183
48209
48090
47957
47955
47960
47865
47806
47879
47921
47825
47769
47841
47869
47800
47791
47875
47896
47817
47798
47870
47898
47886
47964
48087
48103
48062
48117
48207
48167
48062
48084
48161
48091
47948
47901
47872
47719
47536
47465
47411
47238
47056
47001
46950
46765
46563
46472
46367
46138
45949
45897
45819
45630
45483
45435
45330
45123
44966
44895
44772
44575
44448
44404
44294
44132
44076
44085
43987
43813
43716
43667
43536
43372
43331
43348
43235
43075
43071
43133
43076
42976
42973
42979
42874
42754
42740
42732
42644
42593
42659
42704
42652
42650
42786
42923
42982
43122
43432
43779
44129
44639
45316
45979
46605
47337
48162
48891
49509
50191
50905
51457
51875
52316
52732
52972
53109
53307
53493
53515
53446
53438
53427
53286
53125
53069
53000
52796
52594
52524
52458
52269
52099
52076
52060
51932
51839
51876
51887
51796
51754
51806
51803
51724
51713
51770
51747
51642
51607
51615
51513
51352
51299
51302
51185
50997
50913
50898
50807
50706
50746
50853
50869
50844
50909
50993
50979
50969
51081
51188
51161
51118
51171
51193
51070
50939
50914
50850
50641
50434
50321
50159
49885
49668
49577
49447
49219
49048
48983
48875
48702
48605
48551
48362
48079
47896
47783
47572
47321
47220
47200
47080
46934
46905
46895
46759
46577
46494
46435
46261
46067
45996
45948
45800
45673
45687
45701
45591
45485
45471
45416
45260
45154
45159
45106
44915
44745
44676
44561
44356
44223
44192
44120
44030
44095
44285
44422
44557
44888
45373
45814
46241
46827
47503
48112
48735
49495
50281
50930
51509
52142
52727
53118
53419
53778
54070
54155
54191
54319
54373
54243
54097
54032
53920
53694
53494
53394
53251
52998
52795
52707
52583
52377
52249
52219
52125
51988
51956
51974
51881
51727
51676
51674
51561
51394
51337
51326
51220
51084
51053
51040
50901
50744
50708
50682
50559
50455
50488
50534
50470
50435
50527
50618
50624
50652
50773
50864
50865
50905
51029
51087
51017
50976
51019
50983
50831
50738
50722
50620
50431
50294
50177
49927
49632
49489
49436
49276
49040
48881
48740
48505
48269
48146
48034
47811
47589
47503
47432
47232
47024
46952
46893
46731
46601
46595
46556
46377
46216
46187
46144
45997
45887
45887
45849
45713
45608
45556
45409
45190
45085
45081
45006
44863
44802
44784
44622
44361
44198
44106
43946
43770
43715
43718
43624
43515
43561
43685
43749
43853
44148
44537
44897
45331
45933
46582
47168
47820
48629
49426
50095
50767
51497
52111
52533
52926
53343
53625
53726
53818
53967
54011
53915
53852
53837
53707
53480
53332
53226
53009
52751
52624
52582
52447
52261
52173
52124
52002
51893
51908
51944
51866
51770
51765
51712
51489
51238
51106
50996
50809
50672
50676
50678
50577
50516
50574
50593
50508
50479
50560
50582
50508
50509
50611
50651
50605
50640
50751
50745
50655
50674
50747
50695
50566
50520
50508
50371
50190
50133
50115
49962
49750
49633
49535
49323
49103
49025
48975
48806
48631
48580
48519
48327
48141
48071
47981
47783
47608
47515
47351
47083
46895
46827
46715
46530
46422
46387
46259
46041
45896
45816
45648
45428
45330
45316
45201
45019
44929
44875
44708
44494
44385
44302
44125
43976
43987
44041
43986
43905
43919
43911
43774
43634
43577
43484
43287
43126
43075
42982
42780
42634
42619
42597
42546
42664
42984
43313
43628
44077
44669
45271
45890
46656
47519
48279
48944
49673
50399
50954
51388
51852
52271
52479
52580
52762
52924
52885
52761
52742
52733
52592
52419
52328
52194
51923
51678
51555
51409
51172
50991
50925
50818
50623
50492
50463
50365
50136
49949
49848
49678
49447
49309
49233
49073
48886
48837
48869
48793
48648
48634
48708
48697
48667
48753
48836
48783
48731
48830
48941
48910
48861
48958
49081
49068
49045
49149
49240
49207
49191
49280
49308
49200
49127
49148
49090
48893
48723
48624
48448
48164
47923
47763
47537
47246
47046
46923
46725
46473
46318
46224
46010
45731
45556
45423
45197
44984
44932
44926
44801
44630
44543
44445
44221
44004
43933
43889
43749
43634
43635
43603
43438
43292
43269
43233
43100
42999
42967
42866
42685
42573
42532
42419
42241
42144
42111
41988
41811
41759
41823
41832
41816
41963
42226
42424
42627
43013
43522
43995
44494
45162
45887
46505
47108
47824
48542
49124
49665
50276
50810
51123
51347
51602
51779
51803
51805
51866
51854
51681
51510
51444
51321
51058
50835
50707
50487
50170
49971
49898
49764
49570
49448
49360
49158
48894
48747
48667
48470
48212
48071
48009
47880
47734
47692
47662
47517
47355
47314
47301
47190
47088
47117
47171
47154
47189
47357
47519
47588
47694
47899
48053
48091
48148
48264
48296
48213
48193
48294
48339
48274
48232
48217
48108
47949
47894
47895
47774
47559
47419
47340
47184
46994
46909
46851
46687
46509
46432
46349
46124
45854
45676
45498
45216
44962
44860
44773
44581
44411
44350
44254
44057
43912
43888
43823
43652
43539
43524
43432
43226
43084
43051
42969
42835
42813
42868
42825
42696
42627
42590
42434
42225
42141
42117
42017
41947
42058
42248
42359
42496
42807
43204
43585
44049
44693
45391
46026
46726
47563
48361
49019
49665
50361
50956
51391
51818
52281
52609
52756
52908
53113
53203
53150
53097
53049
52883
52643
52491
52383
52170
51918
51770
51670
51478
51235
51096
51017
50850
50670
50614
50572
50391
50182
50107
50052
49862
49663
49579
49481
49276
49100
49047
48972
48788
48687
48773
48872
48878
48899
48989
49052
49047
49077
49169
49193
49154
49221
49381
49462
49467
49547
49670
49683
49636
49683
49753
49675
49517
49438
49373
49201
49021
48952
48889
48707
48492
48378
48278
48057
47812
47650
47467
47195
46983
46901
46780
46544
46358
46299
46222
46041
45877
45803
45683
45469
45332
45307
45212
45027
44920
44879
44754
44574
44487
44467
44366
44221
44180
44178
44050
43858
43778
43750
43617
43450
43388
43354
43227
43083
43040
43026
42967
42981
43168
43401
43567
43789
44199
44686
45143
45707
46446
47181
47828
48553
49409
50184
50804
51434
52101
52641
53036
53421
53788
53999
54086
54210
54321
54273
54156
54140
54148
54012
53797
53654
53518
53261
52979
52835
52736
52530
52322
52226
52128
51931
51783
51784
51748
51574
51446
51463
51459
51333
51219
51176
51059
50860
50752
50737
50649
50485
50392
50371
50288
50179
50190
50269
50249
50175
50202
50266
50225
50165
50236
50371
50414
50415
50503
50593
50547
50456
50464
50453
50300
50150
50124
50081
49917
49771
49742
49693
49525
49372
49300
49159
48907
48705
48605
48458
48223
48063
48009
47871
47601
47366
47205
46996
46741
46578
46475
46280
46043
45939
45924
45816
45651
45604
45610
45488
45325
45289
45280
45167
45047
45039
45037
44923
44814
44810
44793
44654
44521
44500
44439
44244
44070
43994
43872
43661
43535
43553
43539
43475
43556
43813
44080
44363
44838
45480
46086
46680
47428
48259
48990
49688
50507
51343
51998
52527
53086
53589
53873
54024
54204
54358
54377
54341
54349
54306
54115
53916
53851
53793
53622
53463
53404
53316
53108
52918
52828
52693
52477
52353
52355
52300
52156
52096
52145
52126
52006
51963
51985
51864
51637
51527
51506
51375
51173
51082
51048
50898
50711
50650
50632
50521
50421
50475
50585
50605
50618
50731
50828
50807
50816
50949
51048
51018
51010
51098
51112
51004
50943
50947
50851
50636
50493
50454
50320
50069
49892
49798
49604
49321
49149
49060
48855
48584
48436
48361
48182
47952
47838
47772
47598
47402
47332
47279
47093
46890
46818
46777
46629
46468
46412
46347
46167
46003
45962
45911
45749
45628
45635
45603
45452
45329
45293
45205
45024
44903
44882
44808
44658
44591
44615
44563
44458
44470
44526
44432
44277
44261
44332
44313
44248
44309
44452
44546
44699
45091
45619
46098
46625
47358
48170
48879
49583
50409
51203
51829
52428
53110
53700
54056
54331
54640
54834
54847
54853
54909
54871
54708
54582
54533
54407
54187
54037
53958
53790
53566
53464
53429
53278
53063
52977
52965
52851
52699
52657
52635
52473
52264
52169
52100
51928
51764
51741
51725
51566
51399
51356
51282
51078
50945
50986
51022
50968
50983
51102
51139
51075
51106
51247
51312
51291
51343
51459
51459
51349
51311
51331
51235
51072
51033
51066
50996
50870
50851
50865
50743
50566
50473
50370
50130
49883
49780
49718
49546
49353
49268
49169
48939
48731
48651
48537
48288
48069
47973
47847
47628
47473
47416
47271
46999
46807
46759
46668
46494
46404
46413
46349
46198
46126
46125
46017
45845
45796
45824
45752
45630
45602
45579
45429
45239
45154
45090
44910
44718
44656
44611
44450
44302
44286
44260
44112
43990
43992
43971
43832
43742
43803
43847
43804
43872
44118
44385
44652
45102
45745
46373
46946
47622
48392
49086
49736
50504
51313
51956
52475
53043
53597
53950
54146
54348
54511
54508
54431
54422
54407
54260
54070
53964
53849
53615
53385
53273
53123
52823
52541
52384
52209
51945
51741
51664
51564
51396
51323
51345
51254
51037
50905
50887
50792
50599
50477
50402
50228
50032
49987
50020
49936
49791
49775
49826
49761
49678
49760
49887
49889
49901
50077
50260
50284
50286
50409
50524
50501
50473
50549
50563
50409
50257
50228
50172
49989
49830
49772
49648
49395
49196
49115
48991
48787
48653
48588
48415
48126
47913
47780
47563
47308
47186
47127
46944
46722
46625
46569
46395
46160
46030
45964
45805
45601
45502
45428
45242
45055
45014
45003
44882
44781
44803
44774
44597
44445
44427
44383
44229
44128
44150
44112
43957
43866
43857
43746
43539
43434
43418
43283
43045
42914
42887
42768
42577
42506
42540
42520
42506
42695
43016
43286
43603
44137
44774
45346
45936
46672
47430
48054
48669
49413
50104
50605
51086
51651
52118
52387
52620
52876
52985
52897
52798
52776
52682
52469
52305
52225
52071
51835
51675
51588
51402
51140
50980
50887
50692
50467
50369
50299
50091
49834
49691
49593
49391
49185
49129
49096
48894
48645
48529
48448
48287
48176
48229
48297
48264
48282
48431
48528
48482
48479
48621
48729
48722
48781
48947
49051
49069
49156
49327
49394
49344
49379
49479
49433
49290
49260
49267
49120
48905
48808
48751
48551
48297
48175
48098
47890
47641
47497
47365
47113
46863
46756
46667
46455
46252
46183
46099
45881
45697
45647
45558
45342
45168
45095
44954
44706
44524
44437
44282
44043
43892
43845
43736
43576
43528
43560
43498
43384
43390
43437
43348
43202
43165
43158
43031
42887
42882
42904
42800
42672
42666
42702
42684
42757
43037
43374
43652
44031
44627
45279
45854
46467
47204
47910
48502
49126
49830
50448
50914
51374
51873
52245
52460
52681
52906
52962
52894
52903
52929
52781
52527
52359
52227
51962
51640
51441
51286
51010
50714
50569
50467
50235
49992
49902
49833
49620
49393
49295
49182
48943
48755
48730
48687
48508
48356
48327
48267
48118
48048
48106
48115
48029
48023
48131
48186
48167
48251
48432
48514
48540
48708
48951
49056
49066
49165
49305
49325
49295
49375
49474
49424
49327
49338
49323
49128
48895
48782
48662
48396
48137
48028
47939
47740
47552
47468
47323
47031
46773
46626
46437
46170
45991
45928
45810
45599
45459
45412
45266
45030
44919
44902
44759
44532
44419
44359
44181
43975
43931
43962
43866
43715
43683
43672
43525
43363
43339
43369
43311
43228
43221
43184
43032
42908
42914
42913
42804
42745
42857
42986
43064
43289
43744
44251
44760
45421
46239
47028
47748
48545
49416
50166
50790
51478
52184
52698
53072
53499
53912
54125
54216
54368
54482
54399
54226
54120
54000
53753
53506
53389
53276
53041
52789
52649
52512
52253
52027
51985
51967
51844
51755
51780
51754
51599
51482
51457
51342
51095
50884
50749
50549
50287
50158
50148
50042
49868
49827
49868
49790
49661
49695
49826
49860
49857
49952
50064
50078
50104
50259
50419
50434
50385
50410
50426
50319
50201
50206
50217
50097
49981
49997
49992
49860
49759
49743
49627
49365
49159
49067
48882
48584
48381
48259
48044
47771
47610
47547
47394
47169
47052
46995
46830
46613
46515
46480
46333
46156
46127
46138
46016
45865
45838
45829
45698
45554
45513
45453
45281
45128
45113
45103
44985
44886
44879
44819
44637
44489
44460
44410
44286
44239
44301
44321
44282
44343
44503
44610
44711
44990
45416
45822
46264
46922
47713
48439
49150
49991
50871
51616
52288
53008
53669
54117
54446
54809
55122
55249
55293
55393
55444
55330
55203
55200
55147
54925
54712
54606
54459
54198
53971
53837
53659
53406
53244
53222
53162
52999
52893
52873
52775
52610
52549
52544
52407
52196
52118
52117
51974
51770
51698
51655
51494
51356
51399
51472
51402
51321
51371
51436
51404
51397
51523
51626
51575
51529
51625
51710
51657
51626
51707
51727
51610
51518
51525
51475
51321
51256
51307
51278
51143
51045
50971
50783
50531
50406
50372
50230
50012
49903
49844
49661
49443
49356
49314
49173
49013
48956
48894
48696
48481
48391
48314
48118
47912
47812
47697
47464
47255
47183
47099
46914
46802
46824
46803
46677
46579
46550
46463
46298
46195
46166
46060
45892
45851
45903
45827
45668
45625
45642
45545
45406
45408
45475
45472
45522
45757
46079
46368
46726
47285
47910
48462
49061
49802
50553
51201
51861
52613
53291
53782
54231
54718
55075
55222
55340
55499
55545
55443
55389
55426
55350
55140
54985
54886
54685
54413
54265
54206
54037
53801
53686
53633
53454
53211
53085
53001
52802
52588
52520
52487
52336
52160
52091
52033
51881
51762
51778
51769
51613
51467
51443
51395
51240
51131
51154
51166
51100
51111
51230
51279
51240
51280
51415
51481
51454
51483
51559
51532
51431
51409
51428
51331
51173
51100
51055
50882
50661
50563
50486
50286
50077
49978
49879
49679
49492
49426
49349
49133
48916
48807
48673
48423
48202
48111
48023
47847
47688
47617
47520
47336
47205
47177
47077
46877
46765
46743
46635
46440
46327
46295
46156
45951
45885
45889
45775
45627
45623
45668
45576
45436
45419
45411
45253
45087
45048
44990
44801
44625
44575
44540
44431
44401
44575
44798
44963
45253
45784
46374
46908
47523
48256
48945
49545
50186
50888
51500
52007
52568
53176
53633
53922
54205
54440
54470
54399
54427
54468
54337
54122
53996
53877
53632
53354
53174
53006
52725
52441
52305
52212
52027
51871
51867
51853
51711
51596
51584
51522
51351
51208
51141
51004
50743
50545
50491
50415
50267
50203
50243
50225
50133
50132
50202
50179
50135
50242
50419
50473
50461
50550
50663
50634
50557
50602
50691
50679
50643
50693
50734
50643
50519
50471
50383
50157
49940
49862
49805
49636
49479
49435
49339
49106
48886
48760
48605
48358
48156
48042
47863
47596
47431
47364
47203
46964
46816
46729
46527
46260
46135
46100
45962
45785
45755
45799
45731
45613
45587
45561
45394
45210
45178
45182
45057
44905
44855
44802
44640
44510
44535
44566
44487
44417
44422
44373
44234
44165
44200
44174
44071
44080
44229
44374
44524
44850
45350
45864
46417
47143
47949
48633
49248
49976
50735
51317
51776
52283
52753
53025
53214
53489
53742
53827
53862
53963
54001
53867
53681
53560
53405
53146
52944
52890
52801
52576
52394
52329
52209
51995
51865
51851
51775
51606
51515
51489
51335
51064
50881
50808
50655
50431
50332
50324
50222
50069
50030
50053
49971
49864
49911
50004
49982
49961
50067
50174
50172
50209
50407
50616
50698
50785
50970
51087
51033
50968
51016
51026
50904
50800
50754
50626
50398
50225
50162
50058
49848
49678
49573
49367
49085
48911
48823
48656
48430
48308
48249
48051
47770
47604
47498
47302
47119
47099
47129
47037
46902
46848
46773
46581
46411
46385
46369
46248
46167
46228
46258
46121
45978
45973
45954
45823
45734
45730
45646
45466
45356
45333
45243
45091
45046
45094
45064
44988
45051
45204
45265
45308
45520
45851
46142
46459
46963
47566
48118
48724
49505
50317
50982
51581
52257
52908
53403
53871
54401
54826
55031
55157
55312
55368
55262
55154
55126
55034
54810
54610
54492
54305
54027
53818
53705
53567
53397
53321
53307
53188
52996
52908
52885
52755
52555
52472
52459
52340
52168
52093
52046
51875
51665
51583
51537
51387
51264
51303
51367
51310
51248
51306
51368
51334
51333
51454
51559
51571
51611
51739
51833
51846
51931
52102
52149
52059
52051
52126
52084
51910
51781
51699
51490
51202
51030
50925
50711
50442
50292
50226
50074
49879
49786
49698
49466
49212
49092
48998
48785
48567
48478
48381
48154
47948
47889
47838
47684
47560
47556
47523
47354
47194
47130
47020
46828
46703
46660
46536
46344
46253
46230
46103
45925
45888
45933
45851
45686
45640
45663
45547
45366
45333
45364
45269
45141
45134
45147
45072
45024
45113
45228
45279
45424
45784
46230
46653
47188
47933
48704
49380
50112
50953
51710
52288
52836
53426
53891
54190
54495
54817
54985
54987
54991
54997
54861
54658
54570
54520
54322
54058
53899
53764
53498
53207
53061
52954
52738
52532
52488
52479
52333
52160
52114
52081
51956
51879
51926
51933
51811
51696
51671
51603
51434
51318
51302
51221
51040
50941
50947
50891
50773
50756
50851
50893
50858
50905
51022
51031
50965
51005
51113
51137
51135
51227
51310
51236
51109
51085
51069
50925
50745
50652
50559
50333
50064
49881
49681
49335
48998
48813
48613
48290
48022
47906
47776
47556
47416
47385
47261
47008
46812
46723
46569
46341
46235
46248
46201
46093
46055
46048
45947
45800
45738
45708
45563
45392
45359
45370
45288
45202
45222
45250
45143
45003
44994
45001
44871
44728
44714
44719
44638
44588
44647
44665
44538
44416
44393
44316
44130
44002
43982
43922
43809
43827
44001
44187
44412
44846
45457
46032
46583
47286
48082
48786
49434
50185
50961
51578
52097
52657
53163
53474
53702
53991
54232
54286
54295
54392
54410
54233
54040
53976
53891
53649
53404
53289
53175
52972
52843
52859
52858
52779
52747
52785
52755
52644
52591
52601
52546
52437
52392
52380
52247
52032
51924
51887
51744
51552
51487
51472
51353
51243
51285
51364
51340
51323
51432
51521
51458
51405
51504
51608
51585
51573
51687
51792
51773
51759
51831
51842
51743
51694
51748
51732
51585
51474
51441
51333
51121
50975
50910
50720
50425
50223
50089
49861
49586
49426
49320
49112
48861
48704
48578
48351
48114
48027
47981
47807
47607
47536
47490
47329
47157
47106
47071
46946
46839
46823
46758
46565
46395
46325
46208
46030
45963
46015
45979
45820
45732
45749
45689
45556
45520
45520
45377
45154
45045
45024
44910
44740
44675
44659
44550
44432
44443
44491
44411
44267
44196
44114
43896
43656
43545
43456
43283
43196
43326
43526
43676
43902
44292
44714
45121
45667
46384
47115
47813
48609
49496
50278
50920
51572
52209
52657
52963
53322
53691
53891
53974
54120
54275
54247
54108
54062
54036
53868
53642
53504
53385
53162
52938
52858
52797
52609
52435
52413
52392
52235
52083
52043
51969
51754
51561
51493
51393
51209
51114
51146
51132
51015
50929
50909
50822
50671
50618
50655
50603
50485
50489
50582
50580
50510
50553
50678
50701
50686
50818
51003
51072
51145
51377
51624
51704
51722
51824
51902
51822
51726
51758
51753
51572
51390
51333
51218
50949
50710
50594
50456
50234
50077
50028
49910
49671
49472
49337
49121
48854
48698
48582
48323
47997
47809
47705
47514
47290
47179
47103
46906
46674
46563
46482
46295
46105
46033
45984
45857
45764
45798
45793
45627
45456
45414
45401
45300
45207
45205
45156
45012
44947
44996
44978
44834
44718
44678
44583
44437
44375
44362
44232
44017
43908
43890
43784
43613
43521
43458
43297
43112
43060
43098
43096
43133
43351
43680
44004
44403
44987
45667
46314
47007
47828
48634
49305
49967
50708
51360
51816
52229
52689
53042
53198
53317
53474
53512
53384
53255
53167
52967
52669
52468
52352
52143
51862
51689
51597
51386
51102
50958
50919
50797
50639
50586
50540
50373
50203
50152
50117
50002
49920
49965
49987
49879
49798
49863
49912
49799
49672
49669
49661
49567
49536
49610
49613
49520
49516
49631
49698
49679
49716
49805
49802
49760
49833
49963
49961
49878
49892
49919
49781
49570
49476
49429
49246
49024
48957
48940
48793
48614
48538
48431
48177
47918
47762
47579
47273
46991
46838
46680
46448
46286
46245
46154
45956
45807
45741
45593
45321
45105
45013
44863
44611
44443
44385
44254
44057
43991
44020
43943
43796
43762
43795
43721
43583
43519
43468
43319
43164
43116
43077
42917
42746
42700
42660
42515
42393
42383
42336
42163
42040
42071
42082
41995
42010
42217
42440
42635
43006
43572
44112
44604
45224
45966
46642
47215
47851
48534
49063
49472
49959
50462
50774
50954
51184
51402
51464
51473
51567
51616
51465
51225
51074
50933
50676
50439
50330
50193
49906
49626
49489
49334
49029
48738
48579
48419
48179
48014
47992
47926
47743
47609
47547
47385
47144
47020
47011
46915
46740
46671
46662
46538
46394
46434
46575
46601
46564
46658
46834
46919
46974
47150
47346
47412
47446
47562
47644
47574
47486
47520
47546
47418
47277
47261
47227
47071
46948
46947
46889
46670
46449
46315
46134
45885
45729
45655
45470
45175
44955
44817
44599
44335
44217
44204
44088
43893
43793
43737
43552
43314
43198
43128
42948
42764
42715
42686
42528
42351
42296
42236
42035
41859
41861
41869
41751
41665
41710
41735
41640
41564
41569
41487
41279
41151
41167
41140
41008
40955
41031
41085
41123
41297
41573
41805
42071
42550
43187
43772
44330
45051
45864
46553
47166
47882
48613
49161
49603
50092
50515
50727
50860
51057
51176
51104
51037
51092
51065
50836
50597
50481
50337
50082
49908
49859
49724
49468
49284
49202
49052
48817
48672
48619
48473
48257
48168
48159
48029
47829
47746
47727
47586
47380
47281
47204
46990
46762
46705
46699
46574
46469
46545
46662
46674
46717
46908
47068
47076
47129
47352
47543
47563
47585
47708
47757
47674
47644
47705
47685
47570
47542
47590
47504
47282
47125
47038
46873
46660
46544
46458
46219
45918
45752
45636
45415
45181
45067
44979
44760
44497
44359
44257
44029
43789
43682
43567
43292
43001
42839
42683
42433
42227
42157
42085
41913
41780
41765
41706
41561
41497
41514
41439
41273
41191
41198
41110
40928
40840
40845
40753
40599
40588
40649
40569
40420
40398
40433
40366
40299
40427
40662
40836
41050
41451
41935
42372
42874
43574
44364
45110
45887
46772
47605
48261
48891
49578
50148
50514
50840
51198
51435
51507
51595
51751
51801
51721
51685
51686
51568
51367
51255
51204
51027
50775
50663
50632
50471
50255
50193
50207
50094
49936
49935
49984
49870
49706
49695
49711
49559
49355
49259
49158
48935
48732
48667
48614
48476
48388
48430
48444
48350
48323
48438
48511
48485
48536
48688
48765
48759
48838
48991
49020
48941
48954
49010
48933
48814
48833
48873
48733
48526
48474
48493
48384
48207
48126
48075
47907
47719
47637
47548
47344
47130
47025
46922
46700
46511
46462
46371
46125
45886
45756
45575
45285
45071
44984
44842
44623
44492
44452
44352
44198
44148
44190
44149
44043
44043
44096
44018
43849
43786
43799
43692
43522
43474
43471
43344
43182
43132
43080
42919
42794
42819
42848
42742
42632
42637
42607
42425
42252
42219
42169
42003
41883
41899
41909
41849
41878
42074
42289
42484
42835
43375
43934
44506
45238
46070
46778
47391
48118
48884
49468
49928
50452
50997
51395
51684
52014
52327
52461
52493
52567
52587
52434
52253
52191
52123
51924
51735
51673
51580
51338
51123
51058
50980
50812
50702
50686
50608
50453
50402
50466
50436
50256
50093
49965
49714
49378
49168
49073
48910
48724
48691
48737
48661
48527
48528
48600
48551
48456
48480
48520
48448
48382
48450
48528
48483
48457
48563
48648
48599
48569
48668
48743
48698
48709
48842
48893
48795
48726
48752
48718
48584
48510
48512
48409
48192
48023
47905
47685
47428
47339
47331
47167
46913
46792
46745
46581
46368
46268
46209
46035
45828
45735
45636
45391
45144
45056
45004
44834
44669
44631
44574
44388
44228
44191
44129
43983
43908
43935
43885
43705
43578
43563
43481
43289
43165
43126
43007
42836
42780
42797
42705
42557
42544
42590
42479
42278
42207
42209
42103
41970
41946
41939
41809
41637
41571
41513
41330
41172
41209
41317
41343
41423
41703
42041
42313
42695
43308
43969
44565
45244
46071
46883
47594
48344
49159
49832
50307
50746
51165
51408
51525
51722
51956
52026
51980
52014
52066
51935
51698
51563
51473
51256
51018
50926
50858
50654
50416
50305
50224
50043
49887
49878
49880
49780
49736
49849
49920
49817
49700
49702
49666
49499
49383
49389
49328
49133
48988
48956
48889
48765
48749
48837
48824
48727
48733
48813
48785
48697
48746
48881
48908
48897
49018
49163
49162
49122
49185
49222
49087
48929
48902
48866
48689
48510
48451
48361
48127
47914
47828
47705
47458
47242
47130
46958
46682
46499
46444
46305
46050
45870
45776
45592
45344
45222
45198
45083
44891
44805
44806
44713
44556
44511
44515
44381
44193
44135
44126
44008
43856
43818
43791
43638
43487
43489
43507
43379
43234
43208
43167
42987
42815
42785
42771
42676
42621
42670
42655
42486
42345
42309
42211
42026
41937
41940
41868
41730
41669
41639
41471
41236
41133
41103
40966
40806
40824
40980
41105
41263
41605
42056
42487
42978
43635
44326
44916
45556
46372
47185
47827
48418
49084
49686
50105
50475
50877
51133
51187
51263
51432
51485
51366
51275
51280
51216
51031
50883
50815
50672
50447
50295
50188
49959
49681
49577
49584
49482
49329
49319
49346
49211
49036
49019
49027
48859
48637
48552
48508
48351
48199
48168
48109
47928
47800
47828
47841
47732
47665
47718
47730
47649
47631
47710
47730
47670
47703
47838
47890
47840
47851
47920
47890
47799
47809
47853
47740
47506
47321
47123
46720
46222
45856
45517
45033
44563
44268
44002
43630
43287
43110
42971
42736
42526
42431
42282
41974
41710
41630
41536
41291
41099
41058
40952
40701
40506
40442
40328
40091
39939
39914
39798
39599
39554
39615
39522
39337
39314
39369
39239
39005
38925
38930
38794
38612
38589
38602
38444
38260
38268
38329
38234
38101
38095
38065
37858
37665
37629
37556
37324
37126
37077
36995
36798
36689
36715
36645
36424
36275
36279
36226
36075
36063
36235
36417
36630
37052
37621
38119
38575
39188
39898
40485
41016
41714
42483
43087
43600
44188
44711
44989
45181
45465
45692
45708
45665
45704
45691
45533
45400
45412
45379
45159
44961
44920
44822
44555
44353
44301
44155
43857
43652
43616
43555
43428
43398
43428
43298
43049
42922
42877
42696
42466
42411
42461
42401
42284
42286
42305
42159
41979
41973
42044
42028
42034
42203
42386
42420
42458
42656
42836
42823
42804
42950
43066
43013
42976
43051
43069
42954
42874
42870
42744
42461
42262
42206
42069
41815
41646
41568
41393
41157
41080
41100
40960
40702
40559
40495
40315
40070
39947
39859
39617
39341
39229
39173
38991
38790
38731
38690
38525
38397
38439
38448
38275
38117
38115
38082
37891
37747
37770
37748
37587
37498
37530
37486
37365
37365
37488
37513
37425
37449
37561
37538
37421
37425
37478
37356
37144
37071
37064
36907
36685
36614
36584
36399
36193
36141
36129
36009
35919
36040
36218
36285
36421
36781
37211
37586
38044
38683
39316
39825
40410
41149
41803
42321
42927
43608
44115
44449
44825
45235
45455
45471
45514
45605
45529
45313
45192
45120
44883
44569
44402
44318
44110
43850
43739
43651
43404
43148
43046
42967
42758
42557
42517
42478
42284
42086
42034
41982
41806
41682
41717
41706
41552
41440
41437
41384
41250
41208
41255
41187
41033
41015
41103
41098
41051
41159
41344
41388
41373
41514
41708
41738
41705
41810
41945
41928
41863
41898
41905
41725
41507
41421
41338
41099
40847
40742
40607
40298
40017
39922
39829
39614
39444
39380
39224
38940
38745
38668
38500
38220
38043
37994
37872
37682
37615
37631
37536
37360
37304
37336
37228
37039
37009
37047
36926
36756
36748
36775
36636
36447
36390
36364
36192
35989
35945
35923
35738
35563
35566
35553
35390
35297
35370
35387
35259
35168
35207
35192
35022
34900
34913
34847
34652
34551
34567
34483
34318
34274
34294
34176
34004
34011
34135
34160
34160
34347
34637
34825
35043
35521
36120
36634
37193
37940
38711
39327
39925
40646
41306
41750
42164
42678
43097
43324
43564
43913
44152
44159
44141
44189
44115
43906
43784
43781
43696
43503
43401
43389
43271
43095
43066
43119
43035
42870
42843
42873
42729
42517
42474
42514
42451
42372
42436
42498
42376
42218
42202
42222
42140
42082
42171
42232
42122
42030
42103
42167
42114
42109
42212
42230
42117
42096
42212
42255
42193
42211
42338
42394
42349
42366
42443
42397
42252
42204
42190
42009
41761
41677
41660
41485
41251
41146
41057
40806
40517
40374
40249
39966
39688
39608
39559
39368
39194
39177
39131
38912
38704
38635
38549
38349
38197
38157
38062
37871
37770
37795
37739
37578
37520
37559
37480
37280
37155
37090
36899
36655
36593
36647
36561
36393
36349
36349
36219
36055
36025
36017
35879
35719
35654
35547
35276
35028
34965
34920
34739
34571
34546
34507
34343
34230
34285
34317
34196
34107
34153
34146
34005
33913
33946
33953
33928
34068
34365
34608
34836
35268
35841
36317
36751
37350
38046
38633
39158
39808
40508
41060
41541
42100
42578
42811
42974
43239
43442
43429
43360
43374
43340
43153
42995
42997
42983
42825
42699
42699
42631
42428
42283
42266
42174
41957
41832
41817
41691
41464
41374
41400
41311
41149
41119
41143
41020
40844
40827
40888
40816
40699
40734
40799
40710
40603
40645
40686
40551
40391
40391
40403
40267
40172
40264
40333
40224
40132
40201
40245
40153
40140
40288
40364
40285
40267
40354
40303
40094
39973
39957
39835
39584
39403
39309
39116
38872
38786
38791
38667
38462
38371
38314
38093
37828
37735
37679
37438
37155
37039
36945
36699
36448
36375
36319
36122
35973
36009
36023
35873
35738
35732
35663
35420
35212
35157
35073
34874
34756
34777
34725
34551
34485
34563
34553
34450
34475
34603
34581
34428
34398
34439
34294
34042
33952
33968
33865
33730
33748
33784
33665
33515
33507
33524
33393
33253
33268
33291
33173
33118
33318
33575
33722
33956
34446
35006
35495
36077
36825
37526
38077
38667
39365
39950
40354
40765
41206
41502
41660
41850
42036
42029
41917
41944
42031
41941
41727
41617
41572
41394
41150
41036
40973
40771
40544
40484
40463
40293
40113
40117
40155
40042
39940
39999
40004
39842
39743
39795
39768
39561
39393
39372
39287
39083
39005
39074
39054
38944
38955
39068
39047
38935
38975
39115
39103
39004
39067
39203
39173
39087
39171
39287
39226
39142
39225
39308
39182
38990
38935
38874
38650
38437
38381
38320
38128
37973
37975
37943
37747
37586
37569
37483
37240
37048
36968
36795
36501
36306
36254
36130
35896
35767
35733
35569
35329
35256
35298
35199
35001
34939
34937
34778
34562
34520
34544
34395
34201
34175
34173
34026
33888
33908
33909
33747
33598
33600
33575
33406
33278
33288
33237
33038
32903
32930
32914
32770
32683
32715
32675
32516
32434
32468
32414
32261
32236
32353
32425
32494
32759
33151
33456
33769
34309
34961
35485
35953
36544
37140
37560
37949
38508
39093
39495
39826
40227
40541
40614
40631
40775
40859
40724
40593
40612
40572
40366
40189
40120
39958
39651
39428
39340
39191
38970
38881
38918
38845
38661
38600
38617
38473
38251
38188
38205
38097
37927
37901
37944
37830
37661
37650
37678
37564
37424
37422
37446
37355
37283
37391
37527
37520
37504
37632
37758
37745
37750
37882
37945
37844
37783
37857
37894
37834
37830
37902
37863
37702
37632
37658
37592
37439
37382
37372
37193
36917
36786
36749
36568
36302
36167
36091
35898
35699
35665
35648
35449
35208
35126
35055
34804
34541
34470
34423
34205
33981
33898
33784
33513
33275
33218
33155
32983
32904
32967
32952
32807
32742
32783
32707
32489
32368
32361
32228
31996
31925
31976
31892
31726
31726
31804
31710
31539
31521
31547
31420
31286
31331
31436
31437
31474
31746
32097
32330
32601
33064
33538
33868
34269
34926
35614
36163
36753
37468
38085
38517
38966
39483
39841
39992
40174
40418
40524
40479
40488
40566
40489
40293
40242
40271
40116
39869
39793
39803
39669
39486
39472
39499
39350
39174
39168
39162
38980
38793
38775
38774
38609
38435
38415
38361
38135
37956
37955
37926
37783
37749
37874
37916
37810
37789
37918
37966
37878
37878
38001
38026
37952
38027
38208
38235
38175
38260
38409
38409
38358
38451
38569
38518
38430
38482
38540
38415
38238
38212
38187
37968
37737
37676
37592
37327
37092
37039
36970
36751
36569
36537
36472
36263
36093
36059
35951
35692
35509
35457
35325
35112
35035
35072
34995
34827
34789
34822
34697
34480
34401
34424
34336
34173
34150
34208
34134
34012
34017
34023
33863
33660
33584
33512
33285
33073
33067
33083
32934
32812
32862
32874
32706
32569
32587
32553
32392
32319
32385
32393
32304
32344
32577
32785
32918
33170
33564
33907
34186
34623
35190
35627
36009
36584
37241
37716
38085
38586
39114
39420
39622
39954
40283
40427
40530
40764
40977
40996
40969
41038
41034
40826
40629
40593
40529
40342
40239
40307
40314
40164
40080
40127
40079
39898
39812
39850
39798
39628
39546
39560
39473
39316
39297
39350
39244
39058
39025
39060
38936
38755
38735
38776
38698
38616
38702
38839
38836
38826
38969
39081
39002
38919
39002
39062
38954
38888
38981
39034
38936
38861
38897
38867
38706
38596
38594
38519
38332
38241
38280
38222
38025
37891
37847
37691
37449
37354
37325
37118
36850
36777
36805
36694
36525
36491
36482
36309
36077
36002
35971
35782
35588
35560
35526
35326
35137
35102
35018
34754
34527
34460
34372
34181
34073
34093
34018
33803
33677
33682
33607
33429
33356
33414
33405
33277
33200
33206
33118
32974
32977
33049
32957
32755
32662
32635
32490
32297
32243
32237
32102
31968
32023
32155
32192
32254
32507
32779
32916
33136
33583
34006
34234
34481
34909
35317
35568
35865
36296
36652
36884
37194
37619
37953
38138
38352
38622
38767
38796
38923
39124
39174
39125
39185
39272
39174
38998
39004
39118
39089
38993
39058
39169
39125
39077
39181
39277
39209
39102
39126
39138
38983
38863
38929
38980
38876
38781
38816
38829
38729
38683
38754
38730
38562
38484
38528
38487
38367
38371
38479
38484
38406
38468
38636
38649
38551
38598
38697
38613
38446
38441
38510
38440
38328
38331
38325
38173
38025
38033
38037
37895
37769
37783
37747
37497
37239
37162
37095
36880
36705
36685
36600
36368
36214
36200
36095
35846
35678
35607
35418
35136
35007
35008
34896
34717
34689
34738
34639
34439
34355
34337
34174
33960
33897
33867
33672
33434
33356
33305
33086
32834
32713
32578
32304
32072
32019
31963
31779
31656
31706
31710
31535
31394
31397
31324
31097
30944
30931
30845
30642
30537
30533
30432
30255
30218
30308
30306
30262
30388
30609
30695
30715
30931
31292
31557
31812
32260
32746
33029
33249
33627
34038
34292
34534
34928
35291
35464
35635
35939
36161
36155
36140
36246
36297
36201
36140
36202
36177
36021
35954
36014
35982
35841
35816
35899
35854
35703
35690
35779
35731
35607
35634
35743
35696
35548
35521
35551
35425
35252
35252
35290
35143
34940
34880
34851
34708
34598
34679
34779
34702
34627
34725
34778
34645
34551
34631
34666
34546
34507
34620
34646
34542
34524
34622
34621
34513
34529
34648
34619
34474
34451
34497
34362
34119
34036
34024
33840
33611
33580
33624
33500
33303
33246
33197
32972
32739
32679
32642
32470
32321
32338
32329
32128
31928
31894
31839
31633
31476
31482
31432
31263
31196
31250
31212
31063
31005
31048
30957
30715
30578
30566
30435
30215
30162
30217
30127
29951
29926
29980
29880
29699
29663
29694
29564
29386
29399
29441
29277
29080
29053
29032
28842
28677
28710
28759
28707
28759
29008
29227
29308
29481
29843
30169
30387
30716
31198
31581
31838
32201
32647
32932
33072
33326
33672
33845
33876
34002
34175
34164
34054
34122
34273
34241
34131
34171
34238
34102
33911
33912
33963
33846
33729
33807
33895
33805
33693
33706
33687
33535
33442
33509
33524
33378
33292
33348
33296
33074
32930
32934
32863
32668
32602
32698
32702
32596
32611
32720
32703
32636
32738
32900
32871
32740
32780
32900
32837
32715
32783
32903
32834
32712
32768
32877
32846
32805
32901
32935
32751
32562
32536
32491
32287
32109
32093
32057
31885
31775
31814
31754
31538
31419
31428
31329
31115
31033
31095
31041
30855
30779
30806
30704
30514
30458
30456
30279
30038
29996
30049
29930
29752
29770
29871
29826
29734
29774
29801
29647
29484
29489
29498
29366
29275
29346
29354
29160
29000
29009
28975
28814
28744
28806
28767
28586
28503
28560
28549
28459
28496
28651
28716
28739
28958
29295
29496
29654
30010
30424
30666
30890
31328
31818
32118
32359
32748
33142
33352
33533
33877
34207
34307
34354
34543
34691
34641
34611
34738
34795
34659
34568
34665
34733
34675
34709
34883
34940
34831
34813
34918
34918
34811
34786
34817
34723
34561
34521
34523
34358
34122
34057
34089
33994
33861
33880
33927
33815
33671
33688
33742
33668
33630
33777
33899
33841
33821
33994
34149
34132
34133
34287
34410
34383
34391
34519
34562
34468
34450
34523
34470
34282
34195
34245
34189
34013
33989
34077
33991
33790
33737
33762
33610
33350
33257
33268
33135
32959
32960
32992
32822
32592
32523
32460
32231
32029
32016
31991
31789
31598
31582
31549
31364
31234
31278
31287
31151
31071
31138
31113
30910
30766
30750
30640
30402
30271
30271
30172
29990
29958
30009
29909
29736
29713
29747
29602
29382
29339
29367
29241
29092
29125
29179
29035
28833
28783
28760
28590
28448
28515
28608
28569
28581
28787
29007
29131
29361
29803
30242
30558
30924
31417
31839
32117
32478
32965
33316
33522
33858
34311
34600
34753
35030
35349
35454
35463
35633
35835
35845
35806
35924
36069
36022
35897
35925
35987
35894
35803
35887
35960
35840
35719
35762
35775
35628
35524
35603
35679
35614
35590
35713
35778
35706
35685
35764
35758
35650
35642
35749
35744
35594
35542
35614
35560
35407
35418
35546
35557
35510
35598
35719
35674
35590
35662
35765
35726
35688
35822
35949
35886
35804
35867
35900
35759
35637
35695
35734
35603
35500
35535
35493
35270
35101
35087
35004
34793
34677
34673
34554
34305
34145
34104
33990
33791
33707
33716
33580
33359
33309
33325
33156
32919
32849
32827
32622
32387
32370
32403
32246
32063
32054
32067
31925
31762
31740
31699
31504
31362
31428
31479
31355
31280
31378
31402
31254
31162
31178
31073
30824
30672
30663
30571
30369
30281
30281
30140
29911
29843
29894
29824
29680
29685
29754
29653
29496
29539
29655
29629
29633
29887
30223
30419
30631
31055
31528
31873
32269
32850
33392
33759
34166
34741
35271
35617
35974
36451
36829
37022
37278
37643
37860
37901
38003
38181
38180
38004
37913
37908
37795
37636
37637
37721
37649
37487
37480
37533
37405
37236
37280
37378
37277
37112
37106
37124
36975
36841
36898
36934
36784
36668
36746
36803
36701
36647
36753
36776
36592
36456
36498
36487
36337
36292
36432
36516
36485
36553
36708
36723
36613
36613
36706
36656
36531
36589
36733
36681
36514
36485
36508
36380
36229
36235
36249
36087
35911
35914
35914
35690
35430
35339
35239
34987
34795
34802
34793
34612
34458
34464
34408
34165
33965
33891
33710
33385
33172
33111
32963
32710
32581
32555
32388
32136
32067
32112
32014
31861
31877
31943
31833
31658
31641
31660
31508
31327
31324
31375
31269
31106
31066
31017
30798
30601
30616
30634
30461
30317
30378
30408
30246
30106
30110
30045
29837
29729
29771
29709
29496
29371
29372
29287
29093
29026
29114
29126
29086
29225
29495
29673
29833
30205
30691
31045
31354
31840
32387
32790
33185
33754
34329
34722
35103
35638
36123
36383
36594
36914
37155
37184
37214
37375
37447
37312
37215
37271
37249
37060
36940
36971
36918
36736
36655
36688
36600
36410
36366
36431
36348
36153
36102
36134
36000
35792
35748
35761
35608
35406
35382
35414
35296
35173
35241
35329
35234
35125
35191
35261
35170
35125
35272
35361
35258
35214
35347
35426
35333
35287
35386
35417
35337
35368
35523
35540
35379
35302
35341
35260
35074
35006
35003
34837
34599
34542
34571
34407
34141
34055
34035
33828
33574
33502
33467
33266
33066
33063
33087
32947
32793
32814
32824
32650
32517
32563
32550
32371
32272
32372
32433
32336
32299
32388
32371
32214
32155
32217
32163
31996
31951
32012
31949
31811
31845
31977
31945
31835
31888
32005
31964
31870
31941
32054
31972
31802
31751
31710
31494
31268
31257
31303
31223
31187
31328
31452
31439
31487
31753
32051
32236
32525
33045
33558
33959
34454
35097
35661
36090
36585
37150
37552
37795
38126
38528
38751
38846
39053
39292
39313
39221
39275
39384
39314
39166
39161
39177
38986
38711
38573
38466
38218
37974
37892
37796
37528
37290
37242
37187
36987
36850
36892
36908
36775
36669
36667
36550
36265
36082
36061
35968
35791
35761
35855
35813
35652
35633
35711
35631
35482
35535
35710
35748
35729
35888
36112
36163
36129
36223
36344
36285
36183
36250
36317
36194
36076
36127
36148
35997
35880
35924
35901
35666
35454
35419
35337
35084
34876
34785
34602
34292
34092
34050
33941
33744
33664
33680
33573
33377
33325
33358
33252
33086
33071
33096
32928
32699
32645
32658
32535
32391
32421
32492
32392
32258
32291
32357
32268
32167
32235
32298
32171
32049
32092
32097
31930
31793
31796
31730
31515
31386
31415
31374
31213
31179
31301
31320
31241
31320
31530
31636
31723
32060
32579
33005
33369
33903
34531
35025
35482
36100
36732
37155
37489
37929
38327
38523
38699
39008
39259
39278
39275
39431
39522
39390
39260
39263
39195
38956
38754
38687
38553
38308
38180
38193
38110
37926
37881
37948
37858
37640
37559
37575
37446
37249
37242
37327
37233
37058
37048
37098
36978
36804
36806
36851
36732
36623
36731
36879
36863
36866
37059
37215
37159
37118
37243
37332
37279
37291
37443
37512
37443
37453
37567
37561
37413
37360
37439
37414
37256
37185
37204
37108
36943
36921
36956
36793
36513
36401
36372
36166
35901
35823
35796
35578
35301
35185
35093
34832
34571
34518
34507
34345
34192
34204
34165
33912
33705
33727
33749
33627
33563
33643
33619
33400
33254
33274
33222
33029
32921
32959
32903
32711
32636
32687
32629
32506
32555
32700
32649
32473
32468
32552
32456
32269
32236
32274
32161
32014
32044
32118
32077
32102
32377
32723
32934
33194
33691
34217
34614
35102
35793
36436
36895
37387
37993
38489
38821
39200
39659
39980
40121
40300
40555
40683
40668
40730
40850
40770
40568
40523
40543
40381
40153
40095
40086
39891
39638
39586
39628
39519
39363
39376
39429
39328
39216
39254
39270
39130
39027
39091
39100
38900
38725
38730
38697
38510
38405
38472
38460
38299
38239
38335
38337
38222
38239
38384
38399
38297
38326
38452
38432
38346
38440
38608
38591
38487
38550
38678
38631
38512
38535
38557
38367
38134
38083
38055
37852
37656
37645
37607
37366
37147
37118
37047
36783
36561
36518
36440
36237
36126
36160
36097
35886
35755
35745
35641
35426
35315
35288
35126
34892
34834
34868
34726
34487
34429
34487
34403
34263
34293
34379
34301
34177
34202
34234
34089
33945
33978
33993
33811
33650
33685
33701
33539
33415
33491
33532
33369
33226
33232
33174
32974
32870
32910
32828
32586
32445
32449
32373
32214
32207
32332
32343
32306
32508
32881
33171
33469
34004
34649
35154
35628
36285
36984
37504
37978
38593
39182
39547
39847
40264
40626
40764
40867
41104
41279
41243
41231
41376
41430
41264
41118
41101
40997
40743
40594
40610
40538
40364
40326
40397
40311
40104
40063
40143
40049
39847
39817
39870
39752
39568
39566
39643
39537
39348
39334
39367
39225
39061
39070
39085
38926
38797
38866
38917
38800
38715
38791
38812
38650
38540
38603
38608
38464
38405
38512
38569
38520
38584
38772
38832
38737
38707
38731
38574
38304
38209
38215
38036
37769
37689
37697
37527
37280
37204
37178
36976
36759
36723
36675
36418
36139
36029
35915
35620
35335
35247
35177
34970
34839
34928
34980
34840
34744
34796
34757
34537
34380
34350
34222
33970
33838
33866
33806
33647
33640
33727
33631
33436
33437
33545
33462
33271
33246
33280
33121
32898
32855
32871
32728
32576
32618
32676
32547
32406
32431
32439
32278
32132
32147
32130
31922
31741
31751
31739
31584
31523
31649
31723
31680
31773
32064
32323
32520
32885
33421
33897
34328
34926
35606
36118
36541
37127
37783
38233
38555
39003
39460
39676
39786
40011
40194
40145
40023
40035
40047
39862
39642
39605
39567
39330
39115
39108
39100
38929
38799
38826
38784
38584
38475
38518
38459
38267
38177
38211
38129
37916
37811
37799
37642
37401
37338
37397
37318
37168
37197
37295
37214
37077
37097
37140
37007
36840
36871
36951
36858
36759
36839
36929
36883
36884
37078
37238
37193
37170
37326
37443
37382
37352
37458
37471
37316
37221
37254
37194
37000
36900
36893
36724
36411
36224
36161
35979
35698
35549
35468
35218
34913
34809
34801
34644
34424
34364
34364
34189
33975
33963
33983
33810
33613
33592
33582
33416
33282
33336
33369
33231
33129
33203
33236
33105
33020
33055
32988
32754
32598
32586
32491
32277
32165
32169
32077
31910
31895
31963
31846
31605
31528
31566
31459
31296
31308
31364
31249
31105
31142
31223
31154
31109
31316
31601
31771
32021
32511
33013
33359
33781
34444
35088
35544
36049
36709
37284
37671
38071
38522
38792
38856
38960
39143
39205
39145
39189
39315
39258
39054
38979
38986
38822
38552
38416
38342
38104
37818
37708
37639
37414
37205
37217
37259
37101
36915
36903
36888
36682
36466
36426
36379
36162
36001
36031
36002
35807
35692
35757
35777
35662
35629
35756
35819
35773
35846
36040
36105
36044
36118
36301
36320
36234
36323
36501
36492
36396
36470
36599
36543
36405
36392
36385
36186
35953
35929
35966
35837
35676
35644
35572
35324
35108
35087
35045
34827
34645
34625
34546
34304
34114
34057
33924
33662
33490
33449
33313
33066
32939
32926
32797
32591
32552
32612
32505
32307
32295
32382
32276
32027
31852
31642
31170
30595
30191
29841
29336
28848
28600
28402
28044
27756
27749
27766
27597
27466
27527
27535
27337
27191
27244
27245
27090
27047
27195
27250
27172
27259
27546
27743
27828
28115
28602
28980
29303
29866
30579
31126
31557
32162
32837
33278
33613
34092
34557
34766
34858
35065
35233
35148
35013
35048
35051
34823
34592
34559
34493
34235
34039
34064
34049
33826
33645
33642
33573
33349
33249
33336
33323
33154
33097
33182
33133
32936
32867
32896
32732
32471
32415
32466
32333
32105
32066
32108
31980
31846
31961
32133
32082
31978
32072
32189
32124
32091
32275
32443
32394
32332
32462
32579
32487
32416
32515
32520
32309
32164
32200
32146
31929
31825
31870
31763
31492
31352
31342
31186
30900
30777
30777
30604
30344
30302
30353
30169
29875
29787
29782
29585
29335
29286
29289
29100
28883
28872
28881
28700
28510
28500
28470
28235
28047
28097
28116
27917
27756
27794
27778
27604
27542
27666
27694
27554
27517
27621
27606
27466
27460
27564
27500
27324
27336
27445
27335
27110
27084
27162
27072
26930
26992
27103
26998
26830
26850
26883
26693
26482
26485
26519
26391
26316
26491
26702
26781
26980
27469
27985
28383
28919
29690
30406
30946
31573
32335
32937
33331
33790
34335
34682
34832
35080
35403
35500
35426
35488
35616
35520
35308
35285
35333
35160
34901
34828
34782
34513
34203
34121
34098
33879
33660
33667
33682
33525
33436
33587
33702
33573
33458
33524
33523
33325
33186
33204
33119
32888
32790
32866
32826
32620
32527
32575
32512
32362
32390
32535
32510
32384
32462
32635
32593
32457
32522
32659
32581
32442
32529
32675
32608
32498
32581
32671
32534
32367
32402
32419
32204
31998
31973
31878
31577
31347
31323
31227
30961
30823
30875
30788
30516
30376
30383
30239
29953
29830
29841
29667
29354
29217
29196
29014
28752
28698
28756
28624
28416
28404
28454
28317
28153
28183
28229
28075
27905
27923
27950
27796
27638
27656
27640
27439
27318
27424
27471
27309
27218
27337
27401
27279
27230
27346
27348
27172
27092
27139
27048
26827
26747
26768
26601
26314
26228
26270
26146
25971
26021
26166
26120
26002
26083
26222
26179
26149
26383
26689
26845
27042
27493
28023
28440
28932
29683
30454
31038
31650
32435
33128
33581
34043
34605
34997
35144
35323
35583
35661
35557
35552
35631
35526
35287
35192
35175
34961
34644
34519
34480
34237
33921
33833
33842
33666
33466
33492
33553
33407
33252
33306
33361
33210
33072
33156
33217
33039
32871
32904
32889
32663
32475
32474
32427
32232
32170
32307
32311
32125
32077
32223
32264
32169
32217
32386
32392
32298
32395
32596
32585
32457
32530
32678
32588
32386
32358
32377
32194
31967
31974
32048
31910
31719
31696
31650
31416
31208
31179
31090
30780
30510
30448
30335
30038
29857
29904
29853
29599
29457
29518
29466
29215
29057
29055
28932
28673
28563
28583
28444
28221
28211
28290
28138
27893
27871
27941
27818
27623
27598
27592
27361
27109
27116
27172
27024
26878
26934
26962
26779
26625
26677
26694
26493
26329
26385
26406
26247
26164
26240
26201
25997
25897
25943
25876
25663
25569
25634
25579
25408
25431
25603
25627
25609
25878
26344
26686
26977
27521
28224
28781
29312
30074
30873
31444
31962
32632
33254
33607
33896
34329
34685
34769
34823
35032
35154
35025
34911
34968
34937
34693
34521
34521
34419
34144
33971
33957
33822
33554
33447
33474
33343
33114
33078
33147
33011
32777
32765
32865
32791
32646
32669
32737
32607
32419
32419
32456
32300
32130
32154
32173
31986
31821
31913
32027
31943
31898
32064
32185
32101
32078
32248
32339
32246
32256
32445
32528
32444
32460
32600
32578
32384
32310
32360
32233
31978
31918
31961
31789
31496
31398
31390
31170
30877
30795
30768
30530
30243
30169
30144
29924
29690
29646
29588
29351
29168
29205
29194
28945
28732
28734
28672
28414
28232
28242
28171
27931
27805
27856
27811
27623
27564
27660
27611
27436
27442
27555
27471
27263
27239
27326
27214
27007
26990
27045
26916
26740
26760
26806
26653
26510
26601
26695
26548
26366
26368
26347
26116
25943
26029
26100
25953
25832
25913
25947
25818
25841
26131
26374
26494
26793
27310
27776
28191
28803
29560
30163
30649
31305
32049
32586
33006
33575
34166
34482
34633
34905
35161
35128
34989
35032
35090
34924
34726
34714
34696
34476
34277
34294
34285
34048
33819
33782
33721
33490
33311
33303
33218
32970
32846
32911
32890
32733
32692
32779
32714
32509
32457
32504
32340
32039
31942
31994
31885
31715
31796
31983
31969
31888
31988
32128
32084
32011
32137
32278
32199
32103
32227
32345
32242
32179
32354
32478
32349
32248
32334
32333
32123
31995
32069
32061
31870
31770
31826
31733
31450
31295
31290
31125
30814
30662
30614
30370
30037
29936
29944
29744
29459
29388
29408
29247
29051
29079
29154
29009
28832
28857
28871
28660
28452
28468
28479
28280
28114
28166
28175
27973
27815
27866
27886
27738
27684
27807
27812
27646
27604
27714
27689
27497
27423
27467
27316
27017
26899
26884
26676
26410
26403
26547
26568
26589
26865
27235
27433
27639
28129
28723
29157
29598
30259
30927
31376
31831
32498
33117
33469
33800
34292
34675
34786
34894
35147
35289
35205
35156
35215
35116
34838
34702
34750
34656
34372
34189
34112
33866
33513
33369
33356
33176
32934
32914
32982
32831
32590
32555
32586
32423
32206
32159
32126
31903
31705
31761
31849
31751
31685
31820
31897
31754
31677
31844
31984
31938
31971
32198
32338
32292
32335
32526
32586
32502
32563
32770
32820
32690
32685
32790
32698
32482
32451
32518
32363
32085
31998
31988
31798
31577
31563
31582
31396
31193
31204
31224
31026
30823
30829
30798
30524
30291
30308
30303
30093
29934
29976
29960
29763
29659
29737
29697
29454
29300
29321
29259
29070
29025
29112
29043
28864
28865
28964
28842
28604
28577
28658
28551
28367
28392
28490
28392
28250
28307
28387
28257
28112
28193
28305
28233
28206
28457
28762
28919
29178
29712
30272
30698
31217
31939
32592
33082
33677
34426
35014
35356
35746
36237
36555
36700
36951
37255
37302
37164
37168
37261
37139
36892
36845
36888
36717
36461
36402
36389
36159
35893
35830
35771
35496
35227
35212
35243
35085
34952
35035
35066
34843
34645
34679
34672
34448
34272
34281
34241
34083
34052
34173
34167
34016
34016
34175
34192
34092
34154
34324
34316
34211
34321
34547
34582
34536
34662
34835
34811
34723
34809
34909
34777
34595
34604
34609
34401
34197
34189
34172
33956
33762
33795
33800
33574
33380
33382
33324
33067
32887
32890
32788
32504
32323
32291
32134
31859
31759
31787
31649
31400
31320
31332
31149
30888
30868
30977
30907
30763
30808
30884
30742
30561
30591
30662
30523
30343
30349
30355
30169
30004
30052
30079
29906
29801
29924
29988
29833
29734
29827
29842
29675
29613
29742
29781
29707
29828
30171
30466
30692
31118
31734
32245
32683
33328
34081
34641
35117
35801
36531
36974
37268
37705
38132
38288
38346
38574
38820
38836
38799
38929
39003
38810
38591
38568
38500
38200
37937
37898
37833
37590
37445
37511
37484
37280
37214
37348
37342
37157
37103
37184
37117
36938
36949
37087
37023
36826
36808
36889
36788
36607
36629
36738
36661
36523
36572
36650
36510
36349
36405
36476
36333
36191
36284
36402
36339
36326
36530
36648
36514
36445
36592
36675
36559
36504
36609
36578
36329
36161
36133
35971
35662
35509
35504
35350
35090
35011
35054
34914
34659
34593
34612
34400
34093
34011
34021
33832
33584
33539
33524
33312
33115
33132
33142
32959
32810
32873
32885
32656
32483
32554
32590
32416
32287
32335
32269
31994
31851
31917
31883
31704
31665
31787
31770
31610
31603
31717
31645
31448
31458
31589
31510
31339
31388
31514
31412
31229
31241
31285
31121
30952
31037
31194
31206
31293
31665
32113
32453
32904
33627
34367
34939
35571
36407
37162
37659
38152
38766
39245
39504
39818
40247
40487
40490
40560
40726
40716
40537
40486
40541
40386
40102
40045
40111
39962
39735
39742
39823
39665
39434
39436
39519
39412
39297
39404
39498
39358
39232
39332
39399
39217
39050
39100
39111
38904
38766
38843
38824
38597
38467
38521
38469
38255
38182
38303
38319
38184
38192
38341
38334
38189
38207
38345
38313
38195
38271
38422
38348
38169
38188
38281
38165
37987
38003
38017
37776
37492
37409
37321
37044
36809
36779
36706
36408
36153
36128
36059
35772
35535
35515
35460
35241
35137
35231
35202
34996
34918
34969
34866
34629
34526
34541
34400
34159
34120
34171
33995
33728
33688
33735
33576
33390
33463
33585
33475
33329
33400
33484
33317
33117
33161
33228
33069
32937
33046
33109
32913
32736
32763
32724
32486
32330
32384
32364
32161
32073
32168
32135
31933
31887
32013
31998
31890
32011
32317
32532
32751
33273
33977
34531
35030
35756
36558
37126
37608
38290
38995
39432
39771
40263
40711
40889
41007
41261
41424
41313
41186
41266
41323
41153
41008
41060
41032
40793
40632
40640
40534
40259
40136
40213
40169
39998
40003
40147
40140
40017
40041
40140
40041
39851
39858
39936
39798
39584
39576
39625
39427
39151
39114
39154
39011
38854
38905
38976
38837
38683
38738
38777
38602
38489
38634
38763
38690
38683
38879
38977
38864
38841
38974
38947
38724
38631
38715
38666
38450
38376
38436
38294
38017
37940
37964
37766
37461
37385
37413
37230
36973
36922
36904
36656
36393
36380
36405
36219
36009
36000
35998
35779
35562
35565
35543
35323
35194
35301
35336
35138
34983
35003
34932
34700
34591
34659
34629
34471
34464
34604
34571
34375
34343
34439
34339
34126
34124
34240
34161
33983
33994
34056
33891
33658
33635
33659
33481
33290
33313
33352
33183
33005
33047
33082
32874
32684
32727
32722
32497
32353
32439
32446
32247
32148
32278
32366
32349
32535
32965
33319
33580
34070
34794
35421
35956
36672
37478
38066
38522
39147
39837
40286
40587
41015
41423
41526
41520
41705
41892
41830
41713
41765
41775
41514
41215
41107
40972
40638
40375
40378
40362
40137
39971
40009
39981
39773
39662
39746
39753
39606
39586
39729
39725
39551
39490
39509
39334
39057
38986
39030
38860
38578
38513
38569
38443
38249
38270
38359
38252
38143
38274
38439
38396
38336
38498
38666
38614
38580
38745
38830
38642
38479
38554
38569
38342
38168
38185
38108
37835
37665
37685
37598
37345
37206
37187
37001
36668
36501
36460
36217
35856
35722
35723
35530
35253
35196
35214
35009
34749
34733
34782
34603
34377
34366
34371
34173
33990
34041
34092
33911
33773
33894
33978
33807
33647
33686
33662
33445
33338
33439
33437
33265
33226
33370
33380
33213
33178
33281
33225
33041
33032
33136
33029
32796
32755
32791
32627
32407
32404
32458
32290
32074
32076
32103
31903
31674
31652
31630
31409
31242
31339
31448
31374
31397
31722
32076
32283
32611
33204
33785
34234
34816
35605
36294
36795
37375
38065
38574
38885
39289
39746
39954
39997
40200
40471
40477
40323
40347
40413
40195
39848
39681
39562
39221
38853
38740
38689
38447
38202
38193
38204
38009
37844
37906
37934
37737
37594
37655
37622
37352
37165
37190
37115
36846
36683
36716
36667
36469
36392
36457
36383
36212
36238
36381
36346
36224
36323
36558
36597
36516
36635
36832
36799
36717
36884
37086
37014
36856
36889
36909
36696
36499
36530
36519
36267
36058
36091
36092
35878
35712
35727
35644
35350
35137
35113
34995
34718
34568
34581
34450
34150
34005
34021
33871
33588
33509
33573
33444
33179
33101
33136
32967
32699
32654
32708
32562
32368
32394
32465
32342
32214
32301
32384
32228
32056
32096
32113
31908
31768
31876
31935
31776
31665
31739
31726
31508
31374
31437
31393
31170
31093
31188
31128
30914
30863
30946
30858
30660
30690
30874
30885
30833
31073
31491
31740
31964
32475
33086
33513
33955
34666
35429
35978
36498
37197
37836
38180
38466
38901
39222
39277
39367
39637
39779
39656
39566
39616
39522
39247
39098
39091
38929
38599
38395
38356
38202
37935
37836
37864
37716
37469
37442
37526
37388
37137
37100
37145
36965
36711
36657
36631
36393
36146
36148
36210
36078
35969
36113
36245
36137
36054
36184
36278
36196
36215
36461
36630
36580
36604
36802
36879
36774
36802
37013
37087
36971
36969
37087
37013
36797
36746
36783
36622
36375
36338
36398
36257
36019
35960
35930
35655
35309
35170
35092
34825
34523
34440
34409
34189
33987
33997
33960
33712
33527
33560
33532
33282
33094
33114
33083
32904
32833
32925
32892
32696
32651
32763
32706
32485
32420
32481
32361
32155
32188
32331
32253
32070
32093
32206
32111
31935
31936
31975
31821
31646
31691
31741
31550
31363
31405
31423
31224
31078
31175
31249
31128
31131
31437
31746
31938
32320
32974
33570
34030
34655
35467
36139
36647
37294
38064
38624
38989
39486
40058
40358
40465
40718
41004
40997
40840
40860
40911
40703
40421
40379
40409
40219
39983
39947
39904
39653
39437
39445
39433
39212
39041
39110
39139
38922
38744
38785
38759
38520
38363
38385
38296
38025
37860
37862
37760
37530
37465
37553
37476
37284
37285
37399
37321
37169
37286
37541
37594
37549
37681
37872
37857
37784
37901
38008
37866
37702
37744
37787
37635
37514
37619
37670
37454
37261
37283
37226
36925
36676
36640
36541
36242
36030
35991
35826
35483
35284
35287
35164
34892
34778
34778
34591
34300
34225
34254
34066
33786
33710
33717
33538
33313
33292
33305
33109
32900
32922
32958
32758
32544
32549
32557
32362
32211
32307
32357
32147
31965
32012
32011
31813
31701
31771
31721
31500
31427
31563
31589
31441
31405
31471
31346
31088
31018
31055
30881
30618
30602
30725
30648
30454
30454
30546
30430
30261
30361
30577
30625
30699
31094
31629
32062
32586
33387
34200
34814
35485
36381
37179
37702
38246
38931
39468
39755
40069
40460
40626
40545
40537
40636
40582
40388
40325
40378
40248
39978
39885
39894
39701
39418
39349
39383
39235
39027
39034
39094
38937
38735
38754
38828
38705
38554
38627
38708
38556
38409
38464
38450
38201
38004
38048
38048
37824
37662
37703
37655
37440
37362
37464
37444
37269
37238
37374
37366
37218
37258
37448
37474
37416
37587
37849
37845
37699
37728
37812
37676
37469
37458
37457
37199
36901
36840
36831
36607
36360
36343
36336
36114
35918
35932
35882
35574
35282
35188
35036
34704
34475
34444
34315
34044
33920
33955
33837
33550
33411
33422
33277
33006
32926
32955
32764
32479
32441
32511
32353
32107
32099
32210
32138
31999
32072
32187
32046
31839
31847
31889
31723
31568
31652
31720
31554
31421
31501
31531
31354
31244
31338
31336
31138
31049
31134
31092
30858
30731
30750
30608
30301
30149
30164
30056
29862
29895
30077
30098
30097
30410
30917
31320
31752
32479
33316
33941
34507
35293
36113
36703
37257
37998
38689
39095
39433
39898
40239
40293
40357
40610
40764
40650
40545
40572
40467
40179
40012
40018
39892
39598
39447
39451
39305
39028
38922
38944
38803
38565
38538
38633
38520
38311
38319
38409
38278
38063
38047
38077
37885
37651
37620
37594
37347
37113
37128
37139
36926
36767
36870
36952
36842
36824
37030
37157
37061
37027
37176
37235
37115
37109
37269
37275
37114
37107
37238
37179
36976
36961
37028
36864
36612
36584
36643
36471
36180
36065
36002
35725
35398
35300
35257
34984
34672
34586
34505
34196
33912
33857
33773
33478
33236
33222
33167
32917
32738
32755
32707
32479
32344
32397
32328
32072
31953
32011
31944
31759
31734
31820
31719
31501
31479
31557
31409
31145
31097
31160
31033
30830
30820
30861
30715
30556
30622
30730
30623
30478
30513
30522
30307
30126
30183
30211
30026
29887
29947
29924
29672
29511
29575
29557
29374
29337
29502
29576
29549
29747
30169
30493
30762
31309
32066
32675
33205
33979
34870
35530
36050
36728
37438
37886
38210
38662
39057
39147
39160
39368
39559
39482
39351
39393
39369
39078
38785
38709
38587
38236
37963
37928
37841
37582
37413
37421
37310
37014
36862
36902
36801
36532
36417
36459
36347
36118
36110
36243
36148
35924
35945
36073
35956
35732
35709
35745
35579
35392
35469
35624
35591
35549
35720
35903
35881
35896
36160
36371
36316
36302
36509
36628
36478
36356
36420
36375
36133
36011
36080
36029
35778
35631
35658
35556
35292
35166
35131
34880
34522
34402
34423
34238
33941
33846
33824
33568
33232
33108
33033
32725
32385
32296
32251
31996
31730
31692
31670
31438
31262
31350
31399
31209
31068
31157
31205
31070
31017
31124
31083
30829
30691
30746
30684
30450
30342
30397
30333
30154
30141
30221
30100
29900
29923
30032
29910
29697
29699
29767
29618
29421
29449
29520
29389
29264
29414
29660
29789
30029
30563
31126
31516
32002
32757
33484
34000
34580
35362
36042
36501
37030
37685
38135
38306
38545
38904
39056
39000
39042
39157
39042
38763
38652
38621
38355
37984
37842
37824
37617
37350
37326
37361
37145
36883
36862
36869
36634
36368
36332
36300
36038
35830
35898
35931
35683
35455
35468
35435
35189
35035
35111
35120
34959
34934
35113
35165
35040
35065
35271
35319
35218
35318
35563
35605
35543
35725
36005
36014
35896
35999
36174
