22239
22315
21998
22279
22949
22545
21821
22868
22917
22716
22011
22945
23137
22558
22421
23735
23283
22756
22882
23937
23238
22307
23412
23612
23349
22676
23560
23720
23236
22694
23857
23480
22961
22883
23813
23347
22701
23286
23556
23507
22844
23506
23513
23489
22770
23805
23970
23435
22983
24021
24117
22687
23479
24503
23759
23049
23780
23980
23774
23328
24094
24252
23607
23108
24309
24280
23495
23754
24049
23644
23373
24008
24484
24288
23550
24231
24465
24199
23795
25455
24685
23728
24458
24840
24651
23747
24591
24638
24746
23539
24727
24755
24387
23500
24413
24558
23805
23487
24086
23790
22840
23349
23822
23369
21974
23283
23532
23127
22578
23294
23129
23097
22478
23563
23367
22474
22642
23543
23310
22276
23239
23725
22991
22882
22499
23752
22583
22298
23277
23331
23144
22729
23642
23465
22554
23108
23908
23561
22818
23467
23616
23321
22669
23724
23819
23306
22809
23724
23489
23034
23152
23942
23645
22561
23398
23740
23220
22774
23909
23912
23613
22982
23998
24034
23131
23298
23999
23718
22781
23645
23962
23864
23084
23660
23350
24046
23445
23906
24064
23615
22743
23820
24262
23430
23779
24205
23942
22821
23811
24225
23751
23415
24160
24286
24003
23455
24501
24157
23295
23450
24228
24077
23148
23471
23834
23641
22814
23502
23705
23122
22289
23219
23209
22692
22089
22779
22713
22006
22498
23046
22886
22012
22899
22983
22837
21882
23205
23163
22541
22192
23081
23019
22187
22667
23327
22978
22037
22808
23338
23007
22383
23369
23343
23152
22577
23759
23370
22575
22665
23552
23444
22389
23360
23759
23401
22359
23737
23894
23396
22752
23560
23390
23146
22621
23705
23793
22516
23399
23812
23787
22743
23562
23914
23411
22773
23920
23965
23610
22929
24047
24021
23305
23635
24955
24385
23133
23102
24529
23862
23071
24224
24163
23481
23260
24279
24202
23184
23464
24611
24032
23548
24071
24379
23878
23159
24057
24155
23771
23169
24452
24221
23695
23468
24547
23928
23307
23721
23787
23774
22648
23337
23373
23010
22645
23219
23194
22570
22068
23378
22829
22270
22414
23381
22889
22149
22619
23219
22659
22330
22868
22718
22579
22422
22830
23230
22532
22482
23055
23211
22149
22979
23205
22795
22129
23423
23241
23244
22775
23332
23771
22773
22868
24308
23481
22762
23146
23792
23258
22536
23616
23471
23473
22442
23610
23744
23203
22808
23594
23627
22726
23439
23938
23829
22492
23529
23717
23722
23019
23716
23896
23262
22806
23769
23844
23310
22875
23722
23569
23244
23541
24417
23872
22897
23944
24283
23720
23131
24210
24066
24004
23397
24234
24151
23457
23547
24345
23969
23236
23848
24112
24126
23517
24032
24267
23936
23047
24152
24126
23256
23091
23570
23399
22551
22924
23185
23140
22526
22995
23198
22683
22062
23280
22992
22575
22130
23188
23243
22114
22315
23179
22881
21702
22387
22936
22721
21632
22952
22802
22143
22056
23361
22811
22331
22406
23275
23004
22285
22712
23327
23082
22204
23211
23576
23104
22786
23265
23516
22760
22890
23405
23361
22738
23084
23615
23251
22438
23505
23645
23184
22336
23414
23514
23222
22624
23643
23619
22900
23125
23732
23333
22398
23604
23639
23418
22389
23798
23571
23525
22625
23984
23595
22957
22924
24075
23650
22840
23672
24193
23828
22848
23692
23953
23743
22743
24091
23819
23278
23221
24384
23929
22982
23349
24098
23913
22951
23884
23911
23630
22906
23707
24393
23074
22211
23397
22947
22305
22374
23272
22525
22052
22488
22764
22252
22046
22731
22606
22225
21674
22739
22418
22013
21612
22394
22497
22030
21927
22608
22594
21553
22577
22676
22491
22038
22912
23020
21475
21660
23916
23079
22075
22638
23261
23066
21958
23137
23488
23137
22481
23274
23531
22919
22390
23675
23548
22926
22648
23468
23106
22246
22994
23342
23234
22571
23349
23520
23139
22675
23413
23580
23398
22867
23588
23406
22718
23319
23718
23474
22684
23362
23769
23208
22757
23430
23453
23387
22771
23840
23899
22845
23088
23964
23681
22735
23566
24016
23408
23218
23427
24282
23691
22859
24030
24008
23036
22990
24022
23774
22850
23352
24134
23547
22817
23537
23516
23442
22278
23480
23271
22657
22140
22975
22588
21690
22161
22735
22766
21333
22390
22700
22206
21667
22568
22348
22161
21615
22602
22496
22179
21957
22761
22639
21465
22458
22829
22577
21905
22841
22849
22619
22131
22952
22664
22284
22119
23113
23028
22279
22641
23167
22962
22075
23117
23015
22976
22411
23156
23008
22307
22091
23123
23196
22241
22585
23334
22922
21948
23248
23325
23046
22532
23597
23606
22515
22164
23442
23334
22986
22771
23628
23054
22260
23249
23693
23518
22544
23550
23083
23367
22445
23677
23987
23599
22681
24021
23825
22457
23425
24049
23632
22614
23866
23826
23495
22463
24891
24039
23129
22974
24153
23930
22680
23159
23682
23537
22648
23427
24152
23261
22302
23024
23047
22648
21774
22562
22625
21816
21797
22619
22371
21318
22231
22655
22152
21623
22444
22322
22219
21546
22519
22571
21987
21536
22891
22635
21746
22167
22655
22348
21433
22603
22452
22238
22023
22972
22971
22387
21902
22871
22710
21889
22234
22884
22507
22006
22468
22712
22657
22091
22878
22967
22625
22039
22803
22731
22171
22453
23047
22750
22109
22586
23015
22959
21892
22931
23070
22604
22049
23310
23653
22846
22370
23629
23149
22513
22785
23271
23415
22156
23390
23217
23377
22342
23447
23681
23030
22461
23617
23657
22786
22479
23548
23459
22445
22974
23395
23318
22492
23168
23521
23352
22482
23592
23323
22873
22422
23425
22873
22228
22809
23085
22675
22015
22713
21549
22227
21740
22352
22414
21917
21275
22554
22059
21344
21230
22241
21948
20658
21761
22152
21712
21387
21771
22571
21652
21133
22001
21780
21420
21066
22324
22011
21025
21732
22312
22025
21220
22367
22414
21981
21055
22430
22359
22041
21509
22723
22306
21447
22030
22690
22328
21269
22114
22411
22199
21335
22568
22511
22069
21177
22658
22357
21956
21985
23054
22722
21394
22184
22727
22412
21500
22571
23031
22400
21901
22919
22577
22297
22026
23135
22763
21651
22390
23039
22849
21941
23005
23102
22542
22106
23103
23018
22762
22072
22939
22918
22193
22489
22937
23001
22359
22613
22856
22555
21970
22861
23113
22570
21997
22968
22673
21915
21786
22621
22187
21423
21792
22311
21723
20784
21650
22185
21415
20906
21705
21707
21245
20865
22192
21507
20856
21445
22062
21611
21124
21452
21660
21766
20849
22079
22096
21510
20974
21760
21858
20960
21487
22375
22001
21247
21992
22255
21962
21449
22333
22288
21953
21262
22335
21969
21763
21557
22265
22256
21562
21643
22219
22218
21566
22133
22399
22100
21553
22409
22343
22159
21603
22752
22317
21836
22026
22881
22591
21549
22425
22462
22447
21654
22707
22386
22307
21827
22515
22969
22061
22021
23185
22515
21907
22607
22805
22441
22096
22924
23245
22592
21937
23294
23110
22509
22263
23400
23037
22317
22790
23180
22909
22047
22939
23234
22689
21846
23030
23077
22270
21807
22713
22188
22120
21907
22235
21954
21316
21850
21885
21572
21242
21848
21754
21132
20888
21882
21731
20777
20680
21803
21732
20679
21293
21918
21223
20851
21545
21983
21132
20696
21740
21783
21478
20843
22253
21931
21312
21575
22076
22018
21017
21852
22389
21923
21836
22128
22127
21828
20925
22893
22022
20767
21513
22140
21992
21315
21980
22267
21840
20964
22186
22158
21941
21414
22477
22375
21787
21622
22607
22575
21587
22118
22468
22195
21636
22591
23170
22297
22009
22730
22742
22531
21803
22640
22892
21873
22074
22963
22678
22066
22712
23058
22637
22078
22906
22699
22406
21948
22977
22946
22208
22137
23176
22828
22113
22334
22838
22654
21421
22745
22511
22283
21502
22511
22344
21668
21356
22000
22029
21374
21299
22055
21200
20739
21233
21912
21043
21228
20719
21502
20929
20641
21736
21501
20721
20546
21475
21676
20282
21489
21423
21139
20673
21545
21497
21163
20632
21761
21596
21222
21044
21718
21640
20779
21373
21865
21721
21470
21639
21913
21913
21237
21779
22259
21620
21259
22368
21926
21218
21487
21922
21865
21340
21962
22226
22121
20875
21373
22588
21226
21628
22577
22291
21485
21316
22285
22203
21051
21959
22844
22159
21290
22432
22404
22144
21680
22485
22508
22261
21503
22885
22538
21246
22389
22574
22442
21708
22295
22710
22312
21396
22735
22945
22380
21632
22881
22443
21951
22251
22950
22496
21590
22628
22551
22125
21484
22166
22423
21756
21196
22044
22102
21069
20732
21538
21626
20563
20950
21485
20988
20626
21269
21593
21062
20077
21260
21472
20891
20599
21397
21264
20112
20784
21561
21166
20599
21249
21342
21231
20251
21399
21788
21170
20561
21452
21776
20675
20673
21797
21663
20534
21426
22146
21459
20780
21366
21692
21777
21174
22019
21882
21120
21052
21895
22084
20870
21599
22031
21998
20789
21929
22033
21786
21148
22132
22419
21537
21616
22407
22278
21574
21925
22232
22020
21494
22266
22901
22126
21503
22521
22707
22115
22098
22494
22429
21566
21868
22699
22560
21907
22202
22771
22450
21988
22716
22743
22556
21979
22957
22653
22474
21930
23327
22901
22181
22407
22839
22599
21696
22427
22850
22371
21208
22657
22408
21931
21027
22497
22083
21218
21110
21878
21966
20843
21594
22029
21652
20900
21671
21764
21384
20791
22041
21980
20984
21056
21926
21532
21293
21451
21979
21632
20798
21760
21792
21489
20954
21968
22760
21638
20995
22249
21868
21625
21702
21693
22115
20969
22037
22068
21771
21231
22105
22355
22051
21495
22540
22488
21591
21496
22613
22096
21227
21913
22795
22279
21487
22403
22366
22113
21519
22674
22616
22333
21666
22725
22653
21553
22330
22679
22341
21744
22737
22840
22471
21626
22610
22664
22240
22028
23265
23053
22130
22185
23053
22577
21609
22751
22981
22596
21720
22954
22996
22358
22323
23149
22999
22099
22083
22855
22751
21715
22448
22886
22334
21244
22374
22557
21892
20863
22156
22026
21422
20980
21793
21689
20480
21346
21459
21280
20819
21352
21756
20993
20728
21282
21530
21310
20661
21928
21498
20763
20958
21910
21490
20382
21501
21684
21543
20784
21562
21898
21371
20633
22124
21927
21367
20914
22091
21905
21078
21630
22347
21814
21132
21841
22322
21676
21168
22230
21834
21637
21204
22049
21899
21284
21685
21964
21849
21347
21913
22248
21810
20950
22392
22397
22136
21266
22194
22364
21120
21458
22632
22046
21370
22096
22583
21723
21500
22353
22229
21982
21725
22801
22384
21837
21660
22728
22393
21450
22271
22658
22366
21382
22338
22642
22225
21793
22686
23035
21836
21841
22833
22746
22068
21854
22988
22135
21175
21839
21905
21564
20765
21731
21432
21062
20390
21342
21375
20573
20394
21582
21360
20210
20942
20932
20990
20343
21079
21002
20828
20242
21114
21028
19960
20501
21453
21090
20412
20885
21355
21405
20455
21030
21599
21457
20719
21626
21776
21043
20629
21477
21579
20838
20729
21866
21505
20646
21557
21708
21294
20484
21675
21744
21175
21163
21660
22114
21357
20692
22090
21786
20805
21705
21839
21878
21087
21821
21912
21747
21145
22182
22337
21636
21130
22337
22140
21472
21574
22547
22235
21152
22083
22403
21611
21321
22256
22474
21982
21001
22687
22147
21566
21363
22525
22472
21214
22175
22342
22251
21499
22280
22713
21989
21180
22604
22492
21541
21106
22668
21817
20818
21558
21971
21221
20592
21240
21574
21121
19975
21360
21249
20528
20266
20914
21188
20326
20421
21048
20976
19650
20462
20927
20555
19962
20729
21111
20429
19892
21025
20899
20663
19947
21100
20916
20125
20767
21586
20751
20167
21238
21665
21101
20630
21407
21551
21031
21135
21675
21641
20769
21453
21564
21299
20593
21441
21951
21545
20830
21830
21979
21298
20683
21897
22053
21195
21145
22095
22112
21170
21635
21958
21725
21249
21675
21940
21753
21031
22172
21779
21439
21087
22258
22020
21162
21714
22290
21743
21151
21792
22116
21938
20940
21796
22044
21706
21327
21783
22005
21223
21602
22281
22053
21272
21826
22031
22013
21307
22191
22111
21613
20917
22203
21999
21178
20836
21545
21531
20548
20965
21341
20964
19669
20511
21284
20281
19516
20938
20712
20005
20006
20679
20611
19515
20320
20659
20202
19564
20442
20499
20184
19304
20384
20700
20238
19822
20670
20669
20155
20201
20860
20817
20296
20973
21089
20773
20148
21048
21392
21069
20354
21557
21431
21418
20481
21644
21443
20666
20932
20620
21251
20421
21524
21288
21126
20490
21919
21441
21180
20682
21940
21750
21036
21425
21800
21488
20716
21414
22253
21678
20856
21839
21610
21635
21134
21789
22037
21463
21161
22181
22154
21125
22001
22196
21974
21260
22412
22831
21733
21433
22307
22219
21894
21337
22633
22273
21445
21762
22391
22007
21417
22314
22251
21959
21454
22393
21944
21532
21552
22256
21946
21022
21330
21689
21422
20748
21109
21614
21094
20343
21034
21081
20492
20039
21082
20798
20542
19905
21349
20799
19840
20461
20855
20701
19485
20687
20964
20703
19768
20800
21177
20396
20322
21408
20872
20161
20708
21221
20979
20052
21140
21009
20966
20422
21343
21406
20721
20618
21253
21330
20438
21117
21507
21346
20295
21129
21386
21441
20527
21518
21729
21711
20720
21641
22044
21005
21253
22298
21906
20794
21417
22093
21969
21097
21722
22066
21651
21134
22065
22007
21728
20997
22426
22075
21300
21662
22467
22185
20734
21998
22502
21760
21164
21814
22020
21544
21114
22304
22432
21526
21385
22556
22592
21229
21948
22216
22426
21106
22184
22229
22196
21364
22038
22275
21434
21148
22232
21783
20891
21212
21737
20870
20294
21011
21290
20945
20281
20790
21081
20384
20287
20831
20814
20336
20309
21128
20622
19883
20599
20752
20668
20105
20933
21005
20620
20416
21002
21308
20431
20644
21558
20953
20463
21051
21659
21296
20942
21273
21589
21111
20702
21610
21717
21353
20804
21740
21689
20674
20951
21953
21546
20886
21763
21563
21409
20803
21906
21939
21747
21017
22250
22040
21266
21462
22232
21920
20817
21800
21804
21666
21917
22194
20972
21623
20299
22705
21919
22730
21108
22115
22099
21325
22102
22486
22017
21505
22282
22393
22275
21311
22418
22073
22233
21582
22447
22410
21501
22177
22512
22508
21429
21756
22771
22473
21474
22797
22535
22187
21513
22263
22509
21786
21612
22015
22053
20893
21378
21828
21172
20653
21247
21760
21025
20220
21178
21245
20479
20249
21136
20759
20038
20299
21103
20944
19893
21094
21063
20865
20127
21338
21274
21215
20166
21414
21374
20631
20713
21136
21301
20392
21176
21622
21286
20753
21774
21455
21451
21041
21731
21625
21148
20712
21917
21800
20163
21302
21506
21482
20927
21360
22768
21407
21108
22045
21841
21201
21250
22471
22252
21203
21861
22131
22194
21159
21920
21954
21960
21404
22130
22344
21953
21472
22455
22333
21388
21335
22744
22305
21993
22205
22791
22394
21409
22230
22794
22285
21364
22646
22836
22417
21455
22206
22800
22597
22111
23027
22496
21751
22510
22803
22495
22007
22673
22873
22359
21555
23167
22902
21900
21800
23021
22255
21608
21721
22342
21700
20960
21540
22145
21594
20796
21753
21673
20923
20820
21866
21432
20347
20943
21742
21343
20662
21183
21538
21125
20556
21522
21493
20928
20847
21478
21528
20700
21290
21947
21665
21257
21879
21831
21485
21181
22176
21939
21990
21296
22297
22294
21543
21469
22736
22440
21234
22259
22718
22203
21528
22287
22507
22022
20798
22746
22549
22050
21293
22351
22628
21256
22235
22385
22497
21696
22403
23057
22060
21874
22819
23079
22235
22273
23202
23024
22202
22559
22888
22894
22265
22834
23349
22701
22356
23002
22943
22822
22241
23121
23156
22083
22187
23519
23022
21953
22820
23343
22921
22271
23119
23549
22723
22461
23404
23303
22634
22394
23452
23189
21991
22558
22925
22491
21598
22655
22546
22124
21557
22065
22444
21556
21086
22226
21870
20989
21541
21957
21859
20487
21604
21665
21659
20809
21941
22221
21558
20991
22021
21899
21037
21385
22672
21869
21092
21772
22082
21815
21389
21674
22607
22046
21040
22372
22560
21991
21370
22315
22471
21528
21969
22300
22296
21469
22453
22484
22064
21687
22244
22637
22113
21635
21864
22538
21747
21967
22808
22566
21678
22418
22660
22341
21803
22618
22795
22630
21712
22910
22818
22507
21897
22273
22731
22152
22472
22833
22631
21787
22700
22960
22603
21842
23140
23153
22570
22216
23182
23254
22502
22477
23119
23179
21800
22854
22993
22790
21971
23018
23373
22709
22373
23416
23362
22415
22383
23286
23129
22242
22759
23227
22846
22392
22612
22405
22179
21507
22153
22292
21476
21222
22363
21931
20927
21938
21882
21728
20784
21439
21556
21391
20996
22066
22251
21270
20529
21938
21957
21098
21304
22301
21725
20871
21744
22037
21764
20799
21995
21885
22568
21321
22217
21847
21660
21254
22212
22154
22008
21921
22389
22055
21365
22164
22288
22026
21135
22119
22369
21648
21318
22493
22095
21313
21681
22483
22226
21489
22287
22415
22245
21559
22259
22581
21698
21681
22620
22530
21910
21592
23054
22552
21595
22378
22629
22461
21810
22721
23014
22425
22140
22803
22963
22147
21744
23064
22749
21598
22760
22881
22734
22083
22801
22942
22717
22072
23189
23101
22486
22319
23672
22945
22092
22536
23314
23251
21982
23087
23225
22968
21972
22894
22765
22300
21823
22392
22494
21760
21465
22117
21765
20823
21521
22088
21730
20912
21871
21973
21518
20937
21794
21683
21414
20903
22180
21912
21055
21516
21737
21632
21207
21595
21880
21433
21097
21738
21824
21525
20981
21968
22232
21197
21276
22001
22000
21128
21950
22348
21954
21354
22176
22402
21947
21563
22388
22217
21938
21472
22288
22284
21633
22026
22524
21747
21079
22508
22468
22121
21604
22488
22633
22048
21376
22879
22778
21932
22115
22866
22350
21795
22438
22505
22293
21451
22526
22579
22332
21594
22921
22793
22117
21994
22427
22448
21899
22411
22836
22577
21927
22677
23290
22618
21940
23101
22994
22418
22032
23031
23128
21923
22643
23052
22901
22122
22879
22842
22558
21860
23119
22799
22339
21535
22449
22284
21645
21466
22281
21892
20501
21708
22137
21666
20817
21558
21758
21441
20940
21636
21701
21344
20791
21907
21267
20821
21111
21708
21360
20729
21511
21480
21282
20491
21718
21530
21068
20874
22011
22093
20700
21495
22163
21685
20729
21772
21717
21840
20953
21789
21905
21410
21237
22304
21814
21406
21215
22159
21734
21136
22490
22004
21951
21061
22157
21905
21748
21095
22130
22092
21730
21145
22404
22374
21313
21722
22390
22335
21458
22336
22570
21987
21558
22580
21868
22021
21672
22712
22551
21694
21595
22646
22300
21478
22384
23108
22498
21738
23307
22572
22437
21714
22588
22838
22062
22099
22749
22781
21722
22399
23039
22544
21777
22591
22710
22583
21969
22830
22878
22449
21739
22961
22682
21711
22056
22656
22050
21348
21889
22056
21670
20772
21573
21638
21032
20768
21917
21859
20911
20750
21696
21860
20751
21434
22049
21538
20803
21466
21708
21440
20794
21585
21771
21261
21893
22281
22089
21293
21867
22419
22112
21352
22215
22270
22175
21545
22564
22430
22311
21586
22471
22719
21340
21981
22505
22245
21426
22473
23033
22369
21724
22542
22704
22376
21788
22740
23100
22086
22164
23394
22819
21952
22627
23264
22805
22148
22975
23323
22526
22466
23267
22819
22508
22200
23509
23320
22208
22811
23362
23221
22411
23285
23598
23073
22335
23571
23209
23101
22613
23620
23129
22701
22818
23980
23224
22633
23404
23795
23264
22259
23334
23261
23173
22403
23494
23274
22993
22498
23388
23366
22364
22982
23012
22861
21582
22599
22581
22179
21597
22173
22407
21549
21331
22434
21815
20826
21520
22408
21748
20643
21483
22264
21447
20910
21879
21557
21683
20896
21885
22218
21415
21131
21945
21822
21223
21756
22356
21957
21333
21972
22351
22286
21269
22493
22442
22100
21508
22629
22251
21163
22123
22631
22354
21145
22330
22686
22337
21323
22541
22615
22181
21399
22742
22628
21814
22002
22625
22556
21596
22505
22787
22347
21384
22314
22588
22232
21850
22964
22676
22496
21913
23125
22921
22059
22797
23090
22805
22328
22871
23180
22780
22042
23083
23490
22234
22282
23567
23137
22605
22675
23291
23157
22794
23154
23114
22614
22283
23071
23310
22869
22597
23390
23186
22367
22380
23173
23027
22177
22633
22802
22698
21756
22596
22663
22040
21630
22701
22862
21736
20945
22182
22229
21272
21622
22562
22128
21341
21963
21994
21701
20962
22045
22219
21580
21385
22661
22390
21495
21511
22729
22363
22604
22184
21216
22027
21110
22583
22530
22132
21821
22720
22544
21980
21924
22814
22833
21680
22043
22845
22569
21344
22901
22604
22317
21713
22535
22580
22065
21808
23088
22498
21832
22353
22842
22411
21353
22545
23010
22718
22011
22922
23091
22338
21881
23105
23018
22469
22662
22840
23019
21759
22839
22846
22798
21864
23099
23196
22777
22204
22933
23351
22668
22272
23196
23541
22330
22669
23216
23128
21951
22855
23410
22897
21963
23219
23611
22905
22649
23536
23135
22617
22705
23540
22790
22255
22693
22965
22319
21704
22471
22460
21670
21528
22431
22161
21639
21092
22219
21963
20854
21735
22557
22069
21373
22405
22206
22068
21495
22237
21981
21889
21583
22557
22034
21950
22129
22341
21875
21086
21373
22775
22134
21813
22529
22663
21903
21665
22965
22731
21852
22069
22793
22621
21432
22344
22607
22321
21399
22566
22643
22304
21871
22692
22411
22172
21859
22089
22696
21631
22299
22729
22727
21840
22684
22853
22573
22154
22905
23104
22432
22088
22984
22940
22048
22228
23199
22999
21714
22772
23060
22503
22300
23027
23286
22750
22399
23155
23080
22571
22219
22892
22930
22415
22866
23328
22826
22288
22806
22969
22855
22084
23480
23149
22453
22266
22782
22857
22218
22318
23130
22615
21383
22504
22241
22031
21119
22044
22128
21591
20961
22144
21873
20864
21288
22179
21801
20796
21567
21849
21384
20564
21773
21767
21215
20508
21908
21632
21135
21060
22031
22001
21074
21903
22263
21830
21148
21778
22076
21944
21114
22036
22288
21575
21387
22657
22050
21409
21678
22281
22115
21246
21927
22450
22046
21566
22103
22545
21945
21194
22568
22854
21860
21786
22677
22629
21305
22526
22368
22333
21482
22279
22804
22368
21619
22552
22938
21811
21367
24082
22632
21807
22295
22939
22527
21495
22704
22971
22529
21964
22760
22956
22426
21897
23243
23052
22030
22581
22848
22747
21633
22835
23076
22642
21697
22780
23288
22574
21690
22624
22595
22003
21666
22065
22101
21444
21724
22146
21530
20747
21528
21482
21344
20361
21465
21511
20748
20790
21489
21351
20665
21293
21412
21060
20539
21313
21612
21127
20582
21278
21262
20952
20584
21626
21303
20648
20725
21270
21654
20391
21449
21939
21228
20642
21809
22617
21705
20858
21783
21924
21138
20689
21802
21322
21087
21634
22339
21648
20931
21680
21952
21681
20992
22020
21917
21559
21361
22453
22290
21198
21670
22001
22098
21223
21917
22450
22009
21715
22295
22276
22045
21066
22618
22417
22040
21716
22675
22325
21557
21911
23044
22391
21515
22272
22948
22327
21948
22754
22646
22015
21904
22718
22927
21652
22510
22701
22405
21469
22551
22717
22484
21602
22603
22546
22081
21509
22587
22354
21352
21300
22334
22127
20624
21383
21440
21257
20569
21095
21813
20980
20217
21166
21220
20548
20208
21316
21142
19982
21009
20947
21167
19721
21126
21051
20640
20080
21105
20908
20498
20232
21414
21217
20486
20565
21227
21495
20362
21182
21608
21185
20503
21791
21670
21420
20684
21574
21678
20749
20584
21790
21635
20738
21408
21731
21213
20556
21679
21801
21338
20896
21762
21953
21204
20881
21862
21904
20962
21532
22413
21820
20883
22075
21886
22084
21070
22266
22239
21680
21318
22076
22134
21334
21247
22609
22111
21016
22080
22126
22045
20897
22339
22013
22149
21372
22313
22475
21539
21442
22660
22311
21576
21856
22682
22363
21477
22308
22415
21531
21485
22215
22249
21629
21061
22043
21642
20953
21025
21338
21034
20359
20971
21537
20887
20201
20905
21135
20281
19980
20917
20858
19992
20092
21269
20925
19945
20337
20708
20873
20257
20929
20985
20542
20203
21347
21251
20561
20469
21406
21250
20467
21038
21817
21289
20482
21328
21405
21340
20833
21755
21833
21234
20989
21856
21593
20885
21326
21874
21895
21355
22088
22049
21789
20944
22082
22415
21735
21131
22376
22172
21664
21305
22517
22299
21072
22019
22243
22185
21642
22490
22517
22196
21455
22444
22672
22085
21718
22599
22700
21610
22159
22532
22620
21821
22459
22923
22328
21872
22728
22968
22281
21694
23161
22710
22262
21807
22666
22644
21362
22750
22927
22799
21917
22633
22590
21910
21406
22297
22545
22053
21081
22018
21936
20801
21140
22422
21436
20719
21295
21534
21220
20144
21243
21235
21064
20128
21240
21336
20338
20787
21064
21145
20417
20768
20976
21430
20892
21622
21304
20762
20417
21568
21299
20667
20269
21276
21284
20078
21041
21409
21230
20554
21412
21760
21239
20701
21842
21895
21396
20902
21733
21686
21251
21157
21655
21689
20745
21816
22119
21729
21070
21949
21834
21558
21266
22106
22130
21732
21281
22181
21925
21068
22098
22258
21896
21289
22044
22599
22138
21419
22131
22560
21704
21842
22506
22403
21406
22187
22770
22388
21818
22554
22773
22577
21669
22586
22800
22285
22177
23219
22998
22084
22472
23018
22907
21844
22678
23173
22707
21800
22795
22781
22175
21547
22512
22734
21699
21335
22292
22025
21071
21620
21994
21554
20874
21679
22044
21485
21006
21719
21743
21301
21109
21808
21727
20939
21365
22249
21719
21001
21762
21972
21501
20975
21964
21955
21369
21015
22046
21882
21241
21690
22737
21866
20486
21774
21955
21770
20840
21928
22015
21523
21107
22156
22144
21702
21110
21939
21965
20924
21693
21955
21851
20906
22054
22273
21697
20558
21880
22307
21411
21132
22515
22123
21000
21674
22800
21963
20961
21886
21987
21829
20918
21870
22044
21632
21869
22699
22199
21770
21518
22317
22215
21551
21928
22293
22139
21477
22070
22472
21992
21826
22602
22422
22034
21351
23155
22650
21495
22189
22648
22195
21381
22244
22558
21971
20816
22033
21800
21401
20935
21676
21419
20946
20895
21564
21352
19773
21060
21700
21096
20391
21844
21809
20846
20572
21351
21279
20420
20684
21375
21056
20217
20943
21564
21120
20349
21563
21718
20786
20326
21580
21669
21248
20750
22088
21775
20542
21123
21650
21613
20786
21447
21603
21349
20400
21533
21657
21686
20838
21486
21623
21148
21041
21825
21969
20607
21556
21731
21777
21299
21921
22337
21937
21302
22214
21897
21491
21482
22432
22173
21131
21877
22645
22046
21135
22539
22649
22151
21879
22425
22765
22168
21832
22496
22574
21729
21998
22752
22800
22103
22165
22693
22286
21912
22263
22910
22089
21976
22782
22713
21451
22131
22617
22548
21499
22144
23030
22382
21336
22202
22068
22104
21137
21995
21753
21321
21085
21810
21864
20644
20806
21801
21615
20763
21579
20942
21382
20487
21506
21601
21188
20572
21773
21691
21024
20885
21595
21505
20593
21593
22300
21285
21799
21771
22416
21401
20864
21871
21945
21444
20949
22035
21870
20846
21357
21898
21714
21002
21815
22028
21681
20957
22047
22296
21380
20921
22114
21858
21289
21233
22056
21722
20811
21916
22310
21999
21305
22000
22177
21606
21210
22202
22148
21351
21253
22306
22127
21096
22065
22545
22111
21372
21929
22314
22019
20923
22315
22418
22082
21621
22451
22345
22269
21862
22568
22273
21267
22196
22332
22181
21857
22444
22412
22192
21865
22232
22507
21774
21461
22482
22162
21132
22204
22039
22139
20475
21760
21743
21029
20334
21409
21542
20841
20263
21494
20917
20287
20576
21556
20691
19898
20605
20576
20470
19962
20802
20656
20445
20110
21205
21013
20151
20234
21251
20840
19954
20894
21151
20850
20171
21039
21000
20751
20169
21319
20818
20848
20252
21055
20832
20193
20957
21494
21133
20754
21456
21455
20795
20264
21297
21560
20957
20496
21611
21533
20456
20983
21503
21237
19993
21586
21412
21310
20657
21280
21323
21275
20828
21994
21726
20781
21032
21642
21504
20442
21369
21291
21194
20405
21317
21592
21426
20274
22548
21567
20733
21144
22009
21807
20539
21195
21925
21606
21128
21871
22123
21661
21665
22099
22330
21757
21391
22343
22362
21273
21634
22108
21591
20670
21587
21935
21573
20556
21669
21399
20938
20448
20802
21479
20805
20826
20836
21420
20279
20773
21517
21044
20728
21326
21226
21748
20227
22309
21346
21252
20851
21825
21366
20735
21416
21799
21736
20887
21780
21800
21689
21237
21773
21844
21556
21218
22272
22136
21167
21172
22399
22162
21114
21654
21957
22058
21397
22083
22312
21984
21532
22466
22034
21355
21406
22402
21919
21223
21672
22374
21974
21346
22264
22651
21965
21546
22219
22290
22208
21241
22722
22616
21755
22141
22759
22199
21538
22152
22302
22302
21550
22379
22636
22275
21669
22886
22418
21652
21924
22593
22486
21133
22361
22452
22481
21530
22357
22748
22134
21362
22460
22340
21807
21235
21939
22098
21048
21542
21801
21459
20754
21597
22111
21519
20999
21700
21801
21539
20452
21625
21344
20647
20888
21660
21393
20675
21111
21734
21219
20321
21426
21558
21184
20679
21779
21963
21182
21099
22115
21846
20828
21615
22087
21293
21119
21780
22501
21569
20714
21633
21845
21313
21010
21717
21767
21031
21511
21828
21566
21021
21584
21634
21564
20743
21605
21963
21772
21045
22152
21891
20997
21303
22170
21882
21318
21754
22065
22284
21419
22080
22307
21907
21256
22054
22223
21831
21487
22540
22283
21952
21889
22803
22068
21263
22139
22766
22404
21384
22453
22434
21927
21588
22449
22367
21906
21586
22735
22272
21062
22059
22635
22001
21250
22228
21967
21423
20814
22191
21892
20945
20339
21227
21136
19739
20597
21246
21050
20879
21148
20865
20381
20045
20940
21013
20685
20278
21206
20699
20110
20621
20995
20894
20058
20975
21233
20722
20068
21170
21157
20694
19875
21300
21234
20489
20456
21735
21281
20503
20964
21734
21136
20687
21233
21282
20993
20445
21508
21684
21101
20842
21857
21600
20471
21109
21402
21416
21214
21507
21702
21417
20536
21898
21954
21263
21028
21997
21898
21297
21428
22261
21733
21021
21809
22431
21632
21328
22078
22438
21871
21332
22476
22367
21422
21640
22665
22317
21266
21891
22436
22569
21736
22433
23100
22331
21417
22653
22647
21985
21625
22804
22297
21756
21902
22662
22148
21283
21960
21774
21668
21299
21805
22034
21319
20712
21691
21827
20722
20664
22064
21665
20448
21254
21563
21290
20609
21754
22230
21308
20847
22097
21980
21378
21071
22198
22138
21608
21277
22711
22128
20543
21915
23295
21827
21864
22507
21980
21851
21256
22425
22426
21436
21680
22312
22115
21284
21992
22295
22070
21359
22178
22368
22063
21426
22379
22348
21922
21637
22487
22314
21618
22348
22716
22105
21748
22161
22425
22045
21344
22364
22574
21933
21552
22828
22366
21769
22009
22864
22262
21661
22488
22731
22303
21370
22716
22735
23227
21545
22648
22766
22147
21843
22857
22429
21581
22325
22457
22367
21507
22604
22246
22208
21342
22667
22307
21838
21303
21886
21932
21101
21221
21903
21440
20313
21183
21583
21073
20354
21533
21213
20548
20219
21173
21055
20739
20474
21521
20898
20536
20935
21350
20944
20466
21264
21445
21054
20497
21320
21134
20740
20760
21782
21580
20297
21222
21342
21390
20555
21419
21943
21414
20887
21614
21450
21226
20462
21716
21944
20937
21405
21738
21736
20785
21338
21721
21511
21040
21599
21601
21557
20888
21825
22131
20941
21130
22168
22103
21046
21960
22213
21847
21207
22101
22171
22319
21289
22064
21988
21720
21528
22511
22205
21379
21955
22542
22144
21305
22128
22199
22025
21264
22307
22319
21993
21528
22287
22119
21576
22097
22512
22197
21157
21994
22093
21529
20744
21587
21575
21004
20699
21306
21130
20756
20118
21094
20927
20233
20536
21369
20843
20111
20763
21153
20669
20002
21324
21128
20486
20148
20907
20838
20137
20556
21138
20922
19947
20869
21360
20997
20597
20935
21385
20844
20575
21364
21194
20439
20406
21478
21295
20121
21462
21650
21157
20405
20979
21692
20956
20751
22565
21587
20896
20562
21416
21510
20633
21227
21421
20947
20674
21632
21173
21242
20554
21523
21758
20940
20591
21812
21659
20885
21031
22176
21498
20956
21646
22146
21592
20312
22472
21306
21903
20698
22094
21916
21041
21170
22176
22185
20928
21778
21997
21909
21253
22078
22002
21306
20575
21956
21899
21031
20499
21708
21386
20712
20807
21442
20770
19722
20498
20618
20393
19556
20308
21463
20011
19919
20542
20336
19714
19491
20752
20276
19290
20065
20529
20089
19488
20213
20043
19821
19308
20400
20055
19837
19514
20541
20323
19551
20181
20976
20454
19480
20735
20844
20571
19851
20757
20867
20316
19912
20911
21165
20183
20417
21172
20892
19800
20737
21147
20725
19909
21571
21242
20911
20169
21260
21059
20368
20107
21059
21126
20051
21009
21379
21101
20464
21259
21427
20956
20616
21489
21360
21153
20575
21331
21389
20505
21168
21874
21440
20560
21474
21755
21540
20433
21587
21727
20977
20690
21857
21628
21087
21177
21728
21666
20804
21348
21769
21311
20965
21489
21880
20966
20331
21229
21054
20443
19833
21057
20516
19474
20333
20628
20225
19578
20550
20591
19936
19231
20476
20803
20367
19646
20729
20350
19742
20301
20159
20385
19461
20570
20455
20475
19792
20731
20616
20609
19982
20993
21027
20351
20397
21525
20887
20135
20781
21026
20989
19785
21031
21036
20823
20464
20922
21151
20909
20503
21868
21237
20550
20917
21171
21105
20355
21429
21799
21430
20585
21364
21715
20904
20867
22043
21936
21129
21131
22342
22043
20723
21500
22181
21716
20811
21895
22083
21680
20992
22073
22179
21671
21245
22147
22094
21189
21952
22608
22022
21395
21895
22361
22249
21354
22566
22435
21695
21478
22793
22080
21263
21605
21998
21729
20756
21600
21724
21303
20497
21182
21267
21008
20509
21225
21254
20260
20217
21318
20652
19762
20891
21417
20774
20472
20947
21034
20610
20082
21281
21236
20932
20482
21386
21137
19802
20699
21248
21151
20111
21210
21633
21035
20308
21389
21422
21174
20634
21471
21499
20735
20988
21695
21391
20070
21181
21624
20893
20747
21277
21347
21243
20683
21434
21539
20935
20577
21653
21593
20370
21122
21278
21573
21005
21302
21465
20892
20580
21633
21505
21259
20881
21588
21427
20957
21291
21736
21248
20363
21228
21974
21225
20894
21860
21521
21292
20897
21501
21665
20985
20949
21952
21682
20501
21285
21889
21186
20715
21648
21888
21271
20592
21518
21391
20768
20691
21064
20802
20086
20307
20510
20426
19680
20334
20291
19998
19274
20217
20117
19614
19201
20178
20313
18834
19799
20045
19726
19067
19794
20061
19625
18986
19434
20418
19560
19335
20403
19839
19799
19175
20296
21062
19032
19541
20534
19756
19500
20449
20347
19972
19485
20185
20552
19915
19583
21161
20668
19412
20116
20831
20427
19641
20429
20768
20258
19399
20654
20901
20212
19358
21424
20925
19929
20269
21099
20536
19843
20690
20992
20519
19910
20921
20911
20587
20104
20903
20816
20467
20101
21261
20942
20315
20605
21185
20945
20252
20828
21230
20852
19767
21191
21114
20738
20602
21435
21399
20045
20831
21638
21179
20146
20454
20986
20680
19930
20881
20575
20229
19513
20068
20148
19271
19315
20014
19875
19031
19411
19747
19295
18940
19726
19874
19325
18295
19829
19686
18806
18927
19189
19123
18662
19160
19482
19276
18387
19274
19436
18910
18382
19514
19794
19261
18930
20057
20192
18996
18895
20010
19949
19598
19979
20311
19881
18661
20208
20181
19816
19157
20359
20247
19521
19622
20358
20327
19585
20023
20832
20557
19791
20487
20437
20372
19610
20557
20979
20401
20257
20723
20746
20052
20314
20580
20705
19813
20644
21307
20828
20247
20775
20939
20863
20336
21345
20945
20300
20388
21034
20865
20112
20710
21440
21076
20005
21099
20811
20946
19522
20361
20566
20575
20379
21321
20844
20551
20680
21436
20787
19812
20544
20604
20173
18920
20316
19871
19726
19040
20261
19963
19346
19327
20124
19929
18743
19823
20066
19411
18841
19660
20324
19544
19273
20018
20009
19400
19471
20012
19597
18650
19634
20312
19803
18852
19981
20080
19917
19305
20444
20317
20094
19591
20480
20418
19539
19827
20578
20439
19315
19952
20803
20212
19352
20405
20363
20056
19850
20508
21144
19919
19857
20690
20510
19829
20486
21120
20534
19643
20743
20550
20459
19962
21056
21114
20526
20051
21061
20867
20132
20677
21390
20922
19533
20762
21491
20585
20086
21040
20804
20755
20377
20933
21291
20216
20902
21372
21048
20119
20745
21415
20840
20303
21072
21325
20792
20106
21373
21215
20533
20287
21273
20902
19998
20190
20816
20753
18476
20410
20682
19950
18973
20093
20044
19439
19005
20534
19886
19081
19574
20119
19853
18833
19672
20005
19793
18924
20151
19711
19611
19334
20107
20101
19501
19314
20246
19797
18762
19848
20184
19956
19251
20288
19549
20226
19391
20106
20570
19935
19949
21091
20657
19442
20249
21694
20218
18347
20366
21327
20205
19396
20643
20728
19960
19841
20953
20793
19909
20349
21190
20520
20110
20364
21344
20622
19924
20644
21153
20562
20251
20976
20870
20116
20126
21053
20868
19750
20719
21250
20748
20120
20970
21466
20847
20251
21215
21460
20957
20565
21210
21185
20441
20821
21428
21518
20625
20605
21386
22023
20459
21316
21260
20837
20505
21408
20928
20310
20076
21083
20373
19558
20142
20322
20142
19499
19991
20129
19702
18862
20035
20005
19398
19200
20116
20476
18919
19605
19878
19333
18764
19412
19805
19526
18750
19435
19701
18905
18804
19787
19668
18915
19179
19996
19236
18947
19499
19695
19939
18933
20053
20398
19644
18686
19771
20091
19615
19294
20093
19849
19217
19911
20245
19858
18640
19991
20426
19976
19372
20047
20349
19576
19383
20384
20374
19502
20073
20730
20398
19554
20418
20439
20389
19731
20308
20632
20150
20020
21045
20562
19989
19957
20908
20641
20013
20403
21079
20686
19734
20917
20902
20617
20009
20870
21065
20223
20323
21236
21012
18961
20954
20692
20807
20026
21208
21720
20012
20290
20826
20868
20449
20018
20936
20438
19542
19524
20671
21022
18843
19887
19586
18771
18784
19838
19544
19243
18650
19862
19522
18829
18853
19680
19508
18938
19066
19353
19538
18674
19702
20047
19276
18523
19614
19869
18955
18847
20512
19352
19332
19780
20030
19696
19152
20021
19819
19994
19046
19885
20249
19832
19681
20423
20604
19723
19563
20468
20587
19686
20104
20388
20461
20259
20257
20237
20388
19824
20796
20585
20368
20089
20879
20771
19779
20601
21054
21033
19990
21160
20864
20872
20244
21037
21135
20467
20105
21462
21033
20727
20675
21098
20927
19798
21056
21387
21159
20516
21268
21284
21103
20390
21296
21607
20580
20430
22050
21237
20194
21224
21628
21186
20401
21446
21334
21046
20526
20831
20953
20696
20027
21099
20711
19680
20136
20885
20147
19256
20049
20437
19978
19330
20176
20042
19794
19178
20601
20173
19445
19570
20535
20047
19333
19946
20405
19866
19092
20302
20208
20027
19706
20355
20666
19812
19904
20972
20562
20129
20230
20416
20561
19450
20628
20864
20431
20279
20701
20477
19686
19998
21189
20800
20184
20299
20808
20730
19528
20711
21059
20583
19868
21048
21130
20417
19979
21162
20955
20850
20520
21163
21021
20246
20788
21934
20674
20327
20976
21019
20375
21014
21373
21315
20711
20654
21405
21574
20425
20969
21709
21137
20717
21251
21844
21217
20227
21479
21678
20897
20175
20650
21388
21035
20975
21330
21540
20166
20980
21148
21069
20340
21071
21234
20630
20059
20884
20702
19675
19496
20647
20230
19139
19826
20282
19817
19176
19978
20075
19592
19200
20054
19794
19535
19186
19870
19793
19052
19099
20003
20064
18980
19762
19886
19614
18802
20145
20044
20376
19430
20297
20310
19611
19663
20770
20407
19659
20189
20571
20150
19371
20604
20738
20299
19598
20642
20438
20327
19955
20525
20777
19762
20246
20929
20738
19719
20826
20736
21013
19824
21009
21098
20424
20328
21316
21177
20209
20247
21186
20962
20356
21054
21626
20900
20027
21636
21183
20792
20318
21308
21349
20710
20756
21286
21260
20498
21042
21804
21360
21182
21742
21733
21326
20480
21873
21870
21435
20829
21851
21811
21043
21294
22015
21702
20463
21543
21246
21087
20686
20998
20849
20457
20095
20830
20659
19925
19560
20646
20452
19421
20063
20270
20268
19490
20295
20495
20160
19730
20575
20589
20082
19526
21106
20502
19523
20378
20370
20495
19922
20595
20848
20310
20218
21212
20951
20530
20328
20921
20809
20222
20537
21165
20750
20096
20905
21134
21027
20033
21212
21209
20779
20289
20919
21490
20647
20396
21305
21007
20483
20938
21588
21030
20191
21488
20895
19982
20324
21730
21389
20672
20532
21579
21336
20694
21020
21323
21554
20733
21409
21709
21602
20615
21451
21879
21490
20817
21724
22056
21169
21210
22421
21509
21072
21701
21866
21892
21261
22225
22351
21234
21169
21891
22122
21676
21309
22572
22104
21197
21587
21832
21630
20614
21234
21585
21021
20072
21497
21081
20474
20309
21027
20708
20250
20220
20684
20589
19730
20255
21283
20415
20137
20918
20620
20464
19974
20921
21177
20034
20311
20984
20695
19703
20469
20923
21035
20310
21141
21394
21035
20389
21014
21350
20994
20766
21587
21316
20780
21005
21391
21290
20922
21420
21557
20876
20507
21152
20989
21040
20391
21182
21411
20565
20824
21430
21544
20975
21712
21998
21346
20531
21547
21613
21381
21161
22035
22013
21158
20963
22161
22085
20629
21903
21975
22044
21007
21949
22175
21823
20955
22271
22036
21868
21453
22527
22223
21419
21768
22101
22122
21264
21999
22823
22118
21040
22440
22228
22190
21310
22743
22382
21663
21405
21981
21783
20898
21443
21413
21619
20287
21662
21424
20758
20653
21186
21132
20220
20096
21176
20903
20205
20676
21697
20610
19891
20642
21301
20384
20016
20575
21223
20693
20367
21095
20885
20418
20058
21233
21042
20172
20998
21774
21020
20367
21699
21662
20880
20553
21160
21609
21031
20783
21772
21512
20311
21198
21488
21330
20357
21069
21370
21213
20363
21339
21700
20952
20595
21937
21776
20887
21101
21736
21653
20775
21786
21865
21313
20719
22064
22098
21465
21125
22032
22045
21065
21081
22146
21708
20860
21672
22144
21498
20960
21861
22124
21631
20877
23023
22177
21594
21406
22464
21572
21081
21635
22241
21649
21097
21646
22488
21765
21212
22261
22350
21444
20958
22038
21994
21407
21292
22200
21576
20330
21443
21138
20910
19966
21177
21213
20537
20467
21080
20983
20395
20195
20705
20920
20071
20412
20889
20726
19996
20930
20896
20480
19833
20893
20913
20522
20069
21235
20821
20355
20534
21200
21248
20318
21181
21212
20916
20662
21373
21356
21350
20439
21773
21109
20382
20624
21664
21294
20311
20822
21657
21562
20638
21421
21626
21207
20810
21624
21547
21386
20690
21953
21621
20455
21506
22046
21614
20424
21706
22273
21569
20799
22080
22006
21178
20813
22353
22287
21203
21521
21940
21910
21002
21990
22246
21938
21140
22224
22280
22066
21362
22635
22157
20912
21109
23080
21699
20962
21842
22736
22332
21564
22444
22540
21962
21348
22250
22061
21564
21234
22150
21578
20751
21339
21447
21261
20529
20973
21247
20848
20152
21109
21205
20576
20024
21049
21077
20079
20497
21223
20577
19971
20554
21323
20365
20187
21037
21205
20575
20169
21131
21107
20667
20364
21052
21209
20519
21010
21585
21091
20187
21212
21495
20974
20615
21423
21453
21080
20387
21297
21555
20421
20952
21590
21272
20230
21025
21443
21133
20530
21414
21749
21125
20612
21796
21558
20850
20936
21827
21601
20444
21367
21424
21476
20835
21546
21624
21475
21227
21854
21936
21352
20989
21930
21533
21096
21431
22105
21316
21039
21573
20683
21616
19846
21903
21797
21553
20972
22131
21971
21092
21507
22254
21620
21205
21539
21907
21725
20886
21665
21836
21375
20484
21265
21275
20149
20188
20320
20833
19669
20474
21349
20864
19550
20392
20745
20374
19954
20705
20606
20159
19643
20654
20685
20121
19977
20517
20373
19226
20328
20992
21155
19747
20694
20953
20085
19999
21447
21089
20418
20296
21056
21112
20046
20736
21592
20898
20225
20920
21194
20903
20256
21276
21381
20870
20235
21003
21176
20766
20420
21229
20925
20145
21062
21125
20778
20749
21630
21525
20934
20600
21826
21383
20714
21053
21671
21812
20817
21407
21798
21327
20586
21689
21768
21217
20587
21475
21900
20934
20894
21843
21742
20804
21314
21943
21766
20635
21668
21913
21555
21028
21996
21796
21822
21147
21801
21892
21153
21537
21724
21328
20389
21333
20960
21092
20358
20811
20875
20630
19767
20778
20737
19768
19613
20844
20250
19380
20096
20242
20372
19560
21156
20466
20293
19345
20352
20297
20194
19328
20300
20454
19567
19941
20518
20203
19441
20262
20879
20189
19471
20637
20141
19720
19889
20937
20930
19878
20336
20938
21198
19443
20776
21104
20774
19842
21151
20881
20554
19943
21086
20918
20360
20155
21140
21073
20652
20731
21191
20707
20398
21208
21319
20894
20439
21226
21467
20596
20234
21238
21438
20670
20658
21712
21561
21078
21035
21487
20997
20439
21434
21555
21152
20227
21493
21306
20911
20766
21564
21329
20601
21250
21894
21195
20420
21633
21687
21201
20793
21688
21515
20832
20573
21339
21183
20245
20370
21270
20870
19506
20608
20473
20208
19126
20174
20444
19714
19487
19943
20195
19436
19682
20137
20051
19470
20244
20548
19892
19405
20211
20457
20092
19452
20208
20268
19792
19367
20824
20293
19428
20528
20685
20390
19578
20232
20682
20553
19533
20790
21000
20371
19931
20554
20951
20097
20396
21147
20613
20057
20794
21106
20443
19837
20685
20741
20638
20052
21296
21068
20113
20197
21034
21083
20422
20892
21672
20845
20244
21885
21551
21092
20443
21449
21507
21147
20591
21835
21339
20492
21237
22042
21295
20490
21483
21581
21560
20838
21513
21670
21252
20939
21827
21942
21176
21171
21900
21633
20590
21330
21970
21481
20812
21724
21349
21233
20535
21610
21319
20491
20527
20918
20969
19850
20454
20747
20358
19879
20717
20636
19903
19574
20334
20478
20023
19520
20779
20312
19823
20100
20206
20499
19757
20440
20567
20299
19542
20749
20915
20205
19658
20776
20713
19986
20049
20980
20341
20027
20917
20577
20645
20396
21193
21156
20591
20468
21232
21103
20442
20295
21559
21084
20239
20915
21686
20996
20397
20828
21419
20967
20684
21610
21122
21392
20382
21424
21533
20508
21023
21465
21682
20528
21335
21300
21542
20943
21345
21542
21084
20699
21766
22012
20758
20850
22425
21693
20448
21668
22070
21647
21123
21787
21870
21420
20920
21860
22032
21383
21295
22184
21500
20480
21687
21929
22318
20649
21515
21988
21113
20548
21357
21458
20812
20359
20713
21021
20217
20111
21283
20642
19668
20399
20937
20402
19611
20517
20724
20231
19969
20202
20441
19983
19844
20905
20546
19721
20274
20864
20336
19979
20888
21076
20872
19893
21046
20902
20575
20108
21172
21301
20688
20974
21154
20900
20153
21102
20996
21102
20719
21902
21290
20809
20332
21258
21034
20366
20757
21903
21139
20077
21358
21135
21055
20629
20226
21232
22055
20532
20827
21666
21115
20563
21813
21197
20491
21258
21441
21464
20574
21424
21795
21393
21014
21628
21813
20898
20926
22177
21789
20909
21354
21999
21580
20972
21615
21707
21700
20675
21672
22564
21494
20652
21825
21707
21449
20926
22006
21405
20518
21253
21731
21218
19951
21307
21455
20668
19896
20926
20826
20217
20028
20436
20534
19750
20062
20043
20343
19388
20169
20750
20142
19653
20574
20737
20190
19588
20697
20836
20030
20021
20626
20504
19604
20531
20635
20633
19859
20997
21149
20960
19906
21163
21051
20317
20140
21241
20931
20083
20479
21240
20882
19991
21017
20901
20765
20340
21094
21095
20584
20367
21461
21453
20211
20879
21445
21330
20388
20882
21526
20915
20416
21338
21420
20932
20688
21696
21437
20947
20863
22514
21567
20742
21320
21570
21372
20706
21320
21945
21328
20935
21700
21664
21276
20593
21842
21667
20998
21422
22146
21800
20897
21649
22198
21780
20903
21479
22262
21416
21225
22070
21809
21236
20845
22106
21241
20757
21064
21793
20804
19872
20687
21126
20812
19917
21076
20764
20250
19910
21104
20712
19894
20540
20943
20729
19612
20868
20910
20581
20156
21200
20732
20768
20431
21056
20957
20607
20601
21326
21145
20440
21004
21422
20989
20573
21369
21211
20767
20216
21239
21332
20788
20639
21630
21108
20410
21038
21472
21475
20470
21343
21677
21181
20587
21534
21472
20782
20392
21549
21375
20224
21352
21934
21240
20484
21368
21291
21143
20810
21518
21327
20934
20617
21431
21644
20645
20870
21285
21298
20572
21236
21460
21240
20589
21415
21851
21219
21089
21323
21536
21024
20878
21658
21436
20606
21364
21639
21194
20353
21206
21338
20846
20213
21082
21057
20615
19963
21019
20545
19290
19987
20398
19988
19315
19914
20312
19848
19287
20032
19769
19779
19292
20033
20068
19382
19235
19587
20268
19170
19769
20806
19868
19563
20181
20320
20144
19702
20415
20409
19591
19880
20643
20656
19855
20296
20441
20513
19829
20596
20695
20422
19636
20863
20939
20262
19782
20734
20894
19903
20234
20674
20854
19746
20500
20990
20674
19659
20923
20679
20955
20186
21096
20985
20238
20290
21201
21186
20314
20609
21378
21078
20535
21202
21778
20938
20265
21321
21591
21099
20719
21504
21545
20403
21015
21904
21543
20729
21522
21552
21275
20475
21353
21563
21108
20932
21425
21676
20924
20877
21972
21281
20153
21172
21248
20709
20289
20953
20798
20229
19803
20517
20152
19582
19431
20484
20509
19245
19947
20589
20168
19339
20200
19802
20105
19287
20641
20437
19822
19339
20613
20311
19715
19711
20531
20278
19823
20312
20677
20397
19740
20639
21039
19724
19975
20906
20679
20038
20326
21036
20754
19912
20672
21152
20925
20276
20939
21079
20644
19926
21575
21065
20342
20449
21641
20874
20053
20896
21102
21052
20000
21474
21184
20730
20479
21367
21412
20604
20236
21736
21308
20743
20807
21033
21467
20190
21009
21408
21034
20142
21023
21239
21001
20359
21618
21638
20528
20827
22186
21367
21042
21112
21868
21472
21051
21765
21649
21127
20238
21820
21596
20999
20511
21643
21294
20192
20876
21176
20454
20079
20756
20639
20475
19703
20736
20811
20074
19598
20613
20409
19550
19840
20916
19951
19905
20091
20598
20126
19290
20520
20328
20037
19672
20626
20413
20085
19957
20835
20728
19950
20239
20824
20691
19904
20677
21230
20615
20233
20987
20891
20520
20227
21085
21122
20522
20731
20730
20986
20172
20983
21180
20668
20299
21489
21213
20642
20428
21293
21741
20645
20646
21697
21191
20231
21008
21367
21076
19978
21510
21526
21315
20809
21893
21516
20703
21307
22068
21644
20311
21405
21721
21658
20652
21401
21971
21275
20772
22391
22083
21611
21155
21957
21896
20967
21231
22498
22025
20777
21926
21997
22094
21416
22073
22385
21389
20961
21554
21604
20740
20243
20911
21004
20239
20379
20469
20411
19566
20498
20469
20279
19361
20607
20867
20212
19539
20853
20659
19822
20152
20669
20358
19436
20462
20792
20395
19785
20630
20884
20493
19681
21278
20661
20021
20193
20911
21031
20010
20673
21012
20978
20855
20958
21170
20883
20208
21197
21157
20625
20417
21144
20947
20271
20876
21106
21108
20405
21186
21694
21037
20076
21456
21675
20925
20544
21866
21580
20980
21006
21999
21575
20374
20773
21782
21490
20682
21806
21873
21226
20628
21756
21531
21144
21099
21981
21465
20919
21426
22191
21824
20835
22016
22079
21684
21281
21974
22316
21468
21463
22192
21996
21011
21415
22569
21613
20774
21153
21666
21258
20650
21340
21171
20724
20023
21139
20279
20245
20051
21234
20660
19794
20120
20928
20314
19263
20930
20708
20568
19558
20587
20374
20076
19878
20817
20432
20106
20267
20781
20795
19781
20514
20797
20414
20153
20933
21164
20501
20190
21170
20686
20525
20634
21125
20933
20065
21029
21384
21020
20370
21055
21067
20657
20132
21168
21468
20616
20825
21440
21355
20716
21088
21317
21117
20796
21099
21316
21130
20288
21576
21803
21320
20596
21630
21823
20382
21268
21245
21377
19930
21505
21842
21576
20847
21678
21916
21371
20984
21940
21966
21156
21093
22413
21629
21171
21697
22639
21430
20849
21789
21954
21235
20943
21933
21966
21038
21066
22164
21817
20967
21314
21649
21019
19996
21067
21550
20585
20209
20582
20505
20405
19563
20693
20669
19892
19923
20720
20315
19283
20136
20222
20055
19220
20133
20492
19915
19419
20059
20443
19694
19582
20485
20214
19518
19914
20622
20353
20108
20446
20538
20172
19740
20672
20394
20126
20060
20927
20666
19677
20326
21024
20915
20093
20722
21357
20875
19744
21055
20704
20557
20042
21113
20828
20296
20220
20951
21020
20220
20907
20950
20969
20690
21177
21317
20834
19912
21484
21188
20462
20189
21535
21616
20476
21068
21275
20919
20618
21425
21866
21213
20690
21774
21405
21356
20704
21987
22257
20779
21424
21718
21706
20962
21454
21417
21688
21213
21569
21780
21374
20723
21792
21480
20766
20642
21695
20844
20649
20365
21015
20424
19396
20555
20556
20061
19429
20824
20511
19753
19566
20757
20527
19470
20038
20417
19975
19395
20434
20912
20195
19421
20428
20097
19711
19676
20578
20762
19552
20089
20870
20677
19388
20512
21227
20807
19901
20968
21314
20480
20008
21178
21150
20451
20095
21014
21297
20449
20748
21421
21049
20416
21055
21386
21087
20525
21279
21188
20956
20563
21361
21514
20615
21312
21835
21336
20414
21258
21470
21254
20785
21304
21789
21199
20637
21709
21846
21141
20617
21816
21561
21132
21709
21849
21450
20902
22328
21698
21511
21202
21886
21902
20835
20962
22026
21633
21620
21568
22216
21963
20045
21853
22796
21634
21047
22743
21732
20728
21150
20715
20729
20336
20515
21027
20648
19633
20695
20631
20290
19829
20379
20677
20245
19595
20964
20668
19892
19820
20760
21301
19207
20294
21165
20364
19588
20374
20567
20201
19713
20707
20820
20297
19835
20934
21032
20233
20473
21299
20833
20247
20995
21180
20892
20310
21071
21161
19749
20218
21669
21028
20196
20463
21412
20925
20460
21017
21377
21332
20295
20910
21799
21084
20455
21369
21382
21062
20422
21748
21290
20828
21113
21614
21495
20583
21529
21690
21248
20671
21732
21785
21124
20969
21637
21777
20815
21080
21714
21329
20835
21608
21986
21565
20749
22030
22242
20719
21171
22079
21998
21410
21571
21743
22628
21005
21630
22120
21742
20755
21639
21711
21155
20755
21194
20961
20890
20001
20889
20716
20089
20359
20953
20487
19248
20598
20771
19984
19504
20423
20757
20121
19535
20627
20637
19744
19911
21510
20307
19314
20254
20565
20331
20163
21278
20786
20537
19797
20831
20712
20283
20127
21317
20952
20144
20596
21321
20910
19987
20865
21001
20652
20232
21075
21348
20724
20040
21810
21464
18580
20392
20617
21157
20463
21096
20587
21184
19906
20693
20993
20906
20823
21687
21556
20956
20939
21894
21840
20593
21704
21980
21358
20161
21553
21737
21340
20784
21838
22181
21204
21414
22509
21956
21040
21670
22034
21485
21279
22371
22150
21675
21665
21768
21947
21687
21346
22450
21971
21109
21333
21882
21911
21020
21828
22081
21405
20740
21464
21515
20915
20479
21040
21014
20404
20226
20796
20826
20164
20569
20528
20493
19473
20569
20654
20187
19599
20581
20333
20016
20100
21242
20596
19604
19955
20888
20352
19374
20399
20697
20364
19643
21639
21043
20580
19947
21329
21094
21009
20425
21226
21188
20362
20799
20987
20860
20512
20734
21188
21067
20228
21482
21237
20786
20563
21080
21279
20500
20947
21226
21148
20469
21879
21803
20746
20169
21789
21409
21049
20428
21631
21582
21129
20953
22130
21039
20809
21155
22176
21217
20524
21634
21530
21420
20428
21165
21832
20790
20955
21989
21510
20036
21556
21491
21430
21021
21486
22055
21481
20543
21671
21764
21521
20552
21786
21831
20972
21040
21817
21357
20390
21043
21047
20811
20236
21019
20657
20534
20001
20991
20939
19691
19793
20487
20025
19816
19930
20323
19916
19659
20250
20337
19598
19558
20169
20635
19680
19548
20042
20437
19134
20065
20488
20390
19490
20402
21022
20540
19624
20626
20868
20287
19480
21792
20989
20288
20210
20993
20815
19758
20683
21011
20424
20042
20693
21087
20505
19814
21206
21281
20344
20134
21398
20895
20335
20730
21458
21018
20206
21087
21065
21019
20415
21291
21203
20448
20421
21507
21575
20517
21122
21619
21398
20748
21486
21954
21197
20920
21514
21546
21275
20771
21609
21509
20807
20461
22082
21262
20620
21402
21728
21250
20264
21868
21688
21484
20788
21759
21777
21239
20865
21946
21838
21167
21005
21442
21265
20285
21854
21352
20370
19842
20688
20676
19963
19983
20711
20629
19814
20018
20556
20143
19783
20189
20232
19658
19280
20065
20508
20125
19152
19932
20691
20029
19856
20539
20451
19221
20185
20729
20670
19693
20679
21290
20496
20113
20926
21056
20327
20182
21278
20968
20326
20743
21248
20776
19960
21034
21107
20861
19963
21636
21048
20558
20143
21164
21228
20722
20608
21383
21192
20439
21104
21341
21248
20348
21425
21204
21075
20705
21248
21579
20613
20704
21522
21233
20650
21120
21717
21587
20773
21348
21571
21358
21071
21443
21799
21205
20900
21972
21743
21213
21033
22272
21696
20636
21409
21784
21658
20736
21811
21916
21170
21044
21702
22118
21180
20760
21654
21455
20313
20795
21575
20878
20091
20933
20961
20693
20006
20691
20289
19965
19355
20963
20477
19490
20076
20519
20244
19720
20405
20293
20194
19437
20430
21168
20235
19262
20906
20550
20230
20016
20841
20782
19697
20524
20834
20816
20016
20978
21061
20863
20233
21679
21191
20507
20044
21177
20752
20367
20890
21587
20648
19969
21010
21329
21253
20303
22417
21447
20754
20580
21649
21237
20577
21193
21896
21245
20864
21595
21393
21235
20498
21524
22019
21255
20853
21685
21433
20839
20940
21508
21718
21707
21725
21836
21626
20877
21923
21963
21590
20787
21778
21927
21439
21009
22189
22019
20872
21553
22206
21838
21228
21731
21966
21501
21076
22499
22111
21451
21130
22055
21386
20890
20412
21358
21006
20280
20680
20943
20319
19860
20551
20888
19993
19725
20659
20675
19553
19681
20728
20347
19691
20199
20807
20398
19685
20415
20536
20307
20000
20734
20756
20236
19934
20894
21001
19878
20714
21295
21002
19982
20914
20533
20931
20015
21603
21175
20858
20375
21546
20972
20705
20589
21321
21194
20415
21037
21474
21303
20510
21492
21759
21073
20633
21738
21517
21011
20758
21728
21652
20588
20920
22121
21408
20455
21440
21999
21130
20789
21735
21800
21569
20828
21781
21664
20697
20924
22084
21817
20730
22070
21802
21383
20850
21826
22041
21470
21076
21192
21964
21419
20838
22012
21993
20656
21664
21970
21688
21078
21719
21650
21511
20755
21621
21490
20837
20485
21292
21175
20314
20491
20594
20720
20304
20386
20839
20180
19580
20388
20377
20030
19392
20277
20091
19746
19372
20359
20283
19519
19939
20540
20164
19842
20349
20336
20380
19488
20319
20480
19697
19779
20645
20367
19587
20258
20862
20410
19617
20656
20669
20391
19736
20896
20036
20306
20311
20301
21039
20142
20385
21075
20584
20177
20475
21083
20443
19771
20902
21071
20820
20319
21029
21206
20622
20174
21594
21153
20186
20899
21197
21168
20433
21260
21617
20815
20238
21464
21449
20736
20572
21419
21299
20469
21203
21705
21671
20821
21390
21495
21041
20685
21581
21590
21101
20572
21809
21660
21059
20876
21674
21570
20744
21412
22092
21220
20657
21366
21901
20775
20252
21538
20770
20647
19875
20958
20418
19602
20021
20403
20182
19319
20235
20051
19985
19387
20464
20717
19713
19369
20453
20350
19715
19854
20480
20091
19288
20162
20688
19832
19617
20923
20663
20205
19643
20845
20723
19839
19965
21049
20897
20371
20344
21029
20728
19818
20930
20848
20196
20064
20910
21001
20446
20079
21566
20653
20152
20466
21289
20681
19742
21334
21284
21249
20211
21701
21506
20947
20338
21351
21630
20955
20658
21882
21321
20446
21198
21627
21301
20937
21490
21571
21278
20875
21745
21498
20951
21124
21903
21520
20967
21383
21930
21805
20956
22120
22037
21629
21296
21624
22085
21492
21112
22102
21901
21322
21590
22220
21545
20832
21633
21746
21244
20558
21401
21446
20754
20363
20940
20815
20182
19837
20786
21034
19540
20178
20699
20154
19716
20235
20707
20162
19668
20663
20357
19590
19581
20738
20362
20147
19885
20299
20227
19779
20573
20753
20444
19632
20747
20778
20491
20221
21020
20954
20058
20151
21113
20822
20157
21067
20921
20639
19786
21447
21085
20619
19762
21402
21141
20309
20376
21101
21131
20068
21013
21627
21303
20591
21327
21184
20868
20343
21356
21336
20826
20506
21463
21345
20668
20741
21561
21495
20696
21493
21510
21601
20494
21297
21353
21308
20876
21666
21224
20885
20823
21739
21248
20868
20966
21700
21389
20465
21531
21567
21368
20627
21609
21988
21860
20562
22000
21837
20951
21222
21888
21029
19960
21085
21132
21022
19962
20708
20720
19983
19649
20713
20697
19539
20033
20562
20236
19304
19962
20046
19966
19447
20145
20395
19792
19505
20477
20381
20006
19753
20829
20320
19406
20022
20694
20583
19821
20302
20732
20219
19589
20829
20883
20276
19844
20961
20961
19820
20563
20832
20687
19667
20812
20459
20603
20208
20612
20774
20476
19448
21182
20953
20318
20467
21110
20950
20019
20954
21147
20452
20294
21011
21314
20897
20215
21369
21191
20815
20416
21420
21352
20177
20920
21510
21065
20308
21406
21772
20892
20364
21327
21547
21023
20615
21655
21404
20337
20833
21795
21103
20812
21079
21281
21085
20641
21132
21330
21150
20529
21422
21625
20574
20682
21554
21172
19924
20771
21013
20652
19790
20109
20617
19979
19661
20463
19899
19582
19169
20380
20091
19081
19375
20176
19649
19043
19983
20246
19834
18151
19625
19538
19592
19149
20264
19785
19522
19495
20272
19804
19263
19938
20498
19474
19642
21509
20509
19837
19620
20929
20890
19993
19858
20763
20332
19486
20529
20820
20603
19497
20681
21151
20333
19777
20289
21163
20368
19805
20948
20881
20018
20131
21402
20740
20432
20855
21094
21232
20063
20952
21377
20600
20276
21224
21015
20001
20198
21321
21257
20323
21007
21315
21168
20265
21036
21193
21028
20404
21742
21393
21264
20789
21945
21299
20717
20828
21509
21090
20669
21177
21641
21064
20727
21376
21528
20847
20460
21491
21514
20160
20177
21147
20728
19487
20417
20431
20241
19438
20258
20378
19717
19237
20116
20205
19579
19214
20092
20139
18778
19756
19837
19982
19380
19955
19893
19998
19070
20251
20102
19611
19329
20652
20196
19495
19953
20719
19979
19773
20337
20291
20453
19563
20611
20889
20334
19754
20660
20766
19968
20108
21001
20857
19949
20636
20808
20566
20126
20709
21169
19632
19880
21087
20738
20364
20211
21106
20517
20182
20596
21553
21020
19954
20744
20695
20547
20257
21111
21387
20752
20353
21902
20475
20988
20628
21440
20925
20298
21028
21526
21137
20383
21576
21314
21027
20461
21475
21326
20899
20492
21550
21418
20469
21159
21624
21404
20643
21268
21603
21280
20580
21399
21381
20676
21013
21547
21084
20057
20078
20757
20145
18558
20109
20477
19790
19176
20090
20075
19617
18918
19985
20016
19364
19120
20169
19803
18542
19682
20099
19687
19049
19923
19686
19632
19132
20194
20290
19544
19521
20559
20217
19393
20012
20246
20292
19697
20344
20680
20537
19771
20812
20636
20009
20034
20325
20555
19803
20080
20926
20921
19616
20602
20867
20457
19889
20879
21539
20576
19768
21349
20950
20356
20194
21139
21046
20262
20541
21552
21150
19868
21154
21345
20799
19904
21190
21429
20877
20523
21595
21022
20600
20836
21531
21153
20187
21298
21588
21241
20309
21319
21500
21088
20490
21876
21686
21077
21061
21719
21545
20811
21403
21789
21583
21061
21534
21793
21222
20651
21453
21038
20777
20381
21095
20869
19863
20235
20601
20160
19652
20292
20376
20116
19340
20244
20718
19892
19304
20468
20336
19520
20221
20445
20372
19477
20448
21111
20133
19210
20383
20241
19968
19593
20741
20672
20172
19977
20863
20922
20142
20564
21190
20801
20206
21185
21291
20692
20104
21092
21047
20427
20060
21322
20820
20115
20419
20899
20801
19912
20817
20885
20887
20091
21163
21076
20750
20480
21232
21137
20548
20419
21231
21397
20600
21094
21560
21165
20552
21503
21456
21032
20444
21434
21645
21155
20411
21465
21281
20303
20948
21503
21071
20407
21410
21601
21143
20224
21431
21806
21135
20652
21563
21557
20593
20665
21694
21456
19997
21314
21418
21141
20440
21171
21078
20457
20004
20827
20424
19900
19476
20316
20284
19219
19838
20143
19790
18930
20075
19739
19919
18988
19930
20092
19144
19288
20279
19821
18920
19448
20310
19897
19198
19983
20440
19751
19509
20136
20126
19590
19536
20804
20261
19419
19549
20725
20546
19279
20544
20346
20046
19231
20454
20635
20029
19793
20431
20293
19858
19387
20985
20614
19438
20242
20805
20505
19793
20394
21073
20440
20295
20858
20888
20232
20015
21240
20673
20118
20390
21411
20687
19823
20805
20810
20732
20256
21109
21328
20717
20027
21281
21018
20349
20389
20760
21426
20293
20934
21531
20938
20184
21034
21110
20847
20333
21063
21356
20253
20295
21312
21135
20208
20678
21527
20715
19902
20938
21250
20340
19458
21045
20272
19667
19149
20020
19947
19157
19326
19648
19734
18687
19615
20111
19460
19083
19900
19615
19446
18811
19975
19652
19039
18993
19864
19801
18591
19304
19756
19682
19070
19963
19857
19805
19694
20105
20508
19682
19089
20242
20180
19612
19759
20263
20105
19203
20058
20401
20111
19397
20410
20324
19985
19216
20704
20479
19589
19727
20519
20179
19699
20420
20664
20106
19886
20536
20522
20358
19578
21089
20604
20168
19900
21014
20955
19818
20440
21192
20754
19739
20694
21035
20424
19781
20947
21256
20566
20352
20920
20909
20162
20596
20991
20769
19895
21045
21132
20653
20094
21264
21398
21152
19988
21192
21032
20290
20146
21282
21071
20174
20457
20861
20374
19458
20313
20232
19808
18866
20399
19943
19400
19004
20171
19505
18462
19318
19997
19692
17989
19819
19650
19468
18898
19792
19468
18887
18747
19951
19920
18981
19135
20647
19792
18907
19646
20378
19779
18945
20098
20396
19889
19317
20440
20388
19719
19289
20528
20203
19400
19788
20302
20062
19017
20503
20245
20431
19474
20496
20591
19881
19607
20718
20464
19743
19841
20748
20611
19568
20336
20575
20523
19578
20611
20600
21163
19944
20893
20851
20181
19719
20635
20719
19657
20386
21056
20662
19767
21070
21029
20441
20047
20722
21310
20156
19991
21450
21185
20675
20670
20644
21018
20158
20469
21365
20799
19937
21129
20725
20468
20166
21059
20684
20089
20668
20684
20346
18957
19883
20252
19660
18769
19417
19752
19311
18699
19772
19222
18982
18379
19575
19292
18144
18871
19498
19129
18596
19539
19504
19153
18776
19224
19456
18833
18839
19612
19474
18575
19084
19585
19421
18404
19591
19937
19186
18477
19784
19925
19459
19152
20235
19679
19086
18984
19982
19693
18860
19351
20118
19865
18927
19812
20034
19506
19023
20112
20048
19586
19396
20136
20044
19082
19711
20632
20119
19831
20414
20137
20381
19464
20672
19956
19848
19585
20742
20360
19286
19885
20592
20471
19452
20398
20823
20368
19383
20564
20771
20435
19638
20831
20775
20255
19982
20491
20776
19703
20264
20847
20690
20162
20632
20478
20667
19845
20759
20635
19792
19884
20783
20459
19197
19778
20504
19547
19299
19630
19909
19489
18519
19563
19201
19160
18545
19624
19875
18559
18376
19515
19158
18485
19272
18667
19166
18911
19628
19412
19291
18346
19637
19646
18912
18859
20044
19968
18825
19689
19730
19927
19009
19955
19915
19851
19091
20107
20082
19685
19069
19864
20228
19354
19780
20193
20247
19181
20087
20695
20254
18575
20277
20282
19880
19570
20341
20411
19866
19374
21151
20400
19427
20029
20590
20413
19975
20441
20387
20530
19691
20764
20512
20033
20008
21104
20634
19821
20208
20697
20490
20075
20310
21186
20430
20173
20398
20771
20544
19391
21790
21030
20323
20196
20908
20917
20002
20201
21182
20744
19452
20877
21145
20684
19836
20962
21075
19963
19522
20446
20193
19517
19562
20331
19988
18959
19638
19650
19259
18378
19723
19770
19323
18713
19634
19428
18742
18974
19732
19594
18662
19349
19831
19278
18841
19675
19845
19575
18736
19493
19935
19297
19199
20047
19754
18974
19763
20325
19996
19067
20012
20305
19890
19238
20141
20196
19897
19398
20622
20160
18944
20029
20097
19876
19405
20182
20280
20082
19239
20594
20648
20273
19931
21001
20665
19959
19959
20902
20533
19534
20460
21444
20252
19783
20893
20220
20317
19138
20674
20821
20485
19918
20915
20767
19744
20481
20953
20538
19861
20803
21003
20690
20284
21988
21314
20714
20282
21201
20874
20245
20517
21009
20666
19809
20785
21064
20672
19826
20741
20906
20748
19746
20532
20384
19250
19331
20253
19590
18669
19600
20064
19656
18496
19947
19788
19096
18449
19803
19642
19303
18658
20036
19332
18542
19395
19509
19312
18675
19412
19939
19531
18661
20016
19884
19656
18973
20046
20124
19608
19521
20156
19891
19352
20045
20580
20005
19484
20465
20654
20004
19466
20685
20203
19722
19288
20699
20296
19408
20144
20789
20355
19835
20328
20628
20396
19515
20930
20840
20357
19879
21179
20827
19804
20018
20793
20771
19842
20909
21262
20534
19949
20823
21162
20939
20094
21032
21331
20268
20344
20891
21110
20523
20943
21369
21086
20275
21429
21152
20476
20255
21163
21113
20912
20325
21644
21803
20400
20918
21507
21163
20237
20886
21629
20824
20143
21302
21115
20158
19321
20506
20533
19641
19792
20722
19982
19290
19911
20633
19771
19244
20017
20086
19559
19085
20258
20237
19634
19266
20374
20017
19339
19790
20867
20096
19215
20169
20313
20279
19758
20654
20654
19957
19506
20850
20736
19675
20242
20539
20554
19317
20460
20752
20293
19366
20863
20952
20135
19962
20752
20595
20207
19972
21335
20931
20420
20700
20932
20808
19444
20539
20488
20321
20059
21252
20793
20756
20036
21434
20991
20205
20644
21295
20648
20311
21062
20877
20641
20530
21275
21407
20731
20422
21509
21337
20498
20787
21346
21147
20181
21085
21208
20894
20128
21656
21238
20872
20475
21588
21433
20472
20600
21624
21319
20160
20766
21453
20738
19979
20642
20504
20158
19504
20838
20203
18912
19115
20213
19980
18987
19497
19882
19731
18908
19773
19996
19767
18957
19873
20100
19388
18844
20093
19913
19374
19492
20454
20339
19324
20019
20655
20020
19589
20226
20402
20232
19667
20295
20408
19939
20085
20781
20568
19938
20312
20782
20457
19317
20943
20475
20395
19893
20759
20551
20550
19840
20744
20808
19901
20303
20964
20839
19903
20744
21162
20654
19852
21084
21204
20543
20211
21022
21126
20040
20105
21311
21024
20016
20646
21215
20732
20161
20972
21103
21212
20245
21029
21114
20000
20529
21558
21220
20703
20675
21421
21273
20156
21025
21389
20977
20578
21384
21683
21102
20647
21449
21020
20189
20443
20517
20519
19509
20396
20961
20021
19116
20172
20299
19986
19673
20344
20066
19520
19359
20187
19950
18968
19703
20467
20171
19097
19904
20487
19796
19512
20286
20402
19825
19516
21039
20563
19708
20228
20967
20490
19587
20416
20651
20407
19603
20960
20863
20603
19918
21094
20950
20080
20214
21079
20689
20100
20463
20721
20472
19994
20787
21229
20405
19936
20963
20916
20905
20305
21548
21226
20468
20757
21486
20841
20657
21204
21436
20539
20565
21313
21361
20807
20403
21740
21232
20650
21099
21675
21260
20060
20887
21295
21179
20561
21367
21788
21082
20391
21601
21891
20618
20650
21922
21406
20819
21322
21650
21628
20614
21623
21894
21266
20572
21698
21373
20673
20217
20868
20657
20200
20347
20781
20794
19300
20239
20721
20317
19777
20150
20283
19712
19254
20357
20389
19840
19388
20566
20279
19189
20125
20768
20058
19341
20233
20515
19954
19186
20583
20674
19766
19786
20815
20463
19948
20344
20812
20655
19823
20381
20838
20364
19856
21128
20777
20304
19739
20881
21082
20150
20316
20725
20734
20536
20525
20433
20619
20083
20975
20778
20637
19929
21161
20967
20452
20190
20639
20924
20379
20841
21721
21021
20114
21060
21050
20985
20233
21299
21372
20722
20285
21907
21245
20602
20817
21563
21502
20659
20916
21561
21053
20828
21044
21534
21117
20457
21549
21613
20743
20996
21799
21291
20572
21381
21814
21259
20556
21696
21737
21224
20216
21404
21123
20227
20028
20929
20609
19468
20121
21006
20178
19466
20365
20310
19946
19365
20302
20418
19362
19404
20538
19965
19206
19760
20269
20069
18984
20352
20176
19983
19224
20313
20757
19810
19806
20534
20664
20007
19874
20459
20704
19666
20383
20807
20458
19783
20593
20537
20295
19776
20952
20610
20205
19783
20621
20691
19872
20287
20563
20610
19812
20498
20933
20809
20045
21158
21024
19991
20200
21230
20977
20211
20629
20884
20974
20125
20974
21173
20935
20812
20994
21069
20897
19917
21377
21302
20409
20496
21826
21164
20248
20943
21375
21028
20344
21204
21157
20898
20396
21264
21588
20429
20446
21515
21483
20504
21017
21915
21378
20283
21300
21197
20862
20546
20983
20969
20495
19825
21075
20742
19691
19991
20607
20248
19304
19928
20324
20229
19111
20391
20071
19922
19569
20379
20084
19599
19157
20399
19870
19062
19872
20119
19977
19321
20002
20313
20105
19713
20513
20412
20004
19781
20771
20374
19722
20254
20852
20378
19522
20686
21100
20431
19198
20788
21043
20618
20086
20907
20432
20160
19964
21090
20473
19560
20471
20927
20497
19958
21933
21004
20401
20015
21001
20948
20338
19990
21504
20833
20114
20621
21295
21112
20031
20833
21686
20983
20101
21283
21073
20961
20192
21331
21175
20494
20681
21642
21338
20164
21047
21165
21073
20108
21296
21486
20998
20645
21434
21295
21005
20354
21232
21422
20425
21040
21553
21269
20408
20920
21667
20896
20080
21133
20861
20442
19385
20821
20671
19593
19985
20575
19999
19252
20002
20311
19784
19095
19765
19794
19551
19308
20336
20106
19221
19373
20328
20307
19571
19761
20547
20323
19565
20224
20142
20010
19673
20565
19860
19764
19714
20972
20435
19507
20451
20479
20456
19424
20466
20566
20396
19729
20344
20736
20279
20181
21276
20737
19828
20453
20930
20547
20237
20603
20884
20822
19624
20572
21044
20334
19954
20945
21087
20138
20155
21254
20714
20216
20921
21101
21221
20095
20967
20933
20958
20170
21282
21083
20435
20446
21244
21189
20386
20763
21487
21227
20427
21177
21504
20914
20262
21348
21232
20910
20226
21555
21101
20824
20485
21356
21005
20228
20970
21332
20875
20247
20924
21075
20394
19806
20520
20239
19808
19168
20526
19787
19263
19959
20009
19837
19013
19764
20039
20679
18832
19679
20276
19775
19281
20335
20166
19220
20036
20025
19825
19039
20144
20196
19725
19301
20310
20677
19899
19717
20960
20650
19789
19872
21202
20531
19594
20445
20870
20660
19778
20655
20898
20235
19952
20767
20705
20177
19710
21050
20711
20632
20219
21031
20903
20309
20864
20900
20705
20275
21126
21159
20965
20169
21766
21281
20209
20770
21319
20945
20170
21384
20936
20929
20493
21145
21179
21074
20535
21338
21446
20657
20719
21874
21405
20431
21495
21612
21609
21039
21577
21587
21370
20644
22035
22018
20983
20890
22183
21503
20731
21179
21562
21407
19948
20964
21582
20885
19912
21065
20686
20193
19633
20956
20625
19610
20128
20382
20094
18870
20331
20456
20368
19190
20386
20242
20022
19165
20247
20241
19531
19464
20458
19912
19074
19872
20156
20024
18996
20243
20717
20010
19155
20560
20577
20248
19761
21145
20830
19904
20335
21500
20528
19698
20654
21207
20169
19938
21057
21158
20057
19773
21229
21116
20212
19925
21034
20499
19550
20727
20788
20576
19895
20933
20963
20642
19784
20959
20782
20706
19892
21096
21171
19472
20347
20849
20716
19850
20695
20841
20564
19986
20917
20585
20415
19936
20818
20767
19844
20103
20591
20247
19941
20485
20414
20290
19644
20649
20776
20097
19956
20537
20684
20116
19787
20774
20173
19727
20192
20454
19931
19506
19824
20338
19987
19033
19745
19855
19424
18611
19393
