24392
24313
24319
24259
24249
24334
24287
24313
24266
24409
24307
24313
24268
24424
24322
24506
24518
24391
24524
24577
24510
24554
24530
24624
24497
24538
24505
24559
24549
24572
24568
24490
24599
24583
24491
24459
24595
24472
24634
24493
24489
24483
24417
24534
24494
24444
24363
24407
24369
24510
24480
24451
24512
24488
24517
24449
24521
24561
24464
24358
24476
24412
24480
24367
24419
24350
24458
24436
24437
24352
24339
24416
24351
24297
24302
24351
24404
24313
24311
24274
24254
24213
24216
24310
24214
24185
24234
24222
24173
24097
24121
24186
24220
24084
24111
24255
24165
24214
24216
24239
24317
24323
24385
24271
24237
24376
24383
24336
24315
24423
24467
24373
24469
24398
24401
24299
24291
24436
24348
24277
24333
24425
24368
24353
24281
24302
24429
24340
24337
24343
24418
24387
24478
24376
24477
24410
24413
24443
24353
24513
24394
24417
24417
24395
24531
24473
24436
24519
24428
24394
24477
24373
24439
24284
24443
24326
24341
24472
24281
24264
24374
24354
24343
24400
24458
24453
24419
24521
24473
24540
24624
24562
24574
24553
24580
24518
24534
24651
24498
24499
24527
24593
24407
24413
24441
24454
24477
24425
24383
24507
24373
24344
24511
24402
24439
24463
24318
24310
24380
24311
24420
24323
24356
24293
24201
24156
24151
24243
24146
24141
24084
24180
24088
24130
24112
24021
23964
23975
24038
23836
23937
23911
23814
23866
23923
23847
23816
23883
23824
23849
23695
23818
23843
23843
23754
23727
23840
23807
23828
23844
23841
23794
23851
23962
23940
23983
23903
23927
23981
23912
23986
24011
23944
24002
23938
23960
24083
24001
24041
24055
23967
23987
24003
23982
23954
24077
24099
24035
23960
24067
24078
24024
24043
24046
24106
24182
24165
24092
24149
24177
24200
24183
24178
24244
24331
24282
24157
24318
24256
24326
24366
24332
24362
24344
24357
24355
24385
24450
24363
24456
24371
24498
24452
24558
24504
24560
24519
24534
24537
24558
24570
24606
24587
24684
24618
24664
24682
24681
24714
24732
24810
24739
24693
24819
24729
24844
24675
24840
24820
24637
24730
24653
24685
24646
24650
24617
24725
24586
24601
24713
24752
24645
24655
24623
24682
24631
24596
24517
24462
24586
24496
24508
24526
24484
24410
24389
24311
24432
24376
24366
24352
24245
24371
24215
24350
24399
24326
24414
24352
24431
24364
24405
24369
24372
24529
24499
24490
24522
24621
24532
24654
24539
24484
24548
24675
24639
24681
24572
24609
24582
24496
24548
24613
24673
24659
24614
24603
24625
24598
24693
24672
24778
24707
24747
24691
24794
24657
24611
24788
24665
24689
24709
24783
24740
24671
24776
24729
24730
24797
24690
24791
24741
24773
24781
24805
24807
24771
24775
24759
24654
24755
24813
24759
24662
24737
24613
24699
24554
24770
24710
24605
24696
24760
24621
24782
24771
24609
24666
24613
24668
24621
24684
24738
24685
24704
24646
24702
24655
24675
24824
24729
24657
24645
24701
24627
24670
24652
24628
24652
24612
24686
24567
24513
24500
24465
24474
24538
24438
24340
24509
24455
24384
24327
24307
24457
24242
24330
24417
24355
24224
24315
24297
24314
24341
24185
24333
24303
24287
24193
24302
24277
24258
24210
24285
24298
24257
24193
24342
24399
24261
24342
24417
24435
24323
24343
24334
24440
24358
24381
24320
24430
24523
24396
24528
24422
24424
24433
24424
24409
24488
24638
24541
24433
24544
24502
24572
24649
24624
24693
24618
24495
24566
24689
24655
24691
24545
24625
24649
24487
24477
24628
24590
24462
24546
24515
24497
24604
24474
24584
24691
24524
24585
24702
24686
24564
24713
24729
24717
24754
24730
24604
24786
24789
24783
24758
24739
24724
24812
24810
24699
24754
24812
24796
24883
24714
24670
24788
24695
24718
24699
24863
24834
24720
24785
24848
24814
24722
24810
24930
24794
24701
24732
24830
24675
24656
24711
24761
24708
24663
24647
24538
24560
24468
24536
24420
24423
24482
24501
24403
24282
24372
24353
24279
24230
24156
24260
24177
24184
24168
24193
24127
24175
24260
24211
24223
24259
24290
24192
24187
24268
24252
24260
24296
24277
24343
24322
24387
24276
24344
24377
24384
24423
24464
24326
24505
24418
24508
24481
24414
24490
24420
24577
24611
24495
24444
24507
24477
24489
24483
24672
24530
24466
24579
24448
24618
24502
24607
24571
24616
24488
24571
24669
24699
24661
24657
24695
24557
24612
24556
24662
24727
24596
24615
24720
24718
24671
24704
24746
24676
24725
24739
24672
24767
24723
24793
24712
24800
24791
24802
24735
24790
24758
24742
24681
24768
24694
24779
24677
24860
24770
24813
24792
24775
24788
24802
24822
24845
24859
24831
24883
24874
24776
24869
24867
24858
24945
24858
24886
24836
24762
24752
24761
24772
24697
24637
24749
24738
24614
24627
24610
24648
24543
24418
24591
24529
24552
24515
24387
24542
24340
24487
24336
24306
24398
24278
24346
24410
24334
24322
24365
24422
24257
24402
24350
24416
24401
24340
24347
24343
24422
24369
24400
24381
24367
24344
24413
24519
24508
24365
24525
24510
24465
24393
24525
24527
24440
24475
24524
24487
24541
24530
24486
24456
24516
24566
24569
24437
24595
24412
24567
24634
24569
24565
24631
24482
24577
24535
24591
24701
24696
24734
24584
24699
24714
24717
24670
24711
24795
24699
24618
24706
24776
24848
24725
24708
24707
24712
24690
24807
24896
24866
24789
24778
24831
24844
24799
24863
24872
24884
24930
24949
24882
24829
24978
24927
24879
24913
25016
24994
25007
25021
24934
25017
24915
24896
24935
24955
24976
24820
24919
24831
24735
24693
24789
24719
24714
24726
24656
24683
24678
24507
24641
24556
24598
24503
24557
24531
24408
24493
24458
24468
24459
24373
24318
24423
24350
24315
24335
24338
24389
24354
24363
24283
24357
24271
24355
24297
24336
24373
24320
24445
24366
24254
24307
24370
24408
24402
24338
24410
24291
24359
24405
24368
24454
24428
24433
24372
24426
24500
24341
24396
24460
24458
24487
24448
24513
24491
24563
24536
24442
24501
24503
24559
24416
24502
24417
24497
24410
24497
24575
24527
24591
24571
24502
24546
24472
24560
24553
24627
24639
24558
24482
24675
24603
24494
24590
24531
24609
24658
24640
24543
24618
24621
24697
24528
24693
24565
24605
24628
24694
24615
24737
24659
24764
24683
24609
24701
24790
24662
24634
24718
24662
24794
24716
24728
24705
24756
24683
24664
24690
24735
24565
24659
24567
24558
24511
24556
24562
24490
24517
24449
24417
24478
24387
24393
24286
24305
24426
24388
24324
24392
24249
24327
24351
24227
24271
24309
24253
24147
24247
24214
24266
24344
24274
24333
24301
24283
24335
24333
24231
24331
24309
24309
24335
24288
24389
24294
24342
24378
24252
24308
24241
24280
24262
24335
24328
24485
24320
24364
24449
24408
24454
24389
24409
24488
24457
24531
24479
24410
24426
24507
24633
24509
24509
24572
24665
24577
24559
24582
24771
24593
24696
24600
24633
24705
24640
24760
24712
24781
24739
24779
24728
24622
24713
24711
24680
24655
24716
24571
24643
24751
24694
24725
24764
24742
24649
24724
24655
24678
24794
24711
24789
24757
24827
24777
24827
24753
24726
24851
24894
24768
24867
24886
24849
24764
24802
24812
24766
24718
24710
24635
24643
24573
24684
24559
24558
24531
24560
24500
24403
24512
24434
24435
24370
24339
24434
24385
24321
24384
24247
24312
24282
24243
24272
24206
24265
24181
24295
24248
24231
24214
24359
24360
24251
24365
24205
24357
24390
24309
24465
24309
24473
24409
24338
24355
24367
24327
24293
24427
24276
24511
24418
24359
24454
24478
24440
24340
24471
24490
24400
24456
24490
24538
24525
24537
24552
24537
24412
24581
24489
24551
24649
24538
24608
24580
24712
24574
24760
24656
24599
24742
24731
24588
24630
24619
24699
24691
24676
24707
24750
24677
24737
24601
24657
24685
24735
24681
24656
24797
24785
24664
24731
24709
24632
24704
24766
24736
24907
24818
24917
24919
24742
24937
24906
24985
24867
24788
24937
24765
24876
24862
24881
24811
24782
24810
24824
24704
24737
24641
24599
24620
24684
24596
24577
24566
24558
24522
24557
24471
24456
24434
24435
24498
24449
24450
24436
24316
24452
24486
24379
24320
24414
24351
24306
24386
24297
24257
24386
24243
24372
24371
24444
24386
24279
24387
24405
24371
24431
24434
24336
24391
24449
24373
24419
24344
24423
24405
24435
24512
24452
24390
24452
24455
24522
24631
24616
24468
24528
24555
24481
24625
24563
24643
24591
24630
24671
24615
24572
24722
24570
24627
24603
24656
24687
24726
24696
24671
24791
24762
24796
24785
24784
24664
24699
24690
24766
24832
24748
24851
24863
24798
24697
24808
24882
24792
24676
24780
24729
24812
24678
24763
24721
24795
24781
24737
24835
24910
24773
24748
24803
24789
24884
24726
24788
24870
24835
24801
24815
24702
24777
24720
24587
24650
24551
24599
24565
24561
24525
24555
24485
24539
24561
24415
24519
24379
24364
24368
24243
24289
24254
24102
24225
24142
24217
24199
24179
24238
24183
24137
24189
24257
24209
24164
24159
24173
24191
24229
24235
24199
24119
24260
24257
24201
24241
24281
24213
24241
24270
24234
24272
24326
24255
24241
24260
24405
24353
24349
24379
24248
24337
24240
24376
24413
24386
24272
24395
24315
24325
24279
24360
24337
24299
24384
24399
24399
24330
24440
24421
24380
24396
24529
24496
24452
24502
24585
24518
24583
24564
24589
24543
24497
24576
24538
24497
24566
24500
24545
24478
24472
24569
24504
24480
24487
24596
24458
24426
24408
24442
24553
24532
24461
24474
24397
24510
24423
24560
24451
24577
24579
24601
24615
24481
24481
24450
24500
24557
24472
24507
24470
24387
24368
24325
24262
24447
24248
24227
24308
24259
24288
24209
24246
24260
24243
24193
24218
24177
24231
24155
24111
24131
24229
24184
24044
24190
24086
24168
24122
24134
24145
24291
24211
24200
24276
24299
24208
24295
24188
24339
24304
24291
24214
24189
24332
24228
24159
24268
24213
24235
24182
24267
24219
24368
24223
24222
24352
24346
24309
24392
24239
24304
24269
24178
24306
24376
24355
24221
24338
24231
24255
24269
24232
24343
24416
24309
24283
24359
24423
24362
24457
24368
24399
24362
24495
24442
24398
24427
24471
24517
24397
24341
24422
24346
24510
24487
24444
24500
24535
24577
24506
24503
24515
24492
24455
24526
24627
24548
24642
24605
24480
24597
24676
24613
24545
24676
24608
24560
24638
24677
24638
24670
24546
24576
24572
24578
24476
24386
24478
24464
24449
24359
24457
24387
24392
24389
24209
24235
24256
24316
24124
24150
24090
24155
24043
24130
24260
24205
24136
24115
24023
24192
24035
24038
24095
24047
24044
24150
24070
24213
24050
24095
24140
24100
24130
24032
24080
24093
24042
24070
23991
24067
24179
24138
24084
24089
24092
24188
24115
24128
24163
24083
24200
24121
24231
24123
24220
24310
24240
24121
24208
24345
24213
24250
24218
24275
24255
24150
24239
24200
24321
24206
24205
24238
24259
24197
24307
24177
24291
24304
24192
24363
24334
24242
24347
24368
24282
24299
24362
24366
24431
24417
24465
24301
24320
24474
24428
24428
24413
24349
24479
24403
24337
24452
24369
24481
24387
24489
24397
24515
24536
24525
24520
24450
24477
24484
24451
24472
24442
24352
24389
24352
24336
24323
24339
24314
24366
24402
24366
24374
24230
24290
24222
24186
24311
24196
24168
24282
24175
24127
24186
24190
24152
24195
24193
24263
24151
24253
24181
24178
24195
24093
24207
24204
24195
24259
24194
24265
24230
24226
24277
24295
24217
24320
24340
24228
24369
24341
24255
24239
24333
24371
24392
24262
24302
24404
24345
24482
24411
24290
24351
24418
24420
24331
24410
24390
24442
24525
24503
24375
24456
24363
24478
24462
24499
24514
24588
24496
24512
24529
24457
24518
24500
24590
24537
24540
24634
24613
24569
24638
24576
24585
24608
24454
24523
24616
24654
24533
24591
24625
24655
24493
24658
24604
24483
24537
24701
24654
24723
24596
24711
24620
24619
24526
24609
24528
24643
24577
24624
24497
24627
24576
24583
24582
24578
24482
24561
24464
24570
24422
24463
24479
24384
24389
24365
24369
24395
24326
24283
24331
24376
24338
24303
24293
24344
24201
24241
24236
24131
24135
24125
24162
24258
24182
24152
24256
24255
24232
24241
24320
24169
24244
24183
24236
24267
24284
24221
24233
24216
24278
24281
24244
24161
24250
24276
24279
24280
24316
24310
24303
24273
24284
24295
24284
24313
24334
24324
24430
24360
24374
24391
24323
24350
24334
24273
24383
24305
24367
24317
24315
24351
24345
24366
24328
24390
24449
24499
24474
24514
24511
24347
24493
24449
24524
24464
24389
24437
24443
24482
24464
24402
24411
24448
24496
24467
24461
24443
24524
24502
24497
24436
24516
24505
24516
24480
24522
24506
24567
24500
24496
24487
24629
24538
24477
24613
24635
24629
24521
24492
24576
24484
24651
24612
24543
24519
24543
24546
24493
24362
24403
24450
24377
24253
24316
24207
24262
24343
24317
24147
24295
24172
24209
24197
24117
24152
24209
24151
24125
24163
24131
24096
24124
24123
24127
24147
24162
24126
24189
24160
24171
24179
24157
24214
24197
24122
24240
24103
24211
24122
24194
24084
24258
24328
24298
24192
24247
24205
24227
24247
24272
24297
24260
24320
24305
24329
24337
24339
24413
24311
24364
24341
24477
24322
24320
24300
24415
24403
24360
24472
24351
24340
24387
24369
24402
24421
24500
24436
24473
24430
24500
24457
24516
24490
24488
24444
24469
24575
24458
24552
24536
24552
24625
24628
24505
24474
24599
24653
24653
24481
24640
24601
24657
24667
24527
24589
24590
24624
24576
24576
24655
24619
24670
24601
24517
24672
24628
24612
24726
24646
24654
24624
24692
24537
24597
24662
24621
24528
24529
24608
24610
24502
24555
24424
24422
24474
24471
24504
24332
24373
24452
24406
24298
24323
24320
24270
24306
24249
24382
24267
24298
24243
24201
24277
24331
24256
24301
24230
24186
24236
24264
24253
24310
24230
24333
24301
24335
24307
24263
24331
24319
24313
24322
24358
24344
24360
24359
24337
24342
24339
24342
24354
24364
24377
24450
24375
24439
24385
24446
24461
24489
24418
24508
24541
24524
24553
24538
24511
24511
24562
24486
24523
24507
24419
24484
24449
24415
24488
24532
24522
24437
24580
24605
24564
24515
24440
24512
24438
24554
24440
24557
24639
24515
24497
24550
24581
24504
24561
24510
24567
24605
24582
24661
24609
24561
24640
24523
24664
24731
24632
24703
24554
24524
24648
24510
24639
24633
24650
24655
24592
24571
24599
24559
24515
24563
24640
24511
24535
24460
24445
24544
24582
24415
24511
24380
24425
24505
24483
24416
24364
24327
24413
24328
24323
24279
24257
24282
24250
24214
24236
24228
24103
24140
24198
24145
24155
24117
24088
24171
24180
24211
24164
24266
24243
24113
24254
24243
24212
24286
24231
24161
24285
24317
24197
24188
24277
24254
24217
24299
24416
24319
24375
24331
24451
24306
24416
24319
24304
24271
24372
24321
24405
24271
24178
24382
24232
24382
24227
24331
24185
24189
24207
24288
24222
24181
24312
24254
24218
24209
24223
24385
24216
24336
24397
24354
24319
24397
24374
24404
24393
24393
24421
24491
24426
24499
24526
24411
24511
24539
24509
24568
24631
24630
24574
24483
24607
24612
24605
24545
24616
24568
24633
24555
24521
24567
24642
24560
24588
24564
24510
24573
24669
24530
24564
24526
24583
24564
24553
24429
24547
24539
24493
24592
24455
24529
24393
24478
24507
24329
24398
24356
24478
24381
24432
24403
24337
24419
24279
24363
24336
24318
24363
24279
24374
24290
24279
24384
24278
24190
24278
24321
24262
24220
24270
24261
24326
24308
24267
24291
24343
24300
24223
24332
24252
24313
24384
24296
24297
24227
24382
24395
24341
24401
24212
24322
24299
24326
24306
24379
24399
24425
24347
24357
24463
24373
24377
24410
24468
24475
24386
24399
24478
24466
24503
24477
24510
24466
24396
24446
24370
24467
24377
24449
24431
24439
24443
24476
24499
24524
24489
24492
24496
24583
24525
24545
24538
24620
24499
24482
24574
24512
24465
24609
24533
24610
24620
24629
24675
24590
24593
24608
24622
24507
24549
24617
24661
24533
24638
24558
24708
24521
24668
24657
24585
24621
24600
24717
24618
24531
24627
24648
24614
24608
24689
24636
24659
24544
24492
24553
24526
24503
24389
24477
24384
24400
24340
24339
24266
24329
24369
24401
24329
24323
24315
24295
24258
24216
24205
24223
24243
24329
24188
24164
24265
24185
24183
24217
24339
24212
24263
24308
24161
24262
24202
24281
24145
24312
24172
24211
24219
24171
24242
24170
24230
24269
24304
24173
24242
24282
24274
24305
24297
24360
24351
24344
24331
24398
24361
24365
24437
24338
24365
24379
24298
24348
24353
24336
24313
24345
24380
24337
24355
24382
24366
24361
24372
24440
24344
24523
24427
24395
24429
24359
24428
24452
24380
24366
24445
24382
24389
24484
24453
24444
24449
24527
24427
24510
24482
24490
24538
24428
24444
24501
24523
24557
24507
24481
24513
24559
24504
24535
24526
24503
24503
24552
24535
24526
24572
24562
24464
24507
24452
24529
24493
24618
24497
24522
24640
24582
24638
24622
24490
24498
24647
24569
24451
24553
24443
24344
24430
24321
24320
24426
24382
24366
24301
24369
24233
24301
24313
24260
24215
24258
24270
24211
24341
24254
24305
24298
24269
24299
24388
24315
24271
24290
24303
24438
24354
24359
24345
24280
24325
24365
24312
24241
24382
24394
24364
24277
24235
24233
24361
24351
24337
24250
24225
24246
24195
24345
24206
24365
24281
24315
24359
24337
24297
24353
24350
24327
24349
24400
24318
24352
24391
24410
24391
24497
24460
24525
24480
24383
24478
24478
24577
24492
24446
24514
24457
24508
24429
24586
24523
24500
24453
24501
24491
24569
24525
24466
24477
24625
24510
24612
24511
24624
24615
24443
24527
24514
24529
24579
24627
24619
24641
24732
24709
24581
24697
24705
24728
24758
24639
24694
24621
24686
24776
24698
24712
24788
24656
24724
24682
24710
24736
24800
24673
24711
24705
24586
24702
24618
24648
24575
24517
24577
24621
24541
24599
24491
24450
24385
24494
24459
24470
24330
24347
24241
24409
24266
24234
24367
24240
24312
24217
24292
24156
24072
24199
24095
24240
24259
24087
24215
24202
24059
24076
24092
24212
24115
24123
24212
24169
24197
24163
24266
24099
24110
24306
24254
24177
24283
24196
24179
24273
24289
24224
24255
24237
24273
24271
24205
24233
24253
24236
24254
24267
24275
24259
24229
24178
24275
24192
24251
24362
24401
24337
24239
24237
24301
24270
24391
24463
24269
24314
24358
24440
24351
24355
24435
24305
24323
24403
24409
24507
24332
24446
24469
24407
24559
24444
24383
24543
24397
24434
24470
24551
24409
24517
24460
24460
24498
24484
24469
24482
24476
24462
24427
24477
24488
24499
24492
24469
24507
24558
24570
24593
24595
24473
24573
24485
24525
24664
24507
24501
24618
24622
24512
24587
24435
24531
24410
24442
24414
24452
24258
24390
24308
24295
24355
24197
24220
24157
24118
24159
24220
24182
24246
24207
24150
24024
24075
24082
24073
24046
24057
24081
24063
24030
24066
24043
24051
24057
24044
24060
24098
24038
24001
24055
23982
24059
24074
24052
24139
24014
24200
24081
24083
24092
24173
24058
24078
24062
24090
24135
24054
24065
24105
24155
24214
24058
24097
24121
24113
24178
24134
24167
24081
24230
24260
24217
24196
24233
24265
24208
24245
24251
24243
24272
24245
24270
24280
24202
24299
24241
24293
24261
24310
24381
24375
24388
24395
24371
24346
24396
24438
24486
24356
24445
24424
24498
24359
24364
24406
24515
24426
24526
24396
24418
24487
24500
24430
24425
24487
24477
24454
24419
24513
24569
24500
24601
24556
24498
24527
24535
24560
24603
24608
24593
24621
24632
24690
24649
24669
24650
24514
24608
24564
24510
24565
24504
24515
24499
24534
24448
24356
24384
24417
24388
24360
24283
24280
24344
24325
24172
24196
24159
24195
24188
24078
24126
24109
24124
24161
24094
24153
24086
24056
24092
24053
24087
24120
24039
24080
24055
24071
24058
24124
24232
24113
24156
24101
24159
24112
24071
24157
24018
24209
24206
24258
24217
24152
24193
24226
24240
24255
24297
24207
24244
24310
24297
24161
24295
24109
24234
24152
24226
24198
24273
24233
24192
24238
24189
24276
24108
24168
24288
24250
24344
24328
24265
24208
24287
24363
24330
24284
24367
24403
24331
24244
24302
24352
24406
24406
24386
24329
24356
24320
24227
24394
24366
24376
24364
24395
24488
24332
24490
24435
24409
24310
24513
24419
24453
24340
24471
24433
24424
24528
24399
24409
24489
24524
24452
24521
24542
24380
24538
24543
24592
24546
24555
24505
24433
24499
24412
24505
24494
24452
24482
24474
24449
24389
24386
24357
24334
24359
24271
24213
24228
24259
24223
24102
24191
24108
24090
24118
24164
24137
24118
24135
24010
23984
24007
24089
23927
24065
23987
24024
23991
24001
23863
24024
24019
24001
23853
23943
24028
23927
23983
23900
23960
23917
23981
23923
23942
24029
24020
23979
24023
24035
24001
24037
24021
24063
23964
24084
24154
24084
23982
24137
24012
24170
24049
24032
24034
23997
24008
24104
24167
23937
24146
24145
24034
24021
24169
24027
24183
24128
24138
24034
24150
24177
24116
24178
24029
24175
24142
24126
24094
24140
24092
24163
24120
24231
24210
24222
24271
24102
24226
24287
24205
24294
24252
24163
24231
24303
24246
24302
24240
24225
24317
24225
24197
24334
24191
24196
24155
24280
24225
24326
24301
24330
24223
24310
24239
24288
24382
24352
24239
24275
24237
24391
24351
24334
24362
24203
24248
24202
24189
24330
24251
24225
24271
24231
24225
24221
24229
24157
24081
24172
24108
24065
23994
24059
23974
23957
23994
23881
23914
23779
23860
23880
23787
23680
23846
23860
23809
23791
23784
23665
23843
23685
23705
23832
23818
23691
23812
23798
23729
23733
23715
23834
23678
23785
23917
23905
23790
23900
23883
23780
23852
23969
23872
23828
23890
23880
23893
23954
23912
23822
23875
23930
23913
23910
23874
23859
23846
23943
24013
23951
24051
24016
23926
23931
23919
23987
23983
24039
24012
24025
24114
23997
24099
24073
24123
24166
24088
24091
24078
24081
24124
24178
24160
24286
24126
24252
24165
24152
24091
24127
24054
24110
24049
24064
24060
24125
24089
24130
24020
24024
24131
24027
24089
24114
24086
24087
24111
24174
24097
24116
24115
24103
24115
24168
24175
24110
24269
24272
24239
24283
24134
24280
24333
24180
24167
24303
24138
24182
24278
24229
24199
24161
24126
24108
24064
23996
23945
23886
23976
23910
23874
23959
23900
23771
23815
23825
23838
23829
23837
23728
23792
23753
23795
23719
23696
23826
23805
23768
23826
23752
23774
23780
23855
23681
23814
23779
23808
23779
23874
23878
23828
23795
23845
23869
23923
23853
23779
23784
23747
23893
23941
23895
23926
23868
23983
23871
23906
23949
23823
23926
23934
23958
23941
24051
24015
24106
23960
23897
23986
24037
23957
24023
24063
23977
23962
23929
23984
23957
24070
24173
23982
24204
24093
24060
24021
24075
24242
24198
24081
24099
24099
24246
24254
24245
24221
24134
24284
24115
24238
24295
24246
24281
24262
24170
24247
24141
24248
24122
24139
24145
24298
24236
24205
24169
24325
24170
24166
24205
24254
24196
24237
24206
24212
24194
24221
24172
24238
24225
24241
24145
24200
24164
24196
24124
24286
24315
24282
24197
24218
24175
24242
24084
24109
24056
24186
24135
24128
24076
23962
23950
24052
23979
23852
23798
23785
23886
23915
23772
23840
23725
23788
23779
23739
23791
23734
23720
23714
23663
23749
23677
23651
23737
23578
23750
23788
23674
23554
23653
23705
23671
23522
23717
23747
23677
23725
23724
23767
23718
23759
23610
23668
23709
23643
23577
23737
23609
23702
23820
23745
23757
23748
23803
23715
23747
23670
23766
23715
23738
23760
23766
23743
23765
23853
23805
23763
23734
23893
23784
23854
23887
23904
23877
23865
23814
23921
23851
23872
23934
23899
23895
23912
23968
23934
23928
23956
23974
23977
23964
24017
24009
24024
23978
24009
24025
23989
24045
24066
24050
24086
24053
24073
24077
24080
24092
24038
24046
24074
24068
24078
24035
24086
23978
24052
24085
24108
24090
24131
24011
24120
24047
24144
24071
24144
24123
24196
24188
24234
24217
24238
24120
24125
24041
24027
24087
24110
24120
24070
24048
24028
23945
23962
23905
23892
23816
23817
23808
23752
23763
23738
23692
23670
23678
23705
23660
23629
23637
23570
23561
23615
23595
23529
23519
23547
23587
23588
23483
23606
23515
23599
23468
23553
23496
23541
23559
23452
23481
23467
23526
23562
23459
23521
23545
23631
23534
23627
23587
23554
23501
23475
23559
23534
23590
23571
23496
23532
23545
23604
23678
23578
23652
23592
23606
23610
23715
23584
23672
23580
23586
23613
23675
23657
23587
23691
23619
23639
23710
23707
23742
23618
23735
23720
23755
23705
23716
23683
23712
23725
23708
23748
23705
23767
23717
23785
23810
23794
23843
23841
23786
23850
23885
23896
23860
23726
23766
23875
23917
23901
23897
23914
23826
23777
23915
23786
23780
23814
23928
23936
23826
23828
23765
23853
23886
23901
23902
23898
23929
23894
23935
24002
23921
23907
23915
23885
23930
23929
23924
24003
23896
23769
23905
23836
23829
23745
23755
23787
23772
23694
23775
23601
23560
23648
23589
23522
23488
23502
23415
23501
23412
23411
23392
23414
23350
23302
23338
23240
23392
23404
23407
23304
23387
23269
23342
23431
23358
23405
23370
23349
23401
23348
23288
23332
23482
23362
23285
23377
23277
23349
23416
23356
23353
23360
23325
23466
23422
23334
23470
23440
23424
23355
23376
23518
23443
23454
23424
23531
23517
23428
23475
23415
23561
23455
23419
23539
23425
23529
23560
23593
23550
23588
23590
23607
23466
23538
23497
23530
23555
23631
23640
23567
23628
23662
23564
23570
23590
23550
23633
23633
23704
23696
23680
23672
23794
23697
23637
23652
23778
23708
23734
23730
23674
23699
23755
23768
23735
23742
23731
23852
23778
23854
23839
23772
23861
23768
23773
23777
23775
23891
23830
23947
23870
23779
23799
23837
23774
23914
23772
23912
23943
23833
23837
23809
23949
23826
23912
23792
23861
23849
23744
23668
23725
23692
23690
23706
23655
23495
23606
23383
23540
23411
23383
23430
23333
23366
23312
23377
23424
23325
23338
23381
23370
23204
23208
23281
23304
23185
23201
23312
23267
23147
23238
23209
23187
23209
23299
23195
23234
23254
23224
23317
23149
23303
23328
23180
23302
23253
23269
23284
23347
23308
23230
23315
23315
23267
23326
23335
23289
23220
23294
23325
23312
23257
23303
23273
23320
23393
23388
23232
23258
23342
23294
23374
23344
23404
23320
23407
23303
23366
23479
23345
23378
23468
23441
23484
23411
23460
23401
23524
23391
23446
23435
23503
23536
23526
23481
23420
23492
23464
23470
23423
23500
23577
23500
23526
23541
23549
23495
23542
23650
23496
23604
23514
23562
23634
23536
23530
23660
23534
23577
23508
23593
23620
23689
23698
23634
23626
23636
23672
23604
23682
23664
23675
23637
23598
23738
23615
23674
23694
23700
23635
23643
23647
23542
23601
23504
23570
23618
23473
23424
23461
23357
23508
23399
23404
23339
23358
23275
23171
23269
23146
23172
23106
23115
23200
23188
23194
23093
23246
23027
23065
23173
23113
23064
23082
23153
23058
23026
23071
22953
23058
23018
23014
23109
23140
23108
23105
23087
23115
23182
23217
23198
23012
23145
23263
23174
23181
23200
23163
23157
23192
23154
23204
23268
23195
23164
23165
23120
23167
23195
23215
23165
23279
23248
23146
23213
23114
23227
23126
23302
23298
23210
23187
23275
23280
23360
23242
23400
23317
23408
23352
23363
23321
23252
23335
23227
23305
23229
23352
23389
23282
23239
23325
23318
23434
23370
23372
23343
23338
23388
23342
23403
23343
23352
23381
23315
23324
23440
23403
23363
23393
23331
23390
23379
23388
23395
23423
23416
23379
23466
23483
23442
23461
23515
23473
23409
23414
23481
23432
23455
23550
23503
23369
23550
23484
23488
23343
23479
23479
23339
23294
23323
23211
23319
23262
23146
23245
23160
23135
23091
23115
23120
23080
23011
22954
23001
23000
22933
22803
22860
22809
22873
22837
22858
22804
22835
22800
22843
22845
22856
22829
22820
22821
22904
22789
22921
22876
22768
22842
22738
22867
22957
22803
22882
22862
22911
22933
22773
22807
22854
22977
22836
22850
22970
22910
22903
22975
23035
23049
23016
22933
22962
23008
23111
23026
22955
23022
23005
23040
22975
23041
23123
23125
23021
23107
23051
23124
23065
23047
23088
23137
23137
23222
23102
23028
23161
23074
23127
23219
23207
23177
23245
23136
23178
23252
23214
23179
23207
23233
23316
23180
23283
23287
23317
23190
23231
23310
23191
23221
23313
23283
23320
23253
23301
23251
23232
23179
23269
23200
23269
23309
23191
23270
23280
23230
23280
23256
23261
23285
23206
23327
23350
23239
23415
23245
23229
23362
23378
23202
23248
23170
23149
23276
23230
23132
23152
23067
23072
23155
23047
23022
22945
23072
22856
22990
22898
22835
22815
22790
22783
22810
22743
22769
22694
22699
22618
22660
22772
22650
22624
22673
22665
22622
22665
22657
22624
22611
22606
22637
22636
22656
22644
22645
22611
22626
22651
22621
22616
22636
22719
22670
22769
22675
22795
22611
22678
22748
22790
22774
22817
22764
22667
22743
22674
22755
22725
22698
22766
22784
22814
22827
22825
22862
22759
22759
22800
22852
22738
22816
22877
22814
22783
22803
22919
22832
22961
22862
22891
22954
22982
22917
22931
22852
22877
22983
22944
22927
22927
23004
22954
22880
22964
22887
22933
22844
22900
22928
22953
23033
23088
23062
22910
22990
23006
22992
23054
22993
23046
23004
23022
22975
23014
23027
22899
22963
22911
23041
23089
22998
23012
23015
23081
23014
23030
23094
23072
23149
23108
23128
23111
23136
23069
23086
23072
23031
22981
22995
22930
22953
23011
22877
22845
22727
22699
22718
22817
22649
22627
22632
22687
22629
22634
22646
22544
22521
22485
22427
22407
22494
22399
22480
22391
22454
22524
22465
22449
22447
22395
22463
22451
22479
22313
22469
22416
22495
22464
22477
22514
22481
22461
22472
22471
22403
22432
22622
22469
22422
22575
22557
22611
22645
22600
22663
22622
22604
22662
22708
22636
22675
22675
22726
22774
22618
22544
22754
22652
22726
22637
22688
22731
22692
22722
22689
22761
22790
22744
22882
22773
22821
22745
22825
22812
22875
22790
22852
22860
22798
22807
22862
22756
22830
22773
22843
22803
22811
22943
22800
22903
23007
22938
23006
22917
23028
22972
23002
22867
22906
23024
23075
22986
22886
23007
22870
23077
23093
23012
22939
23051
22995
22946
22936
23050
23010
22958
23054
22989
23054
22982
23051
23137
22960
23059
22928
23004
22914
22982
23070
22942
22981
22827
22876
22826
22853
22809
22744
22783
22730
22735
22665
22679
22691
22727
22615
22477
22564
22532
22484
22374
22454
22439
22486
22458
22456
22419
22378
22323
22296
22369
22309
22408
22342
22402
22249
22318
22346
22278
22342
22421
22431
22366
22323
22367
22384
22456
22426
22483
22513
22413
22509
22477
22449
22512
22426
22506
22504
22520
22570
22554
22420
22504
22429
22518
22531
22474
22674
22544
22583
22522
22582
22497
22568
22593
22528
22548
22639
22536
22669
22726
22609
22733
22606
22638
22599
22791
22615
22620
22625
22631
22666
22775
22795
22682
22724
22742
22714
22748
22737
22665
22735
22713
22737
22800
22759
22821
22784
22787
22758
22755
22759
22736
22777
22761
22819
22837
22704
22803
22904
22851
22763
22790
22793
22810
22759
22915
22917
22818
22823
22864
22922
22867
22823
22867
22822
22789
22760
22765
22749
22852
22787
22691
22720
22751
22677
22589
22587
22552
22505
22497
22445
22461
22432
22445
22362
22391
22359
22357
22337
22351
22304
22229
22203
22215
22276
22118
22177
22270
22129
22070
22103
22133
22208
22255
22190
22134
22200
22086
22167
22148
22162
22270
22244
22139
22170
22237
22248
22174
22288
22356
22295
22303
22298
22417
22358
22342
22346
22345
22366
22397
22364
22373
22371
22424
22410
22503
22375
22403
22397
22406
22470
22503
22404
22498
22563
22468
22444
22429
22541
22503
22470
22635
22573
22607
22524
22574
22645
22726
22630
22707
22699
22623
22596
22542
22693
22659
22696
22640
22672
22689
22798
22646
22802
22723
22667
22713
22618
22639
22562
22637
22710
22760
22760
22743
22612
22735
22711
22780
22695
22665
22679
22644
22731
22694
22696
22707
22777
22798
22757
22804
22775
22806
22811
22759
22870
22793
22685
22792
22820
22771
22661
22707
22745
22688
22720
22544
22499
22527
22523
22499
22489
22471
22437
22400
22399
22386
22387
22363
22367
22250
22343
22398
22203
22226
22273
22230
22173
22225
22211
22236
22249
22256
22223
22202
22204
22195
22223
22194
22216
22226
22244
22232
22260
22246
22264
22336
22261
22198
22279
22260
22271
22365
22347
22457
22306
22318
22379
22352
22434
22443
22460
22412
22467
22435
22425
22461
22401
22446
22387
22509
22470
22506
22532
22473
22557
22519
22513
22454
22531
22613
22557
22556
22547
22597
22587
22611
22683
22647
22701
22651
22730
22654
22708
22704
22687
22730
22683
22651
22726
22665
22729
22617
22687
22771
22689
22818
22820
22839
22803
22799
22791
22803
22873
22698
22816
22701
22676
22742
22718
22823
22878
22725
22853
22770
22791
22762
22875
22792
22929
22761
22906
22963
22845
22871
22826
22868
22901
22892
22834
22898
22851
22771
22779
22823
22747
22743
22608
22626
22660
22606
22691
22537
22419
22568
22602
22386
22336
22467
22293
22307
22307
22382
22344
22325
22275
22388
22259
22150
22200
22232
22180
22294
22190
22170
22168
22177
22183
22183
22310
22207
22235
22175
22232
22226
22158
22299
22172
22312
22203
22273
22344
22187
22286
22256
22319
22223
22356
22368
22434
22365
22377
22417
22407
22493
22399
22345
22359
22360
22515
22465
22486
22488
22518
22446
22409
22502
22434
22516
22455
22463
22569
22513
22555
22563
22602
22518
22657
22602
22659
22693
22565
22622
22618
22637
22606
22599
22659
22635
22641
22640
22824
22689
22628
22777
22725
22751
22714
22718
22683
22756
22795
22697
22793
22680
22848
22904
22837
22859
22830
22749
22864
22755
22848
22846
22772
22771
22908
22947
22788
22768
22957
22880
22842
22801
22955
22950
22951
22851
22865
22890
22891
22821
22987
22835
22863
22779
22696
22757
22742
22678
22625
22603
22577
22615
22562
22505
22475
22492
22449
22398
22392
22368
22389
22309
22248
22312
22326
22314
22384
22309
22348
22311
22151
22198
22188
22240
22237
22204
22135
22258
22135
22200
22281
22120
22112
22246
22156
22285
22144
22302
22255
22197
22135
22212
22144
22252
22266
22301
22187
22258
22343
22346
22339
22315
22312
22313
22338
22348
22336
22350
22382
22350
22318
22378
22460
22371
22373
22417
22364
22408
22380
22489
22353
22426
22376
22504
22464
22497
22462
22444
22430
22582
22609
22454
22428
22663
22537
22574
22591
22623
22556
22614
22548
22717
22656
22624
22694
22645
22698
22615
22597
22781
22591
22622
22597
22673
22577
22616
22774
22683
22659
22683
22773
22697
22758
22710
22686
22731
22729
22715
22743
22720
22773
22779
22756
22707
22801
22821
22826
22863
22728
22725
22869
22765
22760
22747
22673
22774
22701
22651
22649
22601
22645
22543
22571
22528
22589
22543
22432
22532
22364
22377
22400
22419
22387
22274
22295
22390
22267
22306
22349
22312
22238
22307
22265
22301
22343
22288
22391
22270
22271
22259
22331
22271
22232
22253
22361
22370
22369
22391
22271
22276
22423
22416
22434
22357
22373
22519
22445
22417
22438
22414
22431
22553
22495
22505
22567
22521
22452
22506
22413
22543
22650
22480
22502
22584
22659
22578
22601
22605
22549
22500
22585
22629
22627
22736
22619
22675
22596
22582
22619
22773
22614
22694
22746
22655
22683
22721
22625
22727
22719
22707
22725
22807
22791
22810
22848
22826
22742
22756
22849
22856
22728
22745
22793
22806
22787
22896
22864
22911
22850
22768
22819
22799
22863
22843
22872
22847
22966
22872
22832
22904
22979
22939
23014
22969
22954
22989
22962
23044
22904
23009
22957
23018
22929
22937
23017
23098
22964
23100
22927
22932
23028
22834
22960
23031
22807
22908
22899
22883
22722
22700
22743
22695
22680
22619
22525
22593
22458
22618
22620
22534
22462
22420
22459
22451
22393
22386
22346
22392
22364
22355
22315
22355
22277
22237
22297
22335
22365
22268
22209
22330
22365
22393
22373
22288
22315
22331
22305
22457
22346
22357
22361
22364
22427
22488
22473
22506
22478
22463
22434
22601
22512
22521
22514
22514
22621
22432
22593
22506
22542
22548
22509
22506
22624
22655
22681
22563
22669
22582
22645
22646
22625
22745
22709
22633
22686
22751
22743
22684
22677
22649
22766
22665
22700
22819
22762
22752
22723
22751
22713
22743
22755
22753
22709
22788
22832
22755
22687
22829
22731
22743
22699
22754
22716
22825
22890
22908
22867
22803
22807
22753
22845
22805
22918
22914
22922
22915
22898
22966
22954
22857
22964
22942
22829
22968
22973
22999
22897
22961
22850
22945
22949
22933
22948
22900
22849
22892
22893
22788
22833
22751
22710
22603
22667
22713
22615
22591
22598
22550
22518
22387
22424
22450
22353
22323
22309
22378
22417
22284
22228
22265
22274
22351
22202
22296
22267
22280
22341
22157
22339
22341
22254
22351
22263
22288
22184
22294
22225
22290
22282
22316
22355
22284
22300
22375
22444
22347
22308
22376
22431
22334
22459
22367
22368
22434
22330
22484
22378
22522
22360
22432
22444
22395
22546
22463
22472
22600
22583
22445
22577
22462
22599
22677
22474
22504
22513
22559
22713
22663
22653
22621
22603
22607
22743
22700
22674
22665
22604
22671
22671
22589
22727
22749
22686
22755
22664
22662
22808
22724
22753
22830
22780
22702
22820
22741
22799
22724
22759
22719
22812
22750
22704
22764
22716
22759
22818
22781
22703
22732
22745
22882
22748
22860
22821
22896
22853
22881
22902
22891
22873
22742
22914
22840
22825
22927
22931
22961
22830
22838
22917
22820
22749
22764
22793
22744
22805
22711
22763
22752
22598
22709
22581
22549
22540
22514
22506
22336
22446
22400
22391
22457
22345
22313
22372
22291
22328
22251
22260
22261
22254
22280
22151
22212
22249
22288
22141
22159
22232
22239
22104
22195
22260
22219
22227
22302
22332
22153
22252
22338
22285
22340
22319
22432
22415
22288
22370
22412
22433
22412
22320
22391
22380
22378
22316
22412
22307
22372
22398
22353
22490
22413
22544
22358
22485
22474
22327
22366
22494
22520
22458
22535
22493
22596
22582
22505
22592
22543
22452
22595
22625
22605
22453
22578
22596
22636
22593
22644
22592
22668
22553
22588
22635
22685
22647
22741
22713
22735
22721
22656
22730
22678
22748
22868
22738
22798
22754
22809
22821
22761
22774
22844
22834
22758
22839
22853
22912
22786
22800
22867
22791
22810
22944
22959
22914
22928
22941
22826
22839
23011
22977
22966
22887
23050
22887
22844
22962
22942
22840
22811
22705
22775
22728
22752
22710
22612
22539
22597
22609
22455
22389
22484
22467
22460
22454
22343
22276
22366
22302
22397
22265
22308
22274
22332
22165
22186
22152
22287
22189
22151
22102
22098
22163
22135
22102
22212
22234
22179
22130
22181
22149
22251
22244
22186
22317
22335
22315
22253
22313
22288
22373
22254
22267
22273
22370
22350
22302
22386
22430
22349
22429
22384
22322
22379
22415
22417
22364
22412
22324
22428
22322
22449
22489
22352
22530
22461
22446
22552
22513
22548
22582
22524
22542
22550
22539
22602
22439
22482
22582
22512
22616
22533
22492
22621
22511
22614
22556
22575
22705
22601
22582
22616
22593
22660
22656
22598
22620
22608
22661
22714
22640
22662
22633
22682
22681
22647
22614
22727
22613
22634
22570
22670
22598
22553
22658
22703
22552
22670
22720
22607
22580
22678
22780
22662
22832
22736
22663
22785
22818
22772
22721
22833
22755
22814
22656
22748
22705
22689
22617
22500
22504
22558
22435
22504
22491
22351
22359
22379
22239
22243
22177
22196
22265
22234
22173
22200
22107
22175
22182
22065
22106
22134
22097
22149
22076
21928
22073
22070
22068
21996
22098
22149
22062
22181
22048
22222
22174
22206
22068
22103
22298
22213
22173
22252
22235
22285
22299
22348
22277
22445
22269
22347
22473
22403
22506
22345
22448
22395
22527
22454
22468
22481
22478
22484
22502
22672
22597
22547
22650
22639
22635
22634
22737
22650
22635
22657
22832
22758
22690
22731
22784
22743
22779
22865
22817
22742
22772
22875
22873
22702
22858
22756
22839
22936
22915
22917
22843
22799
22942
22989
22984
22845
23048
22978
22911
22946
22921
22931
23076
22958
23021
22940
22948
22925
23005
22906
22945
23041
23038
23089
23029
23151
23042
23014
23072
23184
23035
23026
23118
23079
23081
23086
23128
23039
22966
23007
23074
22977
22865
22949
23105
22923
22728
22801
22710
22700
22700
22622
22552
22536
22543
22451
22444
22366
22255
22380
22185
22242
22092
22232
22150
22120
22098
21905
21994
21945
22010
21895
21780
21843
21723
21746
21738
21778
21768
21758
21731
21787
21713
21636
21690
21824
21691
21678
21729
21829
21698
21736
21714
21591
21725
21767
21697
21716
21710
21733
21755
21720
21668
21721
21708
21711
21713
21688
21717
21685
21723
21706
21743
21750
21663
21641
21741
21823
21780
21728
21656
21621
21755
21743
21763
21749
21793
21674
21676
21723
21869
21807
21686
21735
21801
21804
21664
21870
21878
21853
21875
21810
21826
21742
21780
21851
21767
21863
21816
21684
21806
21811
21799
21781
21879
21702
21836
21908
21865
21779
21724
21804
21815
21784
21719
21826
21788
21809
21828
21833
21921
21804
21848
21784
21776
21721
21768
21818
21827
21867
21775
21853
21767
21895
21800
21816
21819
21928
21842
21608
21665
21590
21659
21566
21556
21492
21503
21430
21348
21382
21371
21402
21401
21287
21346
21205
21272
21278
21183
21258
21188
21138
21100
21135
21103
21203
21201
21171
21189
21125
21116
21058
21002
21135
21113
21056
21067
21108
21255
21132
21100
21183
21229
21180
21124
21154
21211
21156
21204
21201
21252
21256
21256
21173
21335
21360
21327
21351
21315
21439
21275
21408
21357
21411
21483
21303
21361
21333
21324
21287
21194
21289
21283
21422
21175
21426
21406
21315
21223
21207
21377
21216
21291
21239
21374
21360
21357
21431
21337
21358
21345
21374
21349
21407
21379
21395
21279
21354
21469
21450
21507
21482
21364
21439
21375
21435
21307
21309
21503
21523
21453
21373
21427
21308
21443
21503
21393
21544
21359
21486
21341
21408
21333
21289
21319
21480
21446
21355
21373
21355
21393
21342
21442
21363
21406
21407
21520
21400
21351
21457
21395
21445
21317
21267
21366
21305
21303
21283
21274
21302
21204
21220
21076
21216
21136
21064
20939
20877
21024
20970
21016
20973
20831
20898
20770
20831
20902
20853
20767
20799
20801
20813
20802
20747
20764
20812
20745
20791
20736
20664
20735
20754
20727
20820
20817
20729
20753
20787
20856
20894
20815
20746
20758
20795
20805
20829
20981
20817
20856
20829
20866
20799
20811
20959
20833
20929
20862
20923
20859
20746
20886
21020
20895
20919
20924
20903
20831
20952
20834
20902
20923
20954
21019
21025
20883
20935
21104
21053
21064
21054
21029
21132
21176
21134
21096
21026
21033
21035
21028
21180
21105
21220
21087
21152
21187
21012
21158
21046
21134
21173
21093
21223
21231
21248
21321
21285
21172
21349
21325
21389
21282
21301
21418
21293
21324
21316
21343
21503
21443
21306
21410
21455
21376
21360
21443
21520
21489
21515
21456
21440
21557
21605
21587
21482
21533
21567
21599
21443
21501
21504
21454
21440
21332
21324
21328
21388
21314
21367
21201
21139
21186
21240
21094
21189
21172
21172
21111
21156
21151
21172
21022
21043
21175
21070
21098
21059
20991
21148
21121
21110
21093
21100
21113
21196
21093
21182
21048
21158
21227
21102
21052
21196
21134
21199
21134
21185
21170
21174
21107
21041
21076
21109
21060
21080
21064
21077
21128
21221
21242
21126
21120
21244
21268
21282
21274
21149
21235
21331
21272
21297
21289
21397
21266
21224
21298
21389
21244
21240
21290
21250
21259
21323
21437
21379
21425
21381
21400
21416
21279
21340
21410
21381
21419
21359
21486
21521
21501
21460
21510
21533
21482
21533
21570
21455
21611
21497
21554
21445
21564
21552
21515
21642
21574
21550
21518
21551
21598
21537
21506
21545
21613
21546
21504
21610
21427
21488
21434
21561
21466
21444
21619
21499
21501
21652
21526
21574
21549
21670
21526
21647
21528
21518
21647
21650
21634
21622
21513
21544
21510
21510
21459
21417
21369
21267
21349
21269
21328
21288
21246
21211
21200
21167
21214
21249
21200
21098
21182
21190
21194
21190
21124
21165
21226
21149
21119
21198
21125
21142
21172
21125
21171
21241
21095
21266
21216
21256
21208
21294
21175
21260
21174
21298
21215
21217
21209
21213
21304
21195
21273
21303
21346
21238
21270
21269
21334
21270
21303
21340
21367
21311
21299
21340
21360
21336
21359
21270
21394
21380
21279
21326
21305
21304
21348
21234
21395
21222
21287
21254
21310
21431
21387
21469
21438
21477
21378
21261
21406
21394
21277
21340
21406
21346
21281
21424
21350
21387
21436
21405
21463
21476
21512
21335
21420
21300
21345
21495
21376
21305
21389
21508
21427
21519
21359
21504
21407
21369
21403
21419
21422
21416
21370
21417
21338
21426
21359
21471
21492
21515
21479
21510
21466
21535
21505
21526
21431
21430
21459
21334
21463
21398
21389
21446
21320
21297
21262
21230
21151
21091
21207
21101
21161
21144
21118
21083
20984
21020
20882
20894
21039
20994
20832
20971
20908
20841
20887
20990
20832
20822
20864
20901
20894
20938
20859
20922
20795
20784
20913
20935
20799
20738
20909
20810
20813
20841
20908
20901
20996
20903
21030
20919
20910
20971
20882
20887
20838
20907
20967
21002
21001
21052
21011
21045
20944
20924
20970
21024
20970
21128
21100
20935
21012
20988
20975
20952
20978
21051
21090
21054
21168
21104
21011
21170
21212
21023
21025
21135
21148
21207
21108
21135
21137
21228
21123
21116
21228
21132
21239
21045
21095
21054
21255
21199
21093
21121
21210
21198
21280
21169
21260
21223
21123
21281
21135
21201
21127
21284
21351
21301
21323
21277
21307
21170
21274
21204
21192
21189
21233
21345
21208
21316
21347
21235
21204
21256
21179
21287
21289
21249
21202
21211
21213
21229
21043
21048
21180
21129
21132
21101
21010
20866
20970
20914
20842
20873
20822
20843
20828
20776
20843
20759
20827
20784
20857
20765
20852
20777
20788
20876
20846
20777
20846
20730
20723
20784
20793
20686
20691
20724
20740
20694
20797
20804
20792
20891
20788
20762
20842
20800
20819
20875
20852
20820
20960
20855
20823
20987
20890
20923
20996
20854
20914
20841
20914
20823
20749
20858
20809
20925
20826
20836
20928
20741
20835
20797
20870
20943
20885
20916
20900
21021
20983
21057
20992
21023
20891
20988
20982
20905
20956
20976
21050
20975
20894
21001
20871
21011
21046
20996
20958
20944
20987
21005
20931
21046
21018
21095
21091
21021
21113
21127
21034
21140
21106
21131
21037
21142
21016
21030
21055
21129
21103
21102
21177
21080
21103
21184
21161
21226
21077
21175
21186
21248
21174
21104
21146
21264
21181
21171
21132
21204
21143
21174
20997
20855
20932
20998
20988
20975
20963
20935
20801
20770
20893
20790
20660
20777
20687
20590
20708
20606
20616
20506
20483
20644
20477
20458
20504
20595
20501
20519
20522
20381
20458
20494
20424
20487
20541
20468
20460
20617
20519
20597
20568
20501
20645
20636
20640
20704
20723
20638
20714
20688
20541
20739
20576
20671
20700
20662
20670
20592
20571
20521
20597
20563
20509
20502
20547
20605
20664
20627
20569
20579
20702
20585
20640
20623
20602
20651
20518
20707
20772
20723
20678
20732
20736
20714
20745
20675
20792
20747
20742
20682
20708
20854
20747
20700
20736
20651
20808
20778
20666
20776
20746
20666
20677
20702
20660
20721
20731
20677
20732
20714
20658
20717
20705
20721
20695
20665
20758
20678
20770
20690
20764
20719
20798
20809
20793
20817
20867
20751
20848
20657
20673
20773
20633
20635
20759
20720
20659
20608
20582
20559
20479
20465
20363
20331
20393
20351
20269
20291
20274
20391
20261
20262
20224
20273
20185
20112
20207
20183
20210
20170
20198
20187
20144
20146
20069
20170
20219
20195
20071
20200
20089
20223
20281
20272
20188
20282
20245
20285
20291
20271
20243
20336
20350
20209
20341
20273
20302
20286
20301
20385
20382
20495
20413
20421
20525
20389
20371
20428
20457
20439
20336
20439
20453
20497
20466
20468
20452
20428
20479
20581
20540
20533
20534
20626
20596
20693
20643
20609
20698
20631
20627
20792
20773
20705
20725
20757
20792
20709
20658
20795
20697
20771
20751
20733
20880
20796
20812
20723
20821
20750
20852
20795
20748
20812
20813
20843
20727
20691
20795
20783
20719
20795
20830
20801
20870
20834
20897
20836
20731
20782
20741
20808
20843
20775
20702
20762
20843
20735
20641
20663
20685
20711
20632
20728
20628
20566
20616
20553
20535
20595
20489
20398
20532
20483
20514
20516
20417
20448
20338
20403
20375
20331
20442
20259
20404
20413
20269
20421
20220
20313
20302
20412
20287
20281
20312
20303
20330
20493
20306
20369
20463
20326
20454
20359
20359
20471
20488
20407
20410
20445
20345
20435
20589
20528
20441
20499
20434
20537
20528
20579
20585
20554
20504
20477
20554
20608
20555
20586
20546
20516
20588
20501
20490
20516
20633
20486
20485
20442
20611
20521
20656
20579
20571
20613
20661
20677
20503
20677
20638
20600
20697
20577
20640
20587
20720
20604
20688
20717
20697
20603
20738
20700
20761
20786
20704
20828
20727
20800
20724
20759
20730
20743
20893
20816
20828
20818
20710
20886
20872
20912
20971
20967
20874
20900
20869
20951
20883
21040
20901
20811
20954
20800
20913
20838
20888
20764
20695
20752
20759
20701
20593
20707
20622
20633
20493
20647
20478
20562
20415
20469
20482
20474
20502
20433
20397
20413
20405
20387
20365
20369
20332
20273
20410
20270
20385
20320
20311
20375
20405
20316
20229
20324
20462
20416
20458
20423
20430
20468
20414
20512
20562
20497
20496
20511
20604
20504
20447
20502
20595
20655
20539
20659
20592
20548
20656
20595
20606
20759
20707
20774
20799
20689
20721
20791
20781
20795
20652
20739
20852
20701
20814
20737
20787
20774
20737
20846
20890
20762
20896
20792
20817
20954
20862
20941
20875
20859
20827
20822
20954
20837
20885
20904
20835
20977
20989
20965
21058
20980
21019
20938
20895
20957
20827
20974
20990
20973
20957
21025
21071
20974
20965
20896
20952
20875
21069
20933
21023
21054
21066
20953
20969
21025
21078
21012
21064
21035
21085
20990
20809
20950
20835
20822
20853
20782
20815
20729
20683
20629
20675
20591
20577
20463
20569
20539
20484
20497
20518
20404
20408
20487
20406
20356
20395
20468
20450
20497
20339
20341
20455
20326
20487
20431
20421
20436
20510
20358
20310
20379
20356
20353
20443
20551
20406
20480
20414
20426
20460
20481
20485
20573
20489
20507
20513
20534
20469
20542
20569
20524
20650
20612
20633
20602
20501
20695
20519
20659
20738
20597
20716
20714
20742
20728
20606
20642
20643
20653
20645
20776
20762
20666
20806
20637
20660
20796
20769
20679
20730
20787
20866
20766
20728
20824
20823
20830
20888
20879
20851
20825
20753
20867
20815
20885
20891
20856
20856
20866
20852
20867
20885
20931
20948
20794
20952
20996
20914
20828
20871
20822
20955
20906
21046
20991
20880
20993
21003
20979
21039
20857
21061
20870
20824
20981
20958
20865
20899
20960
20793
20649
20726
20725
20717
20753
20625
20639
20580
20456
20525
20466
20434
20423
20498
20372
20342
20344
20448
20313
20334
20270
20264
20245
20346
20310
20313
20209
20257
20254
20270
20345
20288
20307
20302
20161
20230
20324
20320
20330
20356
20274
20324
20269
20357
20287
20359
20316
20443
20393
20247
20413
20354
20342
20414
20436
20384
20521
20396
20485
20510
20456
20467
20505
20445
20363
20433
20379
20444
20508
20487
20565
20426
20532
20642
20469
20636
20568
20478
20599
20527
20535
20693
20633
20554
20528
20491
20591
20585
20598
20594
20613
20681
20720
20738
20709
20644
20727
20720
20613
20650
20662
20653
20765
20675
20768
20799
20754
20730
20742
20814
20749
20819
20775
20777
20825
20708
20813
20795
20862
20781
20868
20766
20895
20854
20747
20867
20881
20907
20833
20817
20748
20870
20929
20760
20877
20856
20715
20862
20673
20764
20705
20578
20730
20506
20630
20491
20542
20608
20536
20539
20348
20497
20508
20354
20361
20324
20371
20370
20201
20316
20302
20266
20299
20334
20248
20175
20180
20333
20253
20134
20228
20147
20244
20203
20230
20387
20304
20164
20319
20284
20159
20390
20320
20329
20336
20413
20293
20271
20403
20305
20516
20329
20423
20487
20316
20329
20312
20417
20446
20375
20488
20513
20427
20508
20492
20473
20435
20463
20488
20378
20399
20471
20406
20481
20493
20488
20455
20558
20595
20500
20457
20466
20599
20532
20526
20492
20511
20471
20519
20678
20596
20715
20682
20741
20656
20580
20714
20603
20701
20745
20679
20720
20809
20759
20879
20778
20669
20832
20691
20840
20834
20739
20775
20804
20700
20723
20766
20860
20803
20893
20852
20802
20839
20990
20902
21011
20877
20879
20823
20884
20852
20838
20833
20877
20952
20835
20759
20794
20812
20747
20780
20756
20682
20624
20706
20582
20667
20576
20529
20487
20525
20470
20464
20529
20443
20389
20418
20390
20393
20341
20425
20514
20396
20307
20377
20406
20384
20457
20461
20413
20371
20459
20380
20435
20530
20485
20549
20481
20455
20492
20445
20402
20512
20463
20526
20490
20578
20570
20560
20667
20636
20646
20680
20754
20624
20658
20546
20714
20749
20617
20803
20641
20675
20642
20610
20656
20620
20641
20819
20724
20731
20748
20633
20578
20683
20683
20766
20708
20687
20708
20714
20699
20757
20860
20791
20660
20760
20725
20857
20756
20790
20806
20800
20813
20756
20833
20723
20823
20832
20788
20862
20827
20863
20950
20844
20949
20837
20781
20825
20977
20897
20924
20935
20909
20847
20788
20815
20812
20772
20856
20964
20922
21004
20942
20910
20863
21038
20939
20887
20878
20807
21011
20921
20941
20926
20836
20959
20754
20864
20866
20778
20778
20740
20746
20684
20650
20638
20575
20541
20536
20561
20491
20427
20458
20328
20440
20274
20400
20329
20305
20268
20311
20412
20299
20282
20304
20410
20310
20391
20460
20325
20266
20318
20297
20308
20295
20450
20385
20286
20379
20488
20412
20349
20428
20306
20388
20309
20362
20487
20473
20497
20542
20508
20506
20482
20489
20534
20554
20529
20589
20554
20497
20574
20516
20597
20497
20503
20556
20587
20639
20638
20526
20565
20601
20663
20574
20656
20710
20766
20593
20730
20643
20576
20726
20689
20627
20784
20665
20742
20781
20764
20789
20721
20763
20728
20775
20775
20720
20668
20697
20791
20732
20654
20793
20791
20768
20763
20787
20895
20769
20851
20811
20892
20781
20780
20758
20863
20725
20790
20819
20837
20711
20762
20830
20734
20755
20883
20786
20878
20713
20807
20771
20811
20822
20796
20807
20823
20806
20758
20763
20646
20744
20644
20781
20583
20597
20674
20548
20597
20487
20561
20620
20543
20613
20533
20522
20450
20312
20436
20344
20290
20362
20313
20211
20245
20237
20354
20288
20261
20277
20229
20272
20179
20349
20157
20224
20385
20269
20264
20337
20298
20242
20397
20288
20385
20260
20342
20366
20349
20296
20374
20411
20400
20349
20509
20422
20379
20418
20362
20448
20508
20381
20514
20389
20398
20454
20508
20497
20351
20512
20504
20381
20476
20432
20572
20506
20594
20637
20596
20618
20496
20555
20627
20639
20677
20619
20695
20586
20692
20716
20617
20655
20672
20611
20639
20726
20755
20632
20625
20669
20606
20596
20616
20824
20661
20794
20674
20745
20677
20707
20824
20683
20661
20735
20793
20753
20818
20736
20746
20739
20865
20765
20934
20754
20897
20858
20878
20827
20836
20825
20884
20741
20843
20781
20874
20839
20845
20750
20861
20808
20759
20750
20864
20887
20835
20770
20717
20695
20793
20708
20714
20613
20488
20615
20524
20538
20489
20490
20329
20438
20436
20387
20316
20255
20391
20441
20321
20279
20269
20312
20259
20375
20203
20163
20211
20250
20314
20172
20350
20294
20288
20247
20269
20251
20187
20255
20256
20241
20369
20282
20230
20339
20316
20309
20424
20227
20369
20265
20324
20337
20414
20289
20382
20421
20449
20463
20402
20298
20349
20431
20408
20364
20461
20493
20490
20403
20371
20419
20428
20431
20484
20530
20349
20488
20451
20452
20502
20437
20521
20579
20444
20417
20598
20398
20590
20498
20484
20562
20622
20587
20550
20615
20581
20543
20460
20516
20640
20515
20683
20662
20732
20670
20719
20668
20592
20625
20723
20655
20684
20717
20697
20733
20653
20799
20702
20808
20747
20774
20740
20630
20601
20725
20649
20760
20716
20711
20739
20694
20826
20709
20866
20706
20798
20826
20729
20811
20807
20764
20745
20790
20762
20624
20715
20586
20709
20558
20545
20600
20566
20666
20524
20549
20483
20479
20492
20493
20308
20344
20215
20433
20404
20234
20380
20247
20186
20141
20130
20216
20233
20211
20238
20222
20232
20198
20271
20195
20265
20196
20279
20320
20260
20262
20243
20230
20220
20316
20390
20315
20207
20268
20307
20361
20374
20322
20252
20314
20258
20423
20367
20353
20282
20310
20433
20370
20362
20346
20413
20388
20354
20336
20327
20261
20297
20335
20461
20443
20327
20443
20446
20485
20384
20425
20423
20469
20427
20467
20502
20502
20547
20489
20499
20620
20565
20555
20564
20539
20635
20513
20628
20720
20603
20596
20700
20638
20543
20621
20767
20650
20603
20597
20710
20711
20606
20689
20610
20767
20697
20775
20754
20753
20727
20776
20778
20624
20709
20657
20735
20742
20689
20718
20726
20824
20773
20715
20819
20768
20684
20778
20855
20779
20688
20786
20717
20798
20807
20731
20778
20745
20687
20737
20650
20675
20619
20597
20605
20492
20514
20458
20476
20586
20518
20329
20398
20484
20336
20255
20406
20313
20309
20369
20329
20378
20212
20430
20422
20373
20469
20467
20504
20418
20333
20444
20534
20332
20434
20533
20436
20510
20451
20354
20467
20522
20464
20486
20362
20444
20548
20473
20578
20514
20536
20526
20584
20494
20615
20537
20607
20562
20608
20631
20572
20566
20684
20617
20643
20680
20673
20536
20620
20771
20723
20613
20668
20717
20753
20612
20817
20667
20759
20688
20778
20661
20821
20805
20749
20822
20762
20791
20717
20861
20736
20903
20928
20903
20899
20868
20854
20792
20894
20995
20925
20996
20919
21043
20976
20952
20990
21004
20987
20957
20925
20989
21016
21036
21141
20963
21113
21113
20998
21059
21081
21089
21080
20979
20987
21069
21065
21027
21067
21190
21063
21144
21212
21136
21090
21009
21204
21106
21049
21047
21060
21063
20985
21095
21177
21073
21116
20994
21008
20966
21043
21035
20898
20861
20930
20976
20950
20919
20917
20751
20832
20822
20784
20856
20836
20898
20768
20761
20797
20769
20842
20845
20690
20708
20839
20824
20811
20827
20800
20767
20669
20765
20827
20747
20660
20683
20749
20668
20720
20791
20774
20775
20783
20851
20812
20852
20824
20881
20875
20827
20887
20944
20902
20861
20953
20977
21038
21025
21038
20976
21062
21030
20913
20971
20880
21045
20917
20974
20909
20905
20940
20917
20975
20977
21041
21093
20948
20903
21069
21061
21027
21106
21114
20958
21191
21075
21082
21092
21099
21123
21164
21156
21017
21166
21167
21167
21208
21181
21151
21254
21187
21085
21195
21101
21216
21096
21231
21233
21275
21231
21300
21336
21337
21210
21377
21203
21177
21345
21381
21338
21312
21323
21236
21385
21194
21263
21246
21381
21308
21334
21354
21264
21334
21245
21328
21394
21357
21355
21339
21347
21339
21356
21289
21306
21327
21221
21096
21162
21274
21087
21080
21060
20965
21072
20861
21117
20937
21040
20976
20864
20923
20890
20806
20765
20879
20898
20871
20919
20773
20731
20733
20794
20854
20734
20790
20663
20704
20833
20867
20773
20770
20748
20808
20685
20784
20786
20746
20723
20752
20705
20760
20777
20753
20718
20773
20627
20762
20853
20762
20791
20801
20872
20886
20826
20916
20847
20848
20810
20969
20856
20767
20887
20862
20941
20927
20836
20735
20917
20889
20943
20788
20902
20795
20895
20904
20817
20927
20966
20896
20886
20945
20855
20889
20865
20975
20975
20856
20831
20975
21002
20972
20958
21004
20983
20864
21027
21114
21039
20992
21034
21158
21139
21103
21123
21209
21017
21123
21179
21145
21211
21188
21089
21205
21264
21207
21081
21234
21301
21132
21220
21116
21279
21302
21227
21147
21283
21194
21322
21264
21387
21254
21373
21469
21332
21444
21352
21481
21429
21475
21431
21433
21377
21363
21393
21354
21364
21281
21262
21231
21202
21197
21151
21194
21084
21048
21033
21022
20966
20859
20894
20797
20895
20720
20879
20894
20798
20640
20627
20727
20600
20744
20692
20688
20627
20600
20574
20556
20685
20621
20560
20519
20556
20714
20631
20596
20643
20737
20630
20634
20631
20673
20631
20770
20753
20705
20708
20692
20695
20745
20778
20794
20783
20711
20795
20716
20818
20754
20720
20723
20773
20608
20753
20884
20783
20820
20751
20850
20782
20736
20732
20796
20746
20790
20804
20861
20817
20708
20915
20865
20852
20739
20855
20905
20879
20792
20742
20905
20803
20980
20789
20939
20844
21079
20979
20947
20956
21065
20997
20857
20977
21081
21043
20976
21089
21006
20967
21065
21024
21132
21148
21082
21087
21070
20995
21048
21103
21152
21167
21079
21188
21070
21044
21010
21029
21027
21161
21005
21048
21201
21198
21155
21163
21152
21224
21046
21101
21114
21108
21165
20982
21109
21051
21055
20927
20924
20949
21036
20827
20983
20810
20781
20892
20895
20864
20845
20749
20590
20693
20757
20626
20713
20718
20686
20619
20610
20554
20656
20563
20673
20571
20629
20542
20573
20542
20641
20669
20660
20506
20693
20550
20609
20542
20673
20585
20652
20636
20674
20748
20770
20727
20826
20695
20554
20638
20818
20771
20812
20791
20814
20762
20710
20733
20714
20593
20698
20699
20680
20621
20718
20725
20621
20636
20666
20639
20697
20700
20806
20672
20661
20735
20815
20662
20596
20712
20798
20684
20685
20746
20748
20804
20792
20876
20749
20773
20780
20751
20785
20874
20836
20904
20833
20878
20862
20870
20985
20949
21087
21013
21020
21064
21204
21128
21063
21180
21182
21241
21206
21253
21282
21331
21345
21323
21419
21420
21417
21562
21476
21570
21492
21458
21614
21455
21625
21694
21570
21691
21761
21662
21645
21609
21708
21790
21812
21852
21952
21890
21865
21830
21860
21795
21730
21823
21834
21870
21746
21692
21751
21764
21669
21539
21605
21456
21512
21511
21444
21379
21411
21365
21351
21278
21365
21258
21314
21234
21083
21137
21120
21069
21013
21133
20977
21127
20984
21020
20988
20990
20939
21074
21044
21066
20903
20853
21032
20917
20864
20808
20985
21010
20886
20924
20961
20998
20791
20926
20961
20862
20801
20932
20890
20851
20907
20840
20807
20793
20936
20934
20884
20870
20866
20807
20847
20836
20921
21007
20922
20914
20836
20873
20808
20868
20904
20841
20732
20840
20756
20841
20860
20778
20915
20808
20718
20850
20866
20811
20719
20769
20744
20898
20965
20840
20968
20855
20961
20980
20884
20903
20927
21016
21046
21073
21051
21121
21048
20959
21065
21052
21054
21041
20944
21034
21024
21059
21122
21031
21079
21061
21088
21177
21064
21103
21189
21010
21145
21143
21182
21219
21258
21273
21259
21186
21284
21148
21192
21155
21353
21310
21333
21261
21172
21286
21182
21304
21148
21261
21216
21306
21148
21121
21198
21210
21176
21001
21098
21141
20983
21034
20892
20813
20884
20905
20871
20805
20698
20703
20780
20678
20514
20668
20532
20616
20676
20606
20479
20516
20432
20498
20507
20468
20499
20399
20483
20506
20543
20450
20439
20437
20516
20546
20542
20382
20525
20570
20417
20366
20603
20575
20476
20540
20496
20502
20494
20592
20423
20451
20399
20556
20451
20487
20503
20559
20480
20540
20488
20584
20524
20418
20498
20612
20475
20551
20466
20461
20485
20397
20577
20447
20509
20496
20596
20532
20410
20496
20469
20490
20588
20489
20543
20605
20522
20517
20577
20645
20512
20495
20536
20550
20498
20520
20580
20514
20526
20719
20680
20456
20653
20473
20524
20601
20538
20532
20489
20582
20516
20570
20600
20600
20601
20562
20445
20518
20561
20525
20481
20564
20437
20380
20437
20540
20487
20421
20413
20574
20414
20376
20536
20525
20517
20539
20467
20497
20397
20516
20596
20427
20321
20402
20428
20395
20255
20400
20354
20273
20405
20339
20420
20265
20294
20411
20316
20213
20278
20368
20283
20314
20267
20343
20300
20290
20442
20369
20432
20335
20282
20404
20304
20401
20268
20206
20170
20326
20260
20318
20326
20274
20335
20222
20284
20391
20272
20239
20389
20457
20350
20229
20292
20230
20385
20378
20324
20511
20333
20339
20441
20441
20482
20384
20437
20428
20309
20413
20365
20500
20453
20528
20394
20431
20493
20556
20480
20396
20506
20501
20467
20389
20425
20399
20409
20358
20539
20468
20325
20498
20439
20490
20552
20523
20520
20493
20583
20621
20582
20623
20547
20587
20627
20723
20722
20763
20755
20683
20665
20726
20736
20624
20740
20691
20741
20735
20751
20851
20734
20784
20870
20820
20955
20905
20836
20908
20905
20893
20893
20964
20890
20975
20925
21001
21003
21035
20974
20919
21002
20957
21070
21058
21173
21034
21170
21196
21061
21239
21169
21110
21118
21079
21112
21096
21101
21213
21118
21071
21076
21128
21131
21009
21125
20969
21096
21115
20971
21044
20963
21096
20946
20996
21038
20998
21031
21018
20979
21029
20980
20968
21030
21040
20971
20954
20993
20960
20982
20956
21036
20943
20880
20885
20867
20895
20815
20971
20931
20972
21005
20932
20871
21003
20997
20854
20973
20984
20987
20988
20889
20759
20834
20971
20865
20894
20819
20812
20756
20713
20802
20717
20733
20786
20826
20763
20619
20684
20786
20654
20714
20618
20727
20696
20650
20753
20652
20500
20592
20651
20569
20547
20553
20571
20539
20505
20647
20498
20445
20454
20434
20557
20578
20568
20609
20495
20548
20579
20417
20501
20575
20494
20576
20456
20506
20649
20580
20454
20648
20709
20619
20490
20732
20581
20625
20677
20609
20776
20785
20756
20816
20737
20635
20752
20841
20798
20871
20777
20761
20744
20775
20762
20830
20847
20829
20946
20848
20706
20856
20957
20837
20913
20975
20977
20938
20890
21034
21058
21012
21058
21025
21064
20983
20994
20914
20844
20790
20843
20860
20760
20696
20691
20760
20608
20711
20817
20733
20653
20631
20745
20585
20697
20574
20634
20611
20540
20675
20558
20577
20622
20665
20625
20570
20641
20522
20613
20583
20603
20522
20653
20583
20620
20703
20546
20620
20585
20569
20560
20608
20568
20630
20631
20680
20763
20701
20576
20604
20608
20660
20670
20748
20714
20678
20738
20620
20624
20596
20624
20687
20666
20588
20657
20740
20582
20675
20783
20628
20628
20649
20708
20671
20625
20686
20675
20680
20668
20721
20665
20654
20697
20663
20718
20648
20726
20693
20756
20800
20763
20691
20726
20748
20873
20859
20866
20950
20840
20870
20824
20833
20951
20993
20846
20872
20899
20904
20912
21003
20969
20962
20965
21056
21034
20992
20971
21075
20968
20898
20981
21020
21010
21000
21030
21014
21023
20965
21057
21069
21102
21068
21093
21071
21016
21096
21221
21147
21107
21227
21243
21147
21198
21082
21131
21060
21179
21194
21140
21088
21041
21158
20996
20952
20872
20945
20834
20962
20864
20778
20800
20784
20831
20771
20830
20769
20896
20778
20797
20742
20809
20710
20703
20760
20738
20607
20666
20767
20647
20643
20700
20576
20652
20568
20742
20708
20596
20565
20755
20589
20593
20748
20600
20700
20761
20679
20629
20708
20727
20669
20800
20665
20775
20718
20806
20688
20896
20740
20803
20919
20839
20895
20835
20827
20835
20842
20943
21020
20923
20967
20915
20865
20996
20948
20883
20981
21059
20953
21045
21006
21039
20957
21000
21042
20923
21003
20947
20926
20952
21048
20958
21090
21004
21136
21119
21155
21041
20967
21030
21141
21052
21115
21120
21034
21128
21133
21063
21139
21177
21179
21238
21168
21048
21082
21148
21083
21187
21123
21124
21157
21161
21057
21152
21082
21121
21104
21114
21107
21101
21087
21065
21033
21071
21040
21003
21051
21144
21086
21097
21060
21100
21028
21112
21098
21013
21099
20898
21037
20939
20881
20888
21043
20922
20821
20894
20903
20769
20691
20664
20742
20593
20539
20673
20726
20632
20523
20543
20612
20446
20546
20591
20439
20309
20345
20323
20382
20256
20421
20364
20335
20308
20466
20335
20378
20360
20281
20370
20271
20366
20447
20424
20443
20473
20473
20351
20411
20419
20449
20482
20408
20544
20355
20322
20457
20349
20378
20457
20346
20494
20381
20298
20412
20283
20418
20456
20316
20346
20372
20495
20487
20345
20319
20501
20337
20506
20367
20453
20421
20541
20461
20553
20513
20559
20492
20597
20503
20493
20479
20498
20559
20532
20630
20640
20535
20644
20714
20637
20580
20693
20755
20714
20581
20689
20892
20840
20682
20759
20745
20841
20844
20889
20843
20700
20885
20880
20812
20908
20953
21041
20979
20889
21024
20873
20866
20977
21109
20972
20925
20997
21124
21135
21240
21186
21140
21081
21190
21189
21098
21118
21170
21135
21190
21077
21187
21095
21153
21099
21186
21088
21067
21019
21127
20970
20974
20982
20961
20971
20775
20919
20901
20789
20717
20741
20900
20782
20774
20865
20838
20758
20777
20771
20701
20713
20828
20729
20794
20667
20770
20730
20692
20766
20760
20778
20677
20741
20668
20781
20819
20727
20714
20755
20649
20772
20820
20734
20808
20789
20788
20807
20703
20785
20808
20798
20722
20790
20783
20807
20750
20665
20712
20854
20722
20900
20868
20743
20827
20767
20830
20824
20871
20773
20745
20894
20933
20930
20766
20904
20950
20867
20776
20862
20888
20874
20846
20959
20921
20936
20858
20957
20871
20886
20892
20868
20851
20914
20908
20887
20788
20940
20810
20918
20800
20917
20890
20926
21025
20953
20961
21013
21000
20987
20870
20928
21026
21018
20910
20938
20905
20958
20978
20952
21010
20876
20986
20909
20996
21086
20983
20955
21079
21020
20857
20910
20993
21043
20966
20933
20988
20925
20899
21024
20917
20829
20836
20988
20886
20721
20789
20696
20736
20716
20590
20547
20567
20457
20555
20510
20447
20526
20536
20330
20433
20385
20373
20320
20205
20326
20209
20156
20266
20304
20384
20267
20297
20222
20247
20178
20136
20325
20270
20174
20245
20110
20275
20197
20250
20221
20236
20238
20268
20291
20281
20269
20186
20238
20345
20285
20230
20281
20339
20287
20299
20255
20239
20280
20301
20381
20288
20453
20422
20337
20259
20348
20368
20238
20421
20424
20356
20244
20460
20477
20289
20422
20395
20374
20393
20444
20492
20447
20457
20463
20472
20393
20535
20398
20513
20446
20490
20419
20480
20528
20485
20502
20498
20481
20495
20586
20486
20610
20481
20483
20547
20644
20565
20592
20567
20592
20664
20630
20603
20611
20642
20667
20676
20672
20734
20606
20686
20613
20667
20691
20656
20743
20645
20677
20672
20708
20706
20690
20746
20760
20724
20798
20733
20798
20779
20801
20737
20717
20803
20699
20804
20633
20724
20598
20626
20580
20545
20428
20581
20402
20417
20325
20390
20256
20259
20393
20316
20319
20216
20263
20170
20138
20306
20170
20219
20118
20219
20194
20146
20127
20036
20153
20035
20165
20168
20074
20131
20133
20100
20231
20170
20146
20254
20216
20234
20188
20131
20283
20161
20220
20173
20126
20327
20288
20259
20293
20248
20287
20195
20325
20216
20348
20190
20351
20175
20202
20359
20348
20333
20264
20265
20218
20271
20176
20290
20268
20289
20364
20269
20273
20317
20343
20469
20427
20409
20439
20368
20472
20319
20492
20367
20545
20362
20498
20550
20607
20664
20666
20601
20483
20582
20669
20666
20647
20755
20816
20719
20814
20757
20637
20682
20670
20874
20941
20871
20776
20802
20869
20673
20772
20849
20852
20713
20893
20903
20759
20749
20821
20863
20873
20781
20716
20776
20739
20796
20895
20779
20655
20770
20686
20766
20722
20706
20755
20621
20523
20638
20681
20547
20507
20538
20514
20356
20362
20320
20268
20236
20235
20334
20264
20192
20280
20189
20035
20133
20211
20090
20059
20030
20089
20003
20028
20011
19961
20007
19889
19959
19978
19842
19864
19932
19857
19840
19908
19947
19848
19961
19983
19841
19922
19883
19954
19954
20013
19967
20039
19994
19825
20068
20067
20025
19984
20007
20057
20035
20031
20115
20041
20015
20050
20068
20055
19954
20070
20130
20090
20003
20118
20052
20035
20147
20086
20147
20124
20069
20045
20113
20102
20180
20222
20103
20148
20133
20309
20124
20073
20204
20307
20178
20342
20222
20302
20178
20341
20307
20355
20171
20229
20247
20411
20229
20426
20481
20270
20347
20465
20435
20474
20463
20396
20466
20329
20528
20633
20457
20582
20443
20568
20586
20468
20617
20535
20436
20533
20485
20541
20553
20636
20702
20633
20527
20681
20659
20523
20623
20580
20596
20652
20606
20580
20657
20534
20496
20438
20493
20370
20461
20305
20371
20399
20374
20267
20211
20174
20188
20055
20079
20064
19926
19899
20016
19934
19961
19900
19896
19928
19909
19799
19868
19799
19847
19761
19870
19871
19874
19715
19833
19774
19832
19849
19978
19830
19746
19818
19781
19851
19996
19860
19898
19972
20017
19905
19868
19879
19846
19880
19993
19836
19910
19933
20007
20032
20051
19997
20052
19977
20016
20103
19964
19956
20066
20027
19991
19988
19966
20043
19991
20091
20013
20101
20170
20089
20210
20094
20226
20179
20289
20065
20122
20171
20252
20199
20320
20162
20180
20162
20198
20152
20263
20257
20295
20192
20179
20173
20237
20255
20161
20234
20243
20265
20372
20314
20412
20369
20253
20306
20278
20316
20419
20537
20392
20266
20399
20418
20361
20416
20449
20564
20404
20414
20495
20464
20421
20423
20336
20392
20409
20493
20409
20364
20538
20457
20392
20495
20486
20440
20392
20286
20262
20302
20384
20211
20272
20173
20227
20261
20129
20119
20107
19983
20134
20046
19953
19988
20075
19918
19959
20010
19885
19952
19824
19927
19844
19828
19830
19854
19844
19815
19841
19891
19854
19722
19786
19725
19842
19816
19858
19737
19859
19752
19894
19740
19815
19801
19881
19765
19883
19886
19866
19841
19791
19782
19849
19791
19903
19930
20046
19981
20003
19891
19905
20048
19917
20050
20035
19940
20027
19933
19974
19937
19910
20075
19956
19906
19934
20020
19924
20008
19998
19988
20065
19989
19978
20048
19984
20046
20137
20077
20090
20034
20073
20157
20051
20089
20187
20153
20188
20227
20266
20195
20188
20196
20228
20311
20239
20362
20282
20359
20435
20302
20186
20388
20280
20400
20260
20314
20298
20456
20260
20428
20483
20314
20347
20408
20407
20395
20447
20486
20468
20356
20481
20568
20430
20429
20511
20461
20383
20492
20413
20489
20506
20426
20529
20477
20520
20410
20416
20377
20413
20343
20241
20363
20329
20243
20324
20087
20175
20309
20154
20128
20096
20024
20039
20069
20086
20096
20049
19936
19940
19920
19998
19964
20047
20007
20074
20099
19994
20045
20049
20113
20183
20132
20120
20174
20215
20126
20247
20351
20198
20327
20346
20427
20427
20342
20472
20345
20408
20600
20570
20578
20625
20672
20655
20573
20556
20654
20619
20770
20732
20789
20802
20786
20796
20843
20832
20861
20889
20814
20931
20915
20929
20896
20959
21019
21064
21126
20993
20951
21120
21062
20986
21095
21036
21139
21031
21161
21062
21164
21259
21275
21321
21236
21196
21258
21321
21314
21290
21307
21283
21209
21269
21419
21252
21243
21288
21255
21271
21406
21402
21313
21407
21371
21432
21310
21340
21423
21345
21382
21319
21285
21287
21426
21401
21348
21285
21379
21307
21484
21382
21287
21363
21294
21317
21371
21432
21340
21304
21181
21320
21291
21239
21234
21234
21241
21207
21136
21012
21019
21019
20980
20814
20900
20914
20749
20782
20640
20756
20654
20505
20432
20510
20448
20406
20409
20479
20373
20345
20205
20331
20302
20219
20101
20265
20179
20174
20119
20137
20116
20036
20131
19977
20038
20107
20146
20069
20125
20117
20044
20147
19978
20090
20023
20122
20111
20071
20059
20130
20123
20210
20184
20128
20151
20239
20169
20069
20092
20046
20097
20167
20186
20019
20041
20126
20064
20116
20050
20121
20228
20108
20045
20170
20218
20174
20098
20127
20140
20086
20265
20228
20296
20201
20184
20206
20335
20149
