33912
33824
33730
33625
33519
33417
33305
33182
33068
32963
32853
32733
32619
32511
32401
32293
32199
32116
32030
31939
31857
31779
31688
31588
31497
31411
31318
31224
31135
31043
30943
30844
30756
30670
30580
30490
30408
30319
30218
30125
30046
29969
29887
29811
29742
29664
29570
29479
29397
29308
29212
29120
29029
28925
28814
28714
28615
28504
28384
28270
28159
28042
27924
27821
27725
27620
27511
27411
27312
27202
27085
26976
26870
26762
26660
26573
26498
26426
26377
26367
26392
26455
26577
26771
27032
27349
27725
28153
28613
29101
29626
30179
30738
31301
31872
32437
32970
33470
33952
34407
34817
35185
35519
35816
36075
36307
36521
36712
36871
37012
37150
37282
37406
37539
37684
37827
37956
38083
38213
38331
38432
38526
38613
38682
38727
38758
38776
38768
38730
38679
38615
38524
38414
38305
38200
38085
37974
37886
37820
37759
37698
37647
37602
37550
37498
37459
37428
37394
37360
37331
37295
37248
37204
37169
37130
37080
37030
36986
36938
36880
36822
36767
36704
36628
36550
36469
36375
36272
36177
36085
35984
35873
35764
35657
35542
35426
35321
35223
35116
35005
34903
34799
34680
34549
34419
34285
34141
33996
33864
33742
33621
33507
33408
33310
33206
33106
33019
32936
32846
32760
32681
32596
32503
32413
32325
32223
32105
31988
31872
31744
31611
31490
31377
31258
31136
31027
30930
30833
30739
30659
30586
30500
30406
30318
30231
30136
30040
29950
29853
29740
29626
29519
29411
29296
29188
29092
28995
28887
28781
28683
28582
28473
28368
28271
28169
28059
27959
27870
27781
27687
27597
27508
27406
27295
27190
27088
26977
26865
26767
26676
26578
26484
26410
26352
26300
26272
26290
26356
26462
26621
26848
27131
27455
27823
28246
28707
29187
29688
30210
30732
31242
31750
32251
32726
33168
33589
33989
34351
34676
34980
35265
35519
35742
35951
36149
36323
36481
36637
36788
36919
37037
37159
37280
37387
37482
37581
37680
37769
37855
37948
38033
38096
38150
38200
38231
38233
38224
38207
38166
38101
38029
37955
37867
37769
37677
37592
37504
37412
37328
37254
37177
37102
37048
37009
36967
36921
36885
36856
36823
36791
36767
36738
36691
36633
36580
36527
36461
36388
36320
36250
36170
36089
36010
35920
35814
35710
35614
35512
35398
35282
35167
35049
34922
34794
34672
34541
34400
34264
34133
34003
33876
33767
33670
33570
33472
33384
33300
33203
33100
33006
32914
32812
32705
32604
32504
32394
32285
32185
32084
31975
31871
31777
31680
31573
31469
31377
31286
31187
31088
30996
30903
30802
30710
30633
30558
30481
30410
30341
30257
30158
30058
29954
29836
29713
29600
29492
29377
29260
29153
29051
28940
28823
28711
28602
28486
28375
28279
28185
28087
27998
27922
27843
27753
27660
27571
27470
27350
27224
27102
26971
26829
26691
26563
26437
26311
26198
26099
25998
25894
25801
25715
25624
25535
25466
25417
25378
25356
25374
25438
25542
25699
25926
26215
26548
26931
27367
27837
28325
28832
29360
29889
30400
30898
31384
31844
32267
32664
33040
33377
33674
33946
34207
34448
34665
34867
35059
35234
35392
35548
35697
35822
35931
36040
36146
36235
36314
36398
36476
36532
36577
36623
36663
36686
36698
36710
36711
36691
36663
36632
36585
36516
36441
36369
36290
36204
36122
36049
35976
35902
35839
35789
35739
35688
35652
35629
35606
35580
35560
35543
35517
35486
35461
35435
35392
35338
35284
35225
35155
35087
35028
34967
34887
34798
34713
34623
34515
34400
34284
34157
34012
33864
33727
33593
33458
33333
33224
33117
33002
32892
32791
32680
32559
32444
32339
32228
32110
31999
31894
31781
31666
31562
31466
31365
31266
31180
31101
31015
30930
30857
30790
30709
30619
30533
30448
30356
30270
30192
30109
30014
29921
29835
29745
29640
29534
29436
29339
29235
29136
29049
28961
28869
28781
28700
28615
28524
28440
28356
28259
28153
28054
27961
27861
27757
27661
27567
27460
27343
27231
27118
26998
26881
26781
26687
26585
26482
26387
26293
26194
26101
26021
25941
25858
25788
25745
25727
25734
25787
25897
26057
26264
26528
26849
27212
27607
28039
28497
28960
29424
29895
30358
30790
31196
31589
31959
32292
32591
32873
33133
33357
33555
33744
33919
34066
34194
34313
34412
34484
34540
34595
34637
34656
34666
34680
34687
34683
34681
34685
34679
34655
34627
34597
34550
34482
34406
34322
34223
34116
34017
33922
33816
33707
33614
33533
33451
33373
33314
33270
33229
33197
33183
33178
33170
33164
33165
33162
33151
33141
33138
33127
33096
33052
33001
32936
32857
32777
32702
32614
32512
32416
32328
32231
32125
32023
31924
31810
31688
31573
31460
31337
31206
31077
30952
30821
30693
30579
30471
30352
30232
30127
30028
29923
29821
29730
29635
29525
29412
29306
29200
29091
28989
28896
28801
28703
28613
28534
28454
28367
28283
28204
28117
28023
27938
27863
27782
27693
27609
27531
27444
27357
27280
27206
27117
27016
26921
26828
26725
26621
26531
26443
26344
26245
26158
26073
25975
25874
25778
25681
25576
25472
25376
25272
25157
25046
24948
24851
24754
24676
24634
24625
24655
24745
24897
25100
25352
25662
26024
26418
26843
27309
27804
28303
28803
29309
29803
30268
30708
31131
31527
31883
32204
32502
32767
32989
33183
33366
33531
33669
33800
33933
34057
34164
34265
34360
34444
34518
34595
34676
34744
34795
34844
34892
34927
34948
34967
34980
34968
34931
34883
34826
34746
34651
34556
34458
34345
34231
34133
34046
33953
33864
33795
33731
33662
33607
33580
33563
33540
33518
33504
33481
33441
33399
33361
33317
33265
33218
33178
33128
33064
33001
32939
32864
32778
32696
32615
32518
32411
32309
32205
32083
31950
31821
31693
31558
31425
31311
31204
31088
30969
30860
30760
30655
30555
30467
30376
30273
30170
30073
29970
29852
29737
29636
29534
29425
29322
29227
29127
29022
28923
28828
28722
28611
28515
28433
28345
28256
28179
28105
28019
27923
27828
27733
27632
27532
27445
27365
27276
27184
27101
27019
26928
26837
26759
26678
26579
26475
26378
26278
26166
26057
25957
25853
25742
25634
25532
25425
25312
25206
25108
25004
24898
24800
24709
24610
24507
24418
24334
24238
24137
24056
23988
23919
23857
23823
23817
23837
23898
24022
24210
24451
24755
25129
25557
26019
26521
27065
27623
28175
28729
29287
29826
30338
30828
31296
31722
32107
32465
32799
33093
33348
33582
33797
33982
34147
34309
34463
34599
34724
34856
34985
35096
35200
35315
35429
35525
35609
35688
35755
35804
35845
35884
35910
35913
35899
35878
35839
35775
35701
35631
35552
35458
35365
35276
35176
35068
34971
34886
34798
34709
34633
34570
34509
34453
34413
34381
34340
34298
34270
34249
34220
34184
34150
34111
34056
33993
33932
33864
33785
33705
33629
33540
33431
33319
33214
33102
32977
32850
32730
32610
32483
32362
32248
32127
31993
31861
31735
31605
31472
31348
31237
31120
31000
30889
30781
30659
30532
30419
30316
30206
30094
29994
29898
29794
29687
29588
29488
29375
29258
29149
29042
28933
28836
28756
28675
28584
28495
28417
28337
28248
28162
28079
27982
27868
27753
27643
27522
27388
27261
27146
27031
26919
26823
26739
26649
26558
26477
26400
26311
26215
26123
26032
25930
25826
25733
25639
25529
25416
25312
25210
25099
24991
24896
24800
24695
24591
24490
24380
24257
24140
24039
23939
23835
23745
23676
23613
23559
23539
23568
23648
23787
24003
24291
24629
25017
25464
25956
26470
27001
27555
28114
28653
29174
29682
30162
30601
31006
31389
31738
32047
32330
32595
32832
33034
33218
33397
33561
33699
33821
33934
34025
34090
34153
34223
34287
34346
34414
34490
34559
34619
34678
34730
34760
34771
34775
34771
34746
34705
34661
34612
34542
34462
34390
34315
34225
34134
34055
33981
33901
33828
33771
33717
33655
33599
33555
33508
33448
33394
33350
33306
33257
33214
33175
33128
33074
33030
32989
32931
32856
32783
32711
32623
32523
32425
32319
32190
32047
31914
31791
31662
31530
31407
31287
31162
31040
30929
30820
30705
30592
30489
30382
30264
30150
30046
29938
29815
29693
29580
29467
29353
29245
29144
29039
28931
28833
28743
28642
28530
28429
28336
28232
28125
28034
27955
27865
27771
27691
27614
27521
27417
27314
27212
27103
26991
26887
26783
26670
26560
26467
26380
26289
26208
26142
26071
25988
25903
25820
25727
25622
25524
25436
25341
25235
25133
25034
24927
24813
24710
24617
24515
24402
24297
24196
24088
23975
23872
23774
23666
23556
23461
23373
23275
23168
23066
22965
22858
22767
22710
22690
22712
22800
22970
23213
23516
23886
24317
24780
25256
25751
26264
26774
27275
27776
28266
28721
29139
29535
29911
30254
30563
30850
31112
31337
31536
31723
31892
32028
32136
32232
32311
32366
32409
32457
32498
32521
32539
32563
32581
32585
32594
32621
32644
32646
32644
32646
32640
32616
32584
32548
32495
32424
32348
32272
32184
32091
32010
31942
31874
31806
31757
31729
31706
31688
31687
31695
31696
31696
31704
31714
31710
31700
31693
31678
31639
31588
31541
31487
31416
31340
31272
31199
31112
31027
30952
30868
30765
30660
30559
30450
30328
30206
30087
29956
29813
29676
29549
29414
29272
29144
29028
28910
28793
28691
28601
28503
28400
28301
28199
28085
27975
27883
27797
27702
27610
27534
27463
27383
27304
27235
27165
27082
26993
26910
26824
26733
26652
26585
26516
26440
26367
26299
26221
26134
26051
25971
25879
25781
25693
25608
25510
25408
25318
25230
25130
25027
24936
24846
24741
24635
24540
24439
24318
24195
24087
23982
23870
23766
23674
23580
23479
23384
23307
23248
23208
23205
23254
23354
23511
23744
24049
24409
24819
25277
25767
26260
26753
27253
27750
28225
28678
29119
29536
29910
30251
30577
30877
31132
31352
31556
31736
31882
32006
32125
32228
32307
32376
32444
32501
32542
32580
32624
32661
32684
32711
32744
32762
32758
32749
32739
32714
32668
32616
32557
32476
32375
32274
32177
32074
31973
31889
31816
31736
31659
31597
31546
31494
31446
31415
31395
31373
31349
31335
31320
31298
31278
31270
31257
31228
31196
31169
31135
31081
31019
30957
30882
30793
30703
30618
30523
30413
30301
30191
30070
29941
29815
29689
29552
29410
29278
29148
29008
28866
28737
28618
28495
28372
28265
28166
28058
27947
27845
27746
27636
27524
27420
27315
27200
27089
26991
26895
26794
26701
26623
26541
26450
26367
26294
26219
26136
26053
25972
25882
25784
25694
25614
25530
25442
25367
25296
25212
25120
25040
24968
24888
24803
24726
24645
24545
24434
24329
24224
24114
24007
23910
23806
23690
23578
23481
23384
23281
23183
23094
22998
22893
22794
22703
22604
22492
22383
22283
22179
22070
21977
21899
21827
21772
21760
21796
21878
22024
22256
22568
22938
23365
23854
24385
24930
25482
26044
26602
27139
27662
28175
28661
29107
29522
29913
30267
30573
30846
31096
31316
31505
31683
31852
31996
32116
32228
32336
32428
32510
32598
32685
32754
32812
32879
32951
33012
33068
33131
33188
33223
33242
33257
33258
33230
33186
33141
33085
33004
32912
32828
32743
32650
32566
32503
32447
32385
32329
32285
32239
32188
32147
32120
32094
32063
32038
32020
31996
31964
31938
31916
31881
31835
31790
31739
31669
31591
31523
31458
31373
31276
31183
31089
30978
30860
30748
30629
30490
30348
30214
30077
29929
29786
29659
29538
29411
29289
29182
29076
28963
28851
28740
28617
28483
28357
28246
28134
28014
27905
27808
27707
27606
27519
27439
27347
27248
27156
27068
26972
26876
26793
26714
26621
26525
26441
26359
26264
26167
26079
25991
25890
25790
25705
25622
25528
25432
25342
25247
25143
25046
24960
24868
24770
24679
24601
24513
24412
24316
24226
24123
24011
23910
23816
23714
23607
23514
23428
23334
23236
23147
23054
22942
22825
22720
22613
22491
22368
22259
22156
22043
21929
21828
21726
21616
21513
21429
21354
21287
21259
21288
21370
21511
21733
22041
22414
22839
23320
23847
24391
24939
25499
26062
26606
27129
27643
28137
28590
29005
29396
29757
30073
30354
30617
30850
31043
31206
31358
31496
31615
31722
31826
31919
31993
32065
32147
32226
32290
32349
32413
32469
32516
32566
32623
32669
32698
32719
32733
32723
32692
32658
32617
32552
32472
32397
32325
32242
32158
32086
32021
31953
31889
31845
31809
31771
31738
31716
31692
31656
31623
31605
31586
31549
31506
31470
31435
31392
31346
31303
31252
31187
31123
31061
30986
30897
30809
30723
30623
30506
30390
30278
30159
30033
29915
29799
29671
29538
29414
29292
29159
29024
28902
28783
28652
28518
28393
28270
28134
27999
27882
27770
27651
27537
27436
27339
27237
27142
27057
26966
26865
26771
26687
26596
26496
26397
26302
26201
26095
26000
25916
25825
25727
25634
25544
25445
25339
25244
25153
25052
24947
24850
24752
24640
24522
24413
24307
24192
24081
23986
23895
23798
23707
23633
23560
23472
23382
23299
23210
23107
23007
22914
22809
22690
22572
22459
22340
22215
22097
21985
21865
21742
21636
21540
21438
21336
21252
21175
21083
20986
20899
20811
20707
20598
20498
20398
20288
20179
20086
19995
19900
19822
19782
19777
19810
19904
20075
20319
20635
21034
21508
22026
22571
23151
23749
24334
24894
25435
25954
26433
26875
27294
27684
28030
28338
28624
28886
29111
29304
29478
29627
29735
29816
29891
29958
30008
30056
30118
30179
30230
30281
30344
30405
30454
30499
30549
30593
30617
30630
30636
30624
30595
30563
30532
30486
30422
30357
30291
30211
30122
30039
29958
29871
29790
29729
29684
29641
29607
29594
29590
29581
29573
29576
29578
29569
29561
29562
29560
29542
29518
29497
29463
29406
29343
29283
29210
29115
29018
28928
28831
28719
28608
28503
28392
28276
28168
28070
27968
27859
27759
27664
27555
27437
27329
27223
27108
26994
26893
26791
26676
26562
26469
26387
26296
26199
26110
26017
25911
25808
25721
25638
25547
25457
25376
25291
25197
25112
25041
24968
24889
24817
24754
24683
24600
24521
24448
24363
24266
24175
24090
23996
23897
23812
23735
23654
23575
23508
23443
23361
23274
23198
23125
23039
22946
22857
22764
22660
22558
22463
22364
22249
22134
22031
21929
21815
21703
21600
21493
21376
21259
21149
21039
20927
20827
20737
20641
20539
20451
20370
20279
20185
20107
20047
19999
19981
20018
20115
20266
20485
20789
21163
21583
22045
22545
23063
23583
24100
24612
25096
25543
25965
26370
26741
27062
27350
27618
27857
28061
28243
28409
28546
28653
28743
28819
28871
28904
28940
28974
28986
28977
28974
28979
28977
28970
28970
28964
28934
28893
28858
28819
28763
28696
28629
28554
28464
28369
28283
28194
28097
28010
27943
27884
27828
27787
27767
27749
27725
27711
27709
27709
27710
27722
27740
27749
27748
27749
27748
27730
27699
27674
27649
27608
27555
27505
27452
27380
27298
27218
27129
27021
26910
26812
26717
26608
26497
26397
26292
26171
26046
25932
25815
25688
25564
25450
25334
25214
25103
25006
24908
24802
24695
24593
24483
24367
24259
24157
24047
23935
23835
23741
23637
23531
23444
23369
23289
23211
23145
23076
22989
22899
22822
22750
22673
22594
22520
22441
22353
22268
22196
22123
22035
21946
21863
21776
21682
21598
21529
21458
21380
21306
21235
21151
21052
20960
20875
20779
20674
20577
20489
20391
20289
20197
20111
20015
19915
19822
19730
19627
19523
19430
19342
19243
19142
19056
18976
18890
18809
18745
18688
18639
18623
18659
18746
18887
19105
19408
19782
20218
20718
21274
21852
22431
23017
23601
24153
24668
25156
25613
26024
26396
26743
27062
27339
27585
27819
28034
28214
28371
28517
28641
28737
28823
28913
28998
29067
29135
29210
29281
29342
29405
29478
29542
29589
29634
29682
29712
29720
29720
29715
29689
29643
29595
29551
29494
29424
29361
29303
29237
29168
29113
29068
29019
28971
28942
28923
28897
28873
28864
28864
28856
28848
28849
28849
28836
28817
28799
28771
28725
28683
28656
28626
28579
28525
28468
28398
28311
28223
28140
28049
27951
27859
27773
27674
27567
27470
27379
27278
27168
27062
26962
26854
26744
26645
26550
26446
26345
26258
26173
26072
25963
25863
25765
25661
25560
25468
25378
25280
25183
25102
25025
24944
24868
24804
24735
24658
24588
24529
24462
24384
24306
24231
24147
24054
23968
23890
23808
23725
23657
23602
23535
23456
23384
23315
23232
23144
23069
22998
22914
22826
22747
22669
22582
22495
22417
22335
22237
22139
22055
21968
21867
21766
21676
21585
21486
21392
21303
21207
21104
21012
20933
20847
20752
20668
20590
20502
20406
20321
20244
20157
20064
19987
19919
19847
19791
19777
19803
19865
19982
20176
20441
20764
21156
21623
22138
22674
23226
23792
24346
24869
25371
25856
26309
26721
27111
27486
27829
28135
28416
28677
28907
29106
29290
29463
29613
29742
29864
29977
30075
30171
30281
30393
30491
30580
30678
30774
30852
30919
30986
31050
31099
31142
31187
31220
31232
31231
31224
31198
31146
31087
31033
30975
30909
30850
30806
30759
30709
30672
30650
30626
30598
30579
30571
30556
30536
30528
30527
30516
30499
30490
30481
30456
30423
30397
30369
30324
30267
30217
30166
30101
30033
29975
29914
29837
29756
29684
29608
29520
29430
29346
29254
29145
29040
28949
28855
28752
28658
28578
28492
28398
28312
28235
28149
28055
27967
27883
27788
27688
27599
27519
27428
27332
27247
27167
27077
26986
26907
26828
26733
26638
26562
26496
26423
26346
26274
26194
26101
26011
25937
25863
25775
25689
25614
25533
25443
25358
25280
25193
25094
25003
24924
24840
24745
24660
24586
24502
24411
24328
24248
24154
24056
23976
23906
23826
23740
23660
23581
23491
23399
23316
23233
23135
23028
22930
22832
22724
22615
22516
22417
22309
22209
22127
22051
21969
21891
21818
21734
21638
21550
21470
21381
21283
21193
21115
21042
20982
20956
20970
21024
21136
21332
21606
21941
22338
22802
23310
23831
24359
24893
25415
25905
26371
26824
27249
27635
27997
28342
28660
28943
29209
29461
29682
29868
30040
30202
30342
30459
30572
30692
30803
30899
30995
31093
31180
31256
31336
31416
31482
31539
31605
31673
31722
31755
31785
31802
31792
31765
31738
31700
31638
31566
31505
31451
31395
31346
31316
31293
31265
31245
31240
31236
31228
31226
31233
31234
31226
31225
31234
31234
31221
31211
31208
31197
31178
31167
31161
31138
31099
31061
31022
30967
30900
30833
30758
30666
30570
30488
30408
30315
30219
30134
30057
29972
29887
29813
29733
29633
29533
29446
29360
29264
29170
29083
28991
28893
28802
28719
28632
28545
28470
28405
28337
28266
28204
28145
28075
27997
27930
27870
27799
27723
27659
27599
27523
27439
27359
27281
27195
27110
27038
26971
26897
26820
26754
26688
26612
26542
26485
26425
26357
26299
26256
26206
26142
26075
26010
25932
25840
25755
25678
25592
25499
25416
25334
25242
25142
25050
24963
24867
24770
24682
24596
24499
24401
24319
24246
24165
24080
24006
23930
23839
23747
23660
23566
23463
23373
23312
23270
23247
23268
23350
23488
23678
23933
24256
24627
25028
25463
25926
26393
26855
27320
27779
28210
28615
29008
29382
29718
30019
30304
30567
30797
31004
31200
31373
31510
31625
31738
31843
31924
31992
32059
32113
32144
32170
32206
32240
32261
32282
32307
32323
32319
32310
32300
32275
32236
32198
32158
32102
32031
31961
31895
31824
31751
31694
31652
31606
31565
31543
31534
31526
31521
31532
31548
31554
31558
31573
31589
31589
31581
31581
31581
31565
31544
31524
31493
31444
31394
31351
31302
31240
31181
31129
31070
30996
30918
30838
30742
30637
30541
30450
30346
30234
30130
30027
29907
29780
29669
29571
29465
29355
29258
29169
29073
28976
28889
28799
28691
28578
28479
28388
28292
28202
28127
28057
27978
27899
27828
27754
27673
27600
27537
27469
27392
27323
27268
27211
27146
27082
27019
26941
26854
26780
26714
26645
26575
26516
26460
26388
26304
26228
26151
26056
25960
25879
25800
25707
25615
25537
25458
25366
25276
25197
25115
25023
24933
24855
24775
24686
24597
24514
24427
24331
24237
24149
24055
23954
23867
23799
23740
23696
23689
23730
23813
23951
24167
24457
24802
25195
25645
26133
26632
27138
27657
28173
28666
29136
29594
30027
30422
30791
31146
31473
31759
32020
32269
32493
32682
32856
33025
33175
33306
33432
33558
33668
33758
33846
33936
34012
34078
34150
34230
34299
34354
34410
34468
34508
34530
34549
34558
34534
34485
34436
34380
34305
34222
34149
34080
34005
33937
33890
33850
33813
33794
33799
33808
33812
33820
33838
33852
33852
33849
33847
33836
33815
33799
33790
33770
33733
33695
33655
33603
33544
33496
33451
33389
33318
33254
33191
33108
33011
32922
32838
32742
32635
32531
32426
32307
32186
32077
31969
31850
31736
31638
31540
31432
31325
31230
31133
31028
30926
30833
30737
30635
30539
30449
30353
30255
30170
30100
30027
29952
29890
29836
29769
29690
29617
29547
29461
29359
29262
29169
29069
28972
28893
28823
28748
28674
28616
28562
28491
28414
28345
28272
28180
28087
28006
27922
27823
27722
27635
27551
27462
27385
27320
27251
27174
27098
27018
26922
26811
26708
26614
26512
26407
26314
26226
26127
26026
25936
25849
25749
25644
25550
25456
25352
25254
25175
25100
25009
24909
24816
24723
24622
24533
24473
24440
24438
24492
24618
24810
25064
25396
25804
26260
26747
27271
27825
28384
28933
29478
30013
30518
30991
31445
31877
32269
32628
32970
33285
33562
33812
34054
34284
34491
34683
34877
35065
35234
35393
35553
35705
35838
35963
36094
36216
36321
36421
36528
36622
36697
36772
36851
36911
36943
36965
36983
36985
36972
36949
36912
36847
36761
36676
36597
36511
36427
36365
36319
36269
36220
36189
36164
36127
36088
36064
36046
36020
35995
35983
35972
35949
35924
35906
35882
35842
35799
35762
35712
35648
35587
35533
35472
35396
35318
35241
35148
35038
34928
34816
34685
34543
34405
34272
34131
33984
33846
33715
33577
33440
33319
33209
33090
32967
32855
32747
32629
32514
32415
32317
32203
32090
31995
31903
31798
31692
31598
31506
31408
31313
31227
31135
31033
30936
30846
30750
30648
30554
30469
30375
30275
30184
30096
29994
29887
29795
29715
29624
29521
29423
29325
29215
29100
28995
28893
28781
28667
28566
28475
28383
28294
28214
28135
28046
27961
27885
27805
27711
27618
27532
27438
27332
27227
27127
27015
26889
26766
26652
26529
26399
26280
26175
26067
25954
25852
25756
25651
25547
25460
25378
25283
25185
25098
25013
24919
24833
24780
24769
24797
24887
25059
25308
25619
25996
26439
26921
27420
27942
28483
29022
29548
30070
30584
31070
31520
31951
32362
32733
33066
33379
33672
33936
34178
34411
34629
34816
34980
35141
35299
35440
35560
35671
35768
35846
35920
36001
36078
36143
36209
36283
36348
36390
36422
36453
36471
36462
36446
36431
36403
36353
36299
36241
36166
36077
35992
35917
35840
35760
35689
35629
35568
35510
35472
35451
35428
35404
35390
35382
35370
35357
35349
35338
35311
35278
35252
35220
35166
35101
35042
34978
34893
34802
34718
34623
34510
34393
34286
34180
34069
33968
33883
33794
33697
33606
33523
33425
33308
33192
33082
32959
32826
32704
32590
32468
32341
32223
32111
31988
31861
31748
31645
31539
31439
31359
31287
31205
31124
31055
30987
30913
30843
30787
30726
30649
30574
30511
30446
30363
30274
30188
30094
29987
29885
29796
29709
29618
29536
29464
29388
29305
29231
29165
29091
29010
28935
28862
28773
28677
28590
28502
28394
28274
28160
28047
27926
27806
27698
27590
27469
27353
27255
27162
27060
26963
26878
26791
26694
26599
26510
26409
26292
26179
26082
25994
25917
25878
25890
25943
26048
26227
26482
26793
27163
27599
28083
28578
29081
29598
30114
30605
31075
31534
31967
32361
32724
33069
33383
33652
33889
34115
34319
34493
34650
34804
34938
35042
35135
35228
35304
35359
35406
35453
35487
35503
35520
35548
35569
35571
35566
35555
35525
35476
35425
35371
35301
35221
35149
35076
34988
34895
34813
34735
34651
34570
34505
34446
34380
34323
34290
34266
34238
34221
34227
34242
34249
34258
34279
34295
34300
34304
34309
34294
34252
34197
34137
34057
33957
33855
33750
33628
33496
33377
33271
33156
33031
32910
32785
32648
32512
32393
32282
32163
32046
31939
31830
31706
31581
31466
31350
31221
31094
30980
30869
30753
30645
30550
30451
30345
30253
30181
30109
30035
29977
29931
29873
29801
29727
29653
29566
29470
29387
29310
29223
29131
29053
28983
28903
28818
28743
28668
28577
28482
28399
28321
28237
28153
28082
28009
27921
27831
27753
27676
27584
27491
27409
27329
27242
27158
27084
27004
26912
26820
26732
26632
26518
26410
26313
26211
26100
25992
25887
25769
25645
25534
25433
25325
25216
25121
25032
24939
24856
24798
24761
24741
24755
24829
24964
25161
25435
25791
26207
26667
27179
27737
28311
28876
29440
30005
30551
31069
31574
32065
32525
32946
33337
33697
34016
34298
34555
34789
34989
35165
35339
35509
35659
35794
35932
36067
36182
36284
36386
36483
36561
36633
36712
36788
36845
36890
36939
36984
37015
37040
37066
37074
37055
37023
36988
36935
36864
36796
36737
36668
36586
36509
36443
36373
36296
36226
36167
36110
36054
36015
35986
35950
35910
35881
35859
35831
35806
35796
35785
35756
35715
35679
35641
35589
35528
35472
35410
35325
35225
35126
35018
34891
34760
34639
34516
34381
34251
34135
34021
33904
33799
33708
33615
33513
33415
33321
33214
33095
32982
32872
32755
32636
32531
32434
32325
32211
32108
32011
31904
31799
31708
31621
31524
31424
31333
31242
31143
31048
30965
30879
30780
30681
30589
30492
30385
30281
30184
30083
29973
29871
29784
29691
29584
29481
29386
29287
29185
29095
29013
28927
28837
28759
28689
28610
28524
28441
28353
28248
28134
28028
27927
27818
27708
27610
27511
27396
27278
27176
27072
26952
26831
26719
26611
26499
26397
26308
26217
26122
26036
25960
25877
25783
25695
25612
25517
25417
25335
25273
25220
25189
25213
25308
25472
25713
26048
26461
26923
27427
27979
28565
29155
29739
30325
30900
31448
31972
32475
32943
33369
33767
34147
34490
34785
35047
35285
35495
35676
35845
36005
36143
36259
36370
36479
36578
36668
36759
36847
36917
36977
37046
37115
37166
37203
37243
37285
37310
37322
37332
37330
37295
37233
37168
37097
37009
36915
36832
36750
36661
36577
36511
36448
36378
36315
36270
36226
36173
36124
36090
36057
36016
35979
35950
35917
35879
35848
35823
35783
35731
35684
35635
35567
35490
35420
35349
35260
35159
35061
34959
34839
34711
34592
34472
34340
34204
34078
33952
33818
33689
33579
33472
33357
33241
33135
33023
32901
32784
32678
32567
32446
32331
32225
32117
32003
31891
31781
31661
31536
31425
31329
31227
31123
31034
30952
30860
30767
30687
30613
30523
30428
30347
30269
30178
30082
29997
29914
29815
29711
29612
29512
29404
29304
29220
29137
29044
28954
28873
28784
28679
28572
28472
28365
28253
28152
28065
27975
27880
27793
27710
27617
27517
27422
27328
27214
27091
26978
26868
26747
26625
26520
26421
26314
26212
26126
26042
25946
25844
25749
25652
25544
25436
25345
25261
25174
25100
25050
25015
25004
25049
25168
25354
25608
25942
26353
26819
27325
27872
28447
29023
29589
30153
30709
31232
31722
32187
32622
33014
33367
33696
33991
34238
34453
34654
34833
34977
35099
35210
35304
35371
35429
35488
35535
35561
35582
35611
35639
35659
35684
35719
35751
35771
35783
35787
35769
35726
35678
35625
35553
35466
35382
35301
35207
35103
35014
34940
34863
34790
34736
34694
34651
34617
34602
34600
34596
34594
34604
34613
34611
34608
34609
34601
34577
34548
34523
34491
34444
34396
34351
34293
34218
34145
34076
33996
33899
33802
33701
33580
33445
33317
33198
33072
32939
32812
32685
32545
32402
32272
32149
32013
31869
31733
31606
31479
31359
31256
31160
31053
30946
30846
30738
30617
30501
30400
30295
30180
30072
29984
29903
29821
29748
29689
29628
29557
29488
29422
29345
29257
29175
29099
29017
28931
28854
28778
28687
28587
28495
28404
28300
28194
28103
28018
27924
27829
27745
27661
27563
27461
27366
27264
27148
27033
26931
26832
26727
26626
26538
26446
26340
26231
26128
26019
25903
25797
25708
25626
25564
25551
25594
25686
25840
26080
26401
26776
27204
27696
28230
28772
29318
29875
30424
30943
31436
31909
32349
32745
33107
33443
33743
33998
34224
34434
34615
34755
34877
34992
35088
35157
35220
35284
35336
35372
35407
35444
35472
35491
35514
35539
35548
35540
35533
35524
35495
35446
35393
35331
35246
35147
35054
34961
34858
34759
34676
34600
34521
34454
34407
34367
34324
34292
34277
34265
34244
34225
34221
34221
34211
34202
34195
34172
34132
34095
34061
34016
33964
33919
33876
33816
33746
33680
33612
33527
33427
33329
33230
33114
32989
32870
32750
32620
32491
32372
32250
32116
31982
31863
31742
31608
31476
31356
31241
31124
31016
30921
30820
30705
30595
30495
30390
30274
30159
30054
29947
29834
29730
29637
29542
29445
29358
29280
29196
29108
29034
28965
28882
28792
28711
28633
28544
28452
28374
28300
28214
28121
28039
27959
27867
27771
27682
27588
27481
27377
27289
27200
27101
27007
26925
26838
26739
26643
26557
26462
26357
26258
26169
26073
25969
25873
25784
25690
25592
25504
25421
25325
25218
25124
25044
24974
24939
24965
25054
25199
25420
25737
26138
26598
27109
27671
28257
28836
29409
29982
30536
31060
31564
32052
32506
32915
33296
33656
33979
34264
34530
34785
35016
35218
35407
35585
35736
35861
35981
36096
36190
36271
36359
36451
36530
36604
36687
36769
36835
36891
36952
37006
37039
37060
37073
37067
37035
36989
36940
36875
36787
36696
36618
36537
36448
36369
36306
36248
36191
36147
36118
36091
36063
36049
36046
36036
36017
36001
35984
35952
35912
35883
35856
35815
35765
35720
35671
35602
35518
35438
35356
35260
35163
35077
34991
34890
34788
34696
34597
34479
34359
34250
34137
34010
33884
33768
33652
33533
33421
33320
33212
33098
32993
32900
32800
32694
32598
32511
32411
32300
32196
32101
31996
31882
31782
31694
31601
31507
31425
31346
31254
31161
31080
31000
30907
30808
30719
30629
30526
30425
30340
30258
30170
30090
30021
29944
29853
29768
29691
29602
29500
29411
29339
29259
29170
29087
29007
28911
28801
28699
28604
28499
28387
28289
28202
28108
28009
27917
27825
27719
27608
27511
27422
27323
27220
27128
27038
26937
26834
26739
26638
26530
26438
26379
26345
26340
26392
26518
26714
26981
27334
27767
28251
28770
29322
29891
30453
31000
31546
32086
32598
33081
33544
33983
34377
34734
35074
35392
35671
35917
36155
36376
36565
36730
36884
37021
37130
37225
37320
37404
37472
37542
37627
37707
37768
37821
37870
37898
37900
37901
37908
37907
37890
37868
37844
37812
37772
37730
37682
37613
37533
37465
37408
37343
37278
37229
37190
37147
37104
37073
37048
37018
36991
36977
36966
36940
36910
36891
36871
36838
36803
36775
36738
36683
36623
36563
36492
36412
36342
36284
36219
36136
36049
35963
35861
35747
35637
35530
35412
35284
35164
35052
34932
34807
34691
34581
34456
34322
34198
34076
33943
33810
33689
33575
33454
33336
33235
33135
33025
32918
32825
32731
32625
32527
32445
32362
32268
32173
32085
31991
31890
31800
31721
31635
31539
31452
31377
31298
31216
31144
31078
30999
30914
30843
30777
30692
30596
30511
30427
30325
30214
30109
30003
29888
29778
29684
29589
29475
29359
29264
29180
29090
29001
28919
28830
28728
28627
28529
28419
28298
28185
28092
27998
27894
27794
27703
27603
27495
27396
27304
27202
27097
27015
26956
26909
26891
26935
27046
27214
27447
27760
28137
28557
29017
29514
30029
30542
31055
31578
32096
32591
33070
33539
33977
34374
34741
35087
35399
35669
35913
36140
36333
36489
36632
36770
36886
36979
37068
37154
37221
37276
37340
37405
37451
37485
37526
37563
37580
37585
37593
37596
37572
37533
37494
37444
37371
37290
37221
37154
37074
36999
36943
36889
36826
36774
36746
36723
36690
36666
36658
36650
36632
36620
36619
36614
36600
36588
36577
36550
36511
36479
36451
36405
36346
36296
36252
36188
36108
36028
35942
35837
35722
35616
35508
35389
35272
35169
35069
34956
34842
34739
34633
34513
34391
34277
34156
34021
33888
33762
33632
33495
33371
33265
33161
33055
32959
32874
32780
32672
32568
32472
32366
32257
32165
32083
31990
31891
31804
31720
31623
31520
31429
31340
31240
31140
31058
30981
30900
30829
30774
30715
30636
30554
30484
30412
30325
30233
30146
30052
29946
29846
29758
29662
29554
29451
29353
29246
29129
29023
28930
28834
28729
28632
28539
28432
28314
28203
28103
28003
27918
27871
27865
27897
27982
28140
28371
28659
29009
29423
29876
30344
30830
31339
31853
32354
32848
33336
33798
34222
34621
34997
35336
35634
35905
36155
36372
36554
36724
36889
37032
37156
37274
37386
37474
37542
37610
37676
37724
37759
37799
37842
37871
37887
37901
37906
37887
37854
37820
37770
37690
37595
37498
37389
37267
37156
37068
36987
36902
36826
36770
36716
36658
36609
36577
36545
36513
36494
36488
36468
36431
36399
36370
36324
36268
36222
36184
36133
36073
36019
35962
35887
35804
35733
35659
35566
35464
35368
35270
35155
35034
34919
34799
34664
34531
34414
34300
34178
34064
33963
33854
33730
33612
33508
33397
33269
33145
33031
32910
32777
32648
32526
32400
32272
32161
32060
31949
31837
31744
31663
31565
31456
31365
31285
31195
31102
31022
30941
30843
30744
30662
30584
30494
30405
30326
30244
30147
30051
29966
29874
29765
29659
29567
29473
29369
29273
29190
29103
29005
28910
28825
28736
28639
28550
28462
28358
28242
28137
28038
27924
27800
27684
27571
27445
27313
27194
27081
26960
26843
26750
26675
26610
26579
26608
26694
26830
27041
27342
27711
28131
28612
29149
29706
30262
30820
31382
31929
32449
32959
33457
33923
34355
34770
35159
35503
35809
36099
36370
36599
36791
36974
37146
37286
37403
37519
37625
37706
37773
37846
37918
37977
38037
38106
38169
38214
38255
38303
38342
38354
38349
38340
38318
38273
38220
38165
38100
38024
37950
37878
37792
37691
37598
37522
37449
37379
37322
37273
37215
37160
37129
37113
37090
37066
37057
37046
37014
36972
36937
36898
36840
36776
36723
36668
36593
36510
36433
36347
36240
36129
36030
35929
35816
35709
35615
35510
35389
35275
35169
35052
34922
34798
34684
34556
34414
34282
34156
34015
33865
33729
33605
33476
33343
33222
33107
32979
32850
32738
32632
32518
32406
32307
32207
32095
31986
31893
31801
31700
31604
31524
31445
31355
31271
31203
31134
31054
30977
30908
30825
30723
30621
30529
30434
30336
30247
30167
30079
29983
29895
29808
29709
29603
29511
29426
29328
29221
29123
29025
28908
28786
28680
28581
28472
28358
28253
28150
28034
27917
27808
27695
27568
27444
27335
27223
27104
27007
26947
26914
26910
26967
27102
27299
27555
27886
28295
28750
29236
29759
30309
30859
31407
31965
32519
33043
33538
34016
34465
34872
35247
35605
35937
36224
36475
36704
36902
37061
37194
37319
37425
37507
37581
37659
37723
37767
37810
37861
37907
37942
37984
38036
38078
38103
38127
38150
38147
38114
38071
38017
37934
37828
37726
37627
37517
37399
37291
37193
37088
36991
36918
36858
36793
36738
36707
36686
36657
36626
36607
36593
36567
36537
36512
36478
36428
36381
36346
36303
36240
36173
36110
36032
35933
35834
35745
35647
35538
35433
35332
35218
35092
34969
34844
34705
34559
34425
34295
34150
34000
33871
33755
33627
33493
33372
33253
33125
33003
32902
32804
32692
32581
32486
32390
32278
32164
32061
31956
31841
31737
31649
31558
31452
31352
31269
31189
31102
31023
30957
30884
30801
30721
30644
30552
30451
30363
30284
30195
30097
30007
29921
29819
29709
29613
29523
29425
29325
29237
29148
29042
28936
28849
28767
28674
28576
28486
28391
28279
28167
28070
27976
27874
27781
27700
27612
27514
27418
27321
27210
27092
26985
26886
26781
26675
26587
26517
26458
26430
26466
26569
26732
26965
27282
27667
28097
28574
29101
29652
30196
30739
31292
31839
32359
32861
33350
33803
34199
34555
34887
35183
35433
35658
35871
36054
36198
36321
36429
36506
36553
36594
36636
36661
36668
36680
36701
36710
36707
36714
36724
36715
36691
36669
36638
36579
36501
36422
36337
36236
36138
36066
36000
35916
35829
35761
35705
35645
35590
35551
35516
35473
35437
35421
35411
35394
35381
35381
35380
35368
35359
35358
35342
35308
35280
35257
35212
35144
35076
35009
34924
34832
34754
34680
34586
34476
34370
34264
34143
34019
33906
33793
33666
33538
33422
33304
33171
33031
32897
32758
32608
32461
32331
32200
32061
31929
31811
31693
31571
31460
31366
31273
31172
31085
31012
30929
30833
30745
30671
30593
30513
30444
30377
30291
30194
30109
30032
29946
29858
29786
29715
29629
29538
29460
29381
29290
29200
29125
29047
28949
28848
28758
28666
28560
28458
28363
28257
28134
28012
27897
27776
27648
27530
27428
27325
27222
27138
27077
27029
27007
27043
27140
27288
27500
27796
28169
28589
29047
29544
30062
30578
31097
31629
32155
32654
33137
33617
34072
34478
34851
35203
35516
35777
36005
36215
36393
36534
36657
36769
36853
36910
36964
37020
37061
37084
37108
37133
37144
37148
37161
37179
37180
37163
37146
37121
37070
36997
36919
36832
36720
36601
36493
36383
36261
36144
36048
35959
35866
35784
35724
35672
35616
35573
35553
35533
35496
35462
35441
35418
35385
35357
35339
35313
35269
35224
35182
35125
35049
34974
34905
34828
34741
34659
34574
34471
34360
34256
34147
34016
33876
33747
33622
33484
33344
33214
33086
32946
32804
32676
32554
32425
32298
32187
32073
31946
31823
31713
31601
31481
31367
31262
31154
31040
30935
30841
30742
30636
30541
30460
30369
30262
30162
30072
29972
29863
29765
29675
29577
29477
29394
29320
29233
29141
29056
28968
28870
28775
28694
28616
28524
28429
28346
28259
28156
28053
27963
27865
27743
27618
27502
27384
27254
27129
27017
26902
26776
26659
26555
26444
26324
26216
26119
26013
25902
25804
25719
25633
25556
25521
25537
25601
25739
25979
26307
26703
27169
27711
28302
28913
29539
30178
30810
31415
32000
32575
33122
33626
34099
34547
34949
35297
35609
35892
36134
36331
36505
36663
36789
36882
36967
37053
37128
37195
37269
37348
37417
37481
37560
37644
37706
37755
37813
37865
37887
37891
37894
37881
37833
37760
37682
37590
37475
37358
37257
37163
37060
36961
36882
36810
36737
36682
36652
36625
36587
36555
36535
36506
36462
36422
36389
36350
36300
36255
36215
36162
36103
36058
36015
35951
35872
35796
35720
35630
35532
35438
35341
35225
35100
34985
34867
34730
34589
34456
34321
34172
34023
33888
33750
33599
33457
33336
33213
33076
32944
32824
32695
32555
32420
32294
32162
32028
31906
31799
31683
31557
31440
31334
31222
31102
30995
30898
30793
30683
30586
30496
30396
30295
30209
30125
30023
29912
29807
29700
29575
29443
29323
29202
29067
28935
28821
28705
28572
28444
28330
28218
28101
27995
27904
27808
27701
27599
27504
27400
27285
27173
27059
26925
26780
26649
26529
26395
26249
26112
25981
25838
25691
25563
25449
25331
25226
25157
25126
25133
25203
25367
25616
25936
26334
26815
27351
27917
28520
29155
29789
30399
30992
31566
32102
32592
33052
33490
33885
34232
34548
34838
35087
35304
35510
35696
35839
35951
36059
36159
36229
36277
36328
36374
36398
36412
36440
36473
36494
36509
36531
36552
36560
36564
36571
36564
36530
36484
36435
36368
36274
36173
36075
35966
35843
35729
35632
35538
35441
35360
35301
35251
35204
35172
35152
35131
35109
35099
35087
35053
35006
34968
34934
34888
34837
34793
34738
34657
34565
34479
34391
34286
34178
34084
33988
33875
33763
33671
33579
33465
33343
33223
33094
32946
32795
32651
32498
32334
32182
32049
31917
31779
31650
31533
31408
31272
31147
31033
30908
30775
30654
30542
30425
30313
30221
30135
30035
29930
29842
29757
29656
29551
29461
29378
29281
29182
29095
29006
28898
28786
28687
28590
28487
28394
28314
28225
28118
28012
27917
27820
27720
27630
27550
27458
27349
27238
27130
27009
26880
26760
26649
26530
26408
26303
26205
26097
25983
25883
25791
25688
25586
25498
25411
25306
25195
25099
25007
24909
24829
24791
24789
24824
24925
25114
25378
25705
26110
26594
27128
27689
28281
28890
29479
30033
30569
31082
31548
31965
32358
32723
33035
33298
33543
33767
33948
34096
34231
34352
34442
34511
34577
34629
34649
34656
34670
34679
34666
34643
34628
34602
34543
34463
34373
34250
34087
33914
33750
33575
33383
33198
33032
32866
32700
32552
32426
32300
32174
32078
32011
31944
31881
31842
31820
31789
31756
31744
31744
31733
31716
31714
31715
31692
31658
31637
31613
31569
31519
31480
31436
31366
31288
31221
31146
31049
30954
30876
30786
30666
30540
30424
30295
30145
30003
29879
29744
29591
29446
29316
29176
29030
28903
28791
28665
28531
28416
28311
28190
28062
27953
27857
27749
27641
27550
27466
27373
27284
27218
27159
27088
27014
26954
26893
26814
26736
26681
26628
26560
26495
26443
26385
26315
26253
26203
26145
26074
26008
25947
25873
25784
25698
25617
25517
25403
25299
25204
25099
24994
24906
24829
24736
24633
24541
24451
24341
24221
24109
23997
23870
23750
23659
23586
23530
23521
23587
23724
23927
24217
24609
25076
25589
26150
26758
27379
27988
28591
29186
29749
30270
30765
31235
31657
32031
32376
32690
32955
33179
33386
33571
33711
33820
33927
34027
34100
34155
34213
34267
34301
34323
34349
34373
34384
34398
34425
34447
34441
34421
34403
34366
34297
34217
34141
34052
33938
33821
33716
33604
33480
33371
33284
33196
33102
33025
32971
32919
32870
32845
32838
32821
32796
32782
32776
32762
32742
32733
32731
32708
32670
32642
32609
32550
32477
32409
32333
32233
32127
32031
31934
31821
31707
31601
31483
31342
31198
31065
30927
30773
30623
30490
30356
30218
30091
29977
29853
29719
29600
29498
29386
29262
29145
29032
28903
28766
28641
28524
28399
28271
28160
28055
27935
27812
27707
27609
27499
27387
27294
27204
27098
26995
26907
26818
26712
26609
26521
26428
26316
26209
26120
26028
25922
25821
25734
25642
25544
25459
25389
25312
25223
25138
25051
24946
24836
24743
24660
24561
24453
24359
24269
24159
24035
23920
23806
23676
23546
23441
23344
23214
23056
22892
22709
22495
22282
22093
21910
21720
21558
21455
21410
21427
21547
21789
22126
22541
23049
23639
24267
24909
25573
26242
26877
27478
28067
28629
29128
29571
29988
30369
30687
30952
31197
31417
31593
31741
31888
32022
32121
32206
32298
32383
32442
32500
32576
32647
32695
32740
32798
32844
32863
32881
32905
32910
32886
32859
32834
32785
32710
32639
32575
32494
32399
32315
32239
32144
32035
31948
31878
31795
31706
31639
31585
31519
31453
31413
31378
31320
31259
31221
31184
31125
31068
31039
31017
30972
30922
30884
30833
30752
30666
30592
30504
30387
30271
30169
30058
29924
29795
29679
29551
29410
29285
29175
29048
28901
28767
28643
28496
28334
28192
28066
27923
27774
27647
27524
27370
27208
27071
26943
26796
26648
26530
26424
26302
26183
26083
25979
25850
25724
25623
25522
25402
25290
25197
25090
24960
24838
24735
24620
24488
24370
24274
24168
24049
23948
23857
23744
23621
23524
23441
23330
23201
23094
22997
22873
22742
22641
22551
22440
22324
22231
22136
22010
21880
21778
21679
21553
21428
21326
21215
21079
20954
20860
20763
20643
20528
20432
20320
20186
20062
19960
19846
19721
19627
19577
19545
19546
19633
19819
20074
20405
20848
21383
21961
22582
23259
23952
24610
25233
25843
26415
26921
27381
27825
28231
28573
28875
29164
29415
29607
29772
29942
30088
30190
30283
30384
30460
30496
30533
30587
30625
30637
30656
30692
30713
30716
30736
30768
30770
30745
30733
30724
30676
30601
30544
30491
30403
30294
30201
30115
30001
29883
29794
29718
29627
29546
29504
29471
29419
29377
29369
29363
29330
29303
29311
29316
29293
29272
29266
29239
29181
29132
29101
29050
28969
28892
28827
28741
28640
28562
28497
28402
28281
28169
28063
27926
27775
27649
27537
27403
27260
27141
27028
26886
26738
26623
26513
26376
26238
26126
26012
25869
25726
25610
25491
25347
25209
25102
24991
24859
24739
24643
24535
24403
24285
24191
24086
23961
23855
23770
23669
23558
23473
23405
23313
23204
23114
23037
22935
22819
22733
22658
22551
22429
22328
22234
22114
21991
21892
21795
21673
21553
21462
21368
21250
21139
21059
20973
20857
20745
20652
20548
20424
20314
20231
20136
20016
19907
19813
19701
19574
19469
19385
19292
19200
19155
19155
19165
19208
19340
19558
19833
20183
20635
21159
21698
22261
22876
23503
24098
24674
25246
25780
26244
26667
27073
27428
27712
27961
28199
28397
28539
28666
28794
28890
28946
29002
29067
29099
29095
29097
29111
29102
29073
29063
29066
29041
28991
28957
28927
28856
28758
28677
28602
28493
28368
28267
28178
28068
27956
27873
27800
27707
27619
27563
27513
27448
27398
27390
27391
27371
27362
27382
27394
27386
27389
27418
27434
27419
27406
27403
27377
27327
27292
27269
27211
27123
27046
26973
26863
26730
26624
26532
26409
26267
26150
26043
25907
25758
25630
25505
25354
25198
25069
24941
24786
24635
24515
24398
24256
24123
24023
23925
23812
23717
23647
23557
23434
23318
23224
23115
22982
22864
22772
22663
22533
22421
22333
22233
22124
22043
21977
21888
21787
21711
21643
21548
21441
21362
21293
21195
21087
21009
20939
20842
20739
20661
20580
20469
20362
20288
20212
20107
20011
19944
19872
19774
19684
19614
19527
19416
19317
19234
19137
19021
18922
18836
18726
18600
18504
18434
18355
18290
18294
18368
18484
18667
18965
19368
19827
20346
20943
21586
22225
22863
23512
24133
24688
25203
25705
26169
26567
26925
27270
27568
27800
28004
28207
28377
28496
28602
28713
28796
28842
28892
28956
28995
29002
29023
29059
29072
29066
29081
29110
29111
29094
29095
29098
29061
28999
28952
28904
28821
28727
28659
28596
28503
28405
28337
28275
28191
28117
28081
28052
28004
27968
27967
27966
27945
27936
27953
27960
27943
27935
27947
27944
27916
27896
27887
27858
27802
27756
27720
27657
27571
27498
27425
27317
27188
27080
26989
26878
26757
26654
26551
26416
26272
26153
26041
25901
25754
25638
25530
25399
25272
25173
25070
24936
24805
24702
24591
24451
24323
24223
24114
23985
23874
23787
23686
23566
23464
23382
23280
23158
23055
22969
22861
22739
22644
22561
22452
22332
22244
22175
22080
21976
21901
21831
21732
21633
21573
21520
21437
21347
21279
21211
21118
21027
20963
20891
20787
20687
20618
20545
20445
20356
20291
20209
20097
19995
19915
19821
19708
19611
19530
19429
19312
19218
19137
19025
18898
18797
18710
18605
18503
18448
18427
18418
18456
18589
18807
19082
19448
19930
20488
21076
21706
22388
23070
23710
24328
24944
25522
26031
26500
26951
27352
27686
27993
28292
28546
28749
28939
29126
29274
29384
29495
29608
29690
29755
29842
29937
29995
30030
30087
30154
30190
30206
30246
30294
30309
30309
30327
30339
30304
30244
30194
30136
30039
29929
29839
29742
29616
29501
29425
29351
29261
29192
29160
29124
29069
29030
29018
28999
28964
28947
28955
28946
28909
28884
28874
28844
28796
28769
28751
28703
28633
28580
28535
28455
28354
28273
28200
28096
27979
27888
27801
27685
27568
27478
27386
27262
27134
27027
26912
26764
26618
26502
26385
26251
26131
26034
25926
25792
25669
25569
25457
25327
25216
25126
25016
24887
24776
24677
24554
24416
24308
24219
24107
23984
23896
23822
23720
23609
23528
23453
23348
23238
23157
23078
22966
22854
22775
22698
22594
22496
22432
22360
22255
22154
22081
21996
21884
21784
21712
21631
21528
21435
21359
21263
21143
21037
20948
20840
20715
20607
20508
20381
20242
20137
20052
19946
19833
19749
19673
19567
19450
19360
19279
19172
19058
18970
18884
18770
18665
18608
18582
18571
18626
18783
19018
19307
19682
20163
20703
21268
21878
22528
23161
23756
24347
24936
25474
25953
26411
26850
27228
27549
27853
28138
28369
28566
28771
28966
29109
29220
29345
29461
29528
29573
29637
29698
29724
29744
29792
29841
29859
29876
29919
29951
29946
29937
29950
29942
29891
29833
29791
29734
29652
29585
29545
29488
29403
29327
29270
29202
29125
29075
29056
29027
28989
28982
28994
28981
28953
28955
28976
28970
28947
28948
28953
28924
28887
28875
28865
28821
28767
28733
28694
28620
28539
28477
28403
28295
28188
28109
28025
27913
27809
27732
27643
27525
27420
27345
27257
27145
27045
26959
26849
26716
26601
26506
26393
26274
26185
26109
26005
25890
25806
25735
25634
25522
25440
25369
25271
25170
25101
25038
24951
24864
24804
24740
24642
24542
24473
24399
24292
24190
24118
24038
23932
23841
23785
23722
23634
23558
23509
23447
23358
23280
23222
23148
23053
22976
22910
22813
22694
22601
22527
22430
22327
22255
22193
22096
21985
21903
21824
21710
21589
21496
21407
21289
21170
21078
20992
20883
20781
20711
20641
20560
20521
20557
20643
20773
20991
21307
21682
22099
22586
23132
23681
24211
24751
25297
25803
26265
26720
27160
27544
27880
28209
28516
28759
28959
29157
29339
29470
29571
29678
29770
29813
29835
29869
29898
29895
29891
29915
29932
29912
29891
29896
29886
29835
29783
29757
29714
29634
29554
29492
29410
29298
29196
29118
29030
28928
28856
28815
28763
28701
28669
28660
28631
28595
28593
28612
28609
28601
28628
28667
28677
28676
28700
28721
28707
28683
28677
28662
28607
28542
28497
28438
28342
28245
28174
28093
27978
27870
27787
27691
27567
27457
27372
27271
27147
27039
26955
26853
26729
26626
26541
26433
26312
26220
26149
26053
25943
25858
25784
25675
25548
25445
25355
25245
25137
25065
25002
24919
24837
24784
24734
24657
24585
24543
24495
24407
24316
24252
24182
24087
24002
23946
23882
23791
23710
23649
23567
23459
23368
23299
23211
23102
23011
22937
22841
22732
22652
22585
22489
22386
22315
22256
22168
22075
22009
21950
21864
21771
21700
21629
21534
21448
21409
21402
21413
21486
21657
21896
22181
22551
23024
23542
24066
24619
25205
25768
26287
26797
27303
27766
28179
28581
28969
29299
29571
29830
30076
30274
30434
30594
30739
30837
30912
31006
31104
31167
31215
31283
31348
31380
31406
31461
31517
31539
31550
31581
31600
31572
31533
31513
31482
31418
31357
31321
31274
31195
31123
31071
31009
30931
30876
30849
30813
30766
30742
30744
30733
30711
30718
30748
30759
30759
30786
30824
30826
30804
30804
30809
30777
30727
30698
30669
30606
30536
30492
30447
30366
30278
30210
30130
30009
29889
29801
29709
29586
29463
29368
29263
29128
29005
28911
28804
28676
28566
28480
28378
28249
28132
28030
27909
27780
27682
27600
27490
27359
27254
27162
27045
26923
26834
26758
26659
26560
26494
26435
26345
26249
26180
26113
26014
25914
25849
25788
25702
25625
25572
25507
25412
25327
25272
25203
25105
25023
24966
24895
24805
24736
24688
24619
24526
24450
24389
24303
24205
24133
24078
23995
23896
23821
23756
23659
23545
23456
23378
23270
23157
23076
22997
22886
22773
22697
22631
22551
22502
22531
22616
22738
22945
23266
23659
24089
24578
25134
25706
26266
26840
27431
27997
28525
29046
29560
30027
30436
30824
31191
31500
31766
32035
32296
32507
32688
32884
33075
33222
33342
33476
33610
33706
33785
33885
33983
34047
34103
34181
34252
34295
34343
34415
34469
34477
34484
34515
34526
34493
34454
34427
34378
34299
34230
34187
34127
34042
33978
33939
33888
33830
33800
33789
33757
33715
33705
33716
33703
33673
33669
33679
33659
33624
33612
33603
33558
33498
33463
33423
33344
33255
33190
33122
33018
32910
32833
32750
32630
32509
32413
32310
32183
32068
31973
31856
31714
31593
31498
31392
31268
31155
31056
30939
30815
30718
30633
30520
30395
30301
30220
30107
29980
29881
29794
29681
29563
29474
29397
29294
29188
29115
29048
28953
28859
28800
28738
28641
28546
28481
28404
28289
28177
28096
28011
27904
27814
27748
27666
27562
27478
27421
27347
27254
27185
27139
27071
26983
26913
26853
26764
26661
26586
26524
26430
26317
26226
26137
26014
25881
25782
25692
25575
25456
25372
25290
25174
25059
24974
24881
24757
24640
24555
24463
24342
24232
24151
24068
23977
23930
23951
24008
24103
24281
24550
24867
25226
25667
26182
26715
27257
27842
28448
29017
29555
30097
30619
31076
31491
31905
32293
32616
32903
33191
33450
33648
33820
34002
34167
34283
34383
34499
34604
34673
34748
34859
34962
35034
35112
35210
35285
35324
35366
35422
35451
35448
35451
35464
35445
35393
35348
35309
35234
35134
35060
35003
34919
34827
34776
34747
34697
34641
34618
34609
34575
34536
34523
34506
34453
34399
34378
34359
34313
34272
34261
34239
34180
34124
34092
34048
33971
33901
33850
33775
33666
33571
33499
33406
33284
33174
33079
32963
32829
32717
32618
32492
32353
32248
32159
32038
31897
31782
31679
31546
31404
31297
31203
31082
30959
30867
30781
30668
30557
30482
30410
30310
30217
30153
30079
29968
29861
29785
29705
29601
29512
29453
29381
29281
29189
29117
29024
28909
28822
28764
28686
28591
28522
28469
28388
28287
28204
28129
28020
27891
27789
27702
27585
27456
27360
27282
27188
27094
27027
26954
26844
26731
26648
26568
26462
26360
26287
26206
26086
25968
25881
25789
25674
25574
25501
25411
25292
25187
25104
24999
24869
24759
24675
24584
24489
24437
24430
24440
24495
24650
24894
25182
25525
25958
26449
26946
27459
28018
28590
29129
29651
30178
30674
31106
31508
31910
32277
32585
32868
33151
33399
33585
33748
33912
34048
34145
34240
34345
34422
34463
34512
34580
34630
34654
34686
34726
34739
34736
34759
34790
34776
34730
34701
34677
34618
34535
34466
34399
34300
34191
34108
34031
33930
33833
33774
33726
33663
33616
33610
33603
33567
33544
33559
33571
33554
33542
33555
33553
33518
33487
33476
33447
33389
33340
33302
33232
33132
33047
32978
32887
32780
32698
32626
32522
32404
32317
32236
32121
31992
31890
31794
31668
31538
31439
31339
31205
31065
30952
30836
30687
30537
30419
30298
30150
30017
29925
29835
29725
29632
29572
29507
29422
29352
29308
29250
29166
29098
29048
28976
28886
28817
28763
28678
28572
28492
28425
28327
28217
28139
28075
27978
27866
27779
27698
27586
27463
27362
27257
27124
27001
26921
26848
26748
26655
26596
26532
26435
26341
26269
26178
26055
25946
25869
25778
25658
25550
25458
25345
25213
25115
25056
25002
24963
24992
25085
25210
25386
25667
26037
26443
26885
27397
27949
28489
29031
29603
30169
30680
31156
31629
32070
32446
32789
33131
33434
33672
33883
34096
34277
34406
34529
34672
34790
34866
34938
35025
35092
35128
35173
35233
35266
35271
35292
35327
35335
35318
35313
35305
35249
35165
35104
35048
34959
34856
34778
34706
34605
34501
34436
34384
34308
34238
34210
34193
34148
34105
34095
34085
34045
34014
34020
34021
33993
33974
33981
33974
33936
33907
33894
33859
33791
33733
33692
33623
33520
33425
33336
33211
33062
32936
32824
32680
32521
32399
32296
32165
32024
31912
31814
31691
31566
31469
31371
31235
31092
30973
30852
30701
30555
30448
30343
30208
30080
29988
29894
29778
29675
29605
29525
29418
29325
29261
29184
29085
29008
28957
28886
28792
28716
28648
28548
28434
28350
28279
28177
28060
27967
27891
27792
27693
27629
27574
27486
27387
27313
27237
27131
27025
26947
26864
26749
26638
26557
26468
26347
26235
26157
26071
25955
25848
25767
25671
25545
25433
25342
25230
25096
24985
24897
24785
24648
24532
24433
24311
24187
24116
24084
24052
24055
24160
24356
24599
24908
25321
25809
26322
26870
27477
28105
28712
29316
29932
30520
31052
31562
32071
32536
32936
33309
33679
34010
34283
34538
34789
34997
35151
35297
35444
35555
35636
35736
35853
35942
36011
36107
36220
36303
36365
36452
36549
36608
36646
36706
36765
36778
36761
36753
36733
36667
36587
36534
36476
36378
36269
36185
36100
35988
35886
35820
35756
35669
35602
35575
35542
35480
35433
35414
35381
35324
35285
35267
35228
35164
35115
35080
35017
34934
34872
34821
34738
34642
34575
34522
34439
34337
34255
34169
34043
33909
33808
33709
33570
33420
33298
33174
33018
32864
32740
32613
32455
32309
32198
32080
31932
31793
31680
31547
31379
31220
31087
30945
30790
30663
30564
30455
30336
30247
30178
30081
29963
29874
29801
29701
29590
29510
29437
29333
29221
29138
29063
28957
28846
28763
28682
28568
28446
28349
28249
28116
27984
27887
27792
27670
27557
27479
27398
27294
27205
27144
27063
26949
26845
26763
26662
26531
26411
26309
26185
26042
25926
25829
25710
25576
25471
25383
25270
25147
25058
24981
24869
24743
24646
24556
24434
24305
24206
24114
23994
23885
23828
23802
23792
23852
24025
24275
24576
24969
25469
26021
26588
27195
27847
28490
29104
29716
30326
30887
31387
31865
32319
32701
33017
33317
33597
33821
34001
34188
34372
34510
34622
34756
34890
34984
35064
35170
35277
35349
35416
35510
35601
35656
35706
35779
35838
35851
35851
35870
35873
35833
35791
35768
35723
35639
35556
35485
35386
35257
35145
35063
34965
34846
34757
34701
34625
34531
34469
34431
34372
34307
34281
34271
34228
34173
34152
34145
34106
34055
34033
34014
33956
33888
33845
33792
33698
33596
33517
33434
33319
33210
33132
33045
32918
32789
32681
32557
32403
32263
32152
32028
31880
31748
31637
31508
31359
31236
31141
31024
30887
30776
30682
30560
30427
30330
30253
30147
30027
29935
29851
29738
29619
29531
29447
29333
29220
29134
29046
28927
28811
28726
28640
28526
28421
28352
28279
28180
28094
28037
27963
27858
27766
27697
27610
27496
27393
27306
27199
27080
26986
26913
26819
26709
26630
26565
26466
26350
26262
26185
26076
25954
25862
25775
25655
25530
25432
25328
25183
25033
24914
24799
24661
24533
24443
24355
24244
24150
24097
24040
23960
23900
23885
23887
23905
23997
24182
24427
24726
25119
25601
26116
26656
27249
27872
28470
29045
29632
30214
30738
31208
31666
32094
32449
32752
33046
33305
33498
33656
33817
33947
34016
34060
34122
34173
34185
34197
34238
34271
34272
34275
34309
34337
34340
34354
34385
34391
34363
34338
34323
34274
34189
34114
34051
33953
33823
33714
33623
33508
33386
33309
33259
33190
33118
33086
33077
33052
33033
33049
33067
33049
33025
33031
33036
33000
32959
32947
32931
32879
32825
32790
32739
32653
32576
32529
32466
32369
32278
32204
32107
31983
31871
31775
31656
31510
31383
31272
31135
30981
30859
30758
30629
30487
30375
30275
30144
30000
29890
29798
29686
29575
29502
29436
29333
29225
29146
29065
28952
28839
28752
28652
28517
28390
28302
28214
28100
27999
27929
27852
27752
27663
27595
27507
27394
27298
27222
27128
27015
26924
26853
26757
26644
26560
26489
26386
26267
26173
26091
25979
25857
25767
25683
25561
25427
25328
25237
25115
24987
24886
24782
24650
24524
24435
24339
24211
24097
24029
23970
23915
23922
24018
24172
24376
24678
25088
25556
26064
26639
27266
27887
28490
29110
29738
30319
30853
31382
31882
32302
32663
33013
33334
33581
33774
33963
34129
34236
34317
34411
34491
34522
34542
34587
34625
34627
34638
34685
34724
34730
34743
34784
34812
34800
34784
34779
34747
34677
34610
34555
34471
34355
34251
34162
34050
33924
33833
33769
33682
33591
33545
33525
33480
33424
33404
33399
33367
33332
33335
33343
33311
33268
33251
33230
33180
33131
33110
33080
33014
32946
32899
32834
32722
32602
32503
32395
32263
32140
32036
31911
31754
31608
31482
31337
31174
31039
30934
30811
30673
30564
30470
30342
30197
30087
29991
29860
29715
29602
29500
29368
29226
29118
29017
28889
28762
28667
28572
28446
28326
28240
28151
28032
27918
27831
27734
27603
27482
27394
27301
27188
27095
27028
26940
26825
26734
26674
26603
26520
26461
26422
26355
26264
26197
26140
26044
25926
25830
25740
25615
25478
25379
25293
25178
25063
24988
24919
24816
24714
24647
24580
24473
24361
24281
24198
24080
23967
23887
23799
23685
23585
23520
23453
23385
23376
23449
23576
23764
24060
24461
24918
25429
26021
26667
27308
27940
28595
29248
29847
30401
30948
31466
31907
32296
32679
33034
33327
33590
33861
34112
34308
34479
34661
34822
34934
35037
35162
35270
35336
35401
35486
35552
35584
35621
35683
35728
35739
35759
35799
35814
35796
35785
35780
35739
35667
35613
35573
35498
35398
35324
35263
35164
35049
34970
34913
34836
34757
34715
34684
34623
34558
34527
34506
34463
34428
34425
34418
34376
34331
34312
34284
34218
34159
34125
34072
33983
33902
33841
33761
33650
33547
33459
33348
33213
33097
32999
32876
32732
32614
32512
32382
32233
32110
31996
31846
31682
31550
31434
31296
31158
31057
30965
30843
30714
30614
30519
30402
30292
30211
30118
29994
29879
29797
29702
29569
29446
29358
29260
29133
29015
28923
28815
28680
28556
28452
28337
28212
28117
28050
27960
27849
27764
27695
27593
27475
27391
27322
27221
27108
27022
26944
26833
26714
26626
26538
26412
26281
26178
26073
25938
25808
25711
25607
25465
25325
25217
25100
24955
24824
24728
24616
24466
24325
24206
24074
23920
23784
23672
23546
23407
23307
23253
23218
23233
23356
23579
23858
24208
24673
25222
25798
26402
27055
27720
28352
28965
29582
30166
30690
31180
31668
32116
32488
32825
33159
33452
33681
33886
34090
34257
34373
34482
34607
34713
34784
34859
34944
34999
35026
35070
35139
35191
35225
35277
35335
35353
35341
35347
35357
35328
35276
35244
35210
35127
35020
34937
34858
34745
34624
34533
34449
34343
34246
34190
34143
34071
34011
33987
33959
33903
33859
33850
33832
33782
33743
33732
33706
33656
33619
33595
33538
33451
33378
33318
33225
33102
32996
32899
32770
32627
32518
32427
32306
32175
32072
31973
31839
31699
31587
31472
31318
31157
31024
30894
30734
30571
30439
30308
30153
30011
29904
29793
29652
29523
29430
29325
29190
29072
28985
28885
28762
28662
28590
28500
28392
28310
28249
28157
28046
27964
27893
27786
27659
27561
27475
27352
27220
27127
27050
26950
26846
26771
26703
26603
26496
26412
26317
26181
26043
25938
25827
25685
25553
25461
25366
25242
25133
25056
24967
24848
24743
24662
24557
24423
24310
24222
24117
23994
23897
23820
23712
23581
23476
23383
23255
23116
23020
22948
22852
22762
22738
22776
22852
23004
23276
23639
24047
24519
25076
25663
26237
26832
27469
28090
28655
29195
29731
30214
30622
31004
31382
31707
31963
32191
32402
32557
32659
32761
32865
32931
32966
33022
33089
33117
33120
33150
33192
33200
33194
33222
33261
33260
33235
33225
33205
33136
33047
32979
32903
32787
32671
32590
32503
32382
32269
32198
32132
32044
31975
31952
31931
31892
31878
31899
31907
31892
31897
31930
31941
31927
31934
31961
31956
31922
31904
31892
31840
31763
31709
31664
31577
31472
31401
31343
31247
31137
31058
30983
30868
30742
30644
30540
30392
30239
30114
29983
29817
29658
29535
29410
29252
29105
28998
28887
28754
28640
28557
28457
28328
28220
28137
28028
27897
27796
27722
27623
27510
27430
27368
27271
27158
27084
27029
26946
26852
26791
26734
26638
26531
26456
26380
26265
26145
26056
25959
25826
25697
25602
25494
25353
25224
25138
25048
24925
24812
24731
24639
24521
24419
24341
24243
24121
24020
23939
23836
23715
23625
23559
23473
23387
23367
23418
23502
23642
23886
24214
24578
25000
25511
26067
26608
27154
27742
28331
28867
29373
29878
30349
30750
31117
31484
31813
32074
32309
32547
32749
32892
33016
33137
33215
33244
33276
33327
33353
33350
33366
33403
33414
33402
33411
33430
33412
33376
33367
33361
33304
33215
33141
33062
32933
32783
32665
32562
32435
32311
32232
32164
32071
31988
31949
31915
31858
31819
31824
31829
31803
31787
31805
31812
31783
31755
31747
31717
31655
31612
31591
31545
31470
31413
31371
31300
31204
31131
31070
30970
30841
30734
30635
30497
30342
30218
30108
29967
29813
29685
29559
29399
29239
29121
29010
28867
28724
28613
28502
28357
28215
28104
27983
27834
27700
27602
27495
27360
27244
27158
27053
26921
26810
26722
26615
26492
26398
26325
26227
26111
26025
25953
25844
25713
25619
25544
25440
25330
25260
25202
25109
25007
24935
24867
24766
24664
24596
24530
24433
24342
24285
24222
24120
24021
23951
23865
23738
23618
23529
23426
23296
23185
23103
22999
22868
22760
22675
22565
22434
22329
22248
22157
22081
22083
22163
22288
22488
22815
23245
23723
24258
24870
25517
26147
26780
27447
28109
28718
29292
29864
30397
30850
31256
31648
31992
32267
32518
32771
32984
33142
33296
33463
33595
33685
33787
33907
33998
34055
34128
34216
34269
34296
34348
34414
34439
34441
34472
34513
34512
34480
34463
34440
34370
34280
34212
34143
34032
33910
33820
33734
33617
33506
33439
33376
33283
33197
33150
33100
33021
32957
32937
32914
32859
32816
32802
32776
32727
32697
32688
32652
32588
32542
32511
32446
32350
32274
32208
32105
31980
31881
31791
31668
31530
31423
31322
31186
31039
30924
30818
30679
30531
30415
30302
30155
30004
29881
29753
29597
29454
29345
29227
29074
28934
28831
28723
28594
28485
28409
28319
28203
28104
28024
27919
27789
27681
27593
27476
27343
27244
27167
27064
26946
26855
26776
26668
26550
26464
26394
26297
26197
26130
26068
25966
25856
25773
25685
25556
25426
25327
25217
25070
24934
24841
24744
24616
24500
24416
24312
24176
24057
23965
23852
23710
23591
23497
23382
23243
23128
23031
22907
22770
22671
22598
22500
22398
22351
22355
22379
22455
22641
22924
23258
23667
24182
24759
25343
25952
26609
27265
27880
28484
29100
29680
30190
30670
31139
31554
31899
32220
32534
32797
33000
33190
33381
33527
33626
33730
33848
33933
33986
34056
34135
34178
34204
34267
34353
34406
34439
34498
34559
34578
34575
34588
34585
34526
34446
34386
34316
34209
34101
34022
33931
33802
33681
33604
33530
33431
33350
33310
33264
33191
33135
33112
33077
33021
32985
32972
32937
32874
32828
32802
32750
32676
32624
32580
32497
32392
32316
32251
32148
32024
31923
31824
31685
31534
31416
31305
31164
31024
30921
30819
30681
30541
30431
30322
30184
30051
29947
29826
29662
29505
29377
29238
29071
28923
28805
28676
28527
28402
28302
28183
28047
27940
27856
27746
27617
27517
27432
27315
27186
27093
27016
26906
26780
26681
26585
26451
26312
26209
26111
25980
25849
25759
25672
25550
25434
25359
25279
25164
25060
24993
24920
24813
24720
24659
24577
24460
24359
24279
24171
24033
23915
23821
23696
23536
23396
23276
23133
22978
22856
22751
22612
22455
22329
22219
22081
21937
21830
21739
21618
21496
21416
21350
21267
21211
21227
21288
21377
21548
21837
22200
22606
23086
23656
24265
24872
25500
26153
26781
27364
27940
28514
29040
29509
29960
30389
30748
31039
31315
31568
31754
31895
32049
32201
32299
32364
32448
32540
32595
32639
32716
32800
32847
32881
32941
32997
33013
33022
33058
33080
33056
33024
33011
32973
32889
32810
32763
32698
32599
32517
32466
32397
32298
32218
32168
32105
32028
31980
31956
31911
31851
31823
31819
31794
31756
31748
31755
31728
31689
31685
31685
31640
31578
31545
31510
31427
31333
31268
31200
31092
30978
30897
30810
30687
30566
30479
30385
30260
30148
30068
29970
29835
29713
29617
29500
29357
29235
29139
29027
28891
28775
28681
28565
28435
28338
28259
28149
28023
27933
27862
27763
27657
27589
27538
27460
27378
27326
27275
27190
27100
27037
26968
26865
26764
26694
26619
26508
26405
26343
26277
26180
26097
26047
25979
25874
25781
25717
25633
25520
25426
25358
25267
25151
25057
24979
24872
24752
24669
24604
24504
24383
24294
24215
24097
23960
23853
23756
23628
23500
23418
23358
23288
23251
23292
23389
23518
23726
24041
24413
24808
25260
25777
26304
26806
27319
27855
28360
28807
29240
29670
30045
30353
30644
30925
31154
31337
31521
31699
31823
31905
31999
32096
32150
32180
32232
32287
32299
32289
32304
32322
32308
32293
32307
32313
32274
32225
32200
32161
32081
31998
31940
31869
31764
31664
31595
31514
31402
31312
31261
31203
31132
31093
31088
31066
31023
31008
31020
31011
30988
30998
31026
31021
30998
31006
31025
31003
30962
30942
30917
30845
30755
30693
30626
30516
30395
30308
30220
30097
29978
29899
29818
29700
29588
29511
29426
29303
29184
29100
29003
28870
28742
28634
28504
28349
28220
28122
28007
27870
27763
27686
27589
27482
27412
27363
27281
27179
27105
27046
26953
26850
26782
26725
26634
26537
26480
26435
26364
26295
26257
26209
26119
26024
25962
25895
25792
25698
25639
25571
25471
25387
25339
25283
25199
25128
25082
25011
24911
24829
24772
24689
24580
24489
24410
24302
24178
24082
24001
23886
23753
23655
23577
23472
23374
23343
23368
23421
23532
23740
24016
24319
24678
25116
25592
26060
26549
27084
27614
28098
28574
29066
29521
29912
30288
30665
30993
31256
31509
31767
31985
32159
32334
32515
32654
32757
32876
33003
33091
33157
33251
33359
33430
33482
33566
33657
33709
33745
33810
33875
33900
33908
33932
33938
33893
33836
33798
33746
33655
33569
33521
33467
33377
33297
33253
33205
33135
33091
33089
33077
33039
33022
33034
33025
32990
32972
32970
32940
32891
32864
32850
32805
32746
32716
32698
32642
32568
32522
32481
32400
32305
32234
32159
32041
31915
31820
31727
31602
31480
31396
31306
31175
31048
30958
30859
30727
30607
30522
30428
30306
30201
30126
30032
29909
29810
29741
29653
29536
29442
29371
29276
29162
29078
29009
28908
28790
28713
28659
28573
28471
28399
28334
28238
28141
28080
28028
27941
27849
27787
27720
27616
27515
27448
27381
27284
27195
27140
27074
26970
26872
26802
26718
26607
26518
26455
26365
26244
26145
26071
25976
25860
25764
25680
25564
25428
25325
25235
25108
24969
24875
24805
24700
24578
24493
24423
24331
24247
24219
24227
24246
24322
24502
24750
25029
25370
25795
26247
26686
27149
27657
28158
28625
29093
29572
30018
30416
30813
31216
31579
31892
32202
32513
32780
33005
33236
33466
33650
33804
33980
34160
34299
34418
34565
34720
34836
34934
35066
35208
35310
35399
35511
35611
35666
35708
35761
35788
35762
35723
35701
35660
35577
35497
35443
35379
35290
35223
35190
35145
35078
35041
35043
35032
35002
34994
35007
34990
34943
34913
34896
34846
34784
34755
34740
34690
34623
34587
34559
34493
34416
34371
34328
34245
34149
34083
34018
33923
33828
33766
33701
33591
33477
33395
33302
33172
33050
32965
32871
32748
32644
32570
32474
32346
32239
32157
32048
31913
31807
31725
31614
31478
31370
31281
31167
31045
30963
30898
30799
30684
30598
30521
30415
30305
30228
30152
30040
29928
29854
29783
29679
29573
29496
29407
29280
29160
29077
28990
28874
28776
28711
28633
28525
28432
28361
28268
28145
28040
27964
27865
27738
27635
27551
27434
27299
27196
27106
26980
26843
26739
26651
26537
26416
26331
26255
26144
26022
25930
25844
25726
25612
25536
25462
25348
25228
25140
25050
24932
24837
24797
24779
24775
24833
24974
25153
25358
25636
25992
26373
26764
27207
27695
28166
28611
29078
29557
29996
30403
30823
31230
31580
31898
32235
32561
32825
33059
33313
33558
33752
33923
34110
34284
34412
34528
34671
34807
34907
35009
35143
35266
35348
35431
35544
35641
35698
35758
35835
35882
35884
35885
35895
35870
35812
35769
35744
35690
35610
35559
35529
35469
35393
35351
35329
35279
35219
35194
35184
35142
35095
35087
35085
35047
35005
34997
34988
34945
34906
34905
34900
34853
34801
34772
34721
34625
34533
34470
34393
34280
34176
34092
33986
33849
33729
33637
33524
33385
33270
33176
33054
32912
32801
32714
32600
32472
32379
32302
32191
32069
31981
31904
31791
31669
31578
31489
31364
31236
31142
31046
30918
30798
30718
30635
30519
30414
30353
30290
30198
30120
30071
30004
29903
29811
29738
29640
29512
29406
29326
29223
29094
28991
28907
28795
28669
28585
28527
28442
28348
28292
28251
28171
28077
28016
27961
27866
27759
27683
27608
27496
27379
27293
27199
27066
26937
26846
26746
26611
26486
26403
26316
26196
26089
26013
25921
25802
25705
25640
25563
25479
25449
25485
25547
25640
25816
26066
26332
26627
26995
27406
27802
28200
28645
29109
29544
29965
30404
30825
31189
31526
31873
32198
32464
32709
32964
33191
33360
33512
33682
33826
33919
34010
34127
34225
34289
34363
34456
34522
34554
34601
34666
34693
34676
34665
34662
34624
34564
34530
34504
34435
34344
34282
34229
34137
34029
33959
33915
33854
33797
33778
33761
33708
33654
33640
33628
33581
33539
33536
33530
33490
33459
33468
33472
33444
33424
33431
33416
33362
33316
33291
33236
33140
33055
32983
32882
32754
32645
32558
32445
32318
32222
32135
32009
31865
31760
31674
31556
31424
31327
31240
31117
30984
30885
30790
30661
30534
30441
30341
30201
30063
29960
29855
29715
29585
29495
29400
29273
29154
29064
28960
28830
28726
28660
28577
28467
28379
28317
28233
28131
28057
28006
27926
27821
27744
27681
27583
27469
27386
27314
27204
27085
27003
26931
26824
26710
26634
26564
26458
26345
26263
26176
26052
25932
25847
25755
25630
25519
25445
25360
25242
25140
25070
24977
24847
24733
24645
24532
24394
24287
24218
24146
24087
24105
24201
24336
24523
24809
25170
25549
25959
26438
26949
27432
27912
28432
28962
29448
29906
30369
30804
31175
31518
31865
32174
32422
32661
32922
33157
33332
33499
33686
33852
33975
34096
34229
34335
34407
34492
34596
34673
34719
34781
34854
34890
34899
34932
34972
34966
34926
34900
34869
34781
34666
34578
34496
34375
34242
34140
34047
33930
33822
33760
33713
33649
33604
33603
33603
33568
33535
33530
33511
33453
33406
33393
33363
33293
33230
33188
33119
33018
32937
32884
32805
32702
32621
32557
32463
32354
32281
32228
32137
32022
31927
31836
31706
31560
31443
31325
31163
30992
30858
30728
30561
30401
30286
30181
30048
29924
29842
29755
29628
29507
29426
29337
29209
29089
29004
28903
28768
28650
28562
28459
28327
28213
28129
28027
27905
27813
27740
27632
27507
27414
27335
27219
27091
27002
26930
26824
26706
26624
26545
26425
26297
26206
26123
26008
25896
25817
25733
25613
25500
25427
25350
25242
25146
25090
25021
24912
24811
24733
24634
24508
24408
24338
24244
24121
24014
23921
23795
23645
23526
23426
23294
23155
23061
22989
22885
22766
22679
22600
22485
22363
22276
22193
22079
21972
21916
21891
21877
21925
22079
22310
22586
22946
23406
23909
24421
24980
25595
26205
26787
27378
27982
28548
29063
29571
30075
30525
30914
31290
31648
31940
32180
32427
32672
32865
33021
33193
33365
33488
33586
33704
33820
33896
33967
34071
34177
34245
34309
34410
34511
34572
34623
34691
34732
34715
34685
34671
34630
34538
34448
34385
34300
34176
34068
33990
33896
33779
33685
33617
33529
33424
33351
33305
33234
33153
33114
33101
33059
33001
32975
32961
32905
32830
32782
32737
32655
32566
32509
32451
32352
32243
32160
32067
31938
31816
31733
31640
31506
31377
31279
31168
31019
30883
30780
30661
30511
30376
30269
30142
29984
29844
29729
29593
29438
29315
29214
29078
28924
28808
28713
28589
28454
28352
28265
28145
28013
27913
27818
27682
27539
27435
27336
27204
27074
26986
26898
26774
26657
26585
26511
26404
26307
26239
26151
26027
25914
25826
25718
25581
25462
25369
25253
25113
25005
24931
24830
24707
24618
24553
24454
24338
24259
24194
24091
23975
23895
23826
23724
23616
23537
23456
23332
23201
23106
23012
22882
22759
22678
22592
22466
22346
22265
22174
22044
21920
21828
21724
21594
21479
21390
21283
21151
21042
20963
20866
20749
20659
20591
20495
20387
20329
20319
20318
20362
20520
20782
21098
21480
21968
22523
23088
23681
24326
24979
25591
26187
26802
27393
27916
28402
28887
29331
29703
30049
30396
30700
30937
31156
31376
31550
31670
31791
31925
32028
32095
32171
32257
32310
32341
32400
32477
32523
32548
32603
32670
32690
32682
32694
32706
32671
32613
32572
32521
32425
32317
32234
32147
32020
31895
31810
31727
31612
31513
31463
31418
31345
31291
31284
31273
31234
31215
31229
31221
31172
31130
31105
31048
30959
30897
30862
30798
30707
30639
30581
30480
30357
30266
30192
30081
29954
29858
29765
29630
29484
29374
29269
29128
28985
28883
28786
28650
28513
28409
28301
28159
28023
27921
27807
27655
27512
27399
27273
27121
26991
26894
26777
26636
26518
26428
26318
26188
26084
26000
25893
25775
25692
25626
25523
25401
25309
25227
25109
24976
24875
24776
24639
24498
24399
