29126
29471
29362
29278
29278
29548
29388
29475
29436
29385
29484
29433
29613
29587
29571
29329
29663
29761
29456
29385
29762
29735
29686
29602
29561
29792
29652
29487
29800
29786
29413
29610
29660
29646
29427
29642
29669
29788
29669
29841
29819
29733
29505
29785
29730
29284
29755
29744
29595
29638
29891
29644
29686
29649
30046
30004
29484
29618
30048
29905
29678
29798
29833
29770
29431
29833
29910
29719
29544
29775
29763
29818
29811
29804
29893
29625
29818
29846
29707
29481
29793
29849
29651
29655
29760
30016
29809
29799
30013
29514
29603
29557
29516
29575
29047
29324
29470
29157
28942
29277
29012
28955
28923
29040
29129
28745
29123
29073
28935
28828
28963
29149
29083
28755
29219
29193
28982
28873
29301
29008
28764
28927
29285
29038
28929
29164
28994
29028
28790
29135
29046
29049
28784
29392
29197
28961
28983
29368
29264
29118
29235
29518
29281
29208
29317
29463
29319
29007
29380
29489
29491
29324
29684
29420
29256
29262
29606
29170
29077
29498
29673
29475
29029
29398
29482
29197
29305
29354
29414
29497
29251
29406
29516
29281
29420
29472
29283
29302
29470
29538
29539
29306
29696
29574
29192
29573
29498
29522
29411
29408
29753
29536
29243
29500
29680
29521
29210
29843
29485
29521
29626
29653
29435
29626
29435
29638
29703
29469
29655
29658
29604
29403
29803
29640
29492
29621
29692
29609
29332
29715
29640
29767
29438
29885
29811
29812
29515
29659
29784
29795
29480
30018
29862
29449
29778
29680
29741
29369
29609
29904
29787
29256
29479
29489
29480
29478
29501
29554
29089
29367
29350
29348
28768
29152
29299
29218
28852
29144
29194
29025
28697
28928
29111
28767
28853
28843
29013
29011
28935
28909
29003
28783
28788
28935
28863
28821
28989
28833
28826
28853
28919
28936
28660
28821
29051
29000
28680
29023
29138
29010
28745
29224
29008
29002
29137
29097
29146
29053
28879
29429
29379
28849
29087
29179
29109
28929
29144
29155
29176
29064
29180
29268
29252
29095
29375
29362
28918
29285
29329
29508
29043
29359
29329
29287
29192
29310
29280
29405
29218
29339
29505
29366
29346
29695
29522
29153
29315
29434
29300
29260
29465
29671
29272
29418
29635
29556
29300
29484
29559
29476
29163
29299
29482
29391
29241
29610
29591
29523
29253
29741
29619
29236
29463
29525
29461
29239
29354
29680
29781
29301
29641
29754
29469
29288
29576
29762
29757
29401
29607
29597
29782
29678
29610
29525
29388
29500
29753
29649
29230
29730
29564
29678
29519
29862
29601
29604
29547
29690
29826
29633
29502
29914
29667
29309
29647
29523
29592
29194
29351
29467
29280
29192
29316
29232
29233
29023
29077
29104
28589
29067
29039
28932
28731
28831
29066
28912
28575
28984
28846
28866
28738
28739
28925
28498
28553
28964
28719
28632
28877
28664
28678
28586
28842
28922
28645
28733
29165
28737
28851
28833
29068
29102
28674
29065
28996
28801
28748
29153
29112
28909
28899
29207
29045
29143
28950
29095
29238
28671
29260
29338
29169
28931
29107
29180
29197
29068
29438
29295
28920
28982
29551
29207
29023
29263
29272
29189
28781
29148
29238
29210
28991
29292
29505
28909
29179
29173
29146
29165
29124
29292
29302
28941
29306
29354
29173
29212
29343
29435
29122
29274
29242
29270
29238
29405
29638
29413
29218
29322
29309
29256
29072
29562
29418
29333
29373
29592
29285
29455
29167
29557
29492
29147
29466
29483
29391
29204
29658
29498
29519
29239
29709
29505
29439
29325
29845
29552
29226
29272
29494
29420
29279
29584
29739
29288
29282
29768
29783
29530
29438
29582
29563
29432
29631
29611
29621
29342
29681
29633
29670
29282
29677
29605
29465
29410
29965
29742
29506
29675
29849
29626
29425
29724
29739
29641
29468
29702
29856
29516
29631
29857
29838
29603
29556
29992
29594
29512
29495
29720
29416
29129
29387
29274
29234
28979
29156
29311
29034
28922
29008
28959
28393
28674
28939
28782
28610
28907
28894
28596
28477
28686
28631
28642
28403
28678
28547
28437
28440
28694
28507
28327
28410
28538
28492
28395
28670
28599
28270
28404
28739
28511
28394
28462
28856
28648
28534
28707
28938
28618
28325
28836
28800
28716
28851
28815
28892
28641
28630
29107
28896
28771
28785
29107
28722
28459
28764
28872
28917
28593
29013
28781
28932
28728
29169
28801
28964
28841
29151
28917
28655
28914
29079
28790
28832
29200
28940
28988
28740
29302
28901
29088
28902
29056
28864
28726
28986
29081
28925
28846
29209
29204
29179
28937
29059
29152
29051
28958
29154
29077
29076
29183
29186
29098
29038
29317
29410
29338
29080
29446
29326
29382
29301
29203
29489
29153
29248
29330
29233
29046
29399
29535
29421
29048
29625
29545
29459
29212
29293
29404
29385
29477
29494
29458
28997
29369
29635
29208
29051
29651
29521
29319
29250
29461
29651
29071
29128
29614
29393
29102
29529
29621
29428
29193
29664
29415
29456
29474
29550
29586
29437
29432
29628
29386
29409
29348
29701
29527
29148
29549
29675
29472
29288
29629
29415
29620
29447
29561
29376
29427
29437
29632
29617
29058
29548
29524
29510
29172
29661
29564
29272
29156
29687
29321
29158
29030
29231
28937
28460
28876
28975
28673
28518
28667
28630
28629
28455
28489
28643
28513
28378
28680
28548
28066
28352
28527
28438
28137
28289
28204
28207
28108
28322
28554
28149
28213
28576
28137
28315
28155
28333
28391
27890
28414
28314
28404
28276
28553
28457
28452
28330
28742
28413
28514
28641
28934
28629
28324
28602
28736
28612
28255
28731
28533
28823
28601
28639
28674
28425
28723
28720
28548
28538
28557
28649
28550
28295
28924
28914
28518
28645
29072
28714
28875
28735
28804
28856
28566
28621
29037
28819
28495
29060
29124
28830
28741
28954
29112
28762
28982
29278
29088
28758
28868
29124
28881
28931
29078
28977
29000
28917
29136
28910
28871
28826
29311
29341
28987
29133
29104
29075
29070
29286
29399
29322
28931
29440
29243
28966
29197
29257
29071
29261
29079
29587
29311
29295
29197
29589
29436
29086
29249
29341
29374
29196
29277
29304
29399
29365
29687
29196
29279
29228
29610
29252
29010
29358
29427
29301
29128
29441
29343
29313
29152
29377
29668
29107
29252
29441
29538
29209
29624
29418
29433
29294
29688
29363
29373
29431
29730
29519
29356
29271
29849
29621
29470
29452
29583
29574
29314
29603
29494
29284
29272
29307
29451
28855
28774
29266
28723
28727
28859
28813
28635
28486
28754
28514
28516
28314
28496
28433
28369
28232
28511
28764
28347
28533
28489
28460
28414
28614
28623
28572
28089
28517
28721
28327
28554
28542
28401
28429
28653
28551
28675
28537
28570
28766
28654
28305
28905
28722
28663
28748
29030
28966
28644
28829
28990
28903
28796
28903
29011
28872
28450
29064
28831
28783
28866
29110
29171
28995
28829
29249
28868
28856
28710
28957
28831
28709
29086
29211
29103
28913
29258
29155
28962
28979
29319
29148
28884
29167
29097
29300
28926
29141
29354
29146
29015
29257
29310
29167
29135
29377
29030
29269
29009
29171
29345
28923
29259
29321
29288
29172
29410
29442
29202
29094
29507
29466
29359
29304
29615
29193
29033
29095
29475
29377
28919
29364
29424
29488
28916
29506
29538
29346
29278
29547
29546
29318
29117
29460
29284
29224
29517
29501
29450
29325
29542
29414
29511
29206
29581
29528
29358
29314
29767
29466
29226
29559
29716
29431
29321
29483
29566
29562
29449
29631
29730
29640
29533
29890
29764
29358
29438
29743
29606
29224
29504
29533
29453
29476
29513
29549
29276
29116
29461
29234
29123
29037
28953
29054
28684
28718
28946
28719
28467
28589
28689
28656
28438
28773
28556
28647
28295
28644
28555
28308
28536
28668
28651
28347
28515
28496
28649
28536
28495
28492
28366
28666
28834
28512
28516
28704
28841
28579
28328
28715
29059
28824
28498
28861
28923
28794
28749
29243
28972
28677
28931
29198
28988
28815
28923
29135
28977
28776
29024
29148
28755
28800
28901
28900
28814
29038
29328
29030
28744
28952
29049
29107
28752
29114
29144
29124
28813
29038
29206
28812
28917
29283
29250
29084
29227
29211
29200
28937
29254
29238
29021
28866
29279
29307
28893
29123
29473
29176
29053
29022
29305
29165
29023
29304
29266
29269
28965
29294
29286
29029
29234
29171
29197
28955
29250
29385
29443
29173
29297
29417
29369
29207
29466
29278
29156
29143
29429
29375
29202
29189
29423
29249
29080
29222
29616
29190
29172
29502
29362
29187
29354
29519
29488
29471
29248
29310
29554
29084
29179
29596
29386
29026
29561
29410
29285
29102
29389
29492
29266
29113
28981
28802
28935
28824
28632
28672
28410
28556
28678
28299
28320
28292
28248
28330
28230
28163
28177
28007
28090
28077
28121
28240
28038
28273
28188
28014
28325
28267
28241
28161
28234
28350
28080
28065
28141
28348
28006
28172
28531
28199
27961
28388
28254
28470
28209
28593
28615
28510
28299
28740
28535
28401
28598
28854
28692
28512
28438
28694
28733
28486
28782
28718
28480
28538
28610
28688
28448
28541
28640
28716
28358
28548
28731
28730
28391
28764
28913
28675
28673
28782
28803
28881
28667
28953
28808
28795
28681
28889
28938
28716
28786
28771
28820
28631
28810
29056
28964
28920
28830
28833
29075
28921
29075
29161
28717
29101
28944
28976
28951
29078
29023
28911
28941
29020
29203
28728
29036
29391
28944
28858
29178
29221
29054
28839
29299
29132
29067
29095
29354
29114
29131
28973
29095
29322
29148
29239
29433
29297
29119
29367
29341
29096
28936
29202
29343
29153
29257
29368
29437
29286
29181
29480
29279
28903
29129
29047
28956
28812
28984
28812
28349
28348
28499
28554
28215
28256
28303
28200
27857
28171
28131
27941
27755
27925
28042
27763
27716
27881
28078
27671
28007
27906
28057
27929
27821
27992
28034
27839
27999
27985
28033
27661
28187
28213
27804
28079
28311
28090
27995
27982
28311
28055
27804
28236
28400
28362
28150
28513
28230
28358
28094
28702
28438
28417
28502
28343
28347
28128
28326
28526
28398
28300
28598
28410
28362
28314
28750
28751
28564
28371
28786
28582
28162
28356
28624
28390
28459
28695
28680
28715
28515
28903
28641
28598
28493
28888
28656
28392
28771
28892
28725
28456
28765
28635
28694
28454
28926
29004
28580
28605
28959
29170
28803
28736
29194
28924
28739
28976
29044
28952
28667
28978
29078
28817
28992
29057
29250
28761
28950
29007
29056
28886
28905
29187
28889
28601
29091
29038
29030
28911
29297
29195
28953
28975
29274
29238
29093
28978
29143
29092
28878
29319
29157
29103
28990
29139
29091
29298
28984
29096
29001
28704
29072
29035
28866
28555
28810
28788
28431
28332
28500
28504
28223
27986
28016
28143
27930
27791
28229
27887
27728
27822
27863
27803
27609
27980
27793
27748
27663
27967
27945
27765
27745
27866
27829
27619
27906
27892
27756
27597
27875
28003
27787
27836
28097
28087
28019
27960
28237
28216
27886
28114
28442
27990
28138
28133
28254
28171
28132
28477
28318
28225
28164
28492
28334
28022
28295
28444
28452
28273
28232
28517
28456
28038
28603
28627
28421
28440
28520
28655
28559
28533
28502
28460
28165
28410
28713
28456
28126
28764
28553
28375
28317
28584
28574
28741
28474
28869
28783
28285
28685
28633
28519
28647
28693
28721
28606
28449
28670
28740
28823
28589
28703
28866
28679
28707
29092
28772
28494
28957
28850
28859
28504
29000
29077
28813
28873
28899
28783
28923
29053
28880
29030
28855
28889
29000
28938
28744
29020
29145
28839
28897
29098
29180
28845
28933
29350
29118
28667
28871
29179
28906
28926
29251
29124
29123
28954
29318
28967
28950
29065
29256
28944
28792
29090
29422
29273
28698
29123
29103
28866
28489
28687
28749
28604
28452
28576
28337
28007
28109
28033
28170
27874
27939
28083
28033
27630
27946
27930
28042
27623
27920
28022
27959
27946
27895
27960
27703
28002
28161
27745
27474
28057
28013
27948
27854
28005
27895
27811
27738
28128
28013
27875
28116
28319
28079
27773
28180
28333
28298
27918
28412
28422
28354
28246
28564
28322
28179
28279
28320
28516
28034
28202
28518
28339
27949
28459
28543
28436
28299
28332
28483
28152
28270
28621
28579
28324
28484
28549
28454
28234
28619
28492
28624
28353
28645
28690
28327
28465
28646
28544
28396
28529
28660
28727
28484
28658
28742
28703
28276
28747
28688
28497
28741
28924
28809
28550
28707
29032
28884
28666
28722
28723
28718
28572
28812
28913
28585
28723
28793
28976
28782
28889
29091
28945
28729
28940
29117
28775
28715
28881
28966
28872
28896
29086
29010
28683
28622
29061
29110
28717
28803
29145
28838
28758
28968
28968
29082
28606
29064
29015
29064
28902
29214
28906
28689
28858
29226
28968
28891
28969
29216
29094
28689
29106
29209
29066
28930
29161
29065
28879
28788
28918
29029
28619
28656
28530
28485
28148
28301
28330
28226
28175
28174
28059
27727
27741
27981
28073
27871
27736
28126
27852
27567
27922
28158
27981
27641
28036
27983
27972
27850
28015
27871
27881
28092
27935
27906
27880
28029
28095
28061
27755
28010
28130
27926
28019
28041
28021
28199
28043
28182
28337
28098
28126
28515
28267
28013
28190
28315
28249
28107
28279
28212
28457
28335
28396
28217
28312
28143
28456
28160
28124
28214
28337
28414
28284
28604
28510
28196
28297
28413
28536
28594
28292
28749
28439
28379
28504
28461
28508
28267
28738
28642
28485
28436
28754
28638
28475
28226
28483
28451
28284
28560
28617
28571
28426
28712
28493
28611
28427
28864
28603
28743
28619
28802
28694
28592
28464
28825
28745
28617
28750
28884
28651
28651
28695
28604
28519
28440
28882
28808
28685
28814
28878
28717
28441
28748
28868
28784
28561
28912
28803
28900
28630
29110
28979
28716
28807
28813
29057
28494
28702
28887
28736
28567
28848
29077
28933
28579
28808
28952
28962
28883
29182
28953
28833
28778
28904
28934
28667
28874
28859
28830
28586
28708
28695
28582
28389
28381
28385
28355
28081
28435
28031
27816
28081
28006
27907
27843
27978
27983
27789
27614
27768
27660
27775
27758
27822
27879
27708
27729
27737
27781
27478
27800
27771
27811
27638
27800
27676
27866
27719
27826
27732
27901
27994
27894
27939
27679
27967
28161
28127
27885
28319
28073
28266
27917
28456
28332
28140
28309
28428
28190
28138
28320
28292
28321
27992
28393
28186
28373
28273
28402
28476
28355
28179
28592
28499
28098
28389
28395
28374
28156
28497
28602
28534
28440
28542
28564
28546
28300
28794
28402
28488
28554
28631
28630
28470
28586
28512
28609
28455
28835
28584
28450
28642
28919
28802
28682
28712
28691
28497
28525
28730
28904
28773
28512
28913
28838
28589
28702
28710
28837
28555
28763
28848
28771
28517
28762
28734
28821
28755
28816
28888
28838
28658
28798
28787
28993
28894
29167
28785
28699
28743
29091
29036
28644
28976
28920
28998
28919
28953
28960
28694
28790
28909
28817
28910
28809
28945
28957
28766
28641
28814
28528
28362
28512
28506
28304
28286
28257
28015
28114
27854
27900
28005
27839
27778
27956
27834
27558
27895
27852
27724
27559
28032
27701
27732
27600
27814
27886
27682
27703
27914
27964
27568
28029
27888
27771
27897
28138
27914
27884
28069
28057
28203
27984
27952
28121
28194
27864
28280
28137
28155
28217
28339
28290
28221
28024
28334
28327
28341
28412
28495
28515
28052
28286
28471
28391
28239
28416
28422
28123
28231
28642
28467
28218
28362
28346
28459
28453
28243
28697
28635
28351
28553
28469
28564
28364
28637
28733
28673
28678
28565
28680
28455
28596
28727
28754
28441
28652
28632
28643
28662
28669
28647
28429
28745
28768
28875
28577
28804
29000
28649
28627
28926
28819
28825
28621
28734
28876
28921
28781
29030
28795
28727
28689
29054
28788
28563
28815
28997
28812
28681
28855
28992
28832
28780
29002
29018
28743
28883
28908
28967
28807
28863
28979
29061
28794
29080
29167
28841
28765
29032
28935
28973
28914
28951
29097
29023
28783
28987
28957
28735
28540
28688
28652
28213
28377
28230
28040
27979
28084
28195
28117
27810
27941
27814
27823
27734
27974
27912
27460
27912
27795
27869
27547
28051
27982
27588
27636
27803
27885
27540
27790
27852
28033
27520
27833
28079
27950
27830
27962
28010
27674
27948
28198
28130
27823
27896
28330
28244
27851
28089
28305
28202
27836
28198
28375
28195
28361
28351
28261
28178
28258
28526
28407
28137
28264
28269
28219
28041
28429
28495
28467
28311
28499
28514
28144
28349
28376
28590
28301
28341
28511
28463
28424
28607
28593
28571
28299
28502
28656
28654
28413
28724
28523
28294
28583
28486
28507
28350
28476
28688
28571
28396
28784
28653
28503
28548
28922
28827
28470
28509
28738
28757
28733
28714
28775
28704
28747
28759
28758
28704
28494
28886
28791
28813
28514
28998
28974
28813
28895
28881
28862
28558
28987
28940
28757
28755
29019
28915
28701
28677
28913
29152
28976
28852
28969
28804
28678
28922
29112
28974
28755
29051
29135
28882
29028
29248
29172
28718
28818
29258
29139
28701
28923
29120
28883
28774
28948
28839
28807
28705
28571
28469
28420
28252
28231
28294
27878
27970
28237
27945
27678
27954
28071
27960
27925
27832
28082
27840
27917
28079
27894
28022
27742
28144
27896
27702
27910
28082
27919
27852
28091
27926
27732
27770
28124
27861
27673
27746
28086
28118
27909
28086
28162
28125
27961
28229
28230
27947
28115
28212
28021
27978
28042
28235
28298
28201
28130
28410
28102
28153
28357
28235
28188
28229
28384
28410
28150
28026
28308
28280
28402
28370
28351
28381
28083
28541
28380
28373
28133
28593
28500
28373
28241
28385
28546
28463
28416
28782
28678
28194
28474
28485
28520
28254
28536
28489
28468
28588
28669
28718
28477
28553
28631
28596
28371
28516
28699
28645
28518
28670
28888
28627
28446
28694
28686
28607
28754
28829
28765
28632
28552
29078
28747
28506
28638
28859
28763
28524
28872
28954
28818
28827
29093
28817
28853
29021
28977
28787
28781
28961
29121
28956
28753
28947
29208
28939
28863
29207
29070
28925
28832
29184
29070
28954
29025
29214
29125
28754
29087
28957
28978
29034
29257
29031
28725
28907
28938
28905
28479
28540
28664
28733
28241
28477
28300
28306
28018
28264
28398
28152
28181
28124
28083
28080
28140
28228
28081
28042
28044
28119
27920
27826
28244
28246
27943
28051
28285
27970
28149
27936
28046
28079
27734
28061
28233
27915
27771
28114
28306
28185
27843
28262
28273
28155
28150
28178
28107
28358
28163
28340
28268
27946
28242
28484
28290
28088
28510
28261
28470
28241
28437
28407
28035
28393
28617
28359
28190
28454
28532
28364
27985
28526
28432
28401
28426
28587
28464
28504
28287
28837
28676
28408
28637
28667
28569
28396
28603
28780
28767
28621
28729
28681
28608
28585
28929
28617
28552
28766
28813
28938
28553
28768
28826
28756
28556
29101
28836
28625
28663
28887
28819
28654
28841
29256
28912
28724
28901
29080
28894
28785
29139
28984
29029
28960
29358
29126
28838
29075
29204
29267
28753
29036
29140
29089
28730
29147
29105
29077
28892
29272
29164
29056
29006
29219
29181
29215
29050
29434
29209
28895
29030
29234
29116
28618
28995
29047
28803
28679
28710
28716
28701
28491
28712
28390
28125
28124
28422
28056
28067
28208
28140
28162
27886
28388
28131
27818
27895
28396
28009
27960
28069
28196
28034
27797
28238
28300
28065
27891
28126
28120
28066
27954
28244
28183
27973
28163
28166
28314
27879
28233
28411
28227
28093
28421
28651
28368
28380
28428
28388
28311
28341
28644
28475
28197
28246
28718
28506
28256
28641
28666
28455
28349
28586
28697
28449
28515
28853
28568
28587
28627
28898
28529
28180
28832
28834
28649
28715
28741
28871
28784
28451
29007
28765
28446
28586
28887
28804
28450
28704
29049
28828
28428
29066
28846
28861
28746
29046
29179
29027
28839
29248
28902
28907
28979
28945
28985
28597
28959
29005
28866
28703
29076
29108
28693
28859
29254
29139
28679
28844
29271
28866
28952
29071
29166
28985
28707
29305
29053
28938
28829
29354
29031
29081
28934
29205
29258
28847
29322
29293
29139
28877
29193
29322
29067
29074
29395
29138
29292
29012
29084
29263
28941
29069
29420
29078
28781
29223
29216
28922
28989
28981
29078
28890
28700
28620
28550
28244
28392
28456
28275
28178
28394
28452
28249
27914
28393
28199
28150
27973
28322
28185
28025
28134
28142
28308
27796
28160
28379
28259
28117
28278
28365
28069
28142
28358
28217
27848
28064
28344
28421
27997
28096
28438
28207
27905
28404
28430
28371
28248
28612
28234
28447
28263
28416
28467
28461
28270
28537
28345
28234
28418
28608
28700
28209
28668
28547
28581
28377
28528
28724
28295
28490
28845
28667
28416
28588
28677
28667
28605
28685
28329
28664
28313
28798
28836
28718
28745
28892
28642
28565
28804
28772
28811
28640
28858
28796
28806
28752
28967
28854
28644
28694
28841
29018
28699
28899
28961
28998
28757
28830
28852
28890
28514
28975
29093
28930
28939
28890
28948
28874
28881
29276
28839
28700
28931
29205
28925
28934
29132
29167
29085
28978
29329
28919
29015
29026
29311
28990
28809
29023
29015
29087
28885
29092
29102
28969
29081
29133
29139
29031
28874
29181
29263
28728
28828
29145
29035
28689
29010
29235
28972
28757
29124
29066
28995
28790
28833
28800
28498
28588
28743
28505
28201
28327
28106
27959
27682
28018
27939
28007
27615
27991
27920
27763
27848
28094
27810
27881
27774
28012
27885
27688
27948
28032
27866
27797
27904
27875
28106
27913
27948
28115
28034
27995
28198
28057
27859
28087
28190
28106
28081
28355
28256
28051
28238
28506
28229
28204
28284
28548
28543
28130
28266
28631
28412
28285
28446
28552
28290
28334
28508
28417
28532
28404
28619
28336
28431
28377
28698
28511
28206
28570
28588
28571
28247
28674
28690
28482
28387
28621
28622
28382
28593
28641
28558
28607
28653
28721
28714
28642
28874
28870
28590
28488
28882
28666
28667
28512
28769
28759
28581
28718
28917
28770
28531
28978
28971
28692
28707
28838
28774
28696
28916
28832
28968
28794
28874
29051
28986
28878
29013
29006
28789
28667
28902
29119
28913
28738
29215
29061
28734
28767
28979
28812
28756
29048
29011
28862
28856
29123
28969
29077
28840
29274
28905
29015
28968
28809
28839
28763
28755
28756
28648
28144
28382
28417
28242
28094
28377
28007
27977
27965
27906
27733
27531
27863
28094
27605
27431
27876
27697
27741
27646
27865
27909
27724
27631
27914
27668
27504
27804
27691
27953
27644
27757
27843
27910
27733
27862
27977
27826
27956
28024
27862
27811
28024
28248
28105
27892
28127
28237
28143
28048
28166
28066
28152
28159
28383
28214
27894
28317
28372
28476
28241
28190
28329
28361
27849
28151
28285
28432
28076
28235
28298
28163
28207
28521
28309
28076
28151
28394
28363
28177
28453
28440
28462
28174
28523
28446
28444
28357
28507
28416
28341
28567
28710
28563
28458
28543
28769
28682
28510
28684
28672
28637
28554
28697
28793
28495
28596
28692
28858
28777
28634
29036
28938
28570
28827
28777
28824
28616
28774
28912
28611
28752
28834
28818
29007
28862
29193
28852
28791
28995
29044
28950
28520
29106
29102
29037
28785
29093
29030
29082
28872
29122
29077
28672
28853
29062
28940
28691
28882
28817
28590
28569
28538
28351
28222
27960
28095
28036
28095
27715
27930
27992
27511
27736
27988
27754
27665
27923
27660
27677
27732
27957
27695
27421
27705
28002
27755
27578
27758
27928
27856
27362
27905
27670
27698
27484
27823
27725
27601
27698
27921
27835
27732
27897
27954
27935
27730
27976
27856
27977
27782
28260
28263
28006
28080
28388
28166
28096
28139
28313
28225
28088
28320
28345
28162
27846
28423
28295
28248
28057
28286
28206
28282
28119
28439
28163
28165
28206
28455
28269
27886
28491
28581
28257
28172
28581
28299
28135
28227
28755
28532
28141
28498
28493
28527
28223
28483
28550
28535
28471
28822
28525
28274
28645
28731
28834
28634
28557
28701
28666
28580
28756
28793
28660
28413
28813
28843
28635
28736
28821
28676
28614
28764
28906
28679
28432
28810
29018
28767
28515
28961
29092
28792
28832
29040
28923
28680
28859
28828
29004
28603
29005
29065
29054
28727
29104
28952
29047
28630
28945
29087
29067
28985
28936
29058
28690
28839
29068
28801
28500
28507
28603
28357
28062
28181
28166
28027
27786
28174
27823
27738
27648
27964
27685
27493
27787
28043
27819
27592
27719
27631
27673
27617
27872
27932
27782
27642
27691
27599
27606
27620
27906
27741
27366
27863
27984
27794
27794
27994
27959
27824
27693
28074
27885
28107
27960
28092
28200
27906
27891
28307
28195
27988
28281
28322
28297
27838
28257
28161
27971
28076
28587
28263
28179
28170
28230
28273
28084
28404
28390
28273
28224
28563
28611
28129
28179
28370
28446
28227
28463
28555
28369
28311
28570
28741
28520
28268
28670
28729
28550
28475
28534
28471
28510
28684
28596
28622
28486
28576
28685
28694
28567
28885
28975
28782
28722
28850
28748
28911
28484
29015
28764
28524
28688
28864
28923
28373
28915
28934
28723
28814
28882
29166
28772
28731
29249
29084
28895
28777
29176
28838
28578
28824
28987
29109
28722
29173
29156
28805
28796
29273
29041
28653
28837
29177
29009
28583
29063
29088
29064
29018
29060
28954
28932
29005
29127
29297
28799
28955
29161
28985
28684
29102
29053
28908
28634
29070
28953
28574
28331
28547
28510
28106
27965
28285
28202
28043
28031
28281
28085
27734
27763
27947
27818
27704
27899
27837
27657
27662
27918
27919
27918
27547
27792
27825
27594
27820
28032
27926
27596
27822
27849
27598
27732
28035
27750
27737
27645
28046
28020
27957
27845
28125
28144
27802
28173
28150
28121
28060
28389
28117
28179
27816
28223
28184
27922
28295
28294
28396
27941
28189
28384
28341
28155
28450
28244
28270
28143
28593
28405
28169
28328
28571
28302
28035
28270
28332
28464
28214
28549
28542
28420
28155
28575
28559
28324
28252
28525
28382
28514
28245
28607
28572
28306
28611
28447
28559
28412
28711
28640
28675
28320
28804
28569
28672
28477
28682
28582
28325
28595
28590
28674
28531
28689
28701
28542
28594
28770
28762
28826
28558
28827
28901
28679
28752
28771
28914
28624
28914
28928
28792
28792
29020
28983
28870
28875
29002
29065
28730
28873
28905
29055
28623
28811
28927
28786
28554
29156
29018
28743
28867
29158
28854
28838
28873
29029
28814
28599
28885
28959
28921
28543
29020
29085
28871
28772
29044
28911
28648
28717
28810
28569
28330
28279
28416
28041
27904
28033
28180
27807
27542
27756
27881
27509
27503
27622
27731
27674
27470
27793
27772
27422
27616
27532
27632
27495
27632
27710
27524
27578
27947
27621
27606
27436
27875
27584
27467
27728
27771
27788
27433
27987
27902
27651
27967
27875
28050
28149
27937
28070
27989
27927
27956
28268
28227
27742
28036
28168
28116
27931
28245
28309
28146
28030
28133
28337
28021
28063
28298
28084
28106
28123
28361
28257
27916
28307
28403
28132
28213
28359
28500
28303
28236
28324
28199
28263
28393
28663
28358
28213
28492
28379
28433
28235
28643
28334
28249
28339
28423
28499
28280
28494
28499
28455
28283
28601
28687
28376
28293
28618
28653
28276
28462
28530
28672
28441
28498
28483
28575
28328
28691
28645
28682
28474
28734
28754
28581
28389
28745
28622
28581
28682
28840
28661
28674
28509
28810
28862
28537
28776
28765
28616
28816
28934
28635
28609
28652
28816
28779
28699
28839
29001
28843
28481
28721
28871
28705
28515
28870
28746
28590
28888
28741
29014
28707
28540
28709
28750
28279
28461
28351
28190
28056
28178
28167
27913
27777
28091
27980
27799
27669
27731
27696
27419
27458
27589
27527
27394
27575
27683
27413
27474
27464
27416
27589
27412
27671
27571
27325
27462
27631
27557
27409
27497
27573
27395
27318
27707
27563
27642
27508
27904
27723
27477
27559
27780
27735
27501
27852
27811
27929
27499
27800
27968
27705
27641
27925
27863
27850
27794
28007
27904
27752
27858
28025
27801
27660
28015
28070
27907
27650
28029
28022
27806
28021
28166
28106
27691
27956
28200
28039
27799
28032
28151
27898
27889
28236
28198
28137
28138
28227
28163
28125
28025
28088
28172
27916
28157
28474
28239
28087
28275
28344
28204
28188
28360
28518
28231
28383
28378
28409
28380
28427
28455
28368
27968
28405
28394
28356
28123
28607
28417
28517
28402
28578
28273
28143
28427
28403
28582
28306
28407
28633
28595
28217
28672
28373
28505
28232
28639
28546
28495
28323
28683
28570
28370
28566
28801
28573
28276
28492
28397
28370
28217
28244
28411
27989
27779
28066
27747
27760
27818
27715
27437
27216
27525
27514
27479
27332
27353
27478
27162
27224
27265
27281
27348
27158
27496
27206
27180
27268
27380
27297
27161
27466
27422
27281
27091
27275
27390
27279
27230
27669
27484
27148
27244
27567
27343
27445
27519
27560
27714
27566
27713
27762
27747
27501
27935
27870
27758
27730
27990
27783
27626
27701
28021
27736
27755
28009
27965
27785
27893
28136
28124
27957
27836
28213
27876
27706
27703
27980
28026
27710
28147
28033
27868
27903
28084
28215
27830
27987
28240
27991
27759
28047
28196
28203
27777
28185
28269
28258
28127
28453
28397
28277
28251
28234
28290
28353
28150
28294
28266
28155
28327
28444
28320
28226
28453
28324
28450
28348
28550
28324
28283
28338
28359
28447
28442
28262
28585
28412
28132
28478
28667
28430
28252
28480
28594
28651
28499
28601
28681
28500
28501
28732
28619
28241
28677
28800
28608
28371
28842
28791
28761
28412
28474
28617
28504
28210
28291
28237
27687
27895
27797
27796
27534
27697
27550
27320
27135
27604
27367
27330
27124
27439
27250
27253
27022
27203
27242
27079
27308
27312
27215
27104
27248
27431
27284
27271
27313
27233
27416
27249
27434
27412
27172
27516
27304
27354
27197
27519
27324
27344
27508
27681
27622
27292
27500
27531
27529
27297
27570
27820
27729
27536
27770
27711
27593
27636
27816
27878
27899
27710
27890
27695
27621
27682
27822
27804
27427
27908
27935
27771
27683
27811
27930
27773
27675
28193
27988
27752
27950
28009
28076
27857
27924
28065
28088
27922
28129
28110
28257
28172
28212
28255
28128
28072
28202
28261
28060
28246
28390
28348
28231
28198
28229
28368
28172
28385
28455
28430
28293
28506
28245
28193
28297
28659
28524
28154
28561
28420
28449
28331
28625
28631
28475
28322
28676
28603
28225
28355
28865
28583
28462
28362
28733
28580
28322
28716
28622
28469
28298
28704
28551
28558
28517
28922
28745
28627
28684
28919
28745
28515
28653
28757
28566
28403
28735
28455
28379
28278
28468
28144
28046
27743
28068
27777
27720
27734
27726
27595
27360
27463
27633
27207
27173
27356
27351
27103
27462
27620
27298
27059
27215
27542
27182
27204
27572
27511
27204
27150
27540
27335
27333
27120
27272
27485
27133
27362
27493
27471
27406
27685
27578
27633
27378
27840
27637
27813
27548
27773
27735
27590
27725
27781
27904
27718
27819
28195
27976
27623
28040
27989
27718
27868
27815
27906
28025
27887
28063
27736
27859
27814
28133
27956
27601
28053
27931
28214
27849
28075
28237
27891
28071
28307
28000
27975
28109
28286
28244
28011
28137
28284
28156
27856
28369
28283
28186
28257
28535
28395
28381
28324
28275
28457
28080
28204
28373
28321
28210
28633
28572
28216
28424
28589
28523
28333
28426
28571
28644
28162
28528
28683
28469
28130
28520
28544
28594
28554
28644
28781
28420
28508
28681
28655
28509
28600
28639
28790
28457
28668
28830
28686
28629
28735
28773
28676
28590
28841
28875
28476
28715
28883
28791
28612
28707
28973
28784
28578
28870
28836
28877
28633
28766
28935
28578
28485
28886
28599
28198
28174
28399
28220
27896
27940
27844
27867
27482
27906
27842
27772
27451
27663
27531
27295
27495
27458
27370
27492
27555
27555
27506
27111
27404
27526
27498
27409
27500
27484
27629
27359
27536
27476
27481
27708
27687
27591
27519
27756
27934
27829
27542
27991
27850
27966
27852
27830
27963
27649
28013
28035
27859
27835
27942
27998
28031
27760
28195
28028
27836
27818
27886
28020
27863
28105
28188
27989
27655
27904
27909
27948
27834
28001
27867
27917
27882
27980
27980
28100
27869
27962
27868
28056
27894
28279
28007
27828
28120
28262
28134
27915
28093
28267
28079
27930
28140
28309
28319
28163
28351
28139
28147
28137
28316
28363
28029
28301
28333
28148
28291
28332
28541
28212
28363
28316
28470
28254
28202
28513
28383
28155
28523
28505
28449
28297
28697
28427
28428
28351
28812
28668
28381
28441
28752
28483
28447
28687
28516
28552
28288
28839
28744
28566
28457
28823
28873
28404
28573
28970
28820
28349
28579
28864
28679
28407
28828
28671
28612
28480
28625
28697
28586
28259
28374
28332
28175
27930
28184
27890
27829
27993
27821
27859
27863
28018
27807
27893
27778
27704
27731
27625
27563
27942
27769
27522
27634
27929
27781
27465
27762
27706
27670
27561
28038
27598
27685
27687
27900
27687
27649
27813
27880
27768
27578
28106
28165
27853
27824
28027
28129
28085
28060
28115
28075
27965
28114
28319
28086
27897
28174
28316
28104
27980
28259
28075
27993
28161
28102
28135
27790
28118
28049
28162
27876
28114
28119
28267
28019
28263
28282
28059
28234
28241
28195
28029
28265
28401
28339
28163
28329
28582
28327
28082
28386
28547
28370
28341
28294
28300
28322
28394
28273
28295
28544
28530
28493
28335
28219
28522
28733
28524
28141
28470
28510
28409
28320
28604
28685
28722
28480
28574
28590
28410
28614
28853
28643
28256
28653
28860
28615
28492
28786
28913
28583
28710
28772
28689
28740
28805
28939
28756
28645
28859
28796
28823
28690
28745
28799
28628
28866
28839
28739
28648
28671
28842
29010
28630
28765
29039
28763
28483
28808
28795
28663
28412
28825
28670
28432
28277
28238
28232
28087
28155
28072
28141
27683
27955
28091
27777
27761
28084
27983
27905
27662
27902
27953
27656
27867
27963
27835
27702
27810
27949
27841
27680
27925
28013
27863
27765
27926
27955
28039
27898
28019
27949
28036
27855
28044
27921
27923
28271
28132
28251
27891
28289
28273
28381
28157
28567
28222
28354
28290
28307
28336
28009
28380
28466
28352
28377
28474
28318
28147
28338
28332
28381
28093
28503
28398
28559
28230
28348
28448
28365
28074
28402
28536
28242
28190
28574
28465
28266
28393
28762
28710
28386
28609
28777
28653
28116
28604
28694
28534
28340
28854
28730
28595
28560
28633
28616
28423
28530
28872
28822
28325
28950
28843
28804
28670
28749
28791
28546
28617
28693
28799
28865
28774
28734
28556
28590
28813
28883
28830
28651
28865
28912
28789
28773
28952
28904
28809
28843
29074
28824
28870
28850
28923
28790
28758
28797
28816
28842
28465
28935
28808
28641
28394
28583
28591
28498
28286
28302
28256
28104
28235
28188
28107
28017
28124
27999
28138
27987
27998
28025
27650
27751
27869
27784
27886
28026
27906
27923
27918
28075
27937
27908
27824
28140
28042
27817
28045
28139
28007
28054
28046
28207
28272
27927
28235
28175
28223
28076
28217
28282
28132
28329
28378
28238
28461
28223
28488
28330
28266
28531
28552
28407
28141
28591
28516
28147
28308
28513
28488
28569
28495
28291
28401
28265
28471
28450
28299
28377
28647
28680
28481
28407
28588
28573
28441
28391
28806
28462
28321
28661
28752
28543
28283
28589
28522
28647
28427
28624
28711
28509
28509
28606
28699
28584
28530
28835
28708
28565
28653
28854
28805
28355
28812
28763
28595
28602
28699
28860
28759
28691
29138
28905
28764
28844
29042
28740
28581
28852
28968
28761
28705
28940
29052
28863
28734
29022
28912
28908
28785
29015
28903
28571
28854
28957
28771
28662
28746
28492
28431
28235
28506
28369
28044
28035
28185
28023
27921
27799
27905
28063
27835
28006
27793
27801
27680
27777
27664
27527
27595
27808
27749
27506
27604
28007
27930
27708
27741
27757
27773
27617
27851
27955
27972
27765
28034
27888
27970
27786
27939
28045
27638
27885
28045
28032
27830
28184
28196
28174
28054
28374
28103
27972
27990
28398
28142
27915
28257
28375
28364
28043
28307
28308
28087
28282
28097
28237
28099
28070
28535
28348
27988
28233
28543
28201
28069
28338
28334
28276
28251
28532
28576
28389
28396
28341
28407
28472
28188
28782
28457
28406
28452
28405
28427
28143
28547
28578
28352
28416
28676
28668
28303
28465
28769
28634
28371
28507
28836
28474
28387
28599
28526
28745
28512
28719
28756
28504
28624
28667
28768
28515
28485
28861
28692
28379
28883
28805
28800
28527
28700
28729
28726
28744
28885
28877
28471
28865
28910
28772
28677
28781
28741
28752
28631
28862
28672
28664
28521
28613
28533
28404
28154
28336
28248
28220
28120
28128
28129
27901
28001
28113
27906
27906
28038
28029
27767
27771
28126
28053
28081
27725
27907
28002
27855
27815
27923
27949
27689
27998
28062
27851
27686
28021
27980
27710
27887
27965
28076
27823
27908
28269
28199
28050
28293
28394
28143
28007
28511
28392
28426
28242
28301
28394
28289
28239
28532
28345
28143
28504
28419
28362
28236
28578
28503
28428
28211
28752
28482
28605
28223
28744
28467
28125
28288
28607
28553
28382
28442
28577
28360
28633
28599
28479
28539
28387
28531
28569
28386
28553
28645
28534
28221
28629
28571
28556
28404
28623
28829
28603
28398
28616
28455
28400
28646
28803
28609
28520
28631
28684
28795
28578
28822
28728
28602
28640
29004
28833
28621
28671
28922
28715
28651
28794
28813
28872
28581
28883
28789
28841
28715
28833
28916
28924
28645
29112
29007
28934
28907
29010
28975
28560
29019
29039
28732
28593
28984
28843
28925
28720
29053
28766
28513
28787
28664
28664
28463
28364
28594
28234
28104
28343
28035
28115
27863
28014
27920
27675
27819
28156
28024
27916
27824
27968
27948
27597
27987
27719
27935
27687
27849
28007
27706
27728
27868
27921
27710
27922
27942
27864
27835
27944
28043
27841
27718
28113
28148
27761
27935
28333
28059
28089
28138
28206
28067
27846
28073
28280
28158
28117
28189
28241
28127
28116
28208
28438
28327
28254
28501
28412
28270
28283
28395
28409
27888
28263
28510
28323
28373
28262
28474
28245
28160
28324
28321
28076
28475
28675
28627
28179
28407
28659
28325
28251
28462
28606
28422
28507
28565
28562
28254
28429
28639
28344
28549
28325
28546
28642
28486
28725
28595
28739
28406
28622
28663
28562
28382
28736
28484
28409
28542
28776
28644
28562
28585
28722
28695
28547
28638
28762
28783
28536
28646
28680
28377
28474
28982
28815
28409
28830
28786
28864
28465
28785
28675
28879
28765
28702
28938
28597
28682
28857
28963
28541
28702
28903
28790
28734
28961
28772
28747
28677
28799
28902
28526
28635
28626
28385
28355
28352
28341
28151
28106
28233
28221
27915
27737
28161
28024
27956
27915
28117
27733
27755
27699
27841
27858
27674
27770
27981
27974
27618
27847
27926
27937
27781
27831
27850
27721
27793
27821
27786
27746
27749
27936
27934
27647
27973
28081
27938
27815
28132
28076
27945
28067
28178
28158
28008
28053
28299
28180
28046
28171
28250
28134
27921
28263
28385
28206
28091
28219
28260
28328
28274
28255
28396
28020
28183
28271
28343
27984
28226
28322
28169
28206
28231
28319
28330
28230
28272
28310
28030
28171
28386
28505
28056
28413
28356
28426
28139
28550
28324
28474
28489
28654
28649
28338
28454
28826
28573
28533
28627
28655
28659
28445
28697
28762
28708
28566
28648
28658
28834
28686
28917
28777
28614
28692
28805
28560
28441
28702
28850
28846
28628
29026
28996
28573
28763
28932
28980
28897
28937
28960
28811
28768
28848
29079
28978
28765
28977
28742
28822
28974
29025
29014
29038
28939
29021
29089
28718
29000
29046
29040
28847
29060
28948
28692
28788
28739
28677
28507
28445
28719
28533
28094
28124
28358
28345
28153
28285
28298
28127
27973
28220
28154
28082
28023
28318
28118
28278
28025
28267
28278
27946
28292
28348
28130
27891
28362
28273
28225
28032
28426
28108
28332
28160
28222
28306
28052
28292
28559
28452
27985
28453
28409
28477
28313
28563
28388
28378
28495
28601
28360
28509
28450
28643
28299
28250
28599
28419
28487
28259
28739
28454
28323
28645
28505
28457
28218
28348
28488
28739
28345
28443
28730
28588
28271
28590
28605
28632
28383
28763
28690
28601
28527
28918
28866
28569
28563
28755
28777
28432
28721
28807
28719
28712
28871
28777
28839
28557
29021
29011
28849
28881
28953
28870
28699
28855
28924
28883
28762
28808
28975
28739
28740
28865
28823
28860
28684
28817
29020
28698
28786
28907
28927
28657
29053
29031
28880
28703
29180
28907
28947
28708
29173
28974
28678
28833
28958
28974
28838
28962
29091
28756
28714
28808
28620
28484
28313
28491
28411
28039
28229
28341
28066
28084
28145
28064
28108
28010
27978
28182
27817
27892
28235
27966
28096
27863
28155
27851
27859
27850
28005
27883
27930
27991
27992
27931
27928
28118
27996
28032
27883
28266
28080
28073
27994
28180
28085
28056
28296
28410
28193
27982
28440
28422
28208
28241
28575
28211
28106
28239
28674
28398
28284
28506
28513
28322
28177
28521
28281
28362
28388
28503
28555
28561
28314
28428
28351
28404
28620
28716
28456
28097
28573
28657
28567
28542
28608
28729
28562
28511
28687
28658
28467
28430
28600
28839
28506
28578
28771
28679
28617
28834
28602
28764
28698
28713
28877
28544
28704
29028
28892
28548
28730
29001
28813
28531
28875
29004
28837
28716
29106
29052
28810
28856
28868
29178
28929
28965
28926
28789
28846
29085
29125
28886
28965
29132
28847
29102
28783
29015
29071
28717
28975
29161
29020
28727
29039
29007
28826
28785
28922
28984
28902
28600
28932
28856
28511
28520
28726
28532
28276
28291
28358
28329
28113
28264
28318
28060
27950
28180
28136
28152
28036
28245
28125
27807
28103
28113
28091
27951
28114
28237
27979
27826
28092
28136
28165
27822
28272
28072
27824
28001
28108
28247
27934
28067
28440
28263
27936
28261
28339
28225
28304
28460
28511
28432
28228
28449
28385
28148
28286
28561
28398
28263
28407
28669
28424
28399
28455
28434
28566
28393
28555
28505
28474
28489
28534
28667
28375
28506
28677
28440
28514
28746
28610
28608
28590
28608
28500
28428
28614
28650
28667
28439
28540
28720
28648
28446
28721
28870
28682
28536
28730
28647
28579
28700
29037
28684
28793
28816
29040
28648
28587
28790
28955
28858
28711
28772
28998
28946
28874
29098
28952
28692
28891
29040
29095
28723
28813
29029
28959
28787
28942
28991
29060
28848
28952
28857
29052
28786
29174
29108
29012
29013
29054
29006
28915
29090
29036
29052
29050
29146
29038
29013
28967
29221
28998
28958
29033
29066
28826
28550
28804
28948
28611
28490
28557
28577
28503
28412
28566
28457
27912
28002
28108
28231
27949
28040
28205
28213
27728
28066
28213
28114
28102
28116
28138
27888
28160
28189
28151
28068
28019
28206
27962
27960
28013
28062
28117
28086
28142
28242
28155
28082
28153
28159
28034
28351
28312
28348
28220
28442
28410
28447
28089
28511
28343
28538
28418
28366
28663
28418
28363
28365
28309
28278
28291
28471
28586
28391
28661
28634
28390
28249
28584
28636
28457
28469
28804
28520
28273
28319
28795
28670
28239
28526
28499
28492
28530
28781
28616
28568
28402
28902
28630
28419
28763
29012
28863
28311
28868
28758
28814
28418
28758
28791
28650
28592
28786
28925
28593
28763
29003
29025
28525
28949
28872
28874
28810
28968
28934
28813
28849
28916
28880
28709
28795
29070
28794
28798
28775
28983
28939
28742
29113
28936
28809
28853
29006
29043
28861
28788
28975
29128
28773
29097
29314
28972
29080
29030
29240
29155
28779
29067
29177
29143
28885
29318
29018
28978
29220
29095
29044
29143
29092
29159
29070
28739
29033
28967
28781
28550
28811
28695
28536
28180
28432
28269
28412
28135
28265
28315
28140
28314
28146
28183
27998
28281
28108
28125
28013
28327
28211
28099
28028
28281
28122
28034
28042
28367
28198
27882
28304
28187
28035
28067
28318
28217
27970
28245
28199
28432
28173
28182
28547
28443
28345
28358
28639
28444
28255
28496
28580
28546
28362
28467
28577
28410
28411
28468
28384
28461
28435
28783
28736
28242
28494
28729
28477
28430
28819
28700
28674
28602
28824
28787
28477
28645
28908
28596
28537
28669
28762
28768
28592
28919
28649
28521
28777
28923
28714
28835
28780
28779
28890
28516
28733
28787
28906
28558
29049
29034
28833
28701
29114
28773
28665
28930
28861
29050
28753
28894
29038
28957
28575
29001
29112
28803
28656
29179
29056
28996
29063
28955
29017
28695
28930
29009
29035
28761
29017
29016
29064
28796
29219
29195
29146
28969
29021
29060
29003
28904
29314
28983
29062
29114
29286
29205
28779
29249
29231
29196
29022
29044
29104
28920
29143
29099
28901
29093
29162
29162
29154
28917
29054
28933
28809
28620
28751
28632
28520
28437
28680
28682
28165
28382
28596
28294
28153
28191
28411
28285
28018
28430
28391
28017
28215
28445
28257
27970
28071
28194
28310
28062
28277
28330
28237
28173
28273
28380
28238
28265
28513
28232
28078
28407
28285
28441
28337
28351
28552
28390
28304
28589
28428
28561
28451
28605
28524
28197
28374
28809
28623
28278
28373
28518
28526
28336
28405
28591
28496
28339
28514
28533
28519
28382
28554
28633
28664
28466
28771
28700
28349
28648
28871
28581
28544
28713
28808
28854
28633
28665
28775
28853
28685
28704
29018
28607
28592
28956
28808
28642
28753
28741
28786
28527
28812
28946
28811
28644
28988
28780
28935
28780
29099
28840
28723
28835
29067
29024
28851
28949
29182
28815
28980
29117
29022
28851
28834
28992
29080
28827
29050
29102
29140
28749
29025
29142
29172
28862
29130
28935
28895
29003
28995
29161
29126
29039
29273
29091
28915
29103
29118
29097
29020
29300
29253
29155
29141
29139
29267
28994
29109
29077
29161
29053
29116
29165
29090
28785
29224
29170
28843
28736
28825
28912
28568
28794
28843
28421
28410
28415
28465
28634
28338
28457
28356
28217
28363
28523
28441
28443
28434
28670
28478
28394
28458
28418
28370
28261
28433
28461
28468
28203
28517
28545
28247
28490
28469
28610
28401
28351
28810
28574
28312
28469
28620
28548
28383
28705
28670
28503
28510
28878
28722
28747
28512
28626
28727
28460
28700
28759
28540
28578
28668
28860
28623
28653
28853
28912
28551
28700
28894
28751
28599
28652
28815
28636
28502
28820
29017
28686
28502
28931
28951
28640
28657
28874
28954
28837
28696
28878
29058
28698
28758
28988
28809
28630
28995
28851
28730
28782
28973
28951
28822
28701
29148
28868
28762
29025
29207
29131
28660
28972
29069
29060
28741
28987
28983
28744
28909
28973
29144
29123
29098
29108
29077
28963
29023
29134
28992
29018
29146
29181
29049
28881
29034
28949
28889
29189
29163
29207
29022
29058
29194
29055
28780
29088
29045
29010
28905
29140
29113
28687
28920
28858
28800
28797
28821
28637
28543
28406
28486
28545
28336
28110
28440
28290
28260
28242
28212
28179
27981
28251
28225
28356
28071
28221
28363
28137
28147
28245
28435
28297
27987
28379
28388
28043
28285
28466
28274
28200
28334
28495
28329
28180
28421
28442
28456
28283
28529
28456
28401
28295
28595
28504
28288
28442
28784
28457
28406
28532
28836
28577
28589
28588
28756
28713
28583
28725
28724
28594
28432
28826
28518
28430
28702
28637
28707
28444
28946
28835
28642
28514
28939
28807
28785
28614
29043
28922
28713
28804
28847
28848
28744
28729
28941
28794
28747
28962
29027
28814
28680
28998
29021
28899
28889
28837
28975
28693
28949
29151
28986
28714
28995
28941
29040
28850
28903
28945
29148
28661
28926
28923
28710
28989
28994
28921
28769
28963
29144
28843
28990
29222
29087
28821
29003
29285
29093
29198
29115
29037
29113
28873
29089
29076
29077
28842
29198
29261
29079
29109
29096
28913
28740
28943
28899
28777
28656
28666
28749
28702
28135
28536
28555
28270
28212
28250
28307
28057
28087
28365
28141
28142
28259
28330
28232
27926
28155
28138
28120
28095
28166
28144
28016
27954
28394
28080
28320
28094
28202
28308
28112
28301
28295
28371
28108
28359
28266
28212
28263
28575
28561
28375
28415
28564
28648
28197
28483
28528
28518
28160
28557
28818
28529
28434
28609
28544
28468
28449
28763
28733
28455
28536
28608
28561
28384
28527
28786
28645
28490
28689
28824
28479
28736
28964
28856
28702
28606
28767
28799
28477
28767
28742
28841
28658
28795
29145
28642
28788
28998
29049
28636
28751
29004
28863
28871
28850
28904
28970
28503
28968
28918
29025
28819
28946
29103
28849
28865
29239
29034
28652
29018
28951
29017
28662
29009
29086
28964
28868
29016
29071
29072
28869
29202
29108
28932
28754
29310
28881
28920
29025
29207
29024
28816
29133
29066
29063
29106
29206
29009
29203
29068
29255
29239
28771
29159
29256
29118
28992
28943
29064
28906
28513
28792
28773
28422
28399
28732
28298
28518
28415
28283
28537
28195
28309
28274
28251
28250
28335
28300
28392
28077
28246
28297
28373
28184
28519
28483
27983
28092
28440
28154
27971
28219
28413
28218
28143
28372
28242
28201
28352
28574
28369
28155
28295
28730
28612
28241
28585
28673
28528
28379
28760
28728
28468
28460
28867
28487
28476
28693
28746
28553
28572
28588
28668
28618
28538
28676
28854
28517
28516
28825
28718
28611
28760
28645
28581
28387
28681
28815
28908
28654
28644
28720
28555
28651
28910
28914
28733
28630
28735
28751
28556
28854
28897
28909
28504
28830
28798
28828
28736
28942
28773
28845
28880
28853
28878
28630
28711
28887
28895
28670
28939
29081
28943
28744
29014
28930
28820
28861
28889
29081
28781
28929
29284
28942
28660
28775
29004
29113
28883
29107
28890
29073
28744
29182
29053
28947
29127
29233
29219
29131
29092
29055
29185
28985
29040
29261
29066
28976
29211
29178
29020
29027
29254
29002
29190
29026
29005
29034
28779
28877
28937
28826
28561
28746
28860
28691
28439
28642
28398
28433
28180
28212
28340
27956
28207
28500
28224
27868
28210
28142
28252
28041
28303
28348
28185
28219
28298
28189
28060
28049
28217
28244
28060
28221
28450
28335
27890
28299
28259
28176
28315
28506
28245
28058
28180
28674
28288
28139
28375
28596
28339
28318
28530
28692
28485
28497
28533
28479
28543
28538
28560
28463
28335
28631
28691
28625
28574
28455
28826
28751
28363
28667
28736
28710
28500
28555
28861
28580
28512
28895
28648
28668
28782
28684
28598
28286
28750
28778
28609
28509
28787
28713
28740
28785
28921
28906
28714
28672
28856
28822
28608
28897
29021
28855
28586
29112
28967
29034
28606
29068
28924
28636
28758
28874
29099
28789
28856
28995
29037
28839
29052
29153
28990
28718
28970
29144
28757
29011
29254
28936
28861
28818
29137
28968
28621
29108
29083
28961
28770
29198
29162
29105
28798
29032
29174
29135
28936
29356
29105
28945
28990
29192
28946
28823
29046
29119
29053
28839
29058
29082
28793
29000
29167
29115
28864
28921
29092
28762
28729
28725
28856
28604
28575
28718
28545
28415
28323
28495
28213
28239
28338
28339
28259
27947
28346
28431
28301
28235
28404
28460
28099
28349
28358
28499
28226
28204
28606
28543
28227
28239
28442
28185
28273
28396
28306
28165
28368
28453
28659
28471
28484
28511
28575
28442
28608
28803
28613
28088
28616
28565
28618
28359
28599
28618
28748
28566
28921
28721
28377
28493
28799
28645
28364
28829
28873
28673
28355
28670
28609
28476
28657
28758
28673
28734
28785
28917
28868
28668
28808
28818
28806
28658
28785
28969
28697
28626
28943
28828
28727
28763
29089
28953
28620
28939
28935
28890
28467
28836
28998
28797
28841
29075
28918
28808
28688
28892
29097
28932
28879
29181
28845
28876
28919
29139
28888
28704
29073
28916
28864
28876
29107
29083
28844
28958
28955
28905
28938
29119
29066
28989
28875
29006
29115
29196
28991
29281
29079
29164
28989
29261
29143
29041
28964
29295
29104
28837
29082
29270
29092
28852
29186
29010
29082
28879
29243
29025
29007
28680
29074
28965
28561
28633
28816
28698
28334
28446
28402
28202
28341
28282
28260
28319
28332
28467
28216
28012
28258
28362
28181
27872
28349
28212
28208
27987
28297
28498
28333
28092
28504
28446
28089
28310
28375
28320
28036
28227
28460
28317
28183
28431
28432
28250
28245
28710
28587
28269
28586
28457
28649
28243
28721
28744
28602
28388
28556
28437
28436
28422
28622
28812
28610
28638
28795
28563
28534
28485
28740
28816
28384
28757
28719
28747
28610
28708
28673
28594
28771
28812
28874
28492
28637
28873
28738
28607
28845
28780
28624
28486
28993
28866
28660
28757
28992
28921
28621
28895
28927
28929
28825
28733
28871
28810
28579
28856
28935
28954
28884
29066
29058
28639
28823
29104
28939
28691
28994
29173
29031
28844
28971
28979
28989
28982
29165
29238
28912
28990
29055
29022
29041
29020
29215
28998
28838
29068
29241
29070
28890
29131
29102
28954
29096
29356
29066
29039
28850
29178
29164
28868
28907
29269
29191
28732
28990
28958
28654
28633
28755
28658
28469
28523
28544
28473
28149
28308
28630
28394
27966
28468
28481
28305
27842
28418
28181
28333
28334
28469
28509
28021
28222
28439
28460
28074
28373
28307
28200
27977
28330
28375
28430
28349
28533
28328
28360
28313
28707
28489
28438
28402
28515
28620
28255
28711
28612
28455
28375
28796
28686
28678
28520
28588
28531
28633
28385
28778
28615
28289
28659
28522
28659
28240
28658
28640
28653
28686
28716
28803
28717
28487
28757
28840
28609
28798
28937
28593
28428
28809
28821
28651
28529
28835
28745
28812
28659
28978
28753
28920
28662
29067
28972
28738
28752
28922
28830
28614
28962
28925
28620
28644
28835
29044
28745
28671
28861
28914
28842
28841
28859
28853
28695
28963
28950
28911
28700
29032
29030
28879
28756
29010
28970
28646
29026
28990
29052
28637
29155
28789
29072
28752
29192
29000
28989
28968
29277
28970
28714
28946
29251
29058
28625
28937
28893
28773
28539
28637
28492
28592
28367
28521
28441
28124
28291
28496
28245
27927
28212
28247
28033
27913
28118
28210
28156
27870
28103
28137
28223
28013
28105
28170
27815
27990
28156
28303
27961
28107
28210
28079
28087
28202
28124
28209
28135
28139
28102
28157
28124
28441
28358
28051
28214
28504
28333
28139
28283
28613
28150
28370
28321
28550
28227
28229
28631
28612
28443
28348
28701
28450
28364
28599
28471
28435
28500
28655
28470
28651
28595
28540
28734
28621
28539
28667
28577
28309
28650
28609
28576
28451
28852
28491
28686
28592
28651
28593
28781
28685
28760
28565
28549
28616
28896
28704
28412
28871
28867
28825
28627
28891
28606
28716
28737
28721
28767
28693
28699
29024
28806
28753
28844
28780
28676
28538
28911
28794
28870
28663
29011
28663
28605
28898
28884
28772
28782
28924
29061
28763
28731
28995
28865
28822
28784
29177
28925
28828
28866
29188
28932
28629
28823
29142
28805
28608
28861
28382
28657
28385
28770
28565
28369
28175
28316
28225
28000
28049
28194
28188
27922
28149
28220
27987
27679
28070
28172
27964
27967
27933
28085
27945
27953
28181
27812
27790
27853
28024
28071
27834
28039
27944
27887
27778
28136
28241
27911
28044
28067
28202
27881
28106
28230
28277
28001
28251
28242
28105
28290
28202
28196
28410
28142
28548
28304
28190
28166
28435
28158
28030
28492
28367
28239
28109
28321
28309
28251
28372
28533
28550
28431
28407
28670
28459
28401
28404
28676
28564
28324
28672
28601
28372
28552
28736
28614
28427
28584
28573
28470
28515
28468
28816
28699
28253
28621
28671
28539
28683
28740
28576
28545
28426
28813
28687
28523
28710
28835
28710
28416
28689
28928
28757
28675
28946
28876
28647
28715
28710
28917
28497
28542
28757
28878
28718
28903
28743
28919
28649
28963
28906
28913
28801
28928
28899
28779
28851
28868
28791
28622
28768
29147
28933
28648
28991
28925
28923
28723
28923
28755
28934
28666
29119
28761
28873
28772
28875
28767
28298
28491
28320
28211
28034
28345
28188
28208
27997
28003
27942
27679
27843
28109
27902
27942
28030
28105
27932
27591
27984
28073
27869
27773
28053
27827
27703
27851
28092
28004
27860
27775
27947
27953
27740
27942
28068
28087
27976
28022
28176
27817
27855
28399
28283
27998
28156
28152
28322
28013
28267
28199
28273
27911
28271
28298
28143
28027
28226
28376
28146
28254
28222
28312
28044
28184
28446
28424
27988
28379
28448
28365
28330
28449
28324
28503
28502
28723
28492
28517
28431
28719
28450
28181
28476
28641
28496
28475
28632
28568
28557
28502
28515
28735
28348
28351
28651
28533
28457
28677
28789
28642
28426
28602
28662
28554
28546
28784
28733
28716
28796
28753
28781
28594
28654
28801
28831
28535
28798
28616
28789
28725
28796
28668
28746
28691
29097
28840
28901
28739
28896
28770
28524
28763
28945
28887
28440
28980
29027
28890
28712
29065
29065
28899
28959
28846
28996
28736
28888
28906
28863
28581
28904
29046
28855
28717
28912
28708
28411
28587
28478
28319
28378
28198
28309
28243
27830
28239
28237
28183
28048
28144
28212
27984
28038
28223
28105
27959
28087
28129
28192
27923
28099
28086
28106
27781
28067
28019
28037
27793
28321
28066
27750
28088
28198
27949
27978
27910
28242
28188
27851
28307
28221
28066
28032
28248
28462
28099
28124
28198
28196
28288
28424
28527
28315
28287
28297
28524
28400
28277
28460
28374
28202
28411
28299
28377
28126
28297
28749
28515
28299
28344
28503
28498
28164
28557
28555
28525
28232
28738
28616
28426
28565
28860
28610
28306
28482
28729
28496
28446
28724
28546
28731
28349
28668
28771
28484
28535
28885
28668
28625
28681
28779
28528
28572
28573
28644
28609
28757
28948
28778
28512
28757
28862
28802
28804
28595
28696
28771
28567
28904
28805
28796
28696
28785
28872
28633
28835
28890
28825
28806
28888
28778
28761
28802
28791
29121
28975
28871
29047
28881
29001
28846
29063
28957
29061
28912
28891
29057
28844
28812
29091
28903
28622
28944
29010
28811
28428
28734
28608
28501
28303
28552
28274
28389
28082
28266
28213
28027
27982
28217
28064
27766
28059
28237
28031
27911
28026
28088
27832
28048
28093
28264
28192
28072
28115
28108
28022
28222
28001
28124
27924
28093
28095
27970
27985
28354
28291
28306
28331
28528
28324
28171
28376
28258
28295
28306
28321
28367
28393
28291
28529
28650
28524
28286
28342
28504
28319
28437
28425
28421
28125
28446
28401
28454
28455
28430
28527
28577
28338
28569
28611
28289
28452
28667
28528
28484
28503
28637
28469
28289
28596
28659
28347
28490
28740
28639
28346
28559
28594
28578
28581
28583
28608
28635
28438
28711
28673
28653
28643
28911
28640
28424
28780
28666
28850
28573
28749
28767
28727
28638
28861
28920
28809
28796
29027
28775
28959
28842
28836
28717
28526
28907
29030
29013
28570
28780
29110
28966
28753
29118
28871
29030
28670
29080
29011
28924
28986
29049
29036
28741
29043
28848
28877
28834
28949
29095
28868
28731
28917
29050
28834
28826
29112
29105
28710
28845
28896
28800
28503
28772
28761
28526
28369
28620
28498
28404
28139
28216
28319
28213
28283
28285
28158
28009
28221
28175
28149
28007
28162
28204
28193
28172
28384
28176
28236
28225
28386
28268
28033
28147
28250
28209
27907
28299
28196
28193
28108
28387
28277
28306
28286
28404
28382
28276
28290
28467
28367
27985
28358
28438
28535
28196
28379
28392
28496
28245
28470
28617
28621
28496
28462
28522
28374
28492
28643
28622
28423
28517
28436
28595
28488
28761
28648
28694
28712
28542
28791
28334
28708
28876
28617
28460
28784
28606
28485
28764
28882
28655
28780
28528
28655
28656
28840
28581
28901
28599
28548
28683
28743
28539
28434
28909
28853
28624
28559
28748
28938
28782
28656
29006
28717
28552
28766
28898
28837
28648
29028
28946
28927
28739
28938
28907
28961
28796
29154
28875
28722
28748
28846
28802
28751
28949
28915
28884
28729
28983
28954
28827
28794
28975
28883
28776
28791
28893
28674
28647
28704
28800
28430
28461
28351
28285
28274
28199
28377
28210
27986
28157
28240
28044
27902
28021
28148
28115
27987
28062
28234
28050
28076
28244
28218
27930
28075
28099
27988
27794
28009
28280
28138
27949
28145
28158
28234
28014
28211
28337
28236
28222
28407
28287
28005
28208
28471
28551
28223
28386
28474
28386
28137
28550
28432
28255
28341
28650
28257
28177
28482
28347
28519
28341
28440
28516
28488
28198
28520
28388
28486
28395
28636
28417
28473
28540
28779
28599
28517
28590
28807
28678
28343
28544
28531
28577
28573
28571
28616
28452
28533
28630
28853
28361
28514
28625
28540
28602
28597
28862
28799
28357
28787
28781
28636
28735
28719
28733
28519
28557
28801
28661
28713
28549
28810
28901
28524
28843
28986
28768
28747
28973
28921
28803
28895
29088
29112
28756
28932
29146
28775
28748
28872
29115
28900
28767
28858
28892
28901
28845
28798
28501
28297
28624
28464
28445
28039
28257
28368
28064
27938
28133
28305
28196
28043
28263
28180
28157
27783
28274
27993
27996
28098
28188
28087
27828
28000
28101
27904
27775
28000
28030
27827
27984
27917
28024
27969
27965
28204
27935
27964
28163
28069
28032
28006
28119
28073
28239
28185
28148
28429
28333
28110
28471
28407
28171
28268
28485
28231
27978
28275
28386
28406
28086
28344
28241
28254
28357
28268
28444
28069
28261
28483
28336
28274
28375
28358
28449
28324
28566
28327
28498
28264
28411
28633
28225
28303
28735
28548
28246
28426
28610
28564
28221
28489
28467
28420
28409
28653
28625
28303
28610
28521
28637
28495
28581
28771
28716
28438
28680
28607
28732
28487
28836
28744
28516
28426
28810
28609
28396
28532
28717
28691
28461
28727
28757
28645
28450
28790
28803
28747
28831
28911
28711
28517
28770
28950
28874
28701
28833
28954
28779
28388
28772
28714
28622
28361
28520
28367
28084
28372
28280
28318
27926
27896
28152
27918
27684
28041
28115
27966
27798
28023
27855
27657
27871
27840
28003
27627
27979
27909
27792
27605
27830
27856
27863
27835
28022
27907
27626
27789
28061
27723
27663
27755
28000
28158
27790
28088
28202
27986
27804
28071
28212
27949
27971
28287
28081
28042
28225
28429
28102
28017
28242
28179
28174
28124
28277
28258
28071
28152
28375
28344
28056
28191
28193
28367
28072
28366
28522
28407
28054
28234
28352
28451
28219
28364
28417
28444
28453
28517
28627
28328
28223
28691
28400
28178
28475
28687
28383
28319
28628
28596
28532
28483
28519
28682
28496
28616
28556
28423
28329
28443
28781
28799
28338
28689
28633
28551
28370
28783
28616
28761
28699
28759
28810
28515
28696
28912
28796
28436
28667
28821
28788
28477
28897
28964
28571
28616
28703
28790
28891
28606
28850
28646
28504
28671
28901
28739
28471
28794
28967
28667
28621
28739
28787
28833
28570
28903
28580
28580
28349
28544
28308
27951
28262
28194
28058
27888
28052
27963
27856
27970
27988
27997
27815
27842
28002
27887
27647
28020
28135
27897
27718
27907
27857
27697
27885
28042
27890
27991
27907
27891
27896
27559
28041
28145
27812
27637
28045
27982
27985
27993
28120
28176
28115
28025
28298
28286
28090
28222
28398
28120
27899
28229
28170
28125
27927
28330
28205
28226
28082
28414
28184
28255
28258
28304
28400
28067
28295
28521
28364
28256
28469
28346
28155
28196
28266
28395
28109
28169
28288
28268
28333
28432
28433
28465
28094
28453
28455
28471
28434
28430
28586
28389
28520
28525
28700
28584
28464
28525
28502
28498
28640
28628
28510
28194
28568
28529
28397
28426
28863
28498
28369
28535
28620
28818
28555
28609
28804
28720
28641
28591
28795
28643
28466
28693
28684
28753
28711
28800
28822
28558
28758
28842
28761
28535
28831
28593
28742
28754
28805
28728
28801
28726
29012
28840
28836
28636
28824
28778
28669
28786
28880
28721
28484
28779
28714
28700
28494
28741
28530
28627
28380
28602
28285
28002
28254
28306
27920
27906
28160
28137
28080
27928
28000
27944
27688
27860
28180
27978
27703
27736
28101
27827
27650
27891
28009
27903
27927
28086
28080
27839
27920
27865
27939
27701
28030
28145
27915
27795
28039
28154
27926
27948
28221
28068
28164
28044
28385
28347
28280
28115
28141
28222
28122
28226
28430
28264
28099
28370
28316
28371
27975
28228
28191
28309
28366
28253
28484
28317
28207
28425
28332
28204
28208
28557
28298
28202
28310
28282
28278
28362
28601
28323
28096
28432
28585
28286
28301
28333
28557
28443
28256
28450
28393
28479
28306
28535
28710
28294
28464
28688
28574
28277
28470
28548
28504
28503
28578
28522
28475
28280
28550
28652
28604
28330
28531
28493
28407
28426
28706
28561
28258
28693
28661
28504
28396
28608
28610
28742
28518
28630
28679
28737
28658
28611
28842
28518
28715
28615
28687
28343
28717
28704
28540
28626
28704
28670
28462
28559
28959
28613
28596
28607
28726
28737
28421
28582
28853
28540
28500
28820
28557
28340
28416
28440
28367
28052
28194
28202
28195
27801
27793
28023
27890
27740
27890
27733
27743
27847
27834
27828
27765
27768
27844
27707
27423
27663
27719
27682
27658
27781
27865
27668
27594
27656
27673
27505
27520
27749
27835
27646
27890
27775
27853
27478
28007
28085
27850
27578
28154
27996
28067
27931
27925
27845
27967
27854
28111
27975
27786
28120
28085
27987
27973
28094
28167
27973
27885
28157
28159
28050
28092
28189
28200
28034
28133
28181
28176
27923
28276
28214
28225
27998
28304
28381
28276
28240
28378
28260
28006
28220
28433
28417
28227
28369
28346
28315
28099
28343
28303
28354
28318
28544
28249
28209
28360
28371
28429
28188
28511
28574
28605
28184
28521
28621
28332
28411
28586
28553
28290
28520
28456
28505
28433
28663
28639
28602
28294
28805
28801
28531
28583
28692
28548
28398
28610
28810
28846
28434
28672
28707
28709
28543
28794
28836
28685
28361
28815
28617
28661
28475
28805
28623
28650
28679
28917
28704
28582
28795
28890
28672
28364
28704
28746
28491
28276
28528
28331
27992
27968
28215
27996
28012
27967
27988
28083
27724
27997
27833
27895
27618
28078
27857
27674
27794
28125
27782
27804
27698
27950
27859
27666
27906
27871
27931
27617
27911
27873
27886
27903
28066
28079
27991
27870
28208
28088
28008
28025
28053
28202
28041
28340
28012
28139
28171
28242
28234
28277
28255
28390
28267
28258
28101
28283
28305
27914
28262
28164
28306
28118
28303
28250
28133
28144
28260
28434
28215
28189
28608
28308
28028
28369
28474
28275
28230
28504
28570
28366
28509
28527
28524
28387
28390
28701
28489
28215
28414
28543
28551
28248
28556
28497
28501
28288
28714
28519
28537
28359
28537
28532
28524
28501
28732
28734
28607
28647
28628
28607
28342
28653
28811
28690
28494
28766
28579
28542
28647
28656
28603
28558
28848
28709
28570
28350
28844
28749
28602
28579
28641
28763
28784
28681
28649
28894
28559
28690
28799
28641
28530
28705
28866
28590
28706
28647
28638
28440
28538
28776
28396
28423
28258
28431
28157
28152
28280
28159
28066
27843
28080
28034
27961
27818
27992
27820
27730
27854
27867
27824
27838
27929
27956
27909
27811
28157
27888
27784
27636
28161
27793
27948
28013
28055
28128
27754
27842
28201
27946
27860
28154
28300
28061
28030
28163
28011
28195
28009
28431
28117
28209
28193
28255
28200
28061
28260
28490
28263
28113
28198
28248
28235
28210
28408
28406
28177
28149
28221
28163
28209
28345
28477
28170
28224
28422
28339
28384
28213
28603
28358
28155
28326
28451
28444
28183
28331
28575
28294
28368
28434
28464
28463
28204
28577
28658
28326
28602
28438
28577
28433
28407
28514
28439
28516
28575
28582
28435
28321
28742
28711
28397
28370
28696
28669
28434
28573
28551
28701
28579
28719
28585
28727
28311
28631
28733
28642
28612
28748
28728
28677
28443
28771
28546
28807
28728
28710
28821
28604
28737
28818
28645
28647
28767
28608
28430
28452
28449
28439
28355
28133
27973
27931
27766
28088
27904
27825
27822
27961
27833
27884
27751
27870
27745
27565
27690
27915
27686
27671
27687
27985
27708
27381
27732
27819
27727
27495
27850
27790
27852
27775
27984
27830
27829
27823
27945
27690
27725
27905
28055
27977
27717
28051
28076
27891
28005
27945
27961
27936
28031
28251
28173
27825
28165
28131
28159
27864
28082
28258
28172
28010
28242
28204
27990
27986
28116
28289
28051
28080
28271
28278
27790
28268
28336
28156
28153
28213
28278
28069
28353
28573
28244
28383
28380
28312
28199
28089
28371
28419
28461
28106
28346
28528
28280
28401
28364
28494
28292
28430
28511
28417
28134
28261
28574
28443
28054
28574
28623
28503
28349
28713
28401
28375
28422
28552
28686
28334
28515
28723
28628
28222
28654
28623
28519
28443
28672
28651
28643
28693
28618
28841
28554
28605
28787
28714
28447
28645
28677
28711
28685
28831
28644
28465
28580
28779
28373
28344
28326
28221
28145
27813
28105
27968
27889
27614
27988
27731
27676
27800
27748
27782
27587
27412
27682
27681
27544
27612
27639
27583
27269
27680
27632
27668
27360
27691
27532
27603
27527
27546
27737
27481
27724
27886
27624
27624
27576
27817
27698
27598
27827
27768
27896
27654
28040
27697
27804
27820
27997
27957
27840
27984
28064
28045
27658
28065
28017
28031
27736
28128
27941
27945
27822
27972
28169
27727
27878
28151
28134
27915
28152
28120
28120
27985
28237
28110
28125
27951
28121
28130
27957
27982
28435
28266
28061
28273
28288
28257
28309
28369
28308
28351
28288
28252
28275
28421
28388
28390
28441
28251
28323
28448
28336
28099
28429
28378
28430
28411
28521
28490
28520
28409
28724
28442
28474
28441
28465
28544
28271
28476
28618
28472
28364
28499
28643
28326
28489
28532
28423
28441
28406
28733
28546
28493
28392
28595
28532
28405
28676
28511
28553
28448
28658
28233
28376
28049
28335
27948
27714
27764
27935
27642
27717
27835
27837
27580
27328
27761
27739
27667
27418
27777
27542
27477
27455
27667
27632
27456
27603
27486
27596
27429
27629
27631
27360
27550
27740
27752
27450
27505
27680
27706
27433
27651
27767
27700
27433
27854
27616
27782
27621
27997
27769
27729
27851
28123
27758
27635
27846
28128
27869
27773
27936
27943
27890
27687
28159
28009
28089
27979
28157
27868
27879
27895
28280
27977
27984
28136
28053
28028
27752
28216
28088
28056
28129
28230
28201
28074
28151
28253
28172
27972
28182
28315
28182
27920
28188
28152
28160
28122
28408
28230
28427
28351
28497
28327
28124
28349
28487
28279
28084
28197
28607
28442
28514
28577
28363
28503
28542
28381
28518
28587
28452
28712
28385
28247
28509
28513
28451
28419
28663
28666
28585
28539
28699
28424
28419
28492
28469
28480
28295
28502
28596
28625
28344
28663
28539
28565
28358
28618
28732
28465
28509
28531
28484
28325
28380
28290
28325
27791
28167
28024
27928
27805
27832
27929
27590
27407
27650
27831
27729
27540
27851
27550
27469
27639
27671
27667
27393
27587
27599
27347
27294
27724
27517
27416
27297
27379
27589
27171
27386
27619
27588
27392
27636
27736
27522
27407
27676
27858
27616
27638
27832
27867
27664
27708
27829
27885
27750
27814
27903
27849
27559
27960
27845
27859
27642
28095
27968
27919
27809
28109
27880
27746
27798
27991
27928
27568
28149
27937
28082
27847
28116
28064
27854
28086
28233
27926
27966
28078
28196
28094
28048
28065
28232
28023
27909
28148
28031
28096
27977
28249
28068
28224
28124
28444
28211
28146
28267
28396
28255
28192
28253
28205
28227
28100
28330
28439
28092
28094
28339
28311
28092
28448
28493
28267
28126
28466
28516
28466
28284
28560
28476
28155
28241
28460
28484
28411
28354
28452
28518
28274
28536
28458
28415
28119
28614
28517
28420
28362
28603
28568
28451
28545
28473
28522
28466
28247
28510
28264
28150
28335
28201
27935
27845
28064
27776
27512
27638
27766
27539
27412
27506
27776
27705
27352
27496
27706
27613
27499
27661
27536
27648
27515
27682
27543
27404
27453
27441
27532
27319
27723
27553
27635
27495
27665
27569
27554
27537
27630
27660
27673
27735
27803
27736
27614
27725
27845
27872
27731
27928
27798
27786
27840
27889
28054
27766
27820
27929
27959
27690
27736
28097
28021
27656
28024
27954
28047
27743
28191
27921
28014
27865
28225
28224
27770
27963
28122
28203
27805
28088
28174
28246
27791
28274
28105
28201
28161
28115
28263
28043
28167
28114
28262
27911
28161
28373
28145
28051
28342
28080
28179
28062
28272
28240
28084
28078
28463
28512
28318
28275
28491
28305
27939
28361
28242
28332
28167
28408
28289
28259
28376
28461
28276
28499
28455
28518
28335
28250
28371
28497
28363
28185
28491
28642
28642
28387
28642
28489
28612
28510
28549
28645
28522
28488
28602
28267
28022
28393
28410
28078
27770
28097
27911
27779
27729
27745
27883
27571
27694
27684
27652
27581
27686
27528
27592
27341
27714
27544
27419
27393
27686
27355
27466
27584
27384
27471
27385
27491
27368
27477
27237
27546
27380
27472
27475
27642
27651
27344
27472
27757
27588
27334
27568
27704
27858
27554
27740
27879
27682
27696
27720
27903
27703
27541
27685
27973
27653
27785
27866
27850
27508
27816
27836
27895
27773
27824
27786
27814
27784
28033
27915
27909
27983
28017
28015
27791
27994
28235
28072
27716
28115
27982
28045
27947
28154
28227
28276
28021
28311
28423
28212
28128
28418
28179
27992
28159
28449
28329
27950
28257
28220
28223
28229
28469
28307
28487
28410
28597
28269
28317
28342
28334
28481
28138
28509
28359
28263
28410
28625
28461
28501
28538
28786
28435
28554
28404
28738
28728
28342
28511
28674
28439
28487
28637
28544
28380
28198
28248
28097
28011
27842
28023
27834
27708
27758
27901
27696
27423
27720
27661
27692
27615
27721
27609
27673
27542
27823
27581
27458
27457
27470
27407
27277
27501
27517
27578
27337
27506
27491
27359
27412
27753
27718
27359
27419
27548
27577
27547
27643
27668
27619
27670
27817
27746
27761
27678
27971
27729
27763
27869
27787
27825
27640
27898
27907
27772
27524
28046
27850
27873
27764
27852
28012
27887
27901
28129
28035
27858
27834
27934
28063
27838
28119
28035
28046
27900
27960
27882
28013
27822
27947
28294
28155
28191
28175
27885
27875
28136
28001
28149
27991
28118
27974
28082
27996
28365
28300
28090
28140
28314
28209
28141
28348
28499
28282
28163
28425
28255
28406
28216
28536
28349
28226
28273
28302
28462
28254
28358
28551
28326
28240
28356
28365
28452
28275
28552
28536
28286
28463
28532
28510
28415
28445
28563
28388
28369
28447
28452
28399
28228
28567
28450
28347
28281
28217
28108
27814
27903
27898
27798
27488
27643
27710
27630
27288
27579
27548
27335
27212
27293
27266
27290
27065
27496
27187
27030
27162
27165
27140
26895
27224
27326
27286
27081
27345
27308
27044
26985
27331
27172
27328
27228
27313
27215
27216
27284
27363
27330
27283
27450
27312
27163
27261
27697
27668
27599
27419
27405
27495
27256
27468
27592
27685
27381
27711
27792
27651
27476
27739
27885
27543
27631
27794
27614
27478
27511
27824
27573
27531
27730
27719
27692
27529
27917
27865
27709
27765
27775
27689
27505
27633
27909
27727
27728
27869
27975
27880
27845
27941
28017
27803
27681
27954
27978
27796
28076
27941
27885
27967
27887
28269
27964
27888
28127
28046
28273
28060
28277
28132
28072
28184
28480
28362
28089
28250
28459
28298
28112
28403
28547
28428
28114
28568
28307
28292
28410
28661
28289
28246
28411
28612
28416
28324
28465
28604
28499
28328
28645
28522
28618
28300
28464
28650
28399
28434
28603
28549
28315
28195
28271
28082
27836
27970
28050
27652
27792
27763
27623
27522
27508
27479
27497
27552
27517
27664
27495
27232
27448
27480
27396
27416
27442
27478
27250
27271
27698
27593
27574
27369
27578
27460
27207
27388
27643
27370
27269
27591
27577
27576
27266
27665
27751
27789
27419
27674
27560
27537
27585
27866
27610
27597
27817
27728
27748
27715
27761
27822
27905
27800
27951
27667
27797
27769
27823
27900
27744
27856
28016
27867
27594
27897
28030
27801
27920
28187
28148
27850
28034
27934
28142
27882
28062
28063
28051
27787
28157
28173
28242
27919
28115
28201
28142
27909
28187
28145
28098
28004
28245
28265
27891
28240
28329
28204
27991
28245
28318
28080
28148
28545
28442
28257
28097
28592
28513
28208
28375
28561
28396
28310
28531
28369
28459
28512
28520
28439
28534
28554
28695
28494
28391
28566
28478
28548
28250
28751
28652
28403
28336
28762
28669
28497
28502
28874
28636
28358
28586
28617
28743
28515
28714
28636
28651
28477
28768
28574
28500
28232
28482
28244
28061
28046
28074
28124
27641
27849
28013
27730
27516
27742
27848
27603
27713
27593
27616
27477
27413
27606
27463
27547
27485
27649
27518
27573
27693
27821
27641
27639
27782
27676
27409
27477
27804
27740
27405
27535
27967
27882
27499
27841
27954
27876
27695
28044
27976
27692
27836
27965
27891
27973
28112
28141
28074
27807
28063
28055
28120
27754
28191
28181
28083
27855
28211
28045
27926
28155
28248
28142
27984
28113
28137
28292
27863
28310
28180
28112
28050
28410
28190
28121
28120
28216
28160
28008
28130
28347
28153
27965
28371
28375
28292
28116
28391
28165
28235
28183
28392
28319
28220
28378
28470
28459
28311
28425
28385
