31548
31491
31425
31354
31284
31215
31149
31090
31038
30995
30964
30944
30934
30932
30939
30953
30972
30992
31011
31027
31036
31035
31022
31000
30975
30949
30919
30885
30850
30819
30791
30766
30750
30741
30733
30725
30724
30732
30749
30773
30802
30834
30865
30892
30910
30921
30926
30925
30919
30908
30892
30873
30851
30826
30789
30739
30682
30625
30564
30498
30429
30359
30289
30219
30149
30077
30005
29937
29878
29826
29778
29731
29685
29639
29591
29542
29496
29452
29409
29369
29330
29293
29256
29222
29192
29164
29139
29117
29096
29076
29056
29035
29010
28983
28956
28931
28908
28883
28857
28830
28801
28766
28729
28695
28659
28616
28570
28527
28485
28443
28402
28362
28322
28283
28245
28206
28169
28133
28094
28054
28014
27969
27919
27867
27812
27754
27697
27642
27584
27524
27466
27410
27352
27289
27224
27160
27093
27025
26957
26894
26839
26797
26770
26769
26808
26897
27049
27268
27549
27885
28265
28677
29102
29528
29944
30341
30708
31040
31333
31584
31792
31960
32088
32175
32225
32241
32232
32205
32162
32107
32045
31976
31904
31833
31766
31704
31646
31600
31570
31553
31543
31536
31531
31530
31535
31546
31561
31577
31595
31611
31617
31610
31592
31566
31537
31505
31473
31441
31408
31374
31338
31309
31286
31266
31253
31251
31259
31275
31295
31316
31335
31354
31372
31390
31400
31398
31389
31378
31367
31351
31330
31308
31280
31240
31191
31139
31087
31032
30977
30923
30866
30806
30744
30678
30610
30544
30485
30430
30377
30325
30275
30223
30167
30112
30062
30012
29963
29921
29884
29849
29814
29781
29749
29716
29684
29654
29625
29597
29569
29539
29510
29479
29445
29411
29378
29344
29314
29290
29270
29250
29227
29205
29181
29151
29117
29080
29043
29002
28959
28914
28869
28821
28775
28734
28698
28661
28625
28588
28544
28491
28433
28378
28326
28275
28220
28162
28102
28038
27971
27900
27828
27756
27685
27616
27546
27474
27404
27337
27277
27224
27182
27159
27166
27216
27322
27491
27726
28023
28373
28759
29161
29566
29964
30347
30705
31029
31318
31565
31770
31938
32070
32164
32222
32252
32258
32242
32204
32149
32084
32011
31936
31860
31781
31702
31629
31566
31513
31466
31421
31387
31366
31354
31353
31360
31372
31381
31383
31377
31365
31345
31319
31290
31257
31222
31186
31157
31138
31126
31121
31123
31130
31142
31159
31183
31212
31241
31271
31303
31335
31364
31390
31414
31429
31433
31431
31427
31418
31398
31368
31331
31291
31247
31196
31137
31077
31017
30953
30879
30800
30722
30650
30588
30530
30474
30422
30376
30334
30291
30251
30216
30183
30152
30121
30086
30050
30016
29984
29952
29920
29890
29864
29840
29820
29805
29791
29773
29754
29737
29721
29704
29683
29658
29631
29603
29574
29544
29514
29483
29453
29428
29405
29377
29345
29312
29279
29247
29214
29179
29142
29101
29059
29015
28968
28917
28865
28812
28756
28695
28629
28562
28499
28438
28378
28315
28250
28186
28127
28081
28051
28046
28078
28160
28300
28498
28755
29065
29417
29797
30189
30581
30963
31326
31660
31960
32222
32441
32616
32749
32841
32899
32931
32941
32927
32893
32843
32781
32714
32643
32569
32497
32431
32373
32324
32279
32238
32202
32172
32151
32140
32139
32146
32152
32157
32160
32158
32151
32135
32111
32080
32046
32013
31980
31947
31915
31885
31857
31834
31819
31814
31819
31831
31848
31871
31900
31934
31967
31995
32018
32039
32058
32070
32072
32066
32052
32031
31999
31958
31913
31867
31820
31772
31723
31673
31619
31557
31488
31419
31355
31293
31229
31162
31098
31035
30978
30929
30885
30839
30791
30742
30694
30651
30614
30581
30548
30513
30476
30439
30404
30365
30322
30279
30240
30206
30180
30161
30145
30124
30097
30067
30037
30009
29988
29971
29952
29931
29908
29884
29857
29822
29784
29749
29717
29686
29653
29618
29580
29543
29508
29471
29431
29387
29341
29294
29249
29205
29163
29116
29064
29008
28949
28886
28822
28762
28704
28646
28586
28525
28466
28407
28352
28304
28266
28236
28219
28229
28282
28391
28567
28810
29110
29459
29845
30258
30684
31109
31521
31910
32268
32590
32871
33112
33312
33467
33579
33653
33696
33711
33703
33679
33643
33596
33540
33483
33427
33371
33319
33274
33239
33212
33193
33181
33179
33184
33194
33207
33222
33239
33259
33279
33292
33296
33294
33290
33282
33268
33246
33216
33177
33133
33089
33047
33009
32979
32959
32950
32948
32950
32959
32976
32997
33023
33051
33072
33084
33093
33100
33102
33095
33082
33062
33034
33002
32969
32931
32888
32839
32787
32734
32680
32627
32574
32522
32469
32417
32366
32318
32270
32221
32172
32119
32063
32010
31964
31926
31890
31855
31819
31787
31755
31722
31692
31665
31638
31608
31575
31541
31503
31465
31428
31391
31355
31322
31292
31267
31243
31223
31204
31184
31163
31142
31118
31090
31060
31026
30989
30947
30903
30858
30813
30771
30731
30687
30639
30591
30544
30498
30453
30405
30353
30300
30248
30197
30147
30098
30051
30002
29952
29903
29852
29797
29740
29683
29624
29563
29500
29434
29365
29295
29226
29160
29094
29031
28975
28929
28901
28897
28933
29022
29174
29393
29679
30026
30414
30824
31245
31663
32062
32436
32779
33085
33351
33577
33761
33905
34015
34095
34145
34164
34158
34132
34091
34035
33968
33895
33822
33756
33696
33644
33601
33565
33535
33511
33498
33495
33497
33503
33513
33525
33538
33550
33558
33563
33563
33558
33545
33521
33486
33443
33396
33346
33296
33249
33209
33180
33163
33155
33151
33149
33152
33158
33165
33172
33177
33185
33193
33201
33206
33205
33197
33186
33173
33157
33136
33107
33069
33025
32974
32918
32858
32796
32730
32661
32589
32515
32445
32380
32316
32253
32191
32129
32067
32009
31954
31899
31847
31796
31742
31684
31629
31580
31532
31488
31450
31411
31369
31326
31287
31253
31222
31196
31171
31142
31111
31079
31049
31019
30985
30950
30916
30884
30850
30810
30767
30723
30679
30634
30588
30541
30490
30438
30386
30336
30288
30244
30203
30160
30114
30068
30020
29971
29917
29858
29797
29737
29677
29615
29556
29500
29440
29375
29308
29239
29166
29093
29021
28950
28879
28806
28731
28661
28599
28550
28522
28522
28556
28636
28772
28972
29237
29556
29911
30286
30669
31049
31411
31748
32057
32337
32583
32791
32962
33094
33185
33240
33266
33265
33241
33201
33150
33088
33020
32951
32884
32815
32743
32672
32606
32545
32491
32450
32420
32398
32383
32373
32369
32370
32373
32370
32357
32335
32306
32276
32244
32206
32164
32121
32077
32033
31990
31953
31927
31909
31898
31897
31905
31919
31938
31959
31977
31993
32011
32031
32049
32060
32066
32066
32055
32033
32004
31972
31935
31891
31844
31792
31734
31668
31598
31527
31458
31391
31324
31257
31189
31116
31041
30969
30900
30837
30776
30716
30658
30605
30552
30497
30438
30382
30330
30284
30244
30212
30184
30160
30134
30103
30073
30046
30023
30001
29976
29944
29909
29871
29828
29782
29737
29696
29659
29625
29588
29551
29516
29485
29455
29426
29394
29359
29320
29279
29236
29190
29142
29092
29039
28983
28927
28875
28824
28768
28707
28645
28583
28518
28454
28391
28327
28260
28197
28141
28097
28072
28075
28118
28213
28365
28571
28827
29123
29446
29785
30130
30472
30801
31112
31400
31657
31876
32053
32192
32298
32371
32412
32426
32417
32389
32351
32305
32251
32191
32130
32069
32011
31954
31901
31853
31809
31770
31741
31722
31711
31706
31702
31697
31693
31691
31691
31690
31681
31663
31641
31616
31583
31541
31493
31443
31399
31365
31339
31321
31312
31310
31313
31318
31326
31338
31353
31364
31375
31393
31416
31435
31450
31464
31470
31465
31448
31422
31387
31343
31290
31228
31163
31097
31030
30965
30901
30835
30768
30704
30644
30589
30535
30484
30433
30377
30316
30253
30190
30131
30076
30027
29980
29932
29889
29848
29805
29760
29718
29679
29642
29608
29579
29552
29522
29487
29448
29409
29375
29346
29318
29290
29263
29238
29211
29182
29149
29114
29079
29046
29011
28975
28937
28894
28845
28792
28738
28687
28639
28592
28547
28504
28461
28419
28378
28338
28293
28243
28191
28137
28081
28025
27968
27910
27852
27795
27740
27684
27624
27564
27505
27445
27379
27314
27256
27207
27169
27144
27139
27168
27243
27372
27560
27805
28099
28434
28795
29174
29561
29942
30303
30638
30940
31205
31433
31622
31772
31888
31973
32028
32053
32049
32021
31979
31928
31870
31805
31738
31675
31619
31569
31526
31495
31473
31457
31449
31449
31455
31469
31491
31519
31543
31560
31574
31585
31588
31581
31564
31537
31502
31459
31410
31363
31320
31282
31249
31224
31206
31194
31186
31182
31180
31177
31177
31182
31188
31197
31209
31220
31226
31230
31231
31225
31215
31197
31175
31149
31114
31071
31022
30970
30916
30858
30796
30732
30666
30603
30540
30476
30411
30349
30291
30233
30175
30119
30064
30010
29956
29904
29854
29803
29750
29699
29655
29615
29575
29534
29490
29444
29398
29356
29317
29285
29261
29243
29221
29195
29168
29141
29116
29092
29066
29034
28997
28955
28913
28872
28827
28776
28725
28676
28629
28582
28539
28498
28459
28420
28378
28338
28299
28261
28224
28184
28142
28101
28058
28009
27956
27899
27842
27790
27738
27685
27627
27567
27507
27449
27393
27337
27278
27216
27156
27098
27039
26983
26929
26874
26819
26772
26744
26747
26791
26888
27049
27274
27558
27893
28263
28653
29049
29442
29822
30183
30514
30809
31063
31274
31447
31583
31682
31745
31780
31792
31783
31751
31705
31655
31603
31545
31484
31426
31368
31311
31259
31215
31183
31163
31151
31143
31142
31147
31158
31173
31186
31195
31202
31203
31196
31183
31162
31132
31091
31041
30989
30940
30898
30863
30832
30807
30789
30780
30781
30787
30795
30805
30815
30823
30827
30827
30826
30823
30817
30809
30800
30787
30766
30742
30717
30688
30651
30606
30555
30499
30440
30384
30328
30270
30213
30155
30096
30038
29982
29928
29874
29818
29760
29700
29639
29580
29523
29466
29411
29356
29302
29251
29205
29161
29120
29085
29051
29015
28975
28936
28900
28868
28840
28818
28794
28766
28735
28703
28671
28643
28618
28593
28566
28535
28503
28470
28436
28399
28364
28330
28293
28254
28213
28172
28131
28084
28034
27984
27936
27883
27829
27781
27735
27688
27643
27596
27548
27500
27451
27396
27336
27274
27214
27153
27089
27025
26964
26901
26839
26783
26733
26686
26646
26626
26636
26684
26777
26924
27130
27391
27701
28049
28419
28799
29179
29550
29904
30230
30520
30773
30985
31158
31294
31395
31459
31493
31500
31485
31453
31406
31347
31281
31211
31138
31061
30985
30911
30842
30782
30734
30695
30663
30641
30633
30634
30635
30636
30634
30625
30605
30580
30552
30524
30492
30455
30416
30378
30343
30312
30289
30275
30266
30262
30266
30276
30291
30309
30331
30358
30394
30435
30472
30501
30526
30544
30552
30550
30541
30526
30502
30469
30427
30380
30324
30257
30183
30107
30033
29961
29891
29823
29755
29687
29624
29565
29509
29455
29401
29350
29299
29248
29197
29151
29106
29059
29014
28969
28922
28876
28834
28796
28757
28721
28691
28661
28627
28596
28571
28551
28531
28512
28492
28467
28436
28401
28364
28326
28291
28260
28234
28210
28186
28156
28125
28093
28061
28027
27988
27946
27903
27863
27822
27780
27739
27701
27662
27619
27571
27520
27466
27405
27338
27269
27200
27128
27057
26989
26925
26862
26806
26759
26722
26700
26702
26741
26830
26978
27190
27462
27786
28147
28533
28932
29332
29724
30098
30446
30759
31034
31271
31469
31628
31748
31830
31879
31895
31883
31848
31800
31740
31673
31600
31526
31454
31386
31325
31272
31227
31191
31168
31155
31148
31146
31151
31157
31163
31170
31177
31178
31173
31159
31138
31111
31075
31030
30982
30940
30906
30882
30862
30847
30842
30848
30860
30879
30904
30934
30964
30990
31012
31035
31057
31074
31087
31094
31095
31086
31065
31039
31010
30974
30935
30896
30852
30801
30742
30677
30608
30535
30463
30391
30317
30247
30180
30120
30064
30014
29967
29924
29880
29838
29798
29760
29721
29679
29636
29596
29561
29527
29490
29447
29402
29357
29316
29280
29252
29229
29208
29190
29174
29158
29139
29118
29094
29064
29032
29001
28974
28952
28938
28931
28924
28911
28896
28879
28856
28828
28796
28759
28719
28674
28627
28578
28525
28474
28427
28379
28328
28281
28238
28195
28152
28110
28069
28026
27977
27920
27858
27792
27722
27656
27593
27527
27460
27400
27344
27290
27242
27211
27209
27248
27334
27476
27679
27943
28263
28633
29040
29466
29894
30314
30716
31091
31434
31741
32009
32238
32429
32582
32697
32774
32819
32835
32827
32800
32759
32706
32648
32587
32529
32477
32430
32388
32353
32327
32305
32288
32278
32276
32279
32287
32304
32328
32354
32378
32401
32418
32423
32416
32405
32392
32370
32337
32299
32260
32224
32193
32170
32150
32132
32120
32116
32119
32127
32141
32160
32183
32202
32217
32230
32242
32249
32245
32231
32212
32187
32159
32126
32090
32051
32007
31962
31914
31866
31816
31764
31709
31653
31599
31547
31497
31447
31393
31336
31281
31228
31176
31127
31082
31041
31002
30960
30918
30877
30839
30802
30767
30738
30711
30679
30641
30600
30563
30527
30491
30462
30438
30414
30387
30360
30335
30309
30282
30249
30209
30170
30136
30104
30073
30042
30005
29964
29919
29870
29822
29778
29734
29686
29634
29579
29520
29461
29404
29352
29303
29256
29211
29165
29118
29070
29022
28971
28917
28861
28809
28758
28705
28650
28600
28554
28507
28458
28407
28356
28306
28256
28205
28153
28102
28057
28023
28008
28020
28068
28167
28325
28547
28830
29164
29534
29932
30345
30759
31159
31537
31883
32192
32457
32675
32851
32989
33089
33151
33177
33172
33147
33106
33050
32984
32915
32850
32791
32738
32688
32639
32597
32565
32542
32524
32515
32512
32514
32521
32535
32556
32580
32606
32625
32631
32629
32620
32604
32581
32551
32514
32475
32436
32397
32360
32330
32310
32302
32302
32307
32312
32312
32308
32300
32289
32278
32267
32259
32249
32237
32226
32215
32199
32181
32161
32139
32111
32081
32047
32006
31956
31900
31839
31773
31704
31635
31569
31502
31436
31374
31315
31257
31198
31141
31087
31035
30983
30937
30900
30866
30831
30795
30756
30717
30678
30641
30605
30570
30533
30498
30468
30439
30410
30384
30363
30345
30328
30312
30293
30268
30239
30206
30169
30135
30107
30077
30043
30005
29967
29930
29894
29862
29831
29800
29764
29723
29683
29645
29605
29560
29512
29462
29411
29360
29307
29253
29195
29131
29062
28995
28930
28867
28807
28750
28696
28645
28598
28555
28515
28481
28456
28447
28462
28513
28612
28764
28968
29224
29522
29852
30205
30574
30946
31309
31649
31958
32227
32454
32641
32794
32911
32991
33040
33065
33069
33050
33005
32942
32868
32791
32716
32645
32581
32524
32471
32423
32382
32349
32324
32305
32290
32278
32273
32272
32273
32270
32260
32244
32223
32195
32161
32121
32077
32027
31976
31933
31903
31883
31873
31871
31873
31880
31896
31918
31944
31975
32007
32037
32060
32077
32092
32102
32107
32104
32095
32080
32058
32034
32006
31968
31927
31885
31841
31790
31734
31677
31618
31557
31500
31443
31385
31323
31261
31203
31151
31104
31057
31012
30964
30912
30861
30812
30769
30728
30688
30652
30621
30592
30563
30536
30511
30484
30455
30430
30407
30385
30361
30337
30313
30290
30270
30254
30239
30224
30208
30189
30166
30137
30106
30074
30040
30002
29962
29920
29878
29833
29785
29739
29695
29651
29609
29570
29530
29485
29440
29395
29349
29300
29249
29198
29147
29096
29042
28984
28925
28863
28800
28738
28674
28611
28550
28489
28427
28366
28311
28263
28231
28222
28248
28326
28466
28676
28956
29296
29679
30093
30519
30938
31337
31710
32054
32365
32644
32884
33081
33239
33358
33440
33490
33510
33504
33476
33432
33376
33312
33245
33181
33120
33064
33016
32975
32940
32908
32881
32863
32857
32865
32885
32910
32930
32942
32950
32957
32961
32957
32945
32927
32902
32872
32839
32808
32781
32760
32741
32723
32714
32714
32721
32732
32745
32762
32781
32800
32817
32831
32840
32842
32837
32833
32830
32823
32814
32805
32797
32784
32761
32731
32700
32662
32618
32571
32523
32471
32413
32353
32293
32235
32177
32118
32060
32005
31951
31898
31849
31800
31753
31711
31669
31624
31580
31540
31502
31463
31423
31382
31343
31306
31269
31233
31200
31169
31139
31109
31081
31056
31039
31027
31015
31001
30984
30960
30928
30896
30866
30834
30803
30774
30746
30719
30690
30659
30624
30583
30536
30488
30443
30398
30349
30300
30251
30202
30149
30094
30039
29985
29933
29882
29833
29786
29737
29687
29635
29583
29530
29475
29419
29365
29312
29261
29208
29154
29100
29044
28986
28926
28863
28802
28742
28687
28643
28614
28607
28630
28697
28819
29008
29270
29601
29986
30406
30846
31291
31727
32142
32526
32873
33180
33446
33669
33851
33992
34090
34151
34176
34171
34140
34089
34025
33958
33891
33824
33759
33694
33631
33579
33538
33503
33471
33448
33437
33436
33444
33461
33487
33517
33546
33571
33595
33613
33623
33628
33627
33618
33602
33579
33549
33515
33484
33461
33446
33438
33430
33423
33422
33424
33430
33442
33455
33465
33474
33484
33496
33505
33508
33509
33506
33495
33476
33454
33430
33399
33360
33318
33275
33229
33181
33131
33077
33017
32951
32883
32815
32750
32689
32631
32573
32516
32464
32415
32365
32312
32259
32211
32167
32126
32086
32045
32002
31959
31915
31871
31826
31778
31729
31683
31641
31603
31567
31533
31499
31466
31436
31407
31378
31350
31324
31300
31276
31249
31220
31191
31160
31124
31084
31041
30994
30944
30894
30844
30792
30739
30686
30631
30572
30511
30452
30396
30341
30285
30232
30178
30121
30062
30000
29939
29881
29824
29767
29710
29654
29596
29534
29471
29414
29361
29309
29253
29196
29138
29073
29004
28936
28872
28815
28762
28715
28680
28668
28691
28763
28899
29106
29384
29725
30114
30530
30962
31394
31813
32208
32571
32898
33186
33429
33621
33770
33882
33957
33999
34012
34003
33974
33928
33874
33819
33762
33702
33639
33576
33516
33459
33408
33361
33320
33289
33268
33259
33255
33253
33253
33257
33264
33269
33270
33269
33262
33243
33214
33179
33142
33104
33070
33041
33016
32995
32983
32981
32989
33006
33027
33050
33076
33108
33140
33168
33197
33229
33259
33279
33286
33279
33264
33243
33216
33185
33148
33105
33058
33006
32949
32887
32824
32761
32697
32632
32567
32502
32438
32377
32320
32265
32211
32162
32116
32070
32016
31959
31903
31853
31807
31765
31724
31682
31638
31594
31553
31517
31485
31459
31437
31417
31393
31366
31336
31305
31278
31255
31231
31204
31174
31137
31094
31048
30999
30951
30906
30866
30828
30793
30761
30731
30702
30675
30648
30615
30577
30534
30488
30438
30381
30323
30267
30210
30152
30095
30037
29979
29921
29863
29805
29747
29689
29634
29586
29550
29532
29543
29600
29716
29899
30146
30449
30798
31177
31573
31971
32360
32727
33064
33367
33635
33865
34055
34206
34319
34399
34449
34470
34466
34441
34396
34335
34266
34194
34122
34052
33988
33928
33870
33815
33769
33736
33715
33700
33690
33685
33684
33684
33681
33678
33673
33664
33648
33624
33594
33559
33521
33484
33451
33421
33395
33376
33367
33366
33369
33378
33395
33421
33450
33477
33501
33523
33544
33563
33580
33594
33606
33613
33614
33606
33590
33567
33536
33497
33452
33400
33340
33277
33216
33159
33101
33041
32975
32908
32838
32766
32692
32621
32554
32493
32440
32389
32338
32285
32232
32179
32126
32073
32022
31972
31926
31886
31848
31810
31774
31741
31707
31678
31655
31636
31618
31597
31573
31546
31517
31485
31453
31423
31395
31364
31328
31288
31246
31199
31151
31108
31073
31041
31009
30975
30937
30898
30857
30816
30772
30724
30673
30624
30574
30520
30464
30406
30344
30279
30212
30143
30069
29990
29908
29824
29739
29658
29586
29524
29478
29464
29493
29579
29732
29960
30258
30615
31013
31439
31879
32318
32739
33135
33500
33828
34119
34372
34583
34752
34883
34982
35048
35083
35095
35088
35063
35019
34963
34902
34838
34768
34695
34628
34573
34526
34485
34454
34438
34431
34430
34438
34452
34467
34479
34488
34494
34497
34496
34490
34479
34463
34444
34419
34392
34365
34337
34308
34280
34257
34239
34227
34223
34224
34231
34245
34266
34290
34313
34333
34351
34365
34374
34382
34389
34390
34384
34370
34350
34324
34296
34264
34224
34178
34129
34080
34025
33962
33895
33828
33760
33693
33629
33565
33497
33432
33371
33315
33263
33217
33177
33140
33105
33069
33029
32986
32943
32901
32864
32831
32799
32766
32732
32699
32672
32651
32635
32621
32606
32588
32568
32546
32520
32492
32462
32432
32403
32370
32334
32298
32262
32228
32193
32155
32117
32079
32039
31997
31953
31906
31852
31796
31740
31688
31641
31594
31547
31499
31447
31393
31341
31290
31236
31176
31115
31056
30997
30937
30874
30808
30739
30665
30593
30522
30447
30368
30291
30220
30159
30117
30105
30136
30221
30372
30596
30890
31244
31643
32074
32521
32965
33393
33791
34154
34479
34765
35013
35223
35397
35535
35641
35712
35751
35763
35753
35722
35674
35617
35550
35480
35412
35348
35287
35230
35180
35139
35109
35087
35074
35071
35074
35082
35097
35115
35132
35146
35158
35166
35168
35161
35147
35130
35111
35088
35062
35033
35003
34973
34946
34923
34904
34890
34884
34883
34887
34894
34903
34914
34927
34939
34950
34960
34969
34974
34973
34967
34953
34929
34896
34857
34819
34780
34739
34693
34643
34588
34533
34478
34423
34369
34316
34262
34208
34154
34103
34052
34000
33950
33901
33851
33801
33752
33702
33652
33599
33545
33492
33439
33384
33330
33279
33229
33183
33144
33110
33080
33050
33019
32984
32948
32911
32874
32836
32798
32760
32726
32691
32654
32618
32584
32552
32522
32491
32455
32410
32359
32305
32253
32200
32145
32092
32041
31986
31927
31866
31804
31742
31679
31619
31569
31521
31469
31411
31351
31285
31213
31136
31064
30994
30924
30849
30765
30674
30581
30492
30410
30335
30267
30205
30149
30106
30088
30110
30186
30330
30550
30848
31210
31619
32058
32509
32952
33378
33778
34144
34470
34754
34991
35179
35326
35439
35521
35570
35583
35568
35534
35485
35424
35354
35279
35206
35130
35053
34978
34906
34842
34788
34747
34714
34686
34658
34632
34613
34604
34603
34606
34612
34613
34606
34591
34567
34540
34510
34477
34440
34399
34358
34323
34294
34265
34241
34225
34219
34218
34218
34228
34244
34259
34272
34284
34296
34307
34316
34325
34335
34338
34334
34323
34307
34281
34248
34207
34161
34108
34047
33980
33910
33837
33766
33696
33624
33552
33482
33413
33346
33286
33227
33169
33114
33065
33020
32978
32933
32889
32844
32794
32742
32690
32642
32599
32558
32516
32476
32438
32401
32368
32340
32315
32288
32259
32231
32204
32176
32150
32122
32090
32055
32020
31985
31944
31903
31862
31823
31784
31747
31712
31677
31638
31595
31548
31499
31448
31395
31341
31288
31233
31178
31125
31070
31011
30951
30892
30830
30762
30690
30616
30542
30466
30389
30317
30252
30204
30187
30211
30286
30425
30635
30912
31243
31612
32000
32396
32785
33155
33495
33801
34068
34297
34489
34641
34757
34839
34885
34897
34879
34840
34788
34725
34650
34567
34480
34394
34307
34221
34141
34068
34002
33942
33886
33837
33795
33760
33733
33714
33701
33691
33681
33670
33656
33639
33617
33587
33549
33506
33464
33427
33397
33376
33361
33351
33350
33363
33387
33419
33456
33496
33539
33585
33626
33659
33681
33695
33702
33700
33690
33672
33648
33616
33575
33529
33481
33429
33370
33306
33244
33183
33122
33061
32999
32935
32866
32790
32714
32641
32571
32502
32433
32366
32303
32246
32196
32147
32101
32057
32013
31968
31920
31869
31822
31780
31741
31705
31674
31645
31619
31598
31580
31563
31543
31517
31488
31456
31424
31393
31361
31326
31290
31251
31211
31172
31134
31094
31053
31011
30968
30924
30875
30822
30767
30711
30658
30607
30551
30492
30427
30360
30294
30229
30165
30101
30037
29970
29898
29823
29752
29692
29648
29632
29664
29756
29912
30135
30424
30773
31166
31583
32006
32421
32816
33182
33515
33813
34071
34286
34459
34592
34688
34748
34777
34784
34770
34739
34695
34639
34572
34496
34418
34343
34275
34218
34166
34118
34076
34041
34015
33997
33989
33989
33994
33999
34004
34006
34002
33991
33972
33950
33928
33898
33861
33826
33798
33771
33745
33724
33710
33703
33704
33711
33719
33730
33742
33756
33772
33786
33799
33813
33826
33835
33838
33835
33823
33807
33791
33770
33740
33702
33657
33607
33550
33485
33420
33357
33293
33232
33174
33121
33068
33017
32965
32910
32854
32798
32738
32676
32615
32558
32506
32458
32412
32367
32324
32285
32248
32211
32175
32138
32099
32062
32028
31999
31974
31948
31924
31899
31876
31854
31834
31812
31790
31771
31752
31728
31702
31676
31648
31617
31582
31546
31513
31481
31450
31419
31383
31346
31311
31274
31228
31177
31121
31059
30993
30929
30868
30811
30754
30696
30634
30569
30506
30442
30378
30313
30243
30169
30093
30021
29957
29902
29855
29824
29817
29844
29919
30057
30262
30530
30853
31218
31611
32017
32423
32818
33190
33529
33832
34096
34320
34506
34652
34758
34829
34873
34891
34885
34860
34820
34768
34710
34646
34582
34519
34454
34392
34337
34294
34262
34240
34226
34221
34224
34235
34254
34283
34315
34339
34354
34359
34356
34344
34322
34295
34264
34227
34187
34149
34113
34085
34064
34049
34041
34041
34048
34061
34076
34091
34103
34111
34115
34119
34127
34135
34139
34138
34129
34114
34097
34080
34058
34027
33987
33941
33894
33845
33794
33738
33679
33621
33565
33508
33449
33390
33330
33270
33211
33152
33092
33031
32974
32920
32866
32814
32766
32718
32671
32625
32582
32542
32503
32468
32434
32403
32371
32337
32301
32266
32235
32209
32188
32168
32146
32124
32104
32083
32057
32025
31983
31929
31870
31814
31759
31700
31643
31591
31542
31491
31440
31390
31343
31297
31248
31196
31144
31096
31051
31010
30971
30931
30891
30847
30798
30742
30682
30619
30553
30485
30415
30346
30280
30216
30155
30093
30028
29963
29903
29842
29778
29719
29674
29653
29661
29703
29791
29935
30135
30388
30688
31021
31378
31749
32122
32481
32813
33112
33374
33599
33788
33943
34064
34153
34209
34236
34236
34212
34170
34122
34068
34006
33941
33873
33802
33732
33667
33614
33575
33545
33521
33505
33497
33498
33507
33522
33535
33543
33546
33545
33536
33521
33502
33476
33445
33412
33382
33354
33324
33290
33255
33223
33194
33172
33161
33160
33165
33176
33191
33208
33225
33245
33260
33268
33269
33265
33258
33249
33233
33210
33179
33142
33101
33054
33006
32957
32908
32860
32811
32761
32707
32649
32590
32529
32465
32402
32338
32269
32197
32129
32070
32019
31971
31922
31872
31820
31765
31709
31658
31609
31562
31517
31472
31428
31386
31349
31315
31283
31250
31218
31186
31152
31115
31079
31042
31001
30957
30916
30879
30842
30805
30768
30732
30694
30656
30620
30586
30551
30515
30481
30444
30404
30362
30318
30270
30217
30163
30112
30060
30007
29952
29896
29833
29766
29701
29640
29581
29525
29473
29424
29375
29333
29307
29305
29332
29398
29515
29683
29895
30144
30420
30715
31018
31320
31614
31887
32132
32348
32535
32692
32820
32919
32989
33033
33052
33048
33026
32986
32933
32871
32798
32717
32636
32559
32485
32419
32363
32315
32269
32227
32192
32168
32154
32145
32139
32132
32120
32105
32087
32062
32032
31998
31962
31919
31871
31826
31787
31751
31722
31701
31686
31681
31682
31687
31702
31727
31756
31780
31803
31825
31849
31869
31881
31881
31869
31846
31817
31782
31738
31692
31650
31609
31565
31513
31453
31390
31323
31253
31180
31106
31037
30974
30917
30862
30805
30746
30689
30636
30587
30539
30488
30436
30387
30343
30301
30262
30225
30194
30164
30128
30089
30051
30016
29981
29952
29927
29902
29873
29842
29808
29772
29734
29700
29668
29636
29599
29558
29520
29485
29454
29423
29388
29349
29303
29249
29192
29139
29091
29050
29011
28970
28924
28876
28823
28767
28710
28655
28604
28554
28504
28452
28403
28362
28334
28330
28361
28435
28554
28723
28939
29197
29485
29794
30117
30441
30759
31065
31350
31610
31840
32037
32200
32330
32430
32500
32538
32546
32532
32504
32463
32409
32349
32288
32228
32171
32119
32071
32024
31980
31947
31924
31911
31904
31901
31900
31903
31913
31925
31934
31935
31927
31908
31878
31841
31803
31766
31729
31693
31661
31633
31610
31593
31586
31591
31603
31617
31631
31645
31663
31682
31699
31712
31721
31725
31726
31727
31726
31720
31709
31695
31675
31651
31621
31584
31538
31485
31426
31366
31304
31240
31176
31112
31048
30986
30927
30871
30816
30760
30706
30655
30604
30556
30508
30460
30411
30362
30316
30273
30232
30194
30162
30137
30115
30096
30077
30058
30036
30014
29988
29957
29924
29897
29876
29856
29833
29810
29782
29750
29712
29675
29638
29601
29565
29531
29493
29452
29413
29372
29328
29282
29237
29193
29150
29106
29064
29026
28989
28951
28910
28865
28820
28773
28721
28663
28604
28543
28481
28419
28359
28302
28257
28229
28221
28238
28288
28381
28523
28716
28957
29237
29545
29872
30212
30558
30902
31235
31548
31836
32091
32306
32482
32622
32724
32792
32835
32852
32842
32817
32786
32748
32701
32653
32607
32564
32523
32484
32449
32420
32398
32382
32375
32376
32388
32408
32431
32452
32466
32473
32476
32478
32476
32467
32450
32426
32394
32356
32319
32284
32253
32222
32195
32175
32163
32156
32153
32154
32163
32181
32199
32216
32234
32248
32254
32251
32243
32229
32207
32178
32147
32113
32079
32047
32018
31988
31958
31929
31900
31862
31813
31756
31697
31639
31581
31523
31466
31411
31357
31304
31252
31203
31154
31105
31057
31007
30956
30905
30859
30817
30776
30736
30698
30659
30621
30586
30554
30525
30497
30471
30448
30426
30403
30377
30348
30314
30277
30239
30204
30170
30138
30104
30063
30015
29964
29918
29874
29833
29797
29765
29731
29692
29652
29610
29569
29526
29480
29437
29393
29349
29305
29260
29210
29155
29098
29041
28984
28926
28864
28799
28732
28664
28595
28529
28466
28407
28353
28302
28254
28211
28178
28164
28178
28229
28329
28485
28693
28943
29231
29553
29897
30250
30606
30955
31286
31593
31871
32115
32320
32483
32608
32698
32757
32790
32803
32795
32769
32729
32680
32626
32565
32500
32437
32376
32321
32274
32242
32219
32201
32190
32189
32198
32211
32229
32251
32271
32283
32283
32276
32260
32240
32218
32193
32160
32122
32083
32045
32004
31966
31938
31923
31916
31912
31908
31908
31913
31922
31934
31948
31958
31968
31979
31985
31985
31981
31977
31969
31951
31928
31904
31877
31842
31798
31749
31695
31637
31579
31524
31468
31410
31349
31288
31225
31166
31116
31072
31030
30985
30939
30891
30842
30794
30750
30712
30680
30653
30628
30605
30583
30562
30544
30525
30499
30472
30445
30416
30385
30357
30336
30318
30299
30275
30249
30222
30190
30156
30125
30095
30065
30036
30005
29971
29929
29884
29843
29805
29768
29732
29698
29662
29623
29585
29550
29517
29486
29456
29427
29394
29358
29318
29274
29227
29180
29135
29089
29038
28984
28931
28881
28830
28781
28742
28719
28721
28756
28828
28941
29099
29298
29531
29791
30071
30367
30672
30976
31267
31540
31792
32014
32200
32352
32469
32552
32603
32626
32623
32595
32547
32488
32421
32349
32278
32210
32144
32081
32025
31979
31941
31909
31886
31871
31864
31862
31867
31875
31880
31881
31877
31863
31839
31806
31768
31728
31690
31655
31626
31603
31579
31560
31549
31547
31554
31570
31595
31623
31649
31672
31695
31719
31742
31764
31780
31788
31787
31780
31765
31743
31713
31677
31639
31600
31558
31510
31456
31395
31327
31252
31175
31100
31032
30972
30920
30873
30826
30778
30731
30685
30641
30601
30564
30524
30480
30433
30383
30333
30287
30249
30215
30181
30148
30119
30093
30067
30039
30012
29983
29949
29915
29885
29860
29839
29820
29798
29769
29735
29701
29665
29627
29587
29551
29515
29477
29439
29403
29368
29331
29291
29248
29205
29160
29115
29071
29033
28996
28957
28913
28865
28811
28752
28690
28631
28581
28534
28486
28437
28391
28351
28326
28326
28356
28426
28547
28724
28953
29228
29540
29875
30221
30568
30906
31229
31535
31818
32070
32285
32462
32601
32710
32788
32834
32852
32843
32814
32770
32719
32663
32604
32548
32494
32441
32392
32349
32314
32287
32265
32248
32242
32245
32248
32251
32260
32270
32271
32262
32249
32232
32212
32188
32163
32140
32112
32077
32040
32007
31978
31954
31934
31919
31909
31908
31915
31927
31947
31979
32018
32054
32089
32124
32156
32178
32185
32180
32164
32137
32102
32064
32024
31980
31932
31884
31837
31788
31736
31681
31626
31568
31507
31446
31390
31339
31290
31242
31195
31145
31090
31036
30985
30934
30887
30845
30807
30771
30735
30700
30667
30633
30599
30567
30534
30504
30477
30450
30421
30391
30360
30330
30302
30270
30237
30205
30174
30146
30121
30093
30058
30022
29990
29955
29915
29874
29834
29795
29757
29720
29684
29648
29611
29572
29533
29498
29464
29428
29390
29348
29300
29249
29195
29139
29083
29026
28965
28901
28838
28780
28726
28670
28611
28554
28499
28443
28390
28343
28305
28275
28266
28289
28354
28470
28644
28882
29181
29524
29900
30295
30693
31083
31459
31815
32141
32429
32675
32877
33035
33149
33229
33283
33310
33313
33295
33260
33213
33157
33094
33028
32963
32901
32842
32791
32754
32730
32715
32704
32697
32696
32700
32707
32716
32725
32737
32750
32760
32761
32753
32739
32718
32690
32659
32627
32596
32566
32538
32511
32491
32480
32480
32487
32497
32504
32509
32516
32525
32536
32548
32557
32563
32571
32577
32578
32575
32569
32561
32547
32525
32499
32465
32422
32371
32317
32261
32202
32139
32076
32012
31949
31890
31835
31779
31721
31662
31603
31542
31479
31418
31360
31307
31262
31225
31194
31167
31137
31104
31072
31041
31009
30971
30931
30894
30865
30837
30809
30776
30741
30709
30683
30662
30643
30624
30601
30572
30540
30510
30480
30449
30417
30386
30355
30321
30283
30238
30190
30142
30094
30047
30002
29956
29912
29868
29825
29786
29751
29716
29679
29640
29603
29565
29517
29460
29401
29343
29282
29221
29163
29107
29050
28990
28928
28868
28806
28743
28680
28619
28558
28497
28438
28379
28318
28261
28209
28170
28152
28170
28236
28362
28560
28830
29162
29542
29956
30393
30839
31280
31699
32086
32435
32739
32997
33212
33386
33518
33612
33672
33700
33701
33680
33643
33593
33533
33466
33398
33331
33267
33207
33153
33105
33057
33016
32987
32970
32959
32954
32958
32967
32980
32996
33013
33025
33028
33024
33013
32994
32970
32945
32921
32895
32865
32835
32805
32774
32749
32737
32734
32736
32738
32737
32737
32740
32746
32757
32769
32780
32788
32791
32790
32782
32770
32755
32738
32713
32677
32634
32590
32546
32499
32446
32388
32326
32265
32205
32146
32087
32025
31962
31896
31828
31762
31696
31629
31563
31498
31435
31375
31320
31270
31224
31180
31136
31092
31049
31004
30960
30921
30888
30855
30820
30782
30746
30708
30671
30635
30595
30554
30514
30478
30442
30405
30370
30337
30305
30273
30238
30201
30161
30118
30075
30031
29988
29945
29897
29847
29800
29752
29702
29651
29598
29544
29492
29440
29386
29328
29267
29207
29145
29087
29032
28979
28925
28868
28811
28751
28689
28624
28554
28478
28397
28314
28232
28153
28077
28006
27939
27872
27812
27770
27754
27777
27855
28003
28229
28533
28906
29329
29780
30237
30684
31114
31516
31879
32202
32480
32713
32902
33048
33157
33232
33274
33286
33277
33252
33211
33154
33088
33014
32936
32855
32775
32694
32614
32542
32484
32435
32395
32363
32338
32321
32313
32314
32322
32330
32331
32324
32312
32292
32262
32225
32183
32138
32096
32059
32027
31997
31973
31961
31957
31958
31967
31985
32010
32038
32071
32107
32141
32170
32198
32224
32245
32258
32264
32261
32248
32222
32186
32145
32098
32046
31995
31943
31887
31827
31764
31697
31627
31555
31481
31407
31335
31266
31204
31147
31091
31036
30980
30925
30871
30822
30777
30734
30696
30661
30627
30590
30551
30515
30483
30449
30411
30373
30340
30310
30281
30249
30213
30176
30139
30101
30066
30032
30000
29970
29940
29906
29868
29829
29789
29751
29714
29675
29634
29592
29550
29506
29458
29407
29352
29296
29237
29175
29113
29050
28984
28916
28846
28775
28702
28625
28547
28471
28394
28321
28258
28207
28175
28166
28191
28269
28412
28632
28930
29295
29704
30138
30582
31026
31458
31869
32248
32591
32896
33157
33372
33544
33672
33759
33812
33835
33830
33801
33754
33694
33625
33549
33479
33415
33354
33296
33240
33188
33146
33111
33082
33056
33033
33014
32999
32985
32973
32962
32952
32939
32916
32886
32853
32817
32782
32751
32722
32696
32671
32652
32642
32638
32641
32653
32673
32697
32722
32749
32779
32811
32840
32866
32893
32919
32942
32956
32961
32959
32953
32939
32915
32883
32841
32790
32732
32670
32606
32538
32469
32399
32330
32259
32184
32110
32039
31970
31900
31827
31756
31687
31620
31552
31490
31433
31380
31326
31272
31218
31169
31121
31076
31031
30982
30933
30890
30854
30825
30798
30776
30757
30740
30727
30715
30700
30683
30663
30637
30605
30566
30521
30474
30426
30373
30319
30269
30223
30180
30144
30113
30085
30055
30025
29994
29962
29925
29885
29843
29796
29743
29688
29634
29580
29525
29464
29398
29327
29256
29187
29120
29048
28969
28889
28806
28723
28648
28593
28564
28565
28606
28709
28892
29161
29511
29928
30389
30868
31346
31814
32259
32671
33043
33375
33666
33917
34125
34290
34409
34486
34529
34545
34539
34513
34470
34416
34353
34281
34209
34139
34071
34009
33952
33900
33851
33806
33767
33736
33714
33699
33697
33704
33716
33728
33739
33749
33751
33743
33730
33711
33684
33655
33629
33610
33592
33570
33549
33535
33526
33520
33516
33515
33519
33531
33550
33574
33598
33621
33640
33656
33671
33687
33700
33704
33699
33690
33676
33653
33619
33575
33522
33461
33397
33335
33275
33220
33165
33108
33046
32981
32915
32848
32778
32708
32645
32588
32533
32478
32423
32373
32325
32276
32226
32174
32124
32078
32037
31996
31953
31910
31872
31835
31797
31761
31727
31694
31663
31631
31596
31559
31521
31486
31452
31419
31389
31357
31323
31284
31244
31202
31160
31117
31075
31033
30989
30941
30891
30839
30786
30731
30674
30616
30557
30496
30436
30374
30313
30250
30183
30115
30048
29981
29911
29837
29760
29684
29610
29532
29448
29359
29267
29178
29091
29004
28918
28837
28757
28678
28613
28578
28593
28675
28839
29092
29431
29844
30313
30816
31327
31826
32299
32741
33143
33501
33820
34098
34330
34515
34653
34748
34802
34823
34823
34803
34763
34712
34657
34595
34525
34453
34385
34322
34265
34220
34189
34167
34150
34133
34121
34114
34108
34108
34118
34132
34144
34151
34153
34150
34142
34128
34107
34078
34044
34009
33976
33945
33920
33905
33897
33891
33887
33891
33905
33924
33944
33971
34002
34035
34066
34094
34118
34133
34141
34144
34143
34135
34114
34087
34054
34011
33960
33907
33853
33789
33714
33635
33557
33484
33416
33348
33276
33203
33129
33055
32983
32913
32846
32783
32725
32672
32621
32569
32518
32470
32422
32376
32331
32287
32243
32200
32158
32114
32073
32037
32007
31978
31950
31922
31897
31876
31856
31835
31809
31780
31751
31721
31690
31657
31623
31585
31543
31502
31464
31428
31393
31359
31325
31291
31259
31228
31191
31148
31102
31053
30998
30938
30874
30805
30734
30661
30582
30503
30425
30344
30262
30178
30093
30009
29926
29845
29772
29718
29696
29720
29803
29949
30166
30455
30806
31202
31627
32064
32499
32916
33308
33670
33997
34283
34527
34728
34888
35015
35109
35174
35211
35214
35190
35146
35090
35023
34947
34864
34779
34696
34615
34536
34463
34404
34359
34321
34287
34259
34241
34226
34211
34194
34175
34153
34128
34097
34062
34025
33990
33956
33923
33889
33855
33823
33802
33794
33791
33795
33808
33828
33854
33885
33924
33965
34007
34047
34084
34115
34137
34152
34159
34158
34149
34132
34105
34067
34020
33969
33911
33847
33780
33713
33646
33576
33504
33432
33359
33284
33213
33146
33083
33018
32953
32888
32823
32755
32686
32618
32554
32492
32431
32370
32309
32255
32208
32168
32132
32099
32073
32050
32028
32007
31986
31964
31937
31905
31868
31826
31787
31754
31721
31684
31645
31608
31571
31532
31496
31466
31440
31411
31378
31340
31299
31258
31217
31176
31135
31090
31037
30978
30915
30851
30783
30709
30631
30545
30455
30367
30285
30206
30128
30046
29966
29895
29841
29815
29832
29911
30065
30300
30613
30996
31431
31895
32368
32834
33280
33699
34084
34426
34727
34990
35213
35393
35531
35634
35703
35742
35751
35732
35693
35640
35576
35503
35425
35347
35274
35214
35165
35121
35080
35047
35021
35002
34988
34983
34983
34988
34998
35008
35015
35014
35007
34996
34977
34948
34914
34873
34827
34781
34738
34701
34672
34654
34645
34645
34652
34666
34686
34713
34745
34780
34813
34839
34857
34870
34880
34885
34884
34879
34872
34860
34836
34801
34758
34709
34655
34596
34531
34463
34391
34319
34249
34177
34103
34028
33956
33886
33818
33750
33678
33604
33530
33459
33393
33333
33279
33231
33186
33146
33110
33073
33031
32990
32956
32926
32902
32879
32856
32835
32813
32790
32768
32750
32732
32711
32683
32651
32618
32586
32556
32526
32489
32446
32401
32358
32318
32279
32243
32209
32171
32127
32082
32035
31991
31950
31910
31867
31820
31768
31714
31657
31593
31519
31441
31360
31277
31193
31109
31025
30942
30861
30780
30703
30633
30580
30552
30563
30630
30766
30980
31270
31626
32038
32488
32958
33431
33898
34345
34763
35146
35493
35800
36060
36274
36446
36577
36668
36723
36750
36751
36730
36697
36656
36603
36540
36471
36402
36333
36267
36208
36158
36119
36092
36077
36074
36079
36092
36113
36140
36171
36197
36215
36225
36226
36216
36197
36174
36148
36122
36096
36070
36042
36012
35983
35957
35932
35913
35902
35898
35903
35916
35933
35953
35974
35997
36020
36040
36058
36076
36089
36093
36086
36070
36043
36008
35966
35920
35871
35815
35751
35684
35615
35546
35478
35415
35353
35290
35227
35166
35108
35049
34989
34930
34872
34811
34749
34690
34636
34585
34537
34488
34441
34399
34365
34333
34303
34273
34243
34213
34180
34145
34113
34084
34056
34026
33994
33959
33921
33878
33833
33793
33757
33725
33695
33663
33626
33581
33530
33481
33432
33382
33337
33295
33254
33216
33180
33140
33099
33057
33011
32958
32897
32834
32768
32698
32627
32558
32490
32417
32345
32275
32207
32134
32056
31980
31903
31822
31742
31669
31609
31571
31565
31606
31709
31880
32119
32422
32781
33182
33608
34044
34476
34891
35283
35648
35980
36269
36511
36712
36870
36986
37064
37111
37131
37124
37094
37050
36992
36924
36853
36779
36700
36623
36550
36485
36431
36391
36363
36344
36331
36326
36328
36334
36344
36353
36358
36360
36362
36363
36362
36355
36339
36311
36274
36233
36193
36158
36130
36108
36089
36079
36077
36078
36080
36085
36097
36115
36137
36159
36180
36197
36209
36215
36217
36214
36207
36191
36168
36144
36116
36083
36046
36001
35946
35884
35816
35741
35663
35585
35508
35437
35367
35297
35226
35155
35088
35025
34967
34912
34860
34811
34765
34723
34688
34657
34630
34604
34581
34557
34533
34507
34480
34456
34432
34407
34385
34366
34351
34335
34312
34286
34256
34225
34196
34170
34142
34111
34076
34040
34005
33972
33941
33911
33878
33840
33798
33751
33704
33655
33602
33547
33493
33441
33386
33327
33266
33202
33138
33073
33007
32941
32874
32807
32741
32679
32626
32584
32559
32557
32589
32662
32783
32958
33189
33472
33799
34158
34531
34906
35273
35623
35947
36240
36501
36725
36909
37052
37158
37227
37262
37268
37250
37214
37164
37102
37033
36959
36887
36819
36752
36685
36619
36561
36514
36475
36442
36416
36394
36376
36356
36334
36311
36286
36256
36221
36184
36143
36099
36054
36011
35970
35932
35904
35890
35893
35904
35921
35947
35981
36016
36051
36089
36129
36168
36204
36234
36256
36271
36281
36287
36288
36278
36256
36227
36192
36148
36094
36033
35970
35906
35837
35763
35690
35616
35545
35478
35415
35357
35300
35242
35185
35125
35065
35003
34938
34872
34807
34747
34692
34643
34596
34550
34504
34461
34422
34389
34360
34331
34304
34282
34263
34244
34220
34190
34155
34122
34093
34066
34043
34023
34000
33971
33940
33910
33878
33844
33806
33771
33738
33702
33662
33617
33569
33520
33471
33420
33365
33306
33241
33174
33109
33043
32979
32919
32863
32817
32784
32767
32775
32821
32919
33074
33289
33557
33872
34224
34602
34988
35371
35743
36099
36433
36740
37013
37247
37443
37603
37728
37821
37880
37902
37893
37861
37816
37759
37694
37625
37553
37479
37408
37344
37288
37243
37210
37186
37170
37164
37166
37176
37189
37203
37214
37219
37217
37206
37185
37155
37119
37083
37048
37011
36972
36936
36906
36884
36874
36875
36886
36902
36921
36948
36980
37014
37050
37086
37118
37147
37173
37194
37206
37214
37218
37212
37195
37165
37130
37090
37043
36995
36946
36890
36828
36763
36703
36649
36594
36535
36478
36421
36366
36312
36255
36195
36136
36080
36032
35991
35951
35911
35873
35836
35803
35773
35745
35715
35680
35643
35608
35569
35529
35494
35466
35444
35422
35404
35390
35381
35373
35364
35351
35333
35310
35287
35261
35231
35198
35165
35130
35096
35061
35025
34987
34950
34912
34875
34839
34797
34749
34697
34640
34579
34515
34451
34388
34325
34263
34203
34144
34086
34026
33968
33910
33852
33801
33769
33763
33790
33860
33982
34161
34393
34674
35001
35362
35745
36140
36541
36937
37317
37670
37990
38268
38502
38698
38856
38975
39055
39104
39131
39136
39122
39095
39056
39007
38950
38890
38826
38763
38709
38669
38644
38634
38639
38655
38675
38696
38719
38747
38775
38800
38819
38829
38829
38819
38802
38778
38747
38711
38671
38630
38590
38552
38524
38504
38488
38477
38476
38483
38493
38507
38527
38551
38574
38597
38619
38632
38636
38631
38621
38608
38588
38561
38526
38484
38437
38388
38338
38286
38232
38177
38122
38066
38006
37941
37873
37805
37741
37678
37615
37552
37492
37433
37377
37324
37276
37232
37188
37139
37089
37040
36991
36944
36902
36861
36822
36784
36747
36713
36680
36648
36621
36598
36575
36550
36524
36497
36467
36435
36402
36364
36323
36283
36245
36207
36166
36122
36076
36030
35984
35941
35899
35856
35812
35767
35725
35685
35644
35599
35554
35511
35466
35414
35358
35297
35231
35160
35087
35016
34948
34882
34816
34746
34679
34618
34562
34514
34479
34460
34466
34503
34580
34704
34880
35108
35384
35697
36037
36399
36771
37140
37492
37816
38109
38368
38589
38772
38919
39034
39117
39168
39192
39192
39172
39134
39088
39038
38986
38935
38889
38850
38815
38781
38751
38728
38714
38708
38709
38718
38732
38749
38768
38785
38798
38803
38795
38774
38745
38708
38665
38619
38571
38520
38472
38428
38390
38361
38343
38336
38332
38331
38333
38336
38341
38349
38361
38376
38390
38399
38404
38402
38395
38384
38369
38348
38322
38293
38260
38218
38166
38110
38049
37980
37907
37836
37769
37701
37631
37566
37504
37442
37380
37322
37269
37219
37171
37124
37077
37030
36984
36940
36896
36854
36810
36766
36722
36679
36641
36603
36567
36532
36498
36467
36438
36410
36385
36361
36335
36305
36271
36236
36200
36164
36131
36102
36075
36045
36013
35982
35952
35922
35894
35870
35843
35813
35781
35746
35704
35655
35601
35544
35481
35413
35344
35278
35215
35152
35088
35026
34968
34913
34865
34823
34793
34782
34796
34841
34926
35057
35237
35463
35725
36015
36327
36646
36963
37272
37569
37848
38100
38316
38493
38633
38739
38812
38853
38865
38851
38821
38778
38726
38668
38608
38551
38496
38442
38392
38348
38312
38283
38261
38245
38234
38231
38238
38247
38255
38261
38259
38245
38217
38183
38145
38104
38056
38002
37948
37895
37847
37810
37785
37773
37768
37766
37767
37772
37783
37797
37810
37824
37842
37859
37871
37878
37881
37883
37880
37869
37850
37826
37798
37767
37729
37682
37629
37573
37513
37450
37385
37321
37259
37204
37150
37094
37036
36979
36920
36863
36805
36749
36697
36646
36596
36548
36501
36456
36415
36374
36334
36296
36260
36225
36189
36154
36123
36092
36060
36030
36005
35982
35963
35943
35918
35888
35859
35832
35807
35779
35746
35712
35682
35653
35622
35592
35561
35524
35479
35430
35382
35337
35291
35247
35204
35159
35113
35065
35013
34956
34896
34836
34775
34711
34645
34580
34517
34454
34391
34334
34292
34271
34282
34335
34431
34569
34755
34993
35277
35597
35939
36293
36643
36980
37295
37585
37847
38076
38269
38426
38548
38637
38695
38723
38723
38701
38665
38621
38568
38510
38455
38404
38356
38313
38279
38256
38239
38227
38223
38223
38227
38235
38250
38268
38286
38298
38303
38300
38286
38263
38235
38202
38162
38117
38073
38031
37990
37952
37921
37896
37880
37872
37873
37879
37889
37904
37924
37947
37968
37988
38003
38010
38008
38002
37994
37979
37960
37938
37911
37875
37832
37789
37744
37693
37639
37584
37530
37479
37428
37374
37317
37264
37212
37163
37111
37054
36993
36935
36878
36821
36767
36716
36667
36623
36584
36549
36512
36474
36437
36401
36363
36327
36295
36263
36232
36203
36175
36145
36117
36090
36063
36038
36013
35985
35957
35931
35904
35873
35839
35805
35767
35726
35686
35647
35607
35565
35526
35489
35452
35417
35379
35335
35285
35233
35180
35128
35076
35024
34972
34914
34850
34786
34725
34668
34612
34552
34490
34427
34363
34302
34245
34191
34145
34111
34090
34085
34107
34168
34276
34434
34642
34904
35215
35559
35922
36298
36671
37028
37362
37672
37949
38188
38392
38560
38692
38789
38858
38902
38920
38913
38887
38849
38803
38751
38696
38639
38582
38527
38480
38445
38422
38414
38418
38427
38442
38459
38478
38499
38522
38541
38550
38550
38542
38526
38505
38478
38446
38409
38370
38327
38284
38246
38217
38195
38178
38162
38148
38140
38137
38136
38138
38141
38148
38156
38160
38158
38156
38154
38149
38139
38124
38101
38070
38029
37982
37934
37887
37838
37788
37735
37680
37621
37559
37494
37428
37362
37296
37227
37158
37092
37029
36967
36902
36837
36776
36721
36667
36615
36570
36531
36487
36441
36395
36354
36316
36279
36245
36214
36181
36142
36099
36052
36004
35954
35907
35867
35830
35793
35755
35715
35678
35645
35618
35594
35565
35526
35478
35422
35362
35299
35239
35179
35120
35065
35010
34952
34890
34831
34779
34729
34680
34635
34591
34546
34497
34445
34393
34336
34276
34215
34151
34084
34016
33948
33877
33802
33724
33648
33577
33504
33429
33357
33292
33228
33162
33096
33031
32971
32927
32919
32962
33062
33221
33442
33718
34037
34387
34754
35123
35481
35823
36146
36444
36711
36946
37151
37322
37454
37548
37610
37640
37641
37623
37593
37553
37504
37445
37379
37314
37253
37197
37143
37094
37055
37023
36996
36976
36966
36963
36961
36961
36964
36970
36975
36974
36962
36939
36908
36871
36828
36785
36741
36695
36652
36615
36583
36553
36524
36501
36488
36487
36499
36519
36547
36576
36604
36634
36661
36681
36694
36699
36693
36680
36658
36628
36590
36544
36490
36433
36376
36320
36262
36202
36141
36078
36014
35950
35886
35825
35765
35705
35644
35582
35524
35467
35405
35341
35280
35224
35171
35118
35067
35015
34961
34911
34866
34823
34781
34746
34715
34683
34649
34618
34590
34564
34536
34508
34477
34442
34405
34368
34330
34289
34248
34207
34162
34112
34063
34018
33976
33937
33899
33862
33824
33784
33740
33686
33626
33564
33504
33444
33385
33327
33270
33216
33162
33106
33044
32977
32908
32839
32775
32714
32651
32589
32534
32490
32464
32462
32499
32588
32730
32921
33160
33441
33755
34088
34434
34780
35115
35430
35721
35982
36210
36408
36576
36710
36810
36876
36913
36923
36911
36882
36838
36782
36715
36643
36572
36506
36446
36391
36342
36303
36275
36257
36248
36248
36250
36252
36254
36254
36253
36245
36226
36194
36156
36112
36067
36020
35976
35935
35898
35862
35829
35803
35783
35766
35756
35753
35756
35762
35773
35790
35811
35832
35851
35868
35880
35884
35879
35867
35850
35828
35800
35767
35728
35683
35635
35582
35525
35465
35404
35338
35268
35196
35124
35050
34975
34900
34828
34761
34698
34638
34582
34528
34474
34420
34370
34321
34274
34232
34193
34152
34108
34064
34021
33983
33946
33905
33866
33835
33806
33776
33746
33718
33691
33660
33627
33593
33555
33516
33476
33435
33396
33354
33309
33261
33212
33164
33118
33072
33024
32974
32923
32873
32823
32774
32721
32668
32615
32565
32514
32460
32404
32352
32302
32246
32183
32119
32056
31991
31923
31853
31780
31705
31633
31567
31503
31438
31380
31335
31305
31302
31344
31444
31606
31830
32114
32451
32823
33216
33617
34013
34396
34761
35103
35418
35697
35931
36126
36285
36407
36493
36549
36579
36584
36569
36536
36486
36422
36353
36283
36216
36155
36100
36054
36019
35995
35979
35971
35972
35982
35996
36010
36025
36039
36051
36061
36068
36070
36062
36042
36009
35969
35927
35886
35845
35805
35768
35734
35703
35680
35666
35659
35657
35659
35666
35675
35686
35697
35707
35717
35723
35726
35728
35721
35704
35681
35659
35634
35603
35562
35513
35459
35401
35338
35273
35207
35140
35076
35014
34951
34885
34820
34756
34690
34621
34554
34492
34433
34377
34323
34268
34214
34162
34117
34077
34039
34005
33973
33940
33905
33870
33839
33809
33777
33748
33720
33688
33650
33608
33568
33532
33498
33463
33427
33390
33354
33319
33285
33252
33220
33189
33155
33115
33073
33031
32988
32942
32891
32840
32789
32739
32690
32643
32594
32540
32481
32422
32361
32300
32241
32181
32121
32064
32012
31962
31909
31854
31793
31728
31661
31593
31526
31458
31384
31305
31229
31164
31113
31080
31074
31105
31186
31331
31547
31832
32170
32544
32943
33353
33762
34160
34540
34889
35203
35479
35716
35913
36071
36191
36273
36322
36343
36343
36323
36285
36234
36177
36116
36051
35983
35916
35847
35780
35722
35679
35647
35623
35609
35607
35614
35627
35640
35652
35663
35670
35670
35664
35654
35638
35611
35574
35533
35493
35459
35430
35398
35368
35344
35326
35312
35302
35300
35306
35315
35326
35337
35348
35359
35369
35379
35390
35397
35398
35395
35387
35370
35342
35306
35267
35221
35169
35115
35055
34992
34925
34860
34799
34737
34671
34603
34536
34468
34399
34327
34257
34190
34128
34071
34014
33955
33895
33837
33785
33738
33687
33636
33587
33545
33508
33473
33436
33399
33363
33330
33298
33266
33235
33203
33170
33134
33097
33058
33018
32978
32940
32904
32865
32825
32785
32747
32705
32659
32616
32574
32529
32481
32433
32387
32342
32295
32246
32199
32152
32101
32045
31987
31926
31863
31797
31729
31662
31595
31528
31462
31396
31329
31262
31198
31136
31080
31022
30961
30905
30863
30846
30860
30918
31032
31208
31446
31741
32079
32444
32822
33200
33565
33911
34234
34528
34787
35007
35193
35348
35470
35552
35596
35607
35597
35570
35529
35474
35409
35337
35259
35179
35102
35029
34962
34903
34853
34808
34770
34741
34720
34702
34689
34680
34675
34667
34651
34633
34609
34572
34525
34478
34434
34391
34351
34317
34292
34276
34266
34264
34273
34287
34304
34327
34353
34377
34399
34421
34440
34454
34466
34479
34489
34490
34485
34476
34457
34426
34389
34352
34308
34253
34194
34135
34074
34010
33946
33880
33813
33744
33680
33620
33562
33505
33445
33381
33320
33264
33211
33158
33104
33052
33007
32965
32921
32873
32823
32773
32724
32678
32636
32595
32557
32521
32490
32463
32438
32413
32388
32360
32330
32301
32272
32242
32209
32176
32147
32119
32089
32059
32029
31997
31962
31928
31895
31860
31822
31783
31741
31698
31655
31609
31559
31508
31458
31405
31345
31283
31220
31153
31083
31011
30939
30871
30807
30752
30715
30707
30740
30827
30977
31190
31462
31783
32143
32524
32911
33293
33662
34013
34338
34634
34896
35118
35300
35441
35546
35620
35665
35682
35676
35654
35614
35562
35500
35432
35365
35301
35243
35190
35138
35090
35048
35011
34977
34953
34942
34939
34938
34936
34932
34926
34920
34910
34896
34876
34846
34809
34773
34737
34702
34671
34646
34628
34617
34613
34613
34616
34625
34640
34658
34677
34702
34731
34758
34779
34795
34804
34809
34808
34802
34794
34784
34768
34743
34711
34673
34629
34582
34535
34487
34435
34379
34321
34257
34190
34121
34052
33983
33913
33844
33781
33718
33653
33591
33532
33476
33420
33366
33314
33266
33224
33189
33156
33126
33099
33073
33046
33019
32992
32969
32947
32919
32889
32859
32827
32792
32759
32729
32697
32667
32642
32623
32599
32569
32536
32502
32465
32426
32385
32343
32296
32247
32198
32148
32097
32045
31993
31943
31891
31838
31788
31740
31692
31645
31592
31533
31470
31406
31344
31281
31215
31148
31084
31018
30947
30873
30799
30725
30655
30600
30567
30559
30589
30682
30852
31096
31411
31788
32210
32655
33109
33561
33996
34404
34778
35113
35406
35656
35861
36026
36154
36246
36304
36331
36332
36311
36271
36222
36165
36101
36036
35974
35918
35870
35830
35796
35765
35740
35725
35718
35717
35719
35726
35739
35753
35766
35780
35790
35793
35789
35780
35764
35739
35708
35677
35647
35620
35601
35586
35568
35548
35531
35523
35523
35531
35544
35563
35585
35606
35626
35647
35666
35681
35690
35692
35684
35666
35644
35623
35598
35564
35524
35477
35425
35368
35307
35243
35178
35110
35042
34971
34902
34834
34768
34703
34640
34581
34525
34471
34419
34369
34321
34275
34227
34178
34130
34081
34035
33993
33954
33916
33878
33838
33801
33767
33733
33699
33664
33626
33585
33545
33509
33476
33442
33407
33376
33350
33321
33289
33255
33217
33175
33129
33082
33034
32986
32939
32889
32836
32783
32734
32686
32638
32591
32543
32495
32442
32385
32326
32267
32206
32142
32074
32005
31934
31863
31792
31718
31643
31568
31493
31417
31338
31256
31174
31089
31002
30919
30844
30780
30727
30694
30699
30761
30899
31120
31423
31798
32230
32695
33174
33649
34106
34535
34928
35283
35599
35874
36103
36283
36414
36504
36559
36586
36590
36575
36548
36509
36458
36399
36333
36264
36196
36129
36064
36001
35946
35901
35868
35846
35835
35830
35829
35829
35830
35831
35830
35827
35823
35810
35791
35773
35756
35733
35704
35672
35642
35613
35583
35559
35543
35533
35528
35530
35543
35564
35588
35611
35637
35665
35691
35711
35726
35738
35743
35738
35727
35713
35695
35672
35646
35616
35577
35530
35477
35419
35358
35292
35222
35152
35082
35012
34942
34877
34818
34761
34701
34639
34580
34526
34474
34423
34376
34334
34292
34250
34205
34159
34118
34079
34043
34007
33970
33929
33889
33855
33823
33791
33760
33733
33704
33674
33643
33611
33576
33542
33508
33476
33445
33414
33383
33349
33315
33281
33246
33208
33172
33137
33101
33061
33019
32973
32927
32883
32840
32799
32755
32706
32651
32595
32541
32487
32428
32365
32295
32222
32148
32074
32001
31935
31876
31829
31803
31815
31883
32021
32230
32503
32831
33203
33603
34012
34415
34808
35183
35532
35849
36129
36366
36559
36712
36829
36911
36960
36984
36985
36961
36917
36862
36799
36731
36659
36584
36509
36432
36356
36284
36221
36168
36122
36087
36065
36052
36044
36039
36034
36024
36005
35982
35954
35918
35877
35835
35795
35757
35721
35689
35664
35645
35635
35637
35648
35665
35691
35723
35758
35795
35831
35864
35892
35919
35949
35978
35998
36006
36004
35997
35984
35960
35926
35882
35829
35769
35701
35631
35558
35480
35402
35323
35244
35167
35092
35017
34944
34871
34800
34729
34660
34593
34526
34462
34401
34341
34284
34232
34180
34127
34078
34031
33982
33929
33879
33836
33795
33761
33731
33699
33666
33634
33605
33576
33545
33515
33494
33479
33464
33448
33432
33417
33401
33381
33354
33319
33278
33235
33191
33148
33111
33077
33038
32993
32944
32891
32836
32778
32716
32651
32582
32504
32419
32329
32241
32156
32079
32013
31960
31929
31937
31999
32124
32318
32582
32910
33290
33706
34144
34592
35032
35450
35841
36199
36518
36796
37032
37225
37376
37489
37567
37614
37630
37622
37596
37556
37500
37434
37367
37301
37236
37172
37111
37056
37007
36966
36935
36912
36893
36876
36862
36849
36837
36828
36822
36817
36811
36801
36787
36769
36748
36724
36698
36670
36640
36614
36595
36585
36583
36589
36601
36620
36647
36679
36715
36752
36790
36827
36857
36879
36894
36906
36913
36912
36905
36896
36884
36864
36835
36800
36756
36700
36634
36564
36494
36422
36349
36274
36197
36120
36045
35973
35906
35843
35780
35717
35656
35601
35547
35489
35430
35376
35328
35285
35243
35204
35168
35131
35093
35056
35022
34990
34960
34935
34916
34902
34889
34873
34858
34843
34824
34802
34778
34751
34719
34680
34641
34604
34567
34530
34498
34466
34430
34392
34352
34313
34276
34241
34206
34170
34131
34088
34045
34001
33955
33906
33853
33798
33744
33689
33630
33566
33498
33424
33343
33261
33183
33108
33039
32982
32945
32941
32979
33072
33236
33479
33796
34168
34581
35023
35477
35929
36369
36788
37180
37536
37848
38112
38332
38515
38662
38772
38846
38887
38902
38895
38871
38835
38789
38733
38673
38613
38553
38492
38432
38382
38346
38321
38302
38288
38283
38285
38293
38304
38320
38337
38349
38355
38352
38342
38325
38304
38277
38242
38200
38155
38116
38086
38064
38049
38042
38044
38054
38070
38090
38114
38141
38168
38191
38207
38217
38221
38221
38218
38213
38207
38198
38183
38158
38129
38095
38053
38003
37950
37894
37834
37769
37699
37624
37547
37471
37397
37326
37256
37189
37123
37058
36994
36934
36875
36815
36754
36694
36636
36578
36526
36485
36454
36425
36392
36362
36337
36311
36284
36256
36228
36196
36161
36128
36097
36065
36036
36009
35979
35948
35915
35884
35856
35830
35803
35774
35743
35707
35666
35620
35572
35524
35473
35417
35359
35300
35244
35190
35135
35078
35025
34974
34921
34871
34822
34775
34725
34669
34608
34543
34471
34394
34317
34242
34167
34094
34021
33947
33873
33803
33744
33700
33679
33696
33766
33902
34111
34396
34748
35151
35586
36036
36489
36934
37363
37767
38140
38472
38755
38990
39181
39331
39444
39522
39568
39581
39567
39534
39484
39420
39350
39278
39209
39141
39079
39028
38983
38939
38896
38861
38837
38824
38821
38825
38836
38850
38864
38874
38878
38873
38867
38856
38833
38801
38764
38722
38677
38632
38596
38570
38548
38527
38510
38498
38495
38502
38518
38536
38553
38574
38599
38624
38648
38669
38685
38691
38686
38676
38663
38639
38602
38554
38501
38443
38380
38315
38252
38186
38117
38048
37979
37910
37838
37765
37693
37621
37551
37486
37423
37360
37297
37232
37166
37101
37041
36984
36928
36873
36819
36767
36717
36668
36620
36572
36527
36485
36443
36400
36358
36319
36284
36250
36217
36184
36153
36121
36089
36055
36021
35986
35947
35907
35867
35825
35780
35733
35689
35644
35598
35551
35505
35459
35412
35362
35310
35253
35194
35136
35075
35014
34953
34895
34840
34782
34721
34658
34592
34524
34455
34384
34311
34235
34154
34071
33990
33914
33846
33794
33766
33774
33828
33944
34133
34395
34720
35094
35502
35930
36362
36786
37190
37564
37899
38194
38450
38667
38846
38982
39077
39136
39169
39177
39157
39113
39051
38979
38900
38817
38733
38651
38572
38498
38433
38377
38329
38286
38251
38226
38205
38188
38174
38161
38148
38132
38111
38084
38049
38009
37962
37913
37866
37823
37785
37753
37730
37712
37698
37691
37695
37710
37735
37765
37797
37832
37871
37909
37947
37984
38017
38043
38060
38066
38059
38043
38015
37975
37927
37875
37820
37760
37695
37628
37559
37490
37421
37351
37279
37210
37143
37078
37010
36938
36863
36790
36718
36648
36579
36511
36449
36392
36340
36293
36252
36217
36186
36155
36123
36094
36066
36036
36004
35973
35941
35908
35877
35849
35820
35792
35768
35747
35726
35701
35673
35649
35628
35601
35568
35533
35500
35468
35434
35398
35360
35319
35275
35228
35178
35124
35065
35004
34941
34874
34801
34723
34642
34563
34489
34420
34361
34318
34297
34309
34367
34483
34663
34900
35189
35525
35899
36295
36699
37096
37475
37826
38139
38413
38650
38850
39007
39126
39211
39262
39282
39275
39244
39196
39134
39059
38973
38884
38795
38711
38632
38558
38490
38432
38384
38345
38318
38303
38299
38300
38302
38300
38293
38282
38266
38244
38213
38175
38133
38093
38057
38023
37996
37974
37956
37945
37941
37945
37956
37975
38002
38034
38068
38103
38141
38180
38215
38240
38254
38257
38252
38241
38225
38206
38182
38154
38124
38092
38053
38006
37954
37901
37838
37765
37694
37626
37557
37489
37423
37358
37293
37228
37165
37104
37045
36989
36936
36887
36839
36790
36742
36696
36651
36603
36553
36501
36449
36400
36359
36324
36292
36263
36233
36208
36191
36180
36172
36164
36152
36136
36112
36082
36054
36029
36005
35980
35954
35925
35895
35862
35826
35786
35740
35686
35630
35575
35520
35462
35396
35325
35252
35176
35101
35029
34959
34885
34807
34726
34645
34564
34484
34409
34344
34290
34256
34256
34301
34408
34588
34844
35167
35545
35964
36407
36857
37302
37730
38127
38488
38810
39087
39316
39500
39642
39747
39818
39858
39873
39868
39845
39804
39753
39692
39625
39557
39492
39434
39382
39335
39296
39265
39239
39220
39208
39205
39211
39226
39245
39264
39278
39289
39295
39291
39276
39255
39231
39204
39173
39137
39100
39063
39030
39006
38996
38995
38999
39009
39024
39042
39062
39083
39107
39129
39144
39153
39159
39162
39162
39157
39147
39130
39108
39082
39051
39010
38961
38905
38847
38785
38720
38657
38598
38536
38468
38398
38329
38259
38188
38123
38067
38016
37960
37901
37844
37790
37740
37692
37648
37604
37561
37522
37484
37444
37404
37365
37325
37287
37251
37216
37181
37146
37112
37082
37051
37018
36987
36960
36931
36898
36869
36847
36827
36806
36780
36749
36713
36676
36638
36597
36553
36509
36467
36429
36391
36351
36310
36264
36216
36165
36114
36062
36010
35959
35911
35861
35810
35757
35701
35639
35570
35498
35427
35353
35278
35207
35139
35071
35008
34956
34923
34920
34959
35056
35222
35463
35777
36147
36559
36998
37447
37890
38317
38720
39094
39432
39725
39973
40177
40338
40459
40542
40595
40622
40617
40586
40537
40476
40405
40331
40257
40187
40124
40071
40028
39994
39968
39952
39944
39941
39943
39949
39957
39965
39974
39983
39989
39990
39983
39969
39949
39921
39887
39851
39814
39778
39742
39711
39686
39665
39650
39642
39641
39645
39653
39666
39683
39699
39714
39726
39738
39747
39752
39754
39753
39746
39732
39713
39688
39656
39616
39570
39522
39469
39412
39352
39289
39223
39154
39083
39010
38935
38859
38785
38710
38637
38567
38501
38440
38382
38323
38261
38198
38138
38084
38036
37991
37946
37904
37865
37826
37787
37752
37717
37682
37651
37627
37606
37581
37554
37527
37498
37463
37426
37390
37353
37315
37277
37244
37211
37177
37139
37098
37052
37004
36959
36918
36876
36828
36775
36719
36661
36605
36552
36503
36456
36407
36356
36306
36252
36192
36129
36067
36002
35933
35865
35805
35745
35681
35614
35541
35457
35371
35289
35212
35135
35054
34975
34902
34837
34788
34769
34794
34876
35028
35254
35553
35915
36324
36762
37216
37669
38109
38522
38898
39237
39540
39805
40026
40204
40342
40437
40493
40519
40519
40493
40443
40373
40293
40213
40132
40051
39971
39891
39812
39736
39670
39616
39576
39546
39527
39513
39506
39508
39513
39515
39510
39495
39473
39442
39403
39360
39315
39272
39234
39201
39172
39148
39132
39124
39127
39140
39162
39192
39225
39258
39290
39321
39352
39384
39411
39433
39453
39469
39481
39486
39480
39458
39423
39382
39338
39288
39231
39166
39094
39012
38924
38838
38754
38674
38595
38516
38439
38363
38287
38214
38143
38076
38017
37962
37906
37849
37794
37743
37694
37646
37602
37561
37521
37484
37450
37418
37383
37346
37309
37276
37242
37207
37176
37151
37125
37099
37075
37051
37025
36995
36966
36937
36905
36871
36832
36788
36744
36700
36660
36620
36577
36532
36482
36424
36361
36301
36242
36180
36114
36047
35981
35911
35837
35761
35687
35611
35534
35461
35395
35339
35295
35274
35290
35354
35478
35674
35940
36263
36631
37032
37449
37867
38277
38675
39046
39380
39674
39929
40140
40305
40430
40521
40580
40606
40608
40587
40548
40492
40423
40345
40263
40177
40092
40013
39944
39887
39839
39798
39763
39736
39717
39702
39691
39683
39677
39671
39659
39642
39617
39582
39539
39494
39448
39404
39360
39318
39282
39252
39232
39223
39227
39238
39253
39272
39297
39323
39350
39379
39409
39438
39465
39486
39500
39502
39492
39472
39447
39418
39380
39335
39283
39226
39167
39105
39040
38968
38887
38805
38726
38652
38579
38509
38442
38374
38302
38229
38160
38094
38031
37970
37906
37844
37787
37730
37672
37622
37580
37542
37504
37460
37413
37364
37314
37268
37225
37185
37147
37110
37077
37049
37022
36993
36961
36930
36901
36872
36840
36805
36769
36732
36696
36663
36631
36598
36564
36525
36484
36440
36395
36349
36302
36254
36202
36144
36081
36017
35950
35881
35807
35724
35636
35545
35454
35362
35270
35179
35089
35001
34918
34845
34789
34758
34768
34837
34980
35204
35507
35875
36294
36749
37226
37706
38171
38611
39018
39385
39708
39987
40224
40419
40571
40684
40758
40798
40812
40801
40768
40719
40658
40589
40514
40436
40359
40287
40219
40155
40100
40055
40017
39988
39971
39965
39963
39964
39968
39974
39983
39990
39991
39982
39963
39936
39902
39865
39827
39788
39746
39708
39676
39651
39632
39620
39614
39616
39623
39632
39642
39656
39674
39693
39710
39727
39740
39746
39747
39743
39734
39720
39703
39678
39643
39600
39551
39496
39434
39364
39288
39208
39124
39037
38951
38867
38788
38714
38641
38571
38501
38429
38357
38287
38217
38147
38077
38012
37951
37891
37835
37786
37742
37699
37656
37612
37567
37522
37477
37436
37397
37360
37323
37288
37253
37218
37184
37151
37117
37082
37047
37011
36973
36935
36892
36844
36795
36748
36704
36656
36604
36552
36500
36447
36395
36341
36286
36227
36166
36102
36039
35978
35920
35866
35815
35762
35703
35637
35569
35498
35424
35343
35257
35169
35084
35000
34914
34824
34734
34654
34587
34538
34522
34560
34668
34857
35131
35485
35903
36366
36855
37353
37843
38310
38743
39138
39487
39785
40035
40239
40400
40519
40599
40645
40661
40650
40617
40567
40502
40424
40338
40252
40166
40079
39996
39919
39850
39789
39739
39699
39670
39653
39644
39634
39624
39615
39608
39602
39598
39595
39585
39562
39526
39482
39435
39393
39352
39311
39272
39236
39204
39175
39157
39148
39144
39148
39155
39167
39184
39206
39231
39255
39275
39288
39293
39289
39278
39260
39233
39193
39145
39091
39034
38972
38909
38846
38781
38711
38634
38551
38460
38364
38269
38178
38088
37999
37914
37834
37758
37683
37610
37544
37480
37415
37352
37296
37243
37192
37145
37104
37064
37022
36979
36939
36901
36866
36831
36797
36764
36729
36694
36657
36619
36581
36543
36503
36463
36426
36394
36364
36332
36296
36259
36222
36183
36141
36096
36049
36005
35961
35916
35870
35820
35770
35721
35669
35617
35567
35519
35472
35429
35396
35369
35342
35310
35270
35223
35170
35109
35040
34966
34890
34812
34730
34646
34560
34480
34411
34361
34340
34362
34440
34584
34793
35065
35391
35757
36145
36542
36936
37317
37677
38012
38312
38569
38783
38961
39103
39207
39273
39306
39310
39286
39240
39182
39116
39041
38958
38872
38786
38695
38601
38514
38436
38363
38294
38236
38188
38147
38113
38085
38062
38044
38034
38028
38013
37987
37949
37903
37851
37799
37750
37708
37675
37649
37633
37627
37630
37640
37656
37676
37699
37726
37755
37785
37813
37841
37866
37887
37903
37913
37916
37911
37897
37873
37843
37806
37761
37708
37649
37585
37516
37446
37378
37311
37241
37168
37091
37014
36937
36863
36791
36720
36650
36582
36517
36450
36384
36322
36264
36206
36145
36084
36027
35972
35917
35867
35825
35782
35732
35680
35631
35587
35549
35515
35483
35453
35423
35394
35368
35342
35312
35278
35241
35201
35157
35115
35074
35035
34999
34965
34928
34888
34850
34810
34764
34710
34650
34590
34532
34472
34409
34347
34287
34231
34176
34118
34053
33982
33910
33842
33773
33701
33634
33576
33526
33490
33485
33528
33630
33797
34030
34321
34659
35028
35412
35793
36162
36514
36841
37137
37394
37616
37802
37949
38058
38131
38173
38187
38177
38151
38109
38052
37981
37906
37830
37753
37675
37601
37534
37470
37409
37356
37317
37287
37264
37244
37229
37219
37217
37217
37212
37196
37173
37147
37117
37080
37038
36993
36951
36912
36875
36841
36815
36798
36787
36783
36787
36797
36812
36828
36844
36862
36877
36883
36884
36884
36886
36885
36877
36865
36847
36821
36788
36750
36710
36666
36613
36549
36478
36406
36334
36269
36207
36138
36064
35989
35915
35842
35772
35704
35636
35568
35502
35436
35372
35312
35257
35208
35163
35118
35070
35019
34970
34926
34887
34852
34818
34781
34743
34706
34668
34629
34591
34554
34515
34474
34436
34400
34366
34330
34292
34254
34217
34181
34145
34110
34074
34034
33994
33957
33920
33883
33845
33807
33767
33726
33684
33641
33596
33548
33497
33443
33384
33320
33252
33181
33106
33028
32952
32876
32803
32732
32665
32600
32537
32477
32429
32402
32405
32453
32563
32744
32992
33301
33660
34053
34460
34867
35265
35650
36015
36351
36647
36897
37105
37272
37399
37486
37539
37562
37561
37540
37502
37450
37387
37316
37245
37176
37110
37046
36982
36923
36876
36837
36806
36785
36774
36767
36764
36768
36776
36785
36793
36798
36795
36781
36761
36733
36698
36658
36618
36582
36553
36529
36506
36485
36468
36455
36449
36454
36463
36471
36482
36496
36509
36521
36530
36538
36544
36545
36539
36530
36518
36505
36488
36464
36434
36402
36368
36326
36275
36218
36160
36104
36050
35996
35940
35880
35814
35746
35682
35621
35564
35511
35458
35404
35349
35292
35237
35184
35130
35077
35028
34980
34932
34888
34849
34812
34776
34745
34717
34690
34663
34635
34609
34583
34554
34522
34487
34449
34409
34369
34329
34288
34244
34202
34162
34122
34083
34048
34014
33978
33939
33897
33855
33812
33768
33724
33679
33630
33577
33520
33461
33400
33341
33284
33228
33170
33113
33054
32994
32931
32867
32801
32735
32669
32603
32537
32471
32405
32342
32282
32226
32184
32165
32181
32237
32344
32514
32749
33039
33376
33746
34134
34523
34906
35270
35608
35915
36189
36427
36624
36783
36902
36983
37033
37057
37057
37039
37004
36957
36906
36850
36788
36721
36651
36582
36516
36454
36399
36354
36318
36286
36261
36243
36233
36230
36234
36241
36245
36242
36231
36209
36178
36141
36101
36060
36018
35976
35937
35900
35868
35844
35832
35829
35835
35848
35870
35898
35926
35951
35973
35995
36018
36037
36052
36062
36070
36074
36074
36062
36038
36003
35958
35905
35849
35788
35725
35660
35596
35534
35472
35409
35344
35280
35216
35150
35081
35012
34945
34887
34834
34785
34738
34693
34650
34609
34569
34530
34499
34475
34451
34431
34413
34394
34372
34352
34333
34315
34295
34277
34260
34241
34220
34196
34168
34138
34104
34067
34029
33989
33950
33916
33889
33866
33842
33819
33797
33774
33751
33726
33693
33650
33604
33556
33508
33457
33401
33343
33284
33221
33154
33084
33013
32945
32882
32829
32787
32750
32721
32713
32737
32798
32902
33056
33262
33512
33804
34126
34461
34795
35125
35445
35745
36019
36264
36475
36649
36787
36891
36966
37015
37039
37044
37029
36993
36938
36869
36794
36719
36646
36580
36521
36466
36413
36365
36324
36288
36255
36227
36205
36187
36173
36162
36151
36134
36108
36079
36047
36012
35971
35926
35886
35852
35828
35815
35808
35801
35797
35798
35806
35821
35845
35875
35907
35940
35970
35996
36019
36037
36049
36052
36049
36041
36024
35999
35966
35928
35886
35839
35786
35731
35674
35614
35551
35485
35420
35360
35307
35258
35207
35155
35101
35047
34995
34943
34891
34844
34800
34758
34716
34677
34644
34613
34580
34548
34518
34487
