35112
35035
34943
34888
34868
34814
34730
34687
34682
34652
34617
34656
34766
34882
35022
35251
35542
35824
36115
36476
36872
37230
37570
37931
38266
38523
38743
38980
39193
39341
39470
39614
39715
39737
39742
39763
39735
39644
39554
39474
39356
39202
39082
39006
38912
38790
38699
38640
38559
38469
38418
38386
38321
38240
38198
38172
38100
38014
37986
37997
37991
37989
38036
38098
38125
38149
38216
38279
38296
38313
38372
38440
38476
38516
38604
38696
38754
38828
38942
39020
39024
39015
39016
38979
38903
38861
38853
38797
38692
38615
38561
38468
38361
38311
38288
38209
38089
37988
37889
37751
37613
37534
37481
37402
37325
37292
37260
37178
37090
37035
36972
36869
36777
36731
36675
36569
36467
36409
36348
36257
36196
36193
36179
36125
36081
36064
36017
35934
35879
35856
35805
35736
35701
35685
35636
35571
35543
35523
35456
35374
35336
35305
35218
35113
35050
34995
34896
34790
34728
34663
34553
34448
34386
34314
34189
34067
34003
33960
33914
33918
34007
34133
34261
34438
34689
34963
35250
35591
35970
36312
36618
36931
37238
37478
37670
37882
38098
38242
38325
38413
38497
38511
38473
38452
38425
38331
38203
38110
38031
37898
37748
37656
37582
37467
37361
37309
37264
37181
37100
37046
36973
36870
36783
36729
36671
36592
36537
36505
36441
36365
36337
36343
36327
36306
36337
36395
36415
36425
36493
36588
36644
36687
36776
36864
36888
36893
36934
36975
36966
36939
36944
36937
36873
36795
36756
36716
36625
36525
36463
36386
36251
36115
36021
35914
35763
35627
35534
35429
35304
35221
35176
35104
35003
34943
34923
34878
34819
34803
34809
34769
34697
34647
34600
34506
34401
34342
34303
34233
34168
34155
34148
34110
34083
34101
34116
34086
34058
34073
34080
34041
34010
34018
34006
33941
33883
33860
33829
33775
33742
33734
33687
33592
33520
33481
33410
33308
33248
33228
33164
33064
33005
32975
32915
32837
32781
32731
32654
32588
32595
32642
32680
32755
32925
33143
33352
33600
33933
34302
34657
35031
35444
35825
36137
36431
36747
37034
37258
37480
37721
37902
37990
38049
38110
38124
38086
38052
38028
37952
37839
37762
37699
37581
37439
37347
37271
37150
37017
36933
36875
36790
36708
36678
36656
36595
36537
36526
36511
36445
36372
36338
36301
36221
36153
36127
36084
36000
35934
35919
35919
35917
35943
35997
36021
36005
36022
36077
36102
36103
36152
36231
36259
36249
36264
36290
36274
36238
36238
36236
36176
36092
36038
35977
35861
35737
35667
35609
35504
35392
35327
35269
35168
35068
35011
34954
34865
34787
34742
34681
34581
34495
34448
34380
34283
34221
34199
34153
34079
34037
34018
33965
33897
33870
33866
33828
33778
33765
33759
33704
33626
33578
33532
33435
33331
33279
33239
33158
33077
33049
33036
32990
32947
32948
32943
32887
32828
32802
32763
32686
32624
32597
32554
32481
32434
32421
32381
32304
32244
32212
32160
32099
32094
32143
32202
32298
32492
32764
33046
33350
33729
34143
34526
34906
35326
35741
36089
36396
36711
36992
37186
37338
37500
37634
37690
37713
37740
37723
37640
37548
37480
37394
37275
37177
37106
36995
36843
36726
36656
36569
36459
36383
36340
36264
36162
36103
36067
35986
35876
35798
35744
35664
35577
35536
35516
35468
35428
35452
35494
35490
35482
35529
35591
35624
35673
35766
35840
35852
35863
35921
35969
35965
35962
35992
36001
35964
35936
35931
35889
35804
35743
35712
35646
35546
35475
35430
35346
35234
35158
35107
35020
34910
34842
34795
34713
34618
34559
34501
34395
34289
34237
34200
34122
34040
34001
33963
33889
33830
33819
33801
33738
33678
33658
33630
33566
33522
33517
33489
33421
33375
33355
33299
33212
33162
33147
33101
33034
33014
33019
32983
32928
32913
32916
32881
32825
32795
32769
32699
32623
32596
32576
32505
32423
32387
32355
32278
32201
32168
32131
32049
31972
31940
31912
31863
31850
31904
31992
32109
32303
32579
32875
33178
33539
33957
34362
34733
35120
35510
35829
36080
36334
36575
36736
36836
36947
37051
37089
37084
37089
37070
36979
36864
36785
36705
36570
36417
36291
36153
35967
35794
35687
35600
35496
35417
35378
35322
35230
35157
35110
35031
34914
34841
34827
34795
34729
34692
34695
34678
34648
34684
34771
34836
34887
34972
35063
35114
35160
35250
35345
35405
35459
35541
35604
35604
35585
35599
35614
35589
35556
35550
35529
35464
35416
35413
35395
35332
35279
35259
35207
35099
35013
34965
34876
34734
34611
34518
34403
34278
34203
34154
34063
33952
33885
33845
33771
33682
33634
33597
33522
33455
33443
33434
33367
33291
33267
33258
33212
33156
33138
33132
33088
33050
33059
33063
33026
32998
33011
33020
32994
32978
32993
32980
32922
32881
32864
32803
32694
32601
32532
32436
32330
32275
32255
32199
32114
32072
32065
32044
32047
32147
32319
32503
32721
33011
33332
33630
33935
34291
34656
34983
35313
35664
35979
36219
36438
36663
36837
36935
37009
37081
37106
37071
37026
36977
36873
36714
36570
36456
36316
36151
36020
35915
35770
35603
35486
35413
35312
35196
35120
35060
34950
34816
34716
34627
34506
34394
34345
34321
34266
34220
34224
34236
34225
34249
34346
34455
34529
34615
34738
34835
34881
34942
35033
35087
35096
35132
35192
35199
35154
35126
35114
35069
34999
34963
34950
34893
34813
34778
34759
34685
34586
34523
34458
34331
34187
34088
33999
33868
33739
33667
33606
33500
33386
33313
33243
33148
33086
33084
33072
33013
32956
32925
32874
32790
32735
32728
32698
32626
32573
32547
32486
32392
32333
32304
32241
32159
32137
32163
32162
32135
32141
32158
32117
32047
32013
31987
31916
31836
31792
31746
31654
31567
31545
31546
31517
31506
31572
31675
31774
31913
32131
32381
32636
32946
33323
33695
34034
34394
34779
35127
35435
35756
36066
36285
36434
36600
36773
36878
36921
36971
37026
37021
36956
36891
36816
36690
36549
36440
36326
36176
36045
35976
35908
35799
35698
35628
35534
35391
35263
35193
35136
35046
34968
34944
34917
34858
34835
34864
34877
34867
34891
34939
34952
34938
34972
35050
35095
35116
35183
35268
35311
35338
35394
35456
35476
35465
35473
35480
35438
35401
35417
35425
35367
35295
35270
35250
35180
35114
35091
35051
34956
34871
34831
34774
34664
34562
34499
34421
34310
34222
34175
34109
34009
33938
33905
33846
33755
33691
33658
33600
33516
33457
33408
33315
33216
33193
33213
33201
33177
33186
33204
33188
33172
33194
33199
33145
33085
33071
33056
32996
32945
32943
32931
32866
32808
32788
32750
32674
32614
32583
32522
32423
32356
32324
32268
32201
32193
32247
32295
32356
32519
32767
33020
33297
33663
34078
34462
34836
35245
35647
35985
36289
36613
36919
37150
37344
37553
37729
37829
37915
38019
38075
38049
38008
37996
37953
37838
37719
37635
37534
37394
37265
37176
37085
36982
36913
36881
36837
36787
36779
36794
36766
36706
36677
36662
36591
36499
36458
36432
36369
36303
36294
36310
36285
36260
36308
36385
36427
36468
36544
36608
36627
36663
36742
36805
36817
36830
36883
36920
36908
36912
36945
36935
36871
36819
36788
36717
36602
36516
36455
36354
36235
36162
36113
36015
35878
35768
35680
35553
35403
35299
35216
35097
34990
34950
34920
34849
34764
34710
34660
34564
34468
34426
34397
34337
34283
34268
34245
34186
34156
34178
34183
34144
34122
34129
34092
34010
33956
33935
33892
33829
33802
33800
33762
33706
33686
33671
33604
33510
33453
33412
33336
33253
33208
33172
33099
33012
32961
32919
32861
32840
32896
32977
33048
33171
33402
33700
34018
34388
34824
35256
35644
36028
36419
36762
37046
37337
37648
37908
38097
38274
38445
38540
38564
38594
38637
38633
38587
38552
38513
38422
38304
38216
38141
38033
37918
37852
37798
37697
37588
37520
37453
37345
37251
37223
37201
37138
37083
37073
37056
36997
36954
36961
36956
36912
36900
36935
36943
36923
36943
37003
37036
37040
37076
37135
37155
37156
37199
37262
37278
37263
37280
37306
37281
37237
37233
37234
37190
37133
37106
37070
36986
36904
36863
36801
36670
36540
36472
36409
36306
36210
36142
36053
35934
35840
35783
35706
35604
35532
35487
35409
35307
35248
35220
35164
35099
35092
35128
35131
35111
35131
35169
35155
35113
35102
35090
35031
34964
34939
34920
34854
34789
34766
34729
34654
34589
34562
34534
34473
34423
34402
34354
34263
34194
34157
34103
34024
33960
33926
33881
33810
33756
33728
33675
33612
33618
33701
33789
33905
34135
34445
34742
35048
35428
35842
36225
36590
36976
37346
37645
37911
38190
38431
38595
38722
38841
38919
38937
38946
38979
38976
38896
38799
38724
38629
38501
38396
38322
38216
38065
37944
37876
37803
37710
37649
37624
37579
37514
37483
37469
37403
37300
37232
37179
37082
36978
36932
36906
36844
36788
36801
36847
36874
36915
37002
37082
37116
37151
37227
37288
37287
37282
37327
37376
37383
37390
37416
37408
37357
37325
37316
37266
37164
37071
36996
36885
36750
36655
36585
36473
36330
36223
36142
36029
35907
35834
35782
35689
35579
35514
35464
35373
35281
35239
35207
35143
35089
35085
35079
35028
34979
34966
34944
34876
34810
34782
34741
34660
34598
34580
34554
34505
34482
34490
34475
34428
34399
34384
34329
34248
34210
34201
34151
34073
34034
34005
33919
33806
33737
33690
33606
33514
33473
33461
33433
33430
33510
33638
33765
33932
34184
34474
34754
35066
35444
35829
36169
36502
36861
37199
37493
37781
38061
38274
38411
38535
38651
38704
38704
38719
38740
38700
38607
38530
38461
38340
38188
38073
37976
37842
37709
37641
37604
37524
37430
37378
37322
37213
37100
37031
36960
36842
36730
36665
36606
36522
36461
36458
36462
36447
36464
36530
36581
36595
36631
36709
36775
36821
36909
37030
37113
37152
37210
37282
37300
37279
37277
37275
37219
37138
37090
37039
36935
36824
36759
36695
36575
36442
36346
36251
36107
35935
35791
35649
35467
35292
35160
35015
34839
34704
34636
34566
34461
34376
34332
34270
34186
34147
34154
34132
34069
34038
34035
33984
33907
33885
33890
33849
33786
33756
33739
33689
33644
33655
33680
33659
33620
33618
33630
33610
33587
33598
33599
33556
33529
33554
33566
33518
33470
33460
33432
33359
33300
33274
33223
33134
33072
33050
33007
32937
32906
32932
32974
33047
33217
33467
33726
34003
34361
34771
35152
35520
35944
36387
36773
37115
37463
37786
38034
38244
38456
38633
38732
38783
38827
38827
38751
38660
38604
38537
38430
38324
38251
38174
38074
38006
37986
37951
37884
37847
37845
37813
37746
37695
37662
37594
37509
37472
37452
37375
37271
37220
37204
37161
37112
37117
37144
37131
37111
37144
37192
37206
37228
37301
37374
37399
37431
37509
37573
37580
37589
37630
37647
37607
37557
37524
37468
37375
37298
37258
37193
37089
37017
36989
36931
36836
36770
36728
36643
36523
36431
36350
36223
36075
35978
35911
35803
35678
35598
35529
35422
35319
35269
35229
35146
35055
35007
34962
34862
34761
34708
34648
34546
34463
34441
34423
34375
34345
34346
34321
34261
34234
34254
34250
34204
34175
34161
34104
34017
33968
33942
33876
33790
33753
33752
33718
33660
33629
33601
33520
33426
33378
33335
33247
33153
33104
33069
33014
32987
33038
33127
33214
33357
33602
33889
34177
34516
34921
35313
35655
36011
36392
36736
37039
37345
37636
37854
38015
38189
38366
38470
38510
38562
38616
38603
38541
38495
38452
38362
38255
38188
38132
38034
37933
37890
37866
37804
37742
37716
37682
37612
37561
37561
37545
37467
37389
37346
37278
37158
37056
37002
36938
36852
36806
36813
36822
36821
36847
36895
36909
36910
36967
37052
37090
37103
37141
37173
37149
37106
37102
37113
37084
37034
37013
36987
36907
36817
36761
36697
36584
36468
36405
36360
36284
36217
36195
36161
36072
35984
35929
35854
35751
35683
35662
35618
35531
35459
35412
35336
35230
35148
35090
34998
34887
34827
34806
34745
34656
34601
34559
34476
34384
34347
34327
34259
34179
34140
34105
34028
33951
33926
33908
33849
33800
33794
33768
33685
33600
33544
33476
33380
33301
33263
33221
33155
33119
33121
33086
33011
32968
32959
32909
32807
32725
32670
32571
32445
32362
32314
32249
32197
32230
32332
32438
32573
32796
33069
33336
33640
34031
34450
34836
35236
35695
36147
36522
36859
37204
37500
37709
37888
38061
38163
38177
38167
38160
38100
37987
37897
37836
37740
37606
37501
37426
37321
37199
37122
37075
36986
36873
36810
36773
36690
36595
36555
36541
36482
36397
36341
36291
36211
36142
36134
36140
36104
36074
36102
36144
36153
36171
36235
36289
36295
36309
36352
36365
36342
36352
36399
36419
36414
36452
36520
36535
36494
36462
36440
36370
36266
36194
36143
36063
35978
35928
35878
35790
35696
35646
35609
35527
35427
35363
35300
35191
35080
35002
34913
34783
34666
34605
34540
34436
34359
34346
34327
34274
34248
34272
34283
34255
34256
34303
34323
34308
34329
34384
34405
34407
34449
34508
34507
34461
34444
34454
34433
34395
34396
34419
34404
34374
34387
34403
34365
34316
34302
34277
34202
34120
34072
34016
33915
33822
33777
33727
33633
33542
33496
33442
33353
33302
33318
33347
33368
33442
33592
33755
33924
34158
34444
34720
35003
35344
35707
36021
36303
36615
36927
37173
37377
37591
37776
37871
37907
37940
37941
37871
37771
37685
37574
37403
37233
37113
36990
36829
36688
36595
36496
36371
36280
36237
36180
36093
36044
36042
36018
35954
35904
35872
35799
35702
35652
35638
35595
35537
35524
35545
35545
35547
35613
35709
35767
35815
35898
35979
36009
36020
36052
36063
36015
35965
35961
35959
35918
35876
35867
35839
35758
35675
35606
35495
35334
35197
35113
35023
34905
34808
34733
34621
34477
34377
34304
34184
34045
33958
33895
33781
33640
33551
33499
33412
33312
33252
33192
33079
32956
32888
32837
32756
32671
32626
32582
32490
32404
32375
32340
32262
32210
32206
32181
32112
32062
32053
32028
31972
31942
31938
31891
31806
31747
31707
31619
31499
31422
31377
31294
31190
31131
31104
31048
30979
30951
30938
30900
30892
30974
31112
31250
31414
31647
31917
32176
32455
32792
33145
33473
33811
34184
34523
34771
34979
35194
35366
35460
35530
35605
35635
35614
35608
35623
35598
35537
35503
35490
35427
35319
35241
35179
35052
34889
34782
34724
34639
34532
34468
34435
34369
34279
34201
34115
33986
33852
33769
33714
33636
33561
33533
33516
33464
33431
33453
33460
33428
33434
33494
33537
33549
33588
33655
33692
33711
33771
33858
33908
33929
33975
34024
34006
33931
33869
33819
33720
33595
33513
33441
33317
33176
33078
32993
32859
32713
32624
32557
32441
32318
32245
32172
32047
31931
31886
31849
31758
31669
31623
31568
31461
31365
31317
31260
31179
31126
31108
31070
31005
30977
30984
30953
30889
30860
30862
30836
30791
30778
30786
30754
30700
30676
30652
30571
30472
30417
30385
30330
30273
30249
30221
30150
30083
30056
30009
29921
29857
29842
29808
29725
29660
29651
29627
29563
29534
29569
29611
29648
29738
29883
30033
30206
30464
30784
31096
31413
31790
32189
32539
32872
33244
33605
33890
34133
34390
34617
34758
34863
34980
35060
35064
35040
35041
35023
34945
34864
34824
34772
34669
34568
34509
34442
34344
34275
34258
34232
34174
34142
34157
34159
34133
34130
34148
34125
34065
34028
34002
33931
33836
33786
33774
33734
33675
33659
33664
33629
33585
33599
33643
33659
33673
33727
33782
33803
33836
33911
33969
33970
33972
34015
34027
33971
33918
33908
33882
33811
33754
33731
33675
33568
33473
33408
33320
33210
33134
33080
32984
32866
32790
32733
32631
32516
32457
32420
32337
32242
32196
32166
32094
32020
32000
31986
31926
31862
31839
31815
31749
31695
31687
31671
31614
31565
31553
31522
31450
31404
31395
31351
31256
31178
31135
31068
30970
30903
30869
30806
30719
30670
30637
30553
30450
30395
30365
30294
30204
30161
30142
30082
30009
29982
29964
29904
29840
29824
29818
29784
29770
29823
29895
29950
30045
30227
30447
30661
30917
31248
31591
31903
32237
32604
32942
33239
33549
33873
34139
34324
34478
34607
34667
34681
34711
34741
34710
34635
34585
34543
34450
34342
34278
34228
34138
34034
33972
33929
33858
33797
33793
33799
33761
33723
33724
33720
33675
33631
33613
33567
33461
33351
33274
33189
33075
32982
32930
32874
32819
32821
32871
32894
32886
32922
33005
33054
33063
33097
33152
33164
33153
33174
33200
33187
33160
33162
33163
33110
33039
33000
32953
32862
32780
32761
32752
32687
32612
32575
32517
32396
32270
32176
32060
31908
31781
31701
31612
31497
31420
31388
31335
31256
31216
31199
31134
31044
30993
30979
30941
30892
30885
30888
30837
30759
30725
30724
30690
30628
30599
30580
30515
30450
30445
30455
30422
30389
30405
30421
30391
30360
30365
30362
30325
30301
30303
30271
30192
30138
30124
30079
30000
29947
29924
29881
29813
29769
29746
29687
29604
29573
29577
29547
29527
29589
29696
29781
29887
30081
30329
30578
30854
31187
31540
31851
32143
32466
32779
33037
33290
33566
33792
33932
34048
34177
34271
34301
34317
34329
34290
34196
34108
34045
33947
33801
33682
33599
33489
33355
33266
33214
33132
33038
32986
32947
32855
32741
32674
32628
32535
32419
32345
32292
32214
32156
32168
32192
32167
32145
32166
32183
32168
32171
32225
32271
32271
32287
32357
32420
32439
32462
32505
32513
32471
32439
32432
32402
32348
32320
32312
32262
32179
32136
32126
32071
31982
31932
31910
31861
31802
31787
31769
31673
31539
31452
31392
31295
31191
31133
31086
31006
30934
30908
30879
30810
30760
30764
30756
30693
30632
30618
30596
30537
30505
30514
30484
30402
30335
30298
30224
30125
30074
30053
29990
29915
29905
29928
29903
29848
29828
29825
29783
29718
29682
29649
29572
29484
29436
29395
29313
29222
29167
29119
29035
28962
28949
28935
28887
28880
28957
29063
29167
29325
29558
29804
30039
30323
30665
30995
31289
31588
31893
32146
32347
32557
32765
32902
32985
33078
33170
33196
33171
33159
33147
33086
33010
32975
32943
32852
32741
32675
32635
32568
32508
32499
32486
32429
32386
32388
32368
32287
32200
32145
32080
31985
31915
31884
31831
31755
31723
31738
31738
31717
31734
31783
31796
31784
31810
31861
31881
31886
31927
31981
31992
31980
32005
32049
32045
32013
32020
32039
32012
31969
31967
31955
31886
31825
31816
31799
31714
31605
31530
31461
31362
31285
31255
31210
31128
31057
30995
30887
30739
30630
30576
30515
30435
30394
30386
30343
30265
30218
30194
30138
30077
30070
30078
30042
30001
30013
30035
30004
29957
29954
29960
29923
29878
29865
29838
29757
29676
29647
29611
29525
29454
29437
29409
29334
29266
29235
29193
29124
29085
29089
29072
29012
28972
28965
28927
28862
28841
28854
28827
28786
28804
28857
28881
28905
28999
29143
29292
29473
29730
30028
30318
30628
30992
31356
31662
31947
32258
32542
32752
32940
33139
33288
33357
33411
33486
33524
33502
33481
33475
33421
33311
33221
33170
33100
33006
32942
32899
32822
32726
32671
32634
32553
32450
32396
32366
32298
32228
32216
32218
32168
32105
32092
32088
32040
32001
32019
32054
32062
32078
32141
32203
32227
32273
32382
32496
32574
32664
32791
32896
32946
32987
33036
33037
32985
32952
32951
32924
32876
32866
32877
32843
32775
32743
32731
32666
32565
32500
32463
32396
32319
32283
32251
32169
32077
32038
32006
31926
31840
31801
31770
31695
31619
31575
31514
31419
31360
31362
31362
31322
31294
31311
31322
31303
31309
31343
31339
31285
31253
31252
31225
31177
31158
31153
31102
31027
31011
31034
31012
30944
30895
30862
30794
30721
30699
30689
30634
30565
30528
30488
30408
30336
30305
30256
30149
30040
29979
29921
29842
29807
29852
29930
30014
30150
30357
30585
30824
31116
31447
31754
32037
32347
32680
32975
33237
33524
33807
34001
34123
34249
34364
34415
34423
34447
34455
34395
34313
34265
34211
34102
33990
33931
33882
33790
33707
33680
33656
33588
33532
33519
33486
33405
33340
33311
33262
33176
33102
33051
32974
32863
32773
32705
32610
32500
32439
32423
32385
32346
32375
32443
32477
32494
32554
32624
32642
32635
32660
32690
32672
32639
32634
32616
32539
32460
32430
32397
32311
32230
32192
32144
32057
31993
31985
31971
31907
31845
31810
31744
31633
31539
31479
31398
31293
31222
31183
31117
31038
31009
31013
30973
30903
30873
30868
30825
30758
30722
30698
30640
30578
30562
30559
30523
30491
30505
30518
30477
30430
30424
30402
30326
30267
30262
30257
30218
30187
30181
30151
30078
30009
29970
29920
29841
29788
29768
29712
29619
29546
29485
29383
29264
29201
29171
29095
29000
28963
28964
28936
28903
28937
29017
29079
29157
29317
29537
29761
30017
30342
30688
30996
31300
31637
31957
32216
32458
32715
32936
33085
33211
33330
33395
33400
33404
33418
33392
33325
33265
33211
33123
33021
32964
32932
32857
32764
32716
32690
32614
32503
32424
32358
32240
32093
31977
31884
31769
31663
31614
31576
31498
31433
31431
31438
31411
31406
31459
31494
31480
31494
31557
31610
31632
31672
31745
31803
31825
31860
31917
31948
31954
31991
32063
32115
32140
32186
32234
32210
32126
32058
32008
31919
31814
31753
31709
31629
31554
31539
31540
31501
31455
31446
31437
31388
31341
31342
31348
31318
31308
31356
31404
31407
31418
31463
31488
31468
31452
31460
31444
31396
31370
31375
31352
31289
31240
31206
31130
31022
30944
30874
30755
30614
30511
30425
30289
30125
29992
29867
29706
29542
29439
29372
29289
29244
29299
29399
29486
29590
29739
29874
29953
30026
30126
30197
30227
30294
30431
30582
30729
30938
31222
31506
31777
32091
32436
32740
33017
33330
33655
33916
34126
34348
34558
34691
34767
34837
34878
34849
34781
34728
34662
34529
34370
34240
34114
33958
33824
33751
33686
33586
33499
33468
33434
33355
33286
33259
33211
33104
33004
32947
32874
32766
32684
32645
32592
32520
32482
32459
32402
32333
32314
32334
32325
32314
32360
32416
32412
32384
32396
32415
32370
32289
32242
32193
32093
31992
31929
31852
31720
31576
31470
31355
31199
31075
31026
30989
30920
30870
30856
30813
30727
30672
30676
30678
30661
30676
30714
30710
30670
30657
30670
30643
30577
30552
30559
30526
30461
30414
30377
30310
30243
30232
30243
30212
30168
30165
30174
30143
30107
30109
30116
30088
30070
30101
30116
30068
30026
30040
30063
30055
30064
30105
30113
30064
30023
30016
29994
29946
29929
29958
29987
30029
30144
30310
30459
30617
30850
31122
31362
31592
31878
32191
32461
32712
33005
33291
33494
33655
33829
33972
34040
34079
34140
34177
34141
34086
34061
34014
33907
33803
33744
33680
33581
33506
33477
33435
33366
33330
33338
33326
33278
33255
33262
33233
33172
33151
33163
33148
33127
33162
33229
33279
33334
33435
33554
33637
33716
33845
33977
34055
34121
34222
34307
34339
34370
34433
34467
34423
34353
34300
34222
34098
33975
33889
33793
33659
33546
33477
33394
33280
33180
33095
32972
32816
32692
32591
32444
32272
32159
32079
31948
31783
31656
31562
31456
31353
31292
31244
31166
31099
31082
31058
30988
30937
30944
30947
30903
30861
30873
30881
30825
30759
30737
30710
30650
30608
30615
30622
30598
30582
30583
30555
30490
30448
30443
30412
30355
30325
30306
30242
30143
30064
29998
29893
29789
29772
29821
29859
29908
30039
30233
30436
30674
30990
31340
31661
31984
32337
32671
32951
33228
33539
33821
34023
34199
34374
34493
34544
34593
34661
34679
34636
34602
34587
34546
34490
34473
34487
34479
34454
34461
34486
34460
34401
34384
34393
34355
34289
34267
34264
34210
34131
34081
34031
33952
33892
33888
33902
33887
33880
33936
34002
34017
34034
34096
34151
34168
34197
34261
34302
34302
34333
34422
34504
34544
34584
34644
34661
34619
34583
34563
34517
34457
34425
34408
34362
34301
34277
34279
34243
34180
34151
34129
34062
33977
33929
33900
33838
33769
33754
33743
33679
33611
33581
33543
33460
33386
33362
33331
33245
33169
33141
33099
33031
32989
32978
32939
32876
32855
32870
32859
32834
32846
32867
32826
32758
32739
32739
32686
32608
32582
32590
32551
32489
32477
32483
32439
32377
32357
32354
32310
32265
32278
32310
32319
32360
32468
32583
32677
32817
33041
33293
33537
33815
34141
34449
34714
34995
35306
35582
35805
36036
36277
36459
36584
36720
36839
36868
36852
36875
36919
36908
36858
36832
36802
36719
36625
36578
36544
36472
36402
36384
36371
36311
36249
36241
36235
36177
36125
36115
36089
36023
35973
35957
35924
35871
35859
35893
35902
35882
35906
35971
36014
36037
36099
36200
36277
36335
36422
36502
36518
36510
36537
36552
36488
36392
36331
36263
36135
36006
35932
35851
35711
35565
35468
35380
35254
35122
35027
34926
34788
34674
34619
34553
34437
34334
34265
34182
34074
34008
33995
33969
33919
33906
33931
33934
33920
33960
34042
34088
34116
34191
34286
34328
34335
34369
34401
34370
34312
34287
34263
34190
34105
34062
34030
33966
33917
33927
33932
33879
33824
33810
33769
33662
33550
33479
33407
33308
33243
33225
33179
33090
33035
33029
33004
32949
32939
32978
33005
33037
33147
33322
33487
33658
33892
34168
34419
34671
34989
35333
35627
35895
36191
36473
36689
36882
37094
37290
37429
37552
37707
37839
37895
37922
37966
37996
37976
37961
37993
38018
37991
37968
37983
37978
37936
37922
37944
37937
37901
37894
37897
37847
37767
37711
37674
37613
37548
37542
37569
37564
37557
37599
37637
37624
37612
37650
37688
37669
37636
37642
37650
37623
37602
37623
37641
37606
37555
37526
37473
37379
37325
37329
37313
37251
37216
37235
37247
37228
37223
37242
37225
37168
37118
37065
36967
36856
36797
36761
36688
36600
36555
36526
36445
36338
36278
36254
36205
36140
36104
36065
35982
35907
35887
35879
35835
35791
35791
35785
35725
35672
35659
35634
35582
35562
35587
35591
35555
35529
35521
35482
35404
35353
35348
35326
35282
35272
35291
35278
35245
35246
35254
35203
35132
35110
35103
35049
34982
34956
34930
34852
34763
34714
34664
34585
34537
34560
34603
34617
34645
34747
34880
35000
35174
35442
35729
35995
36301
36660
36996
37286
37586
37898
38149
38348
38568
38791
38950
39068
39207
39343
39403
39409
39434
39459
39419
39342
39285
39232
39148
39061
39012
38966
38877
38797
38787
38784
38731
38676
38660
38626
38538
38457
38421
38373
38271
38175
38140
38109
38043
38013
38040
38047
38023
38029
38067
38084
38093
38165
38275
38340
38372
38439
38539
38607
38635
38675
38712
38694
38659
38665
38666
38603
38517
38475
38436
38346
38256
38224
38191
38102
38013
37962
37891
37765
37645
37574
37499
37387
37295
37251
37194
37100
37018
36973
36922
36852
36815
36803
36747
36661
36619
36603
36549
36477
36460
36478
36449
36385
36358
36351
36297
36234
36233
36242
36188
36119
36098
36079
36015
35960
35968
35989
35978
35993
36063
36117
36116
36101
36098
36075
36018
35983
35979
35941
35861
35798
35767
35708
35609
35535
35493
35423
35343
35331
35379
35427
35496
35658
35899
36139
36381
36685
37010
37291
37570
37899
38216
38453
38653
38869
39073
39233
39379
39541
39678
39748
39791
39843
39856
39795
39724
39679
39601
39471
39365
39306
39238
39149
39090
39061
38998
38907
38853
38821
38745
38640
38577
38532
38440
38338
38302
38310
38286
38247
38252
38265
38219
38169
38191
38241
38262
38294
38366
38433
38462
38500
38588
38669
38697
38735
38819
38880
38866
38835
38829
38799
38732
38677
38640
38570
38467
38403
38378
38311
38192
38103
38059
37992
37892
37834
37806
37724
37606
37533
37487
37418
37346
37301
37252
37153
37046
36984
36920
36810
36711
36665
36616
36519
36440
36440
36458
36443
36430
36446
36448
36411
36393
36402
36365
36284
36237
36218
36161
36084
36060
36067
36026
35948
35899
35871
35808
35726
35682
35647
35567
35494
35475
35463
35406
35331
35289
35260
35209
35191
35253
35344
35433
35587
35840
36116
36376
36671
37028
37381
37681
37973
38277
38538
38746
38966
39205
39398
39536
39677
39812
39877
39884
39894
39902
39861
39780
39726
39688
39600
39486
39414
39347
39226
39103
39043
39008
38949
38891
38859
38811
38717
38643
38625
38595
38518
38459
38456
38449
38388
38325
38308
38298
38259
38233
38249
38259
38242
38257
38318
38360
38361
38382
38438
38461
38454
38480
38526
38532
38512
38527
38563
38546
38496
38485
38480
38422
38335
38277
38223
38129
38044
38020
38003
37928
37846
37806
37764
37671
37564
37495
37425
37325
37245
37208
37158
37076
37009
36971
36911
36813
36737
36691
36618
36529
36481
36465
36405
36317
36279
36276
36238
36176
36150
36135
36070
35996
35981
35990
35955
35901
35893
35904
35868
35819
35820
35825
35770
35701
35669
35627
35530
35432
35381
35324
35232
35167
35171
35194
35206
35265
35389
35520
35663
35886
36181
36482
36792
37157
37552
37900
38201
38523
38859
39142
39373
39609
39834
39989
40100
40211
40290
40286
40245
40227
40196
40103
39992
39918
39847
39744
39652
39610
39564
39467
39376
39335
39292
39217
39159
39143
39119
39060
39003
38956
38871
38755
38675
38624
38547
38463
38439
38460
38446
38413
38437
38500
38538
38569
38642
38729
38761
38765
38808
38861
38867
38862
38895
38928
38921
38920
38958
38974
38926
38881
38885
38869
38789
38708
38677
38645
38573
38509
38456
38364
38235
38133
38078
38007
37896
37803
37727
37610
37477
37399
37351
37259
37138
37054
36996
36909
36824
36798
36793
36744
36678
36654
36651
36612
36562
36544
36520
36445
36372
36360
36369
36348
36344
36387
36412
36373
36319
36282
36216
36108
36021
35976
35932
35879
35857
35854
35807
35722
35663
35622
35538
35424
35349
35303
35226
35143
35109
35098
35057
35032
35083
35170
35241
35347
35541
35768
35971
36198
36501
36829
37127
37426
37766
38094
38372
38654
38969
39243
39442
39633
39847
40017
40119
40203
40274
40272
40202
40147
40124
40064
39968
39905
39872
39805
39714
39663
39634
39555
39441
39361
39299
39196
39081
39016
38972
38890
38801
38754
38715
38639
38568
38544
38518
38448
38389
38387
38389
38352
38339
38390
38444
38471
38522
38618
38689
38712
38751
38825
38871
38880
38915
38972
38983
38951
38941
38943
38897
38827
38802
38797
38739
38650
38589
38534
38434
38324
38265
38220
38135
38051
38013
37965
37862
37755
37694
37633
37534
37451
37415
37370
37284
37214
37188
37148
37069
37005
36976
36933
36870
36837
36829
36786
36714
36676
36670
36635
36588
36586
36607
36581
36525
36508
36509
36464
36415
36424
36441
36410
36371
36373
36368
36306
36244
36236
36227
36170
36112
36090
36049
35946
35849
35809
35756
35658
35589
35579
35565
35538
35564
35672
35799
35920
36098
36346
36605
36873
37202
37570
37910
38232
38589
38953
39251
39497
39752
39986
40142
40258
40392
40507
40552
40571
40616
40639
40593
40530
40498
40444
40328
40215
40154
40089
39979
39882
39829
39765
39658
39565
39512
39439
39326
39239
39181
39089
38970
38898
38867
38807
38731
38707
38722
38715
38700
38732
38789
38805
38806
38857
38929
38964
38986
39049
39124
39159
39182
39241
39292
39289
39280
39304
39306
39247
39193
39189
39179
39127
39084
39075
39046
38973
38912
38881
38820
38715
38626
38565
38473
38352
38267
38208
38104
37967
37874
37814
37714
37594
37522
37481
37408
37322
37277
37249
37185
37114
37081
37051
36983
36922
36910
36897
36840
36786
36772
36748
36683
36637
36650
36662
36629
36607
36621
36606
36544
36498
36485
36439
36352
36297
36281
36234
36162
36134
36129
36069
35977
35929
35913
35863
35795
35771
35756
35682
35591
35545
35520
35480
35470
35540
35662
35792
35972
36249
36568
36868
37191
37577
37966
38304
38637
38998
39328
39595
39859
40149
40392
40561
40716
40867
40954
40975
40994
41017
40988
40918
40878
40854
40778
40672
40604
40552
40454
40336
40256
40188
40075
39949
39863
39782
39651
39520
39450
39399
39322
39260
39249
39246
39210
39191
39228
39266
39269
39294
39369
39430
39457
39509
39605
39684
39731
39803
39897
39947
39950
39977
40029
40042
40020
40023
40034
39999
39947
39937
39933
39868
39780
39734
39700
39618
39522
39464
39402
39294
39192
39139
39080
38965
38846
38779
38719
38620
38531
38486
38437
38356
38294
38263
38204
38100
38007
37943
37856
37746
37684
37675
37647
37588
37559
37550
37496
37418
37386
37383
37335
37257
37205
37150
37035
36901
36823
36769
36682
36608
36596
36592
36539
36480
36459
36427
36352
36295
36287
36266
36206
36160
36153
36118
36026
35953
35934
35894
35808
35747
35726
35684
35617
35593
35621
35647
35691
35820
36015
36213
36428
36726
37079
37409
37738
38118
38495
38807
39085
39381
39655
39867
40062
40284
40480
40601
40693
40794
40854
40835
40800
40786
40730
40606
40483
40391
40267
40099
39964
39882
39790
39666
39565
39499
39410
39294
39213
39154
39048
38912
38820
38758
38659
38548
38492
38468
38416
38362
38361
38388
38390
38393
38443
38502
38528
38563
38652
38742
38781
38816
38893
38952
38952
38958
39007
39032
39001
38982
38994
38972
38897
38838
38815
38767
38689
38641
38615
38546
38438
38359
38302
38206
38090
38021
37981
37897
37786
37716
37662
37558
37433
37353
37287
37177
37059
36986
36916
36808
36717
36689
36667
36597
36533
36521
36509
36459
36425
36439
36441
36408
36396
36416
36407
36357
36329
36325
36282
36203
36159
36144
36084
35988
35930
35899
35831
35746
35713
35713
35681
35634
35618
35598
35528
35446
35402
35359
35270
35179
35135
35090
34999
34916
34887
34858
34780
34706
34673
34626
34549
34523
34592
34697
34809
34987
35240
35500
35758
36079
36462
36838
37196
37580
37963
38282
38554
38847
39136
39342
39493
39657
39798
39853
39869
39912
39946
39911
39838
39778
39701
39566
39426
39339
39252
39114
38977
38885
38780
38630
38500
38433
38361
38246
38142
38071
37974
37831
37710
37631
37545
37453
37408
37404
37380
37345
37364
37423
37454
37474
37547
37645
37695
37725
37805
37905
37963
38017
38117
38225
38284
38321
38376
38412
38393
38362
38360
38341
38265
38190
38158
38105
37992
37880
37808
37725
37609
37508
37434
37326
37179
37059
36971
36853
36714
36622
36567
36478
36364
36288
36238
36147
36032
35958
35901
35798
35685
35626
35585
35507
35432
35414
35406
35349
35287
35277
35273
35227
35189
35199
35195
35129
35066
35049
35022
34950
34881
34851
34812
34742
34691
34669
34620
34537
34483
34461
34402
34316
34276
34266
34209
34122
34075
34052
34004
33957
33980
34048
34099
34175
34348
34582
34818
35074
35386
35716
36016
36313
36637
36937
37169
37388
37643
37877
38041
38186
38343
38452
38496
38547
38625
38663
38644
38625
38620
38579
38505
38456
38417
38322
38194
38101
38019
37884
37721
37602
37507
37374
37230
37142
37077
36965
36833
36745
36683
36610
36560
36570
36595
36592
36607
36678
36752
36796
36863
36983
37096
37165
37239
37349
37441
37493
37558
37644
37686
37679
37691
37725
37716
37662
37619
37589
37520
37429
37383
37363
37305
37226
37188
37162
37086
36991
36939
36895
36800
36689
36623
36570
36481
36394
36355
36320
36236
36147
36103
36068
36010
35971
35969
35945
35870
35806
35780
35737
35665
35627
35630
35603
35535
35495
35493
35467
35416
35403
35411
35372
35299
35262
35243
35180
35096
35058
35035
34958
34855
34792
34756
34689
34612
34585
34572
34527
34499
34524
34544
34523
34525
34604
34716
34828
34997
35257
35553
35855
36211
36625
37019
37372
37740
38128
38480
38779
39079
39373
39591
39740
39890
40036
40119
40161
40217
40258
40223
40133
40058
39987
39868
39739
39664
39607
39505
39390
39323
39265
39167
39077
39045
39012
38927
38841
38794
38740
38646
38567
38533
38483
38398
38341
38332
38309
38262
38254
38297
38344
38391
38485
38608
38702
38775
38885
39010
39077
39107
39173
39246
39266
39263
39293
39318
39285
39234
39223
39202
39119
39022
38967
38916
38814
38709
38651
38591
38492
38409
38373
38321
38224
38132
38072
37997
37893
37821
37792
37746
37667
37614
37591
37548
37490
37467
37460
37400
37298
37234
37213
37169
37113
37095
37084
37027
36953
36920
36900
36849
36804
36816
36841
36821
36792
36801
36804
36757
36705
36693
36667
36588
36514
36491
36461
36393
36337
36306
36243
36145
36080
36054
36001
35915
35871
35882
35892
35902
35981
36126
36271
36430
36670
36968
37257
37563
37938
38346
38718
39070
39441
39790
40071
40324
40590
40815
40956
41074
41227
41356
41407
41425
41446
41422
41333
41252
41209
41141
41039
40973
40942
40880
40792
40744
40734
40686
40593
40531
40502
40426
40318
40253
40216
40146
40059
40018
39998
39932
39848
39806
39779
39720
39674
39686
39709
39708
39731
39807
39870
39880
39902
39972
40028
40045
40087
40177
40248
40260
40262
40281
40276
40239
40215
40210
40167
40074
39998
39945
39844
39703
39595
39518
39416
39298
39215
39144
39023
38881
38782
38703
38590
38465
38390
38350
38284
38214
38194
38169
38087
38008
37973
37937
37865
37798
37772
37730
37637
37556
37528
37505
37456
37432
37447
37445
37416
37403
37408
37378
37317
37300
37317
37288
37220
37189
37189
37150
37082
37043
37016
36948
36868
36830
36804
36748
36695
36677
36649
36566
36467
36410
36360
36273
36190
36158
36137
36095
36092
36167
36266
36363
36521
36773
37057
37338
37671
38067
38452
38806
39196
39618
39989
40294
40590
40866
41069
41229
41409
41580
41674
41724
41801
41879
41879
41826
41793
41758
41665
41557
41502
41452
41342
41224
41170
41139
41076
41019
40998
40957
40866
40786
40748
40694
40608
40552
40538
40499
40422
40372
40363
40329
40274
40266
40302
40318
40315
40352
40418
40450
40459
40506
40575
40606
40618
40664
40717
40719
40700
40731
40774
40761
40728
40725
40711
40647
40576
40539
40484
40369
40264
40215
40164
40064
39969
39912
39834
39723
39636
39587
39522
39430
39363
39326
39261
39165
39102
39064
38982
38868
38792
38750
38683
38598
38554
38532
38471
38398
38370
38358
38305
38235
38202
38170
38091
38014
37986
37956
37877
37802
37775
37748
37680
37613
37572
37513
37413
37329
37283
37218
37120
37059
37050
37023
36954
36896
36855
36771
36652
36567
36508
36411
36293
36227
36195
36133
36055
36018
36001
35954
35913
35939
36009
36076
36187
36401
36683
36979
37317
37728
38150
38528
38911
39334
39730
40046
40344
40661
40940
41150
41342
41540
41689
41768
41837
41913
41942
41921
41906
41893
41831
41735
41668
41616
41511
41370
41273
41208
41105
40979
40891
40814
40687
40534
40425
40339
40215
40078
39977
39881
39746
39620
39550
39493
39413
39360
39369
39385
39367
39371
39428
39472
39481
39532
39643
39744
39814
39910
40042
40137
40186
40253
40338
40376
40366
40368
40372
40311
40206
40127
40057
39944
39822
39748
39689
39590
39487
39426
39360
39242
39116
39033
38952
38838
38737
38680
38609
38491
38388
38350
38314
38234
38174
38170
38157
38099
38050
38031
37979
37879
37805
37771
37707
37611
37554
37532
37478
37411
37389
37393
37355
37300
37298
37316
37293
37271
37299
37331
37309
37279
37307
37346
37332
37300
37297
37279
37212
37154
37139
37108
37025
36954
36938
36914
36843
36782
36761
36724
36662
36647
36698
36761
36830
36958
37155
37364
37583
37869
38201
38510
38814
39173
39564
39920
40260
40633
40995
41279
41520
41775
41999
42129
42202
42272
42309
42275
42228
42216
42184
42086
41981
41912
41822
41676
41538
41438
41321
41168
41040
40969
40892
40774
40663
40581
40484
40361
40268
40197
40086
39968
39918
39910
39869
39814
39807
39828
39812
39799
39851
39928
39970
40009
40086
40155
40164
40164
40217
40278
40296
40319
40386
40439
40436
40433
40460
40460
40411
40374
40369
40327
40225
40132
40068
39981
39868
39794
39761
39700
39600
39526
39479
39401
39310
39270
39249
39184
39099
39052
39020
38951
38865
38808
38754
38651
38539
38478
38433
38365
38317
38330
38346
38308
38270
38280
38292
38264
38240
38246
38221
38143
38088
38086
38064
37998
37953
37937
37886
37802
37751
37727
37663
37573
37523
37494
37415
37306
37242
37210
37142
37054
37010
36996
36964
36947
37007
37115
37219
37355
37577
37838
38082
38355
38700
39063
39397
39752
40160
40553
40891
41222
41571
41868
42081
42266
42444
42557
42601
42641
42689
42689
42640
42597
42553
42451
42318
42226
42157
42040
41897
41799
41728
41617
41489
41411
41363
41282
41197
41167
41147
41074
40988
40935
40875
40780
40707
40686
40664
40607
40569
40586
40597
40571
40578
40641
40696
40722
40786
40902
40995
41035
41076
41132
41155
41151
41171
41194
41151
41064
41015
40987
40913
40821
40779
40764
40706
40634
40602
40569
40475
40363
40295
40235
40122
39997
39914
39823
39685
39556
39475
39385
39248
39135
39091
39043
38947
38865
38820
38760
38680
38642
38648
38629
38578
38562
38576
38551
38486
38450
38437
38383
38310
38293
38309
38285
38237
38217
38198
38121
38024
37970
37928
37851
37785
37772
37755
37681
37610
37594
37573
37500
37423
37384
37338
37252
37174
37141
37110
37058
37049
37120
37216
37324
37514
37801
38115
38442
38844
39302
39727
40114
40529
40961
41341
41673
42010
42327
42560
42737
42916
43058
43107
43104
43121
43135
43092
43017
42968
42912
42795
42671
42599
42540
42451
42389
42386
42370
42296
42235
42224
42199
42137
42091
42071
42013
41915
41847
41811
41741
41637
41571
41538
41471
41395
41383
41407
41396
41376
41406
41458
41478
41496
41568
41653
41682
41694
41758
41832
41843
41828
41848
41868
41838
41802
41800
41781
41704
41625
41581
41512
41379
41243
41134
40998
40825
40690
40609
40516
40402
40332
40295
40210
40095
40038
40026
39981
39906
39863
39848
39796
39720
39678
39648
39580
39507
39476
39435
39333
39217
39153
39104
39016
38936
38911
38901
38849
38794
38782
38763
38709
38683
38700
38688
38620
38558
38532
38488
38417
38382
38378
38338
38271
38240
38229
38161
38043
37957
37914
37843
37743
37677
37631
37547
37451
37409
37393
37340
37282
37290
37345
37402
37503
37704
37970
38251
38586
39008
39438
39812
40184
40596
40991
41331
41667
42019
42330
42564
42776
42997
43171
43274
43357
43430
43443
43407
43392
43391
43335
43244
43178
43115
42995
42854
42772
42720
42629
42538
42508
42488
42413
42326
42278
42230
42137
42043
41994
41940
41842
41749
41708
41676
41611
41564
41574
41583
41555
41547
41588
41624
41631
41664
41742
41796
41810
41843
41889
41886
41851
41854
41886
41879
41843
41849
41877
41846
41775
41731
41686
41577
41450
41374
41316
41220
41117
41054
40986
40858
40730
40662
40598
40483
40362
40285
40208
40090
39983
39924
39854
39744
39654
39603
39531
39428
39361
39334
39270
39169
39112
39097
39049
38975
38946
38950
38919
38875
38876
38898
38877
38837
38831
38823
38756
38673
38632
38596
38511
38424
38393
38370
38306
38253
38249
38227
38149
38076
38043
37996
37914
37858
37845
37806
37712
37626
37579
37513
37416
37347
37317
37268
37194
37169
37207
37252
37317
37474
37712
37964
38234
38578
38968
39332
39698
40125
40572
40971
41343
41731
42094
42374
42606
42834
43010
43091
43140
43208
43244
43211
43169
43162
43132
43037
42940
42880
42799
42679
42591
42555
42503
42425
42379
42358
42309
42243
42216
42213
42179
42121
42095
42073
41994
41893
41830
41776
41672
41551
41484
41449
41386
41327
41327
41342
41319
41300
41328
41353
41333
41314
41343
41378
41372
41373
41415
41440
41417
41407
41422
41396
41316
41255
41228
41171
41074
41003
40964
40893
40784
40694
40610
40468
40301
40193
40118
39999
39857
39759
39683
39575
39468
39412
39366
39278
39184
39136
39089
38990
38886
38832
38782
38698
38639
38633
38616
38548
38476
38426
38349
38230
38142
38120
38091
38024
37982
37979
37955
37901
37884
37900
37875
37816
37793
37793
37754
37693
37670
37660
37593
37496
37438
37392
37303
37208
37160
37115
37026
36941
36910
36880
36800
36716
36669
36614
36507
36406
36360
36306
36205
36122
36086
36036
35963
35948
36022
36136
36284
36512
36816
37129
37447
37837
38273
38677
39069
39517
39979
40369
40690
41017
41341
41591
41788
41986
42151
42222
42245
42295
42336
42310
42266
42258
42229
42130
42017
41942
41861
41736
41623
41566
41514
41432
41369
41346
41303
41216
41139
41082
40991
40871
40792
40746
40665
40570
40532
40534
40502
40451
40446
40469
40450
40418
40442
40486
40483
40473
40515
40567
40577
40590
40660
40731
40736
40726
40766
40806
40794
40782
40805
40805
40749
40701
40684
40635
40541
40466
40415
40326
40198
40097
40024
39914
39761
39645
39573
39464
39329
39246
39195
39103
38995
38938
38893
38787
38661
38590
38534
38439
38361
38349
38351
38311
38268
38265
38255
38192
38129
38116
38105
38044
37985
37976
37961
37899
37849
37843
37825
37777
37749
37742
37690
37591
37517
37480
37412
37321
37283
37289
37260
37196
37162
37142
37067
36962
36901
36860
36775
36670
36610
36567
36482
36391
36354
36325
36245
36154
36096
36028
35923
35836
35819
35813
35764
35746
35819
35933
36056
36251
36547
36880
37222
37627
38090
38535
38943
39370
39816
40210
40550
40892
41225
41485
41674
41851
42001
42071
42093
42134
42171
42136
42048
41978
41910
41783
41638
41534
41433
41290
41157
41091
41037
40928
40824
40786
40744
40640
40534
40465
40382
40260
40164
40122
40070
39986
39937
39936
39916
39860
39826
39822
39795
39754
39766
39814
39817
39795
39831
39907
39950
39970
40017
40066
40070
40070
40117
40171
40178
40179
40224
40262
40238
40198
40191
40157
40045
39917
39822
39710
39547
39395
39283
39152
38988
38860
38782
38682
38541
38427
38361
38277
38166
38089
38045
37972
37877
37822
37790
37719
37626
37573
37531
37440
37336
37282
37246
37179
37118
37101
37080
37015
36957
36950
36941
36885
36833
36823
36801
36733
36679
36675
36663
36610
36566
36548
36496
36397
36324
36299
36254
36178
36138
36132
36088
36007
35965
35954
35901
35821
35785
35768
35697
35603
35554
35512
35417
35308
35248
35196
35098
34999
34967
34976
34983
35042
35206
35432
35675
35976
36368
36792
37200
37639
38125
38580
38969
39349
39742
40081
40332
40558
40783
40948
41041
41126
41207
41222
41176
41143
41120
41036
40908
40814
40736
40608
40455
40337
40229
40086
39949
39875
39826
39734
39631
39579
39532
39434
39338
39289
39228
39106
38984
38908
38833
38729
38651
38625
38590
38527
38498
38523
38542
38539
38574
38653
38709
38736
38803
38898
38941
38943
38987
39062
39087
39071
39090
39129
39122
39082
39066
39044
38957
38844
38766
38692
38575
38457
38381
38297
38164
38043
37980
37905
37766
37639
37581
37524
37423
37328
37263
37179
37066
36987
36957
36906
36813
36736
36687
36604
36498
36441
36418
36349
36249
36188
36159
36094
36011
35973
35950
35885
35810
35778
35752
35685
35627
35632
35646
35616
35585
35591
35590
35534
35475
35458
35425
35332
35240
35187
35121
35013
34922
34869
34792
34679
34596
34540
34449
34321
34226
34175
34102
33999
33933
33899
33836
33763
33742
33741
33708
33690
33773
33935
34113
34338
34660
35033
35395
35780
36241
36720
37144
37546
37964
38344
38646
38934
39245
39511
39685
39818
39946
40021
40020
40003
40000
39955
39856
39762
39682
39560
39400
39274
39180
39051
38905
38805
38730
38613
38476
38392
38330
38218
38084
37992
37906
37762
37599
37490
37413
37317
37231
37203
37192
37141
37096
37114
37145
37148
37181
37282
37386
37448
37518
37620
37697
37729
37779
37855
37885
37867
37878
37925
37932
37894
37875
37862
37794
37697
37651
37637
37569
37470
37410
37351
37233
37096
37007
36934
36820
36701
36633
36574
36471
36365
36302
36236
36119
35999
35919
35832
35707
35605
35560
35509
35419
35349
35323
35283
35212
35177
35191
35185
35146
35128
35130
35101
35045
35022
35020
34970
34892
34850
34826
34767
34701
34685
34683
34632
34563
34533
34512
34450
34379
34344
34302
34199
34092
34045
33999
33896
33795
33741
33680
33575
33482
33437
33390
33319
33286
33316
33367
33428
33562
33790
34055
34350
34736
35196
35643
36067
36520
36979
37368
37697
38033
38354
38597
38790
38990
39165
39266
39330
39416
39478
39453
39389
39354
39303
39182
39045
38942
38828
38672
38535
38445
38341
38203
38099
38052
37986
37864
37745
37656
37543
37395
37282
37209
37112
36992
36916
36874
36799
36719
36707
36738
36741
36739
36797
36889
36943
36985
37079
37197
37271
37324
37422
37528
37571
37589
37633
37659
37625
37586
37587
37565
37480
37394
37353
37310
37235
37169
37121
37039
36911
36802
36723
36610
36462
36337
36227
36080
35913
35786
35682
35545
35392
35285
35208
35099
34985
34927
34888
34809
34733
34719
34711
34655
34602
34601
34600
34551
34509
34530
34556
34528
34500
34519
34527
34477
34433
34438
34426
34367
34318
34299
34256
34179
34132
34122
34083
34008
33964
33956
33921
33863
33846
33852
33809
33737
33705
33686
33608
33502
33452
33441
33414
33412
33504
33662
33835
34059
34380
34752
35120
35516
35979
36450
36872
37283
37716
38114
38441
38751
39068
39329
39507
39669
39840
39950
39980
39998
40019
39985
39895
39814
39743
39616
39453
39336
39251
39132
38999
38923
38878
38796
38699
38645
38601
38505
38389
38311
38236
38114
37991
37914
37837
37723
37636
37616
37599
37543
37510
37543
37584
37596
37639
37731
37806
37844
37900
37978
38020
38023
38050
38107
38130
38117
38127
38156
38138
38085
38063
38056
37992
37902
37850
37799
37685
37548
37455
37384
37277
37157
37081
37018
36908
36793
36723
36655
36547
36449
36400
36347
36257
36183
36157
36122
36054
36012
36021
36013
35956
35907
35887
35836
35740
35674
35659
35625
35571
35562
35582
35553
35491
35469
35465
35411
35342
35325
35320
35253
35168
35142
35138
35086
35022
35002
34980
34908
34832
34805
34782
34716
34652
34627
34587
34497
34420
34386
34334
34246
34196
34210
34237
34281
34417
34654
34922
35222
35621
36090
36544
36987
37468
37958
38387
38779
39187
39574
39869
40102
40338
40555
40688
40771
40862
40923
40908
40866
40849
40811
40710
40603
40542
40473
40351
40232
40163
40094
39986
39894
39846
39775
39654
39555
39504
39434
39330
39253
39206
39131
39025
38949
38897
38803
38687
38634
38635
38610
38569
38577
38618
38629
38636
38695
38772
38808
38837
38915
39005
39047
39085
39167
39240
39253
39259
39300
39316
39262
39202
39179
39135
39040
38955
38905
38832
38712
38608
38545
38460
38342
38256
38204
38123
38010
37929
37876
37781
37663
37586
37527
37428
37323
37276
37247
37170
37083
37054
37041
36971
36878
36829
36793
36722
36658
36645
36626
36560
36507
36508
36495
36425
36365
36349
36316
36247
36201
36196
36169
36103
36055
36032
35976
35887
35819
35768
35675
35549
35464
35412
35317
35191
35116
35087
35035
34975
34984
35052
35124
35230
35420
35646
35851
36091
36427
36799
37146
37516
37954
38386
38740
39075
39450
39789
40035
40253
40470
40617
40676
40719
40778
40778
40708
40642
40584
40481
40360
40287
40237
40138
40011
39936
39893
39798
39664
39567
39499
39403
39292
39216
39150
39038
38909
38815
38715
38571
38446
38390
38353
38285
38238
38259
38291
38284
38298
38377
38461
38511
38587
38705
38794
38835
38898
38995
39049
39057
39098
39173
39206
39196
39209
39226
39178
39084
39019
38971
38877
38766
38706
38665
38579
38481
38421
38359
38240
38101
38002
37917
37806
37702
37646
37596
37512
37435
37404
37371
37301
37240
37215
37177
37106
37069
37078
37056
36983
36920
36885
36828
36740
36677
36646
36585
36505
36479
36494
36473
36424
36406
36399
36339
36257
36230
36231
36190
36132
36113
36102
36049
35995
35988
35984
35936
35896
35916
35948
35961
36016
36162
36344
36523
36753
37059
37379
37681
38021
38410
38787
39135
39502
39883
40214
40489
40770
41046
41240
41362
41489
41605
41645
41632
41640
41645
41575
41464
41378
41292
41158
41021
40933
40852
40723
40589
40505
40435
40328
40228
40176
40117
40005
39894
39822
39734
39606
39501
39450
39399
39330
39299
39315
39316
39290
39305
39372
39422
39454
39530
39636
39705
39752
39844
39956
40018
40051
40112
40173
40174
40151
40164
40174
40127
40059
40023
39982
39893
39797
39735
39659
39530
39403
39329
39257
39132
39005
38919
38820
38679
38556
38476
38380
38251
38147
38080
37988
37866
37777
37726
37647
37543
37482
37451
37380
37287
37239
37216
37150
37065
37027
37004
36935
36861
36833
36803
36715
36621
36575
36538
36474
36430
36439
36445
36400
36354
36349
36338
36286
36242
36236
36206
36129
36077
36064
36020
35937
35890
35898
35906
35922
36021
36206
36419
36662
36989
37389
37790
38192
38652
39137
39570
39969
40384
40771
41062
41306
41569
41806
41957
42072
42199
42284
42285
42268
42284
42273
42190
42092
42028
41954
41842
41754
41717
41666
41585
41538
41536
41513
41457
41427
41425
41384
41300
41239
41202
41127
41031
40982
40963
40903
40825
40793
40785
40741
40690
40693
40717
40700
40680
40716
40766
40771
40773
40824
40877
40884
40887
40929
40958
40931
40907
40930
40937
40898
40870
40876
40856
40791
40738
40705
40628
40507
40410
40338
40225
40083
39981
39905
39789
39654
39564
39500
39398
39283
39218
39172
39080
38976
38917
38855
38730
38591
38496
38399
38248
38103
38028
37976
37895
37834
37840
37854
37824
37802
37820
37815
37759
37717
37715
37689
37619
37572
37568
37539
37478
37449
37439
37377
37282
37238
37230
37177
37090
37033
36983
36880
36765
36712
36688
36630
36560
36528
36512
36474
36462
36533
36642
36750
36912
37180
37493
37799
38151
38581
39016
39405
39806
40240
40636
40976
41324
41684
41988
42219
42440
42655
42801
42875
42943
43002
42991
42926
42884
42853
42770
42666
42607
42570
42499
42434
42428
42428
42372
42307
42298
42303
42260
42203
42177
42135
42032
41923
41864
41802
41686
41578
41523
41465
41370
41294
41266
41233
41178
41168
41215
41248
41254
41287
41349
41377
41370
41395
41444
41448
41428
41456
41505
41498
41457
41449
41453
41409
41343
41312
41281
41197
41095
41023
40943
40804
40661
40572
40487
40360
40249
40194
40124
39997
39888
39837
39771
39657
39558
39504
39434
39333
39256
39211
39137
39032
38960
38925
38863
38775
38730
38716
38660
38583
38549
38536
38477
38398
38358
38330
38263
38191
38171
38159
38096
38028
38014
38001
37935
37868
37853
37839
37778
37722
37713
37689
37615
37554
37533
37492
37401
37324
37281
37216
37117
37053
37029
36973
36886
36840
36824
36756
36644
36570
36520
36431
36329
36283
36271
36238
36215
36268
36373
36487
36656
36932
37258
37576
37931
38365
38815
39228
39649
40103
40518
40855
41177
41510
41779
41956
42112
42279
42395
42435
42462
42497
42486
42428
42393
42390
42356
42289
42256
42244
42186
42109
42087
42096
42059
41997
41979
41976
41924
41855
41827
41802
41724
41633
41584
41530
41420
41312
41266
41234
41169
41122
41136
41160
41149
41148
41190
41220
41207
41204
41235
41244
41222
41233
41281
41303
41297
41326
41374
41372
41327
41301
41283
41208
41100
41039
41007
40924
40808
40728
40668
40571
40464
40398
40335
40217
40083
39991
39895
39748
39616
39551
39490
39388
39306
39278
39239
39149
39074
39049
39004
38908
38829
38791
38731
38639
38581
38554
38487
38384
38324
38308
38262
38196
38179
38188
38151
38090
38072
38079
38044
37987
37967
37952
37882
37804
37783
37776
37724
37666
37649
37624
37551
37487
37473
37454
37388
37330
37323
37303
37225
37153
37121
37072
36987
36923
36890
36825
36722
36653
36635
36599
36545
36529
36534
36509
36477
36502
36574
36634
36704
36851
37050
37247
37476
37799
38182
38555
38940
39385
39841
40248
40644
41075
41481
41813
42122
42440
42708
42889
43035
43180
43272
43292
43300
43318
43292
43205
43125
43074
42995
42886
42816
42784
42722
42639
42608
42613
42579
42513
42489
42488
42445
42383
42351
42313
42214
42096
42021
41955
41854
41777
41773
41777
41724
41671
41672
41685
41664
41657
41703
41755
41775
41809
41879
41924
41923
41941
42003
42043
42036
42043
42075
42067
42014
41989
41991
41951
41881
41857
41852
41784
41669
41581
41507
41384
41244
41149
41070
40958
40850
40792
40739
40642
40551
40514
40481
40405
40340
40332
40320
40252
40186
40163
40121
40023
39942
39915
39869
39780
39710
39674
39610
39509
39443
39413
39356
39274
39228
39215
39171
39107
39095
39112
39082
39022
38998
38989
38929
38849
38813
38792
38731
38660
38632
38601
38513
38419
38379
38339
38251
38164
38122
38078
37991
37908
37856
37788
37682
37589
37532
37451
37328
37225
37156
37062
36939
36854
36809
36731
36635
36600
36609
36592
36566
36601
36691
36783
36907
37129
37419
37714
38042
38450
38884
39279
39673
40114
40554
40938
41300
41683
42028
42281
42496
42719
42900
43000
43075
43158
43191
43151
43101
43063
42980
42842
42722
42640
42534
42403
42317
42277
42219
42152
42139
42151
42103
42023
41980
41939
41839
41717
41637
41570
41458
41333
41251
41182
41083
41002
40989
41001
40992
40997
41047
41094
41104
41134
41218
41295
41319
41345
41407
41449
41447
41455
41489
41484
41427
41388
41379
41339
41258
41199
41166
41093
40989
40929
40903
40827
40720
40656
40603
40496
40368
40285
40215
40109
40006
39950
39891
39775
39649
39566
39481
39354
39250
39213
39173
39086
39015
38987
38936
38834
38744
38694
38624
38518
38443
38414
38361
38274
38220
38205
38170
38122
38123
38151
38136
38088
38074
38073
38019
37944
37911
37893
37822
37736
37703
37682
37612
37533
37497
37460
37372
37282
37238
37188
37086
36991
36952
36914
36837
36771
36740
36681
36571
36476
36427
36369
36286
36237
36231
36194
36109
36059
36061
36056
36060
36147
36311
36482
36679
36978
37352
37730
38130
38600
39093
39523
39913
40318
40701
41009
41281
41561
41799
41947
42056
42174
42257
42274
42280
42303
42279
42186
42088
42014
41908
41755
41620
41525
41413
41273
41170
41108
41021
40908
40828
40772
40670
40536
40441
40372
40261
40130
40051
39998
39908
39816
39783
39775
39742
39722
39764
39818
39834
39866
39962
40061
40111
40167
40270
40356
40385
40421
40497
40543
40530
40522
40535
40510
40438
40391
40381
40331
40224
40132
40067
39962
39825
39725
39648
39531
39399
39322
39276
39179
39055
38978
38925
38834
38737
38692
38660
38587
38513
38483
38446
38355
38265
38226
38188
38106
38034
38012
37983
37901
37821
37784
37737
37648
37576
37552
37514
37437
37379
37351
37298
37227
37201
37203
37162
37088
37043
37007
36921
36817
36761
36720
36624
36502
36432
36388
36290
36162
36077
36014
35918
35815
35753
35693
35587
35473
35387
35282
35134
35013
34959
34910
34827
34779
34820
34911
35031
35239
35546
35880
36219
36623
37090
37539
37958
38414
38888
39295
39634
39978
40313
40569
40763
40955
41127
41212
41233
41260
41276
41226
41145
41079
40980
40803
40610
40470
40338
40161
39994
39885
39779
39631
39493
39400
39297
39155
39022
38917
38787
38615
38459
38339
38197
38032
37910
37837
37750
37654
37616
37631
37630
37616
37652
37719
37753
37773
37842
37937
37992
38032
38111
38184
38193
38186
38216
38235
38191
38128
38101
38066
37980
37896
37852
37792
37675
37562
37490
37407
37286
37177
37101
37003
36871
36770
36715
36639
36536
36476
36460
36410
36337
36315
36322
36277
36199
36162
36154
36107
36035
36000
35994
35956
35910
35914
35929
35892
35836
35822
35812
35751
35681
35657
35639
35575
35513
35494
35460
35380
35314
35291
35254
35181
35127
35109
35067
34984
34921
34889
34821
34713
34630
34570
34473
34358
34293
34254
34163
34042
33965
33915
33822
33713
33656
33621
33541
33450
33417
33408
33374
33367
33455
33604
33772
34008
34354
34758
35171
35617
36113
36599
37046
37511
38009
38471
38857
39216
39568
39849
40045
40226
40398
40494
40520
40547
40568
40516
40414
40331
40253
40119
39962
39853
39765
39633
39492
39407
39349
39253
39159
39126
39105
39040
38976
38966
38967
38930
38901
38907
38878
38785
38703
38668
38625
38552
38507
38513
38509
38476
38477
38526
38564
38583
38640
38727
38774
38788
38836
38900
38909
38882
38891
38922
38913
38874
38855
38836
38759
38659
38596
38533
38413
38278
38186
38099
37960
37811
37708
37604
37458
37319
37223
37114
36965
36844
36777
36691
36557
36440
36371
36294
36184
36104
36072
36013
35921
35866
35844
35785
35700
35657
35646
35597
35520
35484
35470
35410
35332
35296
35266
35192
35124
35109
35093
35019
34938
34910
34888
34817
34751
34742
34728
34652
34574
34544
34504
34417
34338
34300
34255
34175
34113
34081
34017
33913
33834
33783
33691
33563
33476
33431
33360
33270
33214
33174
33096
33023
33047
33159
33299
33496
33809
34193
34575
34982
35468
35982
36461
36941
37464
37964
38373
38735
39105
39427
39654
39853
40071
40246
40340
40408
40480
40502
40463
40418
40375
40279
40131
40006
39918
39800
39652
39548
39478
39376
39259
39193
39159
39081
38972
38909
38865
38765
38648
38584
38535
38445
38357
38330
38322
38273
38227
38228
38226
38178
38139
38156
38177
38175
38203
38281
38347
38372
38418
38505
38565
38577
38604
38656
38668
38642
38640
38658
38626
38552
38512
38494
38418
38311
38255
38224
38145
38036
37962
37898
37786
37659
37576
37504
37390
37267
37184
37101
36966
36826
36736
36645
36511
36397
36349
36304
36218
36140
36104
36053
35969
35908
35875
35807
35705
35646
35634
35590
35505
35449
35423
35361
35273
35233
35226
35186
35130
35122
35135
35104
35048
35028
35022
34974
34924
34918
34907
34842
34767
34734
34707
34638
34567
34536
34484
34376
34288
34252
34192
34081
33984
33927
33848
33729
33632
33566
33473
33357
33297
33308
33327
33367
33509
33748
34012
34312
34707
35172
35628
36078
36574
37090
37561
38007
38471
38908
39254
39544
39841
40104
40271
40380
40483
40539
40515
40472
40454
40407
40292
40170
40086
39989
39851
39726
39635
39523
39378
39273
39224
39155
39051
38973
38923
38839
38725
38648
38595
38501
38382
38308
38264
38189
38098
38052
38029
37981
37945
37977
38034
38057
38089
38178
38270
38309
38344
38428
38511
38543
38572
38636
38679
38665
38657
38686
38676
38597
38530
38507
38456
38345
38254
38207
38126
38011
37928
37859
37730
37567
37453
37372
37256
37117
37025
36963
36854
36720
36638
36583
36490
36389
36337
36292
36194
36089
36031
35986
35911
35851
35842
35827
35761
35704
35692
35663
35590
35544
35550
35540
35492
35467
35485
35478
35431
35407
35410
35369
35290
35248
35239
35187
35108
35077
35080
35039
34976
34961
34971
34945
34906
34908
34911
34860
34796
34764
34724
34629
34529
34479
34425
34314
34221
34200
34195
34171
34207
34358
34558
34773
35072
35471
35887
36289
36736
37237
37712
38129
38549
38979
39346
39641
39929
40208
40417
40556
40679
40765
40753
40685
40655
40631
40540
40415
40318
40228
40093
39955
39868
39783
39660
39548
39482
39414
39304
39202
39148
39079
38953
38820
38716
38591
38413
38246
38125
38003
37865
37779
37766
37765
37765
37829
37942
38019
38074
38189
38337
38429
38478
38555
38642
38678
38685
38719
38748
38712
38645
38615
38589
38515
38434
38397
38355
38260
38156
38086
37998
37851
37704
37609
37505
37345
37185
37063
36924
36749
36605
36511
36402
36265
36165
36114
36045
35951
35898
35875
35807
35715
35676
35670
35624
35559
35538
35530
35475
35407
35388
35385
35330
35260
35239
35230
35173
35114
35108
35103
35050
35006
35020
35024
34975
34934
34937
34915
34834
34760
34718
34643
34520
34424
34367
34276
34147
34056
34010
33944
33850
33788
33743
33652
33547
33520
33566
33615
33685
33847
34086
34345
34648
35048
35499
35935
36378
36866
37344
37750
38125
38520
38886
39168
39409
39654
39855
39980
40080
40178
40207
40158
40110
40084
40010
39870
39738
39636
39512
39358
39230
39126
38987
38831
38731
38679
38597
38486
38413
38365
38279
38170
38087
38004
37875
37739
37659
37598
37494
37388
37344
37326
37286
37278
37346
37420
37441
37471
37557
37638
37675
37731
37826
37897
37923
37963
38027
38053
38031
38023
38042
38022
37956
37907
37869
37773
37633
37531
37458
37338
37179
37052
36947
36815
36681
36598
36537
36441
36340
36291
36250
36153
36051
36006
35967
35880
35797
35762
35721
35627
35545
35521
35498
35425
35353
35320
35269
35174
35100
35069
35015
34926
34869
34850
34809
34745
34723
34734
34703
34642
34621
34616
34559
34480
34448
34436
34387
34331
34321
34312
34248
34167
34122
34075
33975
33874
33825
33770
33655
33533
33450
33360
33239
33154
33140
33130
33093
33101
33188
33297
33420
33641
33983
34372
34787
35278
35816
36317
36774
37249
37726
38123
38456
38799
39134
39378
39557
39746
39911
39988
40018
40060
40071
40004
39907
39842
39767
39639
39514
39441
39373
39265
39176
39148
39120
39048
38983
38957
38915
38836
38776
38751
38695
38593
38510
38467
38397
38282
38188
38124
38039
37949
37934
37980
38009
38033
38122
38239
38310
38356
38438
38522
38545
38544
38592
38649
38651
38631
38647
38658
38615
38563
38552
38536
38474
38414
38397
38365
38275
38188
38131
38037
37888
37769
37706
37619
37477
37349
37252
37117
36943
36803
36698
36553
36388
36281
36208
36097
35974
35910
35884
35830
35772
35763
35753
35678
35579
35513
35443
35315
35189
35137
35116
35073
35058
35109
35161
35166
35178
35224
35242
35201
35159
35151
35119
35039
34973
34941
34883
34789
34725
34691
34606
34457
34328
34226
34081
33904
33777
33694
33588
33485
33451
33447
33398
33338
33341
33385
33426
33508
33686
33912
34132
34388
34729
35108
35482
35907
36412
36915
37353
37778
38227
38641
38985
39311
39634
39890
40058
40203
40345
40422
40433
40449
40468
40432
40358
40322
40310
40239
40120
40038
39988
39900
39796
39736
39689
39596
39492
39439
39395
39294
39180
39114
39057
38951
38834
38757
38675
38548
38437
38390
38352
38285
38246
38261
38274
38264
38291
38367
38424
38445
38498
38590
38648
38666
38716
38786
38804
38780
38785
38802
38759
38681
38646
38629
38554
38454
38402
38364
38274
38172
38119
38082
38004
37915
37862
37810
37719
37631
37580
37508
37381
37261
37189
37112
37001
36911
36855
36765
36629
36515
36437
36338
36217
36141
36110
36054
35970
35927
35919
35875
35805
35785
35797
35769
35719
35710
35718
35681
35625
35614
35613
35561
35498
35482
35476
35429
35374
35346
35298
35188
35074
35007
34932
34804
34682
34605
34517
34389
34285
34233
34166
34062
33991
33971
33925
33835
33765
33718
33636
33540
33518
33567
33621
33702
33874
34110
34352
34630
35004
35425
35822
36234
36722
37233
37690
38117
38562
38978
39307
39583
39855
40076
40203
40299
40414
40486
40478
40460
40466
40430
40335
40253
40203
40115
39984
39880
39811
39713
39586
39501
39457
39383
39281
39211
39149
39023
38863
38739
38621
38451
38266
38128
38001
37828
37651
37541
37469
37378
37309
37324
37368
37377
37404
37502
37610
37679
37769
37911
38034
38099
38173
38281
38354
38364
38376
38415
38423
38387
38375
38386
38352
38275
38225
38195
38114
37999
37923
37867
37758
37616
37514
37434
37316
37188
37110
37040
36916
36782
36703
36645
36555
36464
36410
36341
36214
36090
36011
35920
35782
35658
35584
35506
35395
35309
35265
35194
35078
34990
34958
34910
34831
34787
34779
34745
34691
34678
34688
34651
34593
34588
34612
34583
34524
34511
34519
34476
34412
34392
34385
34331
34270
34262
34255
34190
34110
34063
34007
33901
33799
33747
33688
33591
33513
33482
33436
33371
33380
33486
33618
33763
33987
34311
34670
35052
35514
36041
36547
37030
37554
38094
38562
38964
39360
39727
39994
40189
40378
40532
40598
40618
40654
40670
40621
40550
40487
40387
40225
40071
39968
39851
39673
39499
39384
39269
39114
38979
38897
38813
38716
38654
38616
38535
38420
38341
38304
38238
38140
38086
38084
38062
38019
38025
38069
38085
38099
38172
38281
38365
38444
38572
38701
38760
38787
38852
38923
38943
38947
38986
39008
38967
38924
38922
38897
38801
38704
38657
38598
38477
38350
38255
38144
37993
37860
37761
37645
37504
37394
37317
37207
37074
36989
36937
36846
36731
36660
36612
36522
36412
36353
36317
36237
36148
36119
36113
36070
36025
36025
36025
35981
35928
35906
35873
35799
35743
35743
35721
35636
35569
35566
35558
35502
35458
35449
35405
35309
35229
35185
35112
35003
34929
34891
34817
34721
34669
34639
34558
34447
34376
34324
34223
34101
34032
34004
33976
33995
34125
34332
34566
34859
35247
35673
36071
36489
36968
37440
37854
38263
38693
39065
39342
39595
39851
40047
40167
40270
40371
40407
40375
40351
40346
40290
40175
40075
39993
39859
39690
39564
39470
39333
39175
39067
38987
38869
38744
38669
38607
38488
38342
38233
38125
37964
37807
37714
37641
37543
37472
37479
37511
37518
37541
37606
37663
37683
37728
37829
37922
37975
38042
38135
38192
38198
38214
38245
38235
38193
38187
38204
38176
38118
38099
38089
38016
37910
37844
37792
37687
37557
37470
37398
37282
37157
37083
37017
36902
36781
36712
36647
36533
36431
36385
36334
36229
36130
36079
36017
35917
35841
35811
35749
35635
35551
35520
35471
35386
35336
35327
35284
35204
35157
35127
35043
34932
34869
34841
34779
34696
34657
34631
34556
34467
34425
34396
34327
34256
34236
34218
34151
34088
34075
34043
33951
33878
33868
33849
33769
33683
33630
33554
33439
33357
33330
33305
33283
33348
33525
33750
34014
34375
34822
35271
35722
36235
36774
37250
37676
38120
38553
38907
39207
39512
39787
39973
40104
40235
40335
40359
40344
40347
40333
40251
40147
40069
39969
39817
39671
39563
39442
39281
39146
39070
38987
38876
38800
38773
38731
38658
38614
38600
38539
38424
38339
38288
38206
38112
38075
38073
38033
37976
37978
38013
38012
38005
38053
38110
38110
38095
38130
38181
38195
38214
38279
38333
38332
38326
38357
38366
38309
38248
38227
38185
38093
38009
37961
37878
37733
37613
37546
37449
37302
37186
37102
36968
36799
36681
36602
36484
36340
36242
36173
36067
35949
35878
35816
35706
35591
35539
35509
35436
35359
35334
35312
35240
35167
35139
35097
35004
34935
34930
34913
34837
34767
34746
34709
34625
34557
34524
34469
34387
34347
34351
34324
34262
34235
34232
34182
34089
34026
33982
33889
33768
33698
33656
33578
33484
33434
33398
33318
33223
33178
33147
33060
32970
32953
32976
32996
33071
33261
33519
33802
34158
34610
35092
35562
36064
36608
37123
37588
38058
38529
38928
39237
39515
39768
39936
40037
40148
40257
40290
40260
40230
40185
40080
39940
39830
39723
39551
39351
39196
39052
38860
38677
38575
38506
38408
38320
38278
38235
38148
38071
38034
37961
37806
37646
37540
37437
37310
37217
37188
37163
37112
37088
37104
37109
37111
37174
37283
37359
37405
37481
37571
37609
37609
37640
37687
37696
37696
37741
37793
37787
37755
37762
37778
37733
37659
37616
37558
37437
37310
37236
37173
37069
36973
36932
36888
36791
36690
36622
36525
36373
36241
36161
36063
35926
35816
35749
35657
35536
35456
35411
35331
35233
35185
35173
35124
35042
35000
34993
34961
34915
34911
34918
34873
34812
34795
34779
34695
34601
34575
34564
34507
34458
34462
34457
34406
34360
34354
34335
34271
34228
34236
34219
34153
34104
34082
34015
33890
33782
33706
33598
33458
33355
33286
33193
33083
33027
33024
33015
33016
33108
33288
33503
33780
34165
34623
35092
35587
36142
36702
37197
37661
38148
38600
38945
39244
39555
39811
39965
40091
40237
40341
40366
40371
40373
40311
40179
40043
39917
39751
39547
39377
39247
39082
38895
38767
38677
38551
38413
38331
38270
38160
38044
37988
37944
37836
37709
37628
37563
37462
37355
37304
37292
37270
37272
37339
37426
37473
37521
37625
37728
37794
37879
38000
38084
38109
38138
38196
38230
38239
38272
38321
38316
38245
38183
38137
38035
37899
37805
37727
37590
37417
37290
37194
37066
36925
36829
36737
36590
36449
36371
36294
36149
35996
35906
35824
35684
35544
35463
35388
35265
35151
35097
35042
34949
34891
34900
34897
34847
34809
34789
34723
34616
34551
34534
34483
34390
34339
34324
34269
34191
34164
34158
34099
34011
33961
33930
33850
33750
33697
33666
33588
33484
33412
33336
33208
33078
32998
32933
32839
32753
32726
32722
32708
32742
32859
33006
33170
33425
33779
34161
34546
34993
35504
35994
36443
36914
37389
37789
38126
38467
38791
39028
39193
39356
39500
39557
39554
39562
39558
39467
39321
39202
39087
38915
38728
38589
38453
38262
38062
37914
37781
37619
37491
37428
37341
37188
37038
36926
36801
36645
36524
36446
36344
36225
36153
36113
36051
35982
35967
36006
36042
36072
36160
36295
36400
36471
36569
36684
36754
36799
36883
36970
37002
37010
37040
37063
37039
37004
37008
37006
36950
36891
36867
36808
36671
36528
36422
36296
36123
35968
35862
35741
35576
35420
35288
35131
34947
34798
34698
34579
34425
34298
34202
34084
33966
33915
33912
33870
33785
33732
33700
33610
33495
33444
33424
33364
33303
33296
33288
33225
33168
33168
33169
33114
33049
33022
32989
32921
32880
32898
32907
32871
32840
32830
32785
32686
32591
32525
32434
32301
32194
32123
32030
31925
31876
31863
31804
31706
31655
31659
31662
31684
31801
32001
32222
32504
32915
33398
33880
34392
34967
35544
36056
36544
37041
37486
37841
38164
38491
38757
38932
39075
39224
39329
39365
39376
39376
39320
39205
39096
39001
38865
38701
38577
38491
38379
38249
38167
38119
38034
37938
37897
37878
37809
37728
37684
37620
37481
37339
37270
37217
37110
36994
36931
36885
36817
36772
36790
36822
36822
36824
36858
36886
36896
36938
37030
37106
37134
37175
37239
37269
37269
37294
37330
37313
37247
37206
37183
37095
36958
36868
36825
36752
36646
36559
36474
36347
36209
36114
36026
35902
35778
35705
35635
35502
35349
35238
35131
34994
34887
34846
34804
34715
34639
34608
34564
34483
34428
34421
34407
34361
34334
34338
34316
34262
34233
34226
34180
34110
34078
34065
34001
33898
33835
33806
33747
33665
33619
33590
33522
33448
33420
33391
33307
33216
33171
33121
33008
32895
32844
32793
32693
32600
32560
32529
32468
32420
32424
32440
32450
32546
32761
33012
33278
33625
34044
34465
34894
35378
35889
36355
36787
37242
37685
38040
38334
38647
38952
39168
39320
39485
39632
39691
39701
39724
39722
39644
39531
39440
39339
39202
39087
39030
38969
38854
38753
38714
38668
38582
38526
38513
38465
38360
38279
38245
38191
38102
38029
37980
37913
37840
37824
37850
37840
37802
37806
37842
37838
37816
37845
37898
37919
37940
38007
38087
38130
38169
38252
38332
38354
38363
38395
38394
38330
38257
38214
38152
38030
37913
37847
37770
37668
37596
37554
37477
37358
37272
37233
37165
37055
36982
36949
36882
36789
36731
36693
36611
36511
36464
36456
36436
36429
36480
36552
36582
36594
36633
36662
36630
36594
36612
36624
36583
36552
36575
36598
36568
36527
36519
36502
36448
36415
36442
36466
36449
36446
36472
36456
36389
36348
36353
36342
36296
36283
36309
36298
36250
36229
36221
36158
36074
36034
36000
35902
35783
35714
35668
35594
35530
35538
35597
35666
35789
36016
36300
36589
36934
37379
37850
38295
38764
39283
39774
40196
40604
41027
41404
41700
41965
42210
42375
42466
42556
42646
42676
42651
42635
42618
42535
42409
42316
42238
42101
41940
41833
41753
41640
41523
41448
41385
41285
41184
41124
41062
40952
40846
40804
40777
40702
40632
40621
40605
40537
40483
40489
40496
40478
40491
40545
40569
40554
40570
40623
40647
40647
40693
40774
40810
40803
40827
40873
40862
40815
40809
40823
40789
40731
40712
40693
40616
40529
40501
40482
40408
40323
40275
40216
40103
39990
39918
39833
39691
39552
39458
39349
39187
39037
38929
38804
38643
38515
38443
38369
38279
38241
38248
38221
38162
38136
38130
38085
38017
37984
37962
37891
37801
37759
37741
37686
37619
37604
37604
37551
37492
37487
37479
37412
37330
37282
37219
37101
36997
36959
36926
36848
36774
36730
36657
36537
36441
36392
36323
36217
36140
36102
36038
35945
35892
35884
35849
35796
35811
35900
36002
36143
36399
36746
37108
37502
37982
38503
38991
39478
40012
40538
40993
41410
41828
42202
42483
42720
42964
43151
43241
43303
43383
43422
43384
43333
43301
43225
43087
42965
42892
42802
42671
42560
42483
42380
42253
42157
42085
41975
41833
41722
41630
41488
41328
41228
41164
41074
40986
40947
40923
40862
40816
40841
40891
40914
40957
41055
41146
41199
41275
41412
41539
41596
41636
41701
41740
41727
41722
41743
41737
41692
41659
41645
41597
41513
41448
41406
41325
41222
41164
41124
41031
40916
40857
40824
40746
40643
40579
40522
40406
40269
40193
