15257
15289
15318
15340
15356
15365
15369
15367
15362
15353
15342
15328
15313
15297
15279
15254
15221
15184
15146
15110
15072
15033
14992
14949
14905
14859
14813
14767
14725
14693
14671
14653
14639
14630
14627
14625
14622
14618
14615
14615
14616
14613
14608
14600
14589
14575
14554
14531
14505
14476
14444
14411
14372
14327
14281
14232
14181
14128
14072
14012
13949
13885
13823
13760
13699
13644
13592
13541
13487
13429
13370
13312
13253
13193
13134
13079
13029
12978
12927
12874
12824
12779
12739
12703
12670
12637
12607
12577
12548
12516
12482
12446
12410
12374
12340
12303
12264
12220
12174
12130
12087
12045
12007
11972
11935
11893
11844
11792
11739
11684
11628
11571
11512
11448
11377
11302
11226
11154
11087
11024
10971
10929
10899
10884
10889
10923
10993
11103
11252
11441
11667
11928
12218
12525
12840
13158
13472
13776
14068
14341
14591
14821
15033
15224
15394
15542
15669
15775
15861
15929
15984
16027
16061
16085
16099
16110
16121
16132
16142
16153
16167
16181
16195
16210
16227
16246
16267
16284
16295
16299
16291
16272
16247
16218
16182
16141
16100
16060
16019
15975
15930
15887
15850
15820
15796
15773
15749
15730
15715
15701
15690
15683
15681
15684
15686
15684
15677
15667
15654
15639
15624
15610
15589
15561
15528
15492
15455
15413
15365
15312
15259
15207
15156
15107
15056
15002
14948
14895
14840
14786
14733
14677
14620
14565
14513
14461
14413
14368
14324
14280
14237
14194
14152
14109
14069
14033
13999
13967
13935
13900
13865
13828
13789
13748
13708
13668
13630
13591
13552
13513
13472
13432
13391
13346
13296
13244
13193
13141
13091
13041
12991
12939
12884
12828
12774
12721
12664
12604
12545
12486
12426
12369
12314
12265
12230
12212
12213
12238
12290
12372
12484
12629
12807
13017
13255
13514
13785
14065
14346
14623
14892
15148
15390
15617
15827
16018
16191
16345
16480
16594
16689
16768
16835
16892
16938
16975
17005
17030
17050
17065
17079
17098
17116
17132
17143
17153
17161
17166
17167
17163
17155
17142
17122
17095
17063
17027
16983
16934
16884
16834
16785
16740
16698
16660
16625
16594
16567
16548
16535
16525
16518
16512
16504
16494
16483
16470
16458
16446
16432
16415
16395
16371
16348
16325
16298
16266
16232
16194
16149
16099
16047
15996
15944
15892
15836
15779
15723
15665
15607
15550
15494
15436
15373
15308
15244
15178
15114
15054
14998
14949
14903
14857
14808
14760
14716
14673
14629
14587
14547
14504
14456
14407
14359
14314
14268
14221
14173
14125
14079
14036
13997
13958
13916
13871
13824
13779
13736
13692
13647
13606
13562
13514
13462
13408
13352
13288
13218
13142
13065
12990
12912
12834
12761
12691
12623
12558
12494
12431
12370
12317
12276
12253
12254
12284
12347
12448
12587
12764
12980
13233
13517
13825
14149
14474
14793
15103
15403
15687
15951
16191
16403
16587
16744
16877
16985
17070
17137
17188
17227
17254
17270
17280
17287
17292
17294
17293
17293
17296
17301
17310
17318
17322
17322
17316
17304
17282
17254
17220
17181
17140
17098
17056
17014
16968
16918
16868
16821
16779
16743
16714
16689
16666
16648
16633
16623
16618
16618
16621
16629
16639
16649
16657
16659
16653
16643
16634
16624
16612
16597
16579
16555
16526
16491
16451
16405
16352
16295
16234
16173
16110
16048
15987
15926
15863
15801
15744
15688
15631
15578
15531
15481
15429
15374
15317
15262
15212
15164
15119
15075
15032
14994
14959
14922
14882
14840
14800
14764
14726
14687
14648
14607
14564
14521
14477
14434
14392
14352
14311
14270
14227
14180
14132
14082
14030
13976
13919
13857
13791
13722
13648
13572
13500
13432
13368
13310
13258
13210
13167
13131
13105
13096
13112
13158
13235
13347
13494
13678
13899
14148
14418
14701
14992
15286
15575
15855
16120
16366
16593
16802
16991
17160
17307
17433
17536
17616
17681
17731
17765
17786
17796
17797
17789
17778
17768
17759
17752
17746
17742
17741
17740
17734
17722
17701
17671
17634
17593
17547
17494
17436
17372
17305
17238
17178
17123
17074
17032
16997
16969
16945
16927
16917
16913
16914
16919
16926
16936
16945
16950
16949
16944
16935
16920
16899
16875
16847
16816
16781
16745
16706
16665
16620
16567
16509
16449
16388
16328
16270
16212
16155
16102
16050
15997
15942
15884
15825
15764
15701
15638
15576
15515
15456
15400
15342
15283
15226
15177
15134
15089
15046
15007
14971
14934
14895
14853
14805
14755
14703
14655
14610
14566
14525
14484
14442
14399
14355
14310
14267
14222
14174
14123
14069
14013
13954
13893
13834
13776
13718
13661
13605
13549
13489
13428
13365
13298
13230
13163
13100
13039
12976
12911
12851
12798
12761
12747
12759
12800
12878
13001
13175
13397
13663
13966
14299
14654
15018
15384
15743
16086
16405
16699
16966
17206
17421
17613
17784
17932
18055
18156
18240
18310
18368
18416
18455
18485
18506
18525
18547
18569
18590
18610
18627
18645
18664
18683
18699
18711
18720
18725
18722
18710
18689
18661
18627
18586
18536
18484
18431
18378
18325
18274
18224
18177
18137
18102
18070
18042
18025
18017
18014
18011
18007
18004
18003
18001
17996
17986
17971
17956
17939
17917
17890
17857
17819
17780
17741
17699
17654
17605
17554
17505
17457
17406
17349
17288
17226
17164
17101
17038
16978
16923
16869
16815
16763
16711
16659
16609
16558
16509
16460
16412
16364
16316
16264
16210
16159
16113
16069
16025
15983
15942
15898
15847
15792
15736
15682
15630
15584
15542
15502
15465
15428
15387
15342
15297
15251
15200
15147
15095
15044
14992
14938
14881
14824
14767
14713
14659
14601
14539
14473
14407
14339
14269
14195
14118
14040
13959
13878
13801
13730
13668
13614
13569
13540
13531
13548
13592
13668
13781
13937
14135
14371
14646
14954
15285
15625
15963
16297
16622
16935
17227
17497
17746
17973
18175
18355
18513
18648
18759
18853
18935
19001
19049
19086
19119
19151
19180
19202
19219
19232
19244
19256
19270
19286
19304
19320
19331
19336
19334
19326
19312
19293
19267
19228
19178
19118
19057
18997
18935
18872
18811
18755
18704
18659
18624
18595
18568
18545
18529
18518
18510
18501
18489
18478
18468
18458
18448
18434
18420
18405
18387
18364
18335
18301
18262
18220
18176
18130
18080
18026
17973
17920
17863
17802
17736
17668
17600
17536
17473
17406
17333
17253
17172
17095
17024
16958
16898
16841
16787
16734
16680
16628
16577
16527
16477
16425
16367
16308
16247
16186
16130
16075
16017
15957
15895
15832
15768
15702
15637
15577
15521
15466
15410
15354
15295
15237
15181
15123
15063
15003
14944
14885
14826
14769
14711
14650
14585
14517
14451
14390
14333
14277
14220
14157
14089
14017
13939
13857
13772
13687
13599
13510
13422
13339
13260
13186
13120
13060
13007
12967
12951
12963
13006
13088
13216
13395
13626
13910
14240
14602
14984
15378
15775
16162
16532
16880
17197
17484
17742
17973
18174
18344
18485
18601
18691
18760
18810
18844
18864
18876
18882
18883
18880
18874
18869
18868
18868
18869
18869
18869
18869
18865
18857
18843
18822
18796
18767
18734
18695
18653
18611
18566
18514
18456
18396
18334
18272
18215
18164
18119
18085
18059
18038
18020
18006
18000
17998
17995
17987
17976
17965
17956
17947
17937
17924
17907
17885
17859
17829
17797
17760
17719
17675
17625
17567
17502
17434
17366
17297
17226
17154
17080
17004
16926
16848
16770
16694
16624
16559
16496
16434
16372
16310
16250
16193
16139
16085
16029
15975
15923
15870
15816
15763
15714
15666
15618
15571
15525
15476
15422
15367
15314
15266
15218
15168
15118
15069
15024
14983
14942
14897
14846
14794
14742
14690
14636
14580
14521
14460
14398
14332
14262
14187
14108
14028
13948
13864
13776
13685
13597
13510
13425
13344
13271
13209
13163
13139
13141
13175
13248
13367
13536
13749
14003
14297
14622
14970
15332
15697
16055
16396
16717
17018
17290
17532
17745
17930
18086
18215
18318
18398
18455
18495
18518
18530
18532
18527
18518
18504
18487
18468
18446
18423
18400
18376
18349
18316
18274
18228
18184
18138
18086
18029
17966
17899
17832
17764
17693
17624
17559
17502
17453
17411
17375
17343
17317
17297
17284
17273
17264
17258
17254
17250
17244
17240
17236
17228
17216
17199
17176
17151
17122
17084
17040
16993
16947
16898
16844
16784
16717
16642
16565
16489
16416
16341
16263
16181
16095
16008
15925
15846
15770
15697
15626
15555
15487
15420
15354
15287
15219
15151
15085
15023
14963
14903
14843
14782
14719
14656
14593
14534
14475
14419
14364
14311
14258
14207
14158
14110
14059
14006
13954
13899
13843
13787
13730
13675
13621
13567
13512
13455
13398
13341
13282
13217
13149
13081
13016
12951
12886
12820
12752
12680
12606
12532
12457
12380
12299
12214
12126
12038
11953
11872
11799
11737
11693
11677
11693
11748
11846
11993
12194
12452
12766
13129
13533
13964
14409
14857
15298
15717
16107
16464
16785
17069
17315
17525
17701
17848
17969
18063
18135
18190
18232
18262
18279
18292
18305
18316
18323
18329
18331
18329
18328
18330
18335
18336
18332
18325
18314
18295
18270
18241
18206
18163
18114
18060
18002
17936
17867
17801
17739
17678
17616
17558
17506
17461
17426
17398
17375
17357
17341
17331
17323
17312
17301
17291
17284
17275
17262
17248
17232
17209
17178
17142
17103
17061
17016
16967
16914
16857
16796
16728
16655
16580
16505
16429
16350
16272
16195
16116
16034
15950
15871
15798
15729
15664
15602
15539
15472
15402
15333
15268
15204
15138
15070
15003
14940
14883
14829
14773
14718
14664
14607
14547
14486
14423
14358
14295
14232
14169
14107
14045
13985
13925
13867
13809
13753
13699
13644
13586
13526
13466
13404
13343
13280
13215
13148
13078
13003
12925
12847
12774
12705
12635
12561
12484
12408
12331
12251
12170
12089
12009
11928
11850
11781
11717
11660
11622
11615
11645
11718
11841
12018
12252
12539
12876
13257
13670
14102
14544
14983
15408
15806
16171
16502
16799
17059
17285
17478
17638
17770
17878
17967
18039
18095
18136
18165
18183
18191
18190
18182
18172
18160
18152
18146
18139
18129
18121
18115
18109
18098
18083
18059
18024
17980
17929
17873
17814
17752
17688
17622
17557
17492
17432
17375
17320
17270
17226
17187
17150
17119
17095
17077
17061
17046
17034
17024
17015
17006
16992
16968
16936
16904
16875
16846
16811
16770
16721
16663
16600
16532
16461
16388
16310
16229
16146
16065
15986
15906
15826
15744
15663
15583
15503
15421
15337
15253
15171
15088
15005
14924
14844
14767
14692
14620
14552
14488
14423
14358
14291
14223
14157
14091
14024
13958
13895
13834
13772
13709
13648
13589
13529
13469
13410
13351
13288
13220
13151
13086
13025
12967
12910
12850
12784
12715
12647
12579
12512
12447
12382
12315
12243
12165
12080
11992
11904
11818
11734
11650
11566
11479
11388
11291
11191
11093
11003
10926
10869
10837
10834
10865
10938
11065
11252
11497
11798
12151
12550
12987
13453
13933
14410
14870
15303
15704
16065
16379
16646
16869
17053
17204
17326
17425
17498
17547
17576
17588
17585
17573
17558
17538
17515
17491
17466
17441
17416
17387
17353
17321
17290
17254
17215
17171
17123
17068
17005
16937
16863
16785
16708
16633
16562
16498
16440
16385
16334
16290
16257
16231
16214
16204
16200
16202
16207
16215
16225
16235
16245
16255
16263
16264
16256
16241
16220
16191
16156
16112
16062
16006
15942
15875
15807
15738
15665
15589
15508
15422
15331
15237
15143
15051
14964
14883
14805
14727
14650
14572
14490
14407
14326
14251
14185
14122
14058
13993
13927
13861
13799
13741
13685
13631
13578
13530
13486
13445
13404
13364
13321
13273
13222
13172
13124
13076
13028
12979
12932
12887
12840
12788
12731
12673
12615
12557
12495
12432
12368
12297
12219
12137
12054
11970
11887
11805
11726
11648
11571
11494
11421
11361
11322
11311
11334
11395
11499
11649
11850
12104
12413
12770
13163
13584
14021
14462
14893
15305
15687
16034
16340
16606
16832
17018
17168
17287
17378
17445
17490
17516
17528
17527
17519
17503
17478
17444
17403
17354
17302
17248
17192
17135
17081
17029
16974
16911
16844
16775
16705
16635
16567
16501
16435
16369
16306
16245
16190
16143
16105
16074
16049
16033
16026
16024
16025
16026
16031
16039
16046
16048
16050
16050
16047
16043
16037
16025
16003
15973
15938
15897
15850
15801
15749
15695
15640
15579
15513
15441
15361
15278
15193
15109
15026
14945
14866
14789
14713
14639
14570
14498
14423
14348
14272
14194
14117
14043
13970
13899
13829
13763
13702
13647
13597
13551
13507
13460
13413
13365
13317
13270
13224
13176
13129
13085
13044
13003
12961
12917
12872
12827
12781
12733
12679
12623
12566
12507
12444
12381
12319
12254
12185
12112
12039
11966
11894
11824
11756
11690
11628
11574
11530
11505
11504
11537
11609
11726
11895
12117
12390
12712
13079
13481
13907
14344
14783
15216
15628
16011
16358
16669
16944
17184
17389
17562
17709
17831
17927
17999
18053
18093
18126
18153
18174
18193
18211
18226
18238
18250
18263
18275
18289
18303
18313
18317
18316
18307
18287
18256
18215
18164
18105
18044
17987
17931
17876
17822
17772
17726
17682
17643
17610
17582
17559
17542
17530
17520
17510
17500
17492
17486
17480
17474
17469
17464
17455
17442
17424
17403
17376
17347
17319
17292
17262
17227
17186
17137
17080
17018
16952
16884
16818
16754
16689
16621
16552
16482
16412
16341
16268
16198
16133
16069
16009
15954
15901
15847
15795
15747
15698
15646
15592
15541
15492
15445
15399
15358
15318
15274
15227
15183
15143
15104
15065
15025
14983
14940
14898
14858
14816
14771
14726
14680
14632
14580
14525
14466
14405
14341
14277
14217
14158
14097
14031
13960
13883
13805
13728
13651
13575
13502
13433
13367
13308
13264
13241
13243
13278
13352
13468
13631
13844
14104
14403
14734
15090
15458
15828
16192
16546
16888
17212
17512
17782
18025
18244
18435
18598
18739
18862
18965
19049
19118
19173
19218
19256
19288
19313
19333
19350
19367
19382
19395
19406
19415
19421
19424
19425
19427
19431
19433
19430
19418
19396
19361
19318
19267
19208
19148
19090
19035
18981
18931
18886
18847
18816
18790
18772
18758
18746
18735
18725
18714
18702
18692
18685
18676
18660
18640
18619
18600
18582
18561
18536
18506
18472
18435
18396
18353
18305
18255
18205
18157
18110
18060
18003
17939
17873
17810
17748
17687
17626
17564
17502
17442
17387
17336
17287
17237
17186
17133
17082
17033
16986
16940
16896
16851
16806
16763
16719
16673
16627
16582
16535
16484
16433
16383
16334
16285
16234
16181
16126
16071
16016
15961
15908
15857
15806
15757
15705
15652
15600
15549
15494
15433
15372
15308
15237
15161
15086
15011
14937
14865
14796
14732
14667
14602
14538
14476
14420
14375
14347
14341
14361
14414
14508
14648
14833
15063
15334
15639
15967
16309
16659
17011
17353
17680
17986
18270
18533
18777
18998
19194
19361
19503
19623
19721
19800
19864
19913
19948
19975
19997
20015
20027
20033
20036
20042
20050
20059
20068
20078
20087
20092
20090
20085
20076
20059
20033
20000
19962
19916
19862
19802
19740
19679
19619
19562
19506
19458
19419
19383
19350
19318
19291
19269
19252
19240
19234
19231
19229
19229
19225
19218
19211
19201
19186
19167
19146
19124
19099
19068
19028
18980
18925
18867
18804
18742
18681
18619
18551
18479
18406
18335
18267
18200
18133
18066
18000
17939
17879
17821
17764
17708
17654
17599
17544
17489
17435
17381
17331
17285
17240
17195
17153
17110
17064
17017
16970
16922
16867
16811
16757
16706
16656
16610
16567
16526
16485
16438
16386
16335
16283
16227
16167
16104
16038
15974
15912
15853
15793
15729
15660
15585
15507
15428
15351
15275
15198
15121
15048
14978
14909
14843
14783
14729
14686
14664
14673
14717
14806
14946
15135
15369
15645
15960
16309
16676
17042
17401
17751
18085
18400
18691
18954
19186
19387
19558
19705
19829
19931
20012
20072
20116
20147
20167
20177
20182
20179
20170
20157
20141
20124
20109
20098
20090
20079
20064
20047
20026
20000
19967
19925
19877
19820
19757
19693
19629
19565
19497
19431
19370
19317
19271
19231
19198
19173
19154
19144
19140
19142
19149
19159
19170
19183
19195
19203
19205
19203
19196
19184
19167
19149
19131
19112
19087
19053
19012
18965
18910
18849
18785
18721
18654
18584
18515
18448
18382
18316
18252
18187
18123
18056
17988
17920
17854
17789
17726
17666
17608
17554
17501
17451
17406
17365
17324
17280
17233
17188
17146
17103
17061
17018
16977
16940
16904
16866
16826
16782
16738
16692
16645
16597
16549
16498
16444
16391
16336
16277
16214
16149
16083
16015
15943
15868
15792
15719
15646
15573
15500
15430
15367
15314
15274
15251
15249
15274
15334
15434
15581
15771
16004
16278
16584
16909
17244
17582
17917
18243
18553
18842
19107
19346
19560
19747
19910
20051
20170
20268
20344
20398
20435
20459
20472
20475
20474
20470
20464
20453
20438
20421
20405
20394
20385
20376
20363
20343
20318
20284
20243
20194
20139
20075
20006
19936
19868
19804
19744
19689
19640
19597
19562
19534
19513
19499
19489
19479
19474
19472
19471
19470
19469
19466
19457
19446
19435
19424
19410
19391
19367
19340
19309
19271
19223
19171
19115
19055
18993
18930
18866
18799
18729
18657
18586
18516
18449
18381
18309
18238
18171
18104
18035
17967
17903
17845
17790
17739
17691
17646
17599
17547
17493
17441
17390
17340
17290
17241
17194
17149
17108
17065
17019
16975
16936
16897
16857
16815
16769
16719
16667
16617
16570
16522
16469
16412
16352
16288
16221
16155
16090
16026
15963
15904
15843
15776
15703
15630
15559
15490
15424
15361
15303
15253
15216
15200
15209
15248
15322
15439
15602
15808
16059
16353
16676
17016
17366
17718
18067
18405
18727
19032
19317
19579
19821
20041
20236
20405
20557
20689
20801
20892
20965
21024
21069
21104
21132
21151
21165
21177
21190
21205
21219
21230
21241
21256
21274
21292
21306
21311
21307
21293
21272
21241
21199
21146
21087
21022
20954
20887
20821
20756
20695
20640
20590
20546
20509
20478
20453
20431
20414
20405
20402
20402
20402
20396
20382
20366
20351
20336
20319
20299
20275
20247
20215
20175
20129
20080
20030
19977
19920
19862
19805
19749
19695
19643
19588
19529
19464
19394
19320
19248
19176
19106
19042
18980
18919
18862
18809
18754
18698
18639
18576
18512
18450
18390
18336
18287
18243
18197
18146
18093
18039
17988
17941
17896
17850
17804
17756
17706
17654
17602
17548
17495
17444
17393
17342
17289
17236
17181
17124
17064
17002
16937
16870
16801
16733
16667
16599
16530
16459
16389
16318
16247
16175
16107
16044
15985
15935
15900
15888
15907
15962
16054
16186
16362
16577
16829
17114
17421
17740
18067
18391
18707
19011
19300
19568
19813
20035
20235
20412
20568
20705
20822
20921
21003
21065
21112
21147
21169
21181
21187
21189
21188
21187
21187
21191
21200
21213
21227
21243
21261
21275
21277
21269
21251
21226
21194
21155
21106
21046
20980
20913
20848
20785
20725
20667
20612
20562
20517
20477
20441
20412
20388
20370
20353
20338
20323
20309
20294
20278
20263
20249
20234
20216
20195
20168
20137
20102
20063
20022
19979
19935
19888
19836
19778
19714
19646
19575
19501
19430
19361
19292
19220
19149
19081
19014
18951
18888
18824
18758
18687
18616
18545
18476
18409
18342
18275
18211
18155
18102
18050
17999
17949
17895
17836
17775
17712
17649
17590
17536
17485
17433
17385
17339
17292
17240
17184
17123
17062
17001
16941
16878
16817
16758
16700
16641
16578
16511
16439
16363
16287
16215
16147
16079
16009
15938
15865
15790
15716
15642
15567
15494
15427
15370
15323
15290
15278
15296
15351
15448
15594
15790
16031
16315
16633
16974
17325
17675
18019
18350
18664
18957
19224
19462
19670
19852
20008
20137
20239
20322
20387
20437
20471
20492
20505
20513
20515
20511
20501
20488
20471
20454
20441
20430
20419
20408
20395
20377
20354
20325
20294
20260
20220
20174
20123
20068
20013
19952
19888
19825
19769
19715
19660
19607
19561
19519
19482
19450
19426
19410
19399
19394
19391
19390
19391
19394
19396
19394
19387
19378
19367
19349
19327
19297
19264
19231
19194
19151
19100
19045
18989
18931
18868
18801
18729
18655
18579
18500
18419
18339
18261
18187
18115
18045
17974
17901
17830
17765
17704
17645
17586
17529
17471
17413
17352
17290
17231
17176
17123
17071
17019
16968
16919
16876
16835
16793
16750
16709
16668
16626
16584
16544
16506
16466
16421
16373
16322
16269
16214
16156
16094
16028
15957
15881
15804
15724
15640
15559
15481
15409
15344
15285
15232
15183
15144
15122
15126
15164
15242
15362
15531
15750
16015
16315
16638
16977
17321
17655
17972
18268
18545
18797
19017
19208
19373
19514
19632
19730
19809
19869
19911
19935
19944
19934
19910
19880
19851
19822
19794
19768
19742
19716
19691
19671
19651
19629
19599
19560
19515
19464
19411
19356
19298
19237
19173
19110
19048
18986
18928
18874
18824
18780
18746
18720
18699
18683
18673
18666
18664
18669
18675
18680
18684
18686
18687
18684
18677
18662
18640
18612
18579
18546
18509
18467
18420
18370
18318
18264
18206
18143
18080
18017
17950
17881
17812
17741
17667
17592
17519
17448
17379
17308
17241
17178
17119
17062
17009
16958
16909
16859
16811
16764
16717
16669
16618
16565
16512
16458
16407
16358
16312
16269
16226
16183
16139
16099
16060
16018
15972
15926
15878
15828
15777
15725
15671
15613
15551
15490
15428
15366
15302
15237
15171
15101
15031
14964
14899
14838
14780
14724
14675
14635
14610
14605
14629
14692
14803
14964
15172
15423
15710
16020
16346
16683
17021
17350
17664
17961
18237
18491
18717
18913
19079
19219
19339
19440
19522
19586
19633
19668
19692
19709
19717
19715
19707
19696
19686
19675
19663
19653
19649
19651
19652
19649
19639
19623
19601
19575
19543
19506
19464
19419
19373
19327
19279
19230
19178
19129
19083
19039
18997
18963
18940
18925
18914
18907
18904
18902
18898
18896
18895
18891
18885
18876
18863
18846
18825
18803
18780
18755
18727
18696
18660
18620
18578
18534
18487
18435
18380
18326
18272
18215
18158
18102
18046
17992
17940
17890
17838
17785
17734
17685
17637
17590
17546
17500
17451
17399
17346
17295
17247
17201
17154
17108
17064
17020
16975
16928
16882
16838
16798
16762
16726
16688
16648
16610
16574
16539
16505
16469
16432
16394
16354
16307
16255
16200
16144
16091
16038
15982
15924
15863
15803
15742
15680
15617
15554
15492
15429
15365
15306
15258
15230
15228
15256
15314
15407
15540
15718
15939
16196
16478
16779
17092
17405
17713
18012
18298
18566
18814
19042
19247
19430
19590
19724
19836
19928
20003
20062
20110
20148
20180
20205
20223
20233
20238
20242
20247
20252
20258
20262
20263
20262
20258
20254
20247
20235
20219
20199
20176
20153
20123
20085
20037
19985
19931
19879
19829
19783
19744
19708
19677
19649
19625
19603
19587
19573
19562
19554
19547
19540
19533
19527
19524
19522
19521
19518
19509
19494
19475
19452
19427
19398
19367
19332
19292
19246
19198
19148
19096
19043
18992
18940
18886
18834
18783
18732
18680
18629
18580
18532
18483
18431
18378
18326
18274
18225
18177
18131
18086
18038
17990
17942
17897
17856
17815
17772
17727
17685
17646
17610
17572
17529
17483
17434
17388
17346
17308
17271
17234
17198
17159
17115
17068
17020
16971
16920
16870
16816
16760
16702
16644
16582
16514
16442
16369
16300
16236
16173
16112
16055
16002
15956
15921
15902
15903
15930
15987
16078
16203
16365
16565
16800
17062
17341
17629
17920
18209
18495
18772
19034
19278
19500
19697
19874
20029
20162
20275
20368
20443
20504
20553
20587
20609
20622
20631
20635
20638
20640
20643
20644
20643
20639
20634
20632
20629
20624
20615
20601
20582
20555
20522
20485
20445
20401
20352
20301
20251
20202
20153
20105
20056
20008
19964
19924
19886
19854
19831
19819
19816
19816
19819
19823
19826
19828
19828
19830
19831
19824
19811
19797
19780
19756
19728
19693
19652
19607
19559
19509
19458
19407
19355
19298
19239
19180
19119
19056
18992
18930
18870
18813
18760
18708
18655
18600
18545
18489
18432
18379
18331
18286
18242
18199
18157
18113
18069
18029
17990
17948
17901
17851
17801
17752
17703
17656
17612
17569
17528
17486
17441
17393
17344
17295
17244
17192
17139
17084
17029
16974
16918
16859
16797
16731
16663
16596
16526
16453
16383
16316
16256
16208
16174
16161
16174
16219
16305
16432
16601
16811
17058
17332
17624
17927
18237
18545
18844
19129
19398
19648
19874
20071
20239
20383
20506
20606
20684
20745
20790
20819
20836
20843
20844
20840
20831
20821
20809
20798
20787
20772
20754
20736
20715
20687
20655
20621
20587
20548
20503
20454
20403
20347
20287
20227
20167
20111
20063
20022
19986
19956
19932
19915
19903
19896
19895
19900
19907
19912
19919
19930
19943
19954
19962
19964
19958
19947
19932
19914
19890
19863
19833
19798
19757
19711
19663
19611
19557
19501
19444
19387
19328
19265
19203
19142
19082
19023
18964
18905
18844
18783
18726
18672
18620
18571
18524
18476
18427
18381
18338
18294
18248
18205
18167
18133
18099
18064
18031
17998
17963
17923
17876
17829
17783
17742
17702
17662
17624
17582
17533
17478
17421
17361
17295
17226
17155
17086
17015
16944
16873
16805
16743
16688
16645
16618
16613
16632
16680
16759
16876
17030
17221
17444
17694
17965
18249
18539
18828
19112
19383
19639
19878
20099
20301
20484
20646
20785
20903
21000
21077
21135
21176
21203
21219
21230
21238
21242
21241
21233
21223
21212
21203
21192
21177
21158
21136
21110
21084
21054
21020
20984
20942
20891
20834
20776
20715
20653
20591
20533
20483
20443
20409
20381
20358
20340
20326
20317
20311
20307
20301
20298
20298
20299
20302
20303
20296
20278
20253
20228
20206
20183
20158
20131
20098
20062
20022
19977
19930
19882
19830
19776
19720
19660
19598
19537
19476
19416
19357
19300
19243
19185
19127
19069
19010
18950
18893
18841
18789
18740
18694
18651
18610
18568
18524
18478
18433
18389
18348
18308
18266
18221
18174
18127
18082
18041
18003
17964
17922
17878
17831
17783
17735
17688
17637
17582
17523
17463
17401
17335
17268
17206
17148
17090
17032
16976
16925
16882
16852
16843
16856
16897
16971
17087
17248
17447
17685
17954
18250
18561
18879
19198
19509
19806
20089
20355
20602
20826
21028
21207
21360
21490
21603
21701
21782
21847
21901
21942
21972
21994
22012
22027
22037
22043
22048
22055
22063
22072
22084
22096
22101
22098
22090
22076
22057
22032
22000
21962
21919
21873
21822
21769
21714
21659
21607
21558
21512
21469
21431
21400
21376
21355
21337
21321
21308
21294
21281
21268
21257
21251
21248
21244
21238
21230
21219
21201
21177
21148
21115
21080
21039
20992
20938
20882
20827
20772
20717
20662
20607
20550
20494
20440
20387
20335
20287
20239
20189
20136
20080
20023
19969
19919
19871
19825
19777
19727
19679
19638
19600
19558
19514
19469
19423
19375
19328
19283
19244
19208
19173
19141
19109
19076
19037
18992
18942
18886
18827
18766
18704
18641
18578
18515
18451
18386
18320
18255
18193
18134
18080
18037
18008
17991
17986
17997
18031
18092
18187
18319
18489
18692
18926
19184
19461
19748
20036
20323
20604
20875
21131
21370
21585
21774
21941
22089
22216
22325
22417
22494
22556
22605
22641
22664
22674
22679
22681
22681
22682
22683
22681
22677
22674
22673
22672
22669
22661
22644
22616
22581
22541
22500
22453
22398
22339
22283
22228
22173
22119
22066
22014
21968
21928
21892
21862
21837
21814
21795
21780
21769
21760
21750
21737
21723
21707
21692
21679
21665
21645
21620
21593
21561
21523
21482
21443
21402
21356
21307
21256
21202
21145
21084
21020
20955
20896
20843
20790
20733
20673
20614
20558
20501
20443
20387
20330
20274
20221
20171
20125
20083
20045
20007
19963
19916
19874
19836
19796
19755
19712
19665
19616
19570
19528
19488
19449
19406
19359
19309
19256
19200
19144
19091
19038
18981
18921
18859
18798
18738
18678
18617
18550
18478
18408
18341
18279
18226
18190
18177
18188
18227
18300
18408
18550
18725
18931
19164
19419
19690
19970
20252
20533
20806
21067
21314
21543
21751
21936
22097
22236
22352
22445
22517
22570
22608
22634
22648
22654
22654
22648
22638
22623
22603
22580
22556
22536
22521
22507
22494
22478
22456
22427
22388
22339
22285
22228
22169
22111
22054
21999
21948
21900
21857
21817
21777
21739
21705
21674
21646
21626
21615
21610
21607
21607
21609
21608
21605
21601
21597
21590
21581
21570
21557
21538
21512
21481
21449
21413
21372
21327
21275
21216
21151
21081
21008
20935
20863
20793
20726
20659
20592
20526
20465
20412
20369
20333
20299
20259
20214
20169
20124
20081
20043
20007
19971
19935
19900
19864
19825
19785
19740
19695
19653
19611
19568
19524
19478
19428
19374
19318
19263
19214
19169
19122
19077
19033
18985
18934
18881
18824
18760
18693
18632
18580
18536
18498
18470
18461
18469
18495
18545
18626
18741
18888
19066
19275
19509
19761
20024
20294
20565
20829
21081
21319
21539
21739
21918
22078
22217
22337
22437
22519
22583
22630
22661
22677
22681
22673
22660
22642
22618
22591
22564
22534
22507
22481
22453
22422
22392
22360
22321
22274
22219
22160
22102
22043
21982
21923
21865
21808
21753
21703
21657
21618
21586
21563
21545
21532
21523
21520
21520
21522
21525
21528
21533
21535
21533
21527
21519
21509
21498
21481
21458
21427
21391
21352
21312
21269
21223
21173
21116
21057
20996
20932
20864
20797
20733
20671
20610
20553
20499
20447
20393
20336
20279
20224
20172
20120
20071
20027
19984
19938
19889
19841
19796
19755
19719
19686
19654
19620
19585
19548
19510
19470
19427
19386
19346
19306
19262
19212
19158
19105
19050
18995
18939
18884
18826
18767
18707
18647
18588
18532
18477
18428
18392
18370
18365
18382
18427
18506
18623
18773
18955
19166
19402
19661
19937
20222
20511
20799
21083
21353
21608
21844
22060
22257
22435
22589
22722
22838
22938
23019
23079
23123
23157
23183
23198
23203
23201
23197
23194
23195
23198
23201
23202
23201
23197
23191
23182
23169
23154
23136
23111
23078
23037
22990
22934
22871
22807
22742
22679
22621
22567
22520
22480
22448
22425
22411
22403
22399
22397
22397
22396
22397
22399
22401
22400
22393
22380
22362
22337
22308
22277
22240
22197
22149
22099
22048
21995
21939
21882
21824
21766
21709
21652
21598
21548
21503
21459
21412
21361
21305
21244
21178
21112
21048
20990
20936
20887
20840
20790
20737
20686
20639
20594
20553
20512
20470
20425
20377
20331
20293
20260
20230
20199
20163
20121
20075
20025
19977
19931
19885
19840
19795
19746
19695
19639
19579
19518
19454
19387
19316
19246
19179
19116
19059
19011
18976
18955
18953
18978
19034
19123
19248
19409
19605
19835
20093
20371
20664
20968
21274
21573
21860
22130
22381
22614
22828
23015
23178
23319
23442
23551
23643
23721
23787
23839
23874
23895
23908
23917
23922
23926
23929
23930
23932
23933
23935
23936
23932
23924
23910
23891
23863
23826
23781
23731
23674
23614
23555
23495
23431
23363
23294
23225
23157
23095
23043
23002
22965
22931
22896
22864
22836
22812
22789
22766
22743
22724
22706
22689
22669
22648
22625
22604
22585
22565
22542
22514
22483
22451
22414
22373
22327
22276
22223
22168
22115
22062
22009
21951
21889
21826
21762
21698
21636
21579
21526
21474
21423
21375
21331
21288
21248
21210
21172
21131
21088
21046
21004
20960
20915
20870
20827
20788
20753
20720
20685
20645
20602
20556
20507
20454
20402
20354
20306
20256
20201
20144
20082
20016
19948
19882
19817
19752
19688
19626
19566
19506
19449
19396
19356
19336
19340
19369
19421
19500
19611
19754
19926
20128
20358
20609
20877
21158
21444
21730
22009
22280
22538
22778
23000
23202
23380
23534
23669
23783
23874
23942
23993
24032
24060
24080
24090
24093
24093
24089
24084
24078
24068
24055
24045
24038
24030
24016
23993
23963
23929
23893
23856
23814
23763
23703
23634
23561
23483
23406
23335
23272
23214
23164
23123
23089
23059
23034
23016
23003
22989
22973
22959
22949
22943
22936
22926
22910
22890
22866
22842
22816
22784
22743
22696
22649
22603
22553
22499
22443
22385
22325
22265
22205
22142
22075
22007
21937
21866
21796
21728
21662
21599
21542
21485
21426
21363
21301
21239
21174
21110
21048
20991
20939
20890
20844
20802
20760
20712
20661
20607
20555
20506
20461
20415
20366
20314
20258
20201
20144
20087
20032
19979
19925
19871
19815
19760
19706
19646
19578
19506
19433
19360
19286
19210
19129
19050
18975
18902
18828
18755
18685
18625
18579
18555
18560
18601
18680
18802
18966
19173
19419
19694
19987
20291
20603
20915
21221
21518
21803
22070
22314
22534
22728
22892
23029
23144
23240
23319
23378
23416
23431
23427
23410
23388
23364
23336
23304
23270
23233
23195
23158
23121
23085
23049
23014
22979
22938
22889
22834
22772
22705
22631
22553
22479
22410
22345
22286
22235
22193
22157
22126
22102
22084
22070
22059
22054
22055
22056
22055
22053
22053
22053
22053
22053
22050
22040
22022
21997
21966
21930
21891
21848
21796
21735
21669
21601
21529
21457
21388
21318
21247
21173
21095
21017
20939
20862
20786
20714
20644
20574
20508
20447
20390
20334
20276
20217
20155
20092
20028
19965
19902
19842
19787
19737
19688
19638
19588
19539
19489
19439
19390
19339
19287
19236
19186
19134
19079
19024
18970
18916
18864
18811
18754
18693
18630
18564
18495
18424
18351
18278
18206
18135
18064
17999
17943
17904
17890
17907
17963
18060
18201
18386
18609
18867
19149
19448
19757
20072
20389
20703
21008
21290
21550
21786
21996
22183
22344
22477
22582
22662
22722
22762
22783
22789
22786
22773
22749
22719
22687
22654
22619
22586
22553
22519
22485
22453
22418
22377
22326
22265
22199
22127
22051
21973
21898
21825
21753
21681
21612
21548
21492
21447
21415
21393
21380
21378
21384
21390
21393
21396
21400
21401
21395
21383
21369
21353
21331
21307
21280
21252
21219
21183
21145
21102
21051
20996
20944
20890
20831
20771
20710
20648
20585
20519
20447
20371
20291
20207
20122
20040
19961
19884
19808
19733
19662
19596
19534
19474
19417
19359
19302
19249
19195
19142
19089
19035
18981
18926
18871
18820
18770
18716
18660
18604
18548
18494
18441
18386
18329
18271
18215
18163
18107
18042
17975
17910
17847
17780
17708
17634
17558
17482
17408
17336
17266
17199
17139
17088
17046
17022
17025
17061
17134
17249
17408
17611
17854
18130
18430
18748
19076
19405
19731
20053
20364
20660
20935
21186
21411
21614
21792
21946
22078
22187
22272
22340
22394
22432
22458
22472
22475
22469
22457
22440
22421
22404
22388
22372
22352
22326
22297
22270
22242
22209
22168
22123
22073
22018
21957
21889
21816
21738
21651
21559
21469
21387
21317
21259
21211
21172
21141
21117
21101
21091
21087
21087
21091
21097
21105
21112
21113
21105
21090
21069
21042
21011
20978
20942
20903
20862
20816
20767
20720
20670
20616
20560
20505
20450
20389
20322
20251
20178
20104
20030
19957
19884
19813
19745
19680
19619
19561
19504
19446
19385
19324
19267
19214
19162
19111
19064
19017
18969
18917
18859
18800
18742
18687
18634
18583
18534
18485
18435
18384
18333
18280
18226
18173
18123
18071
18016
17958
17895
17827
17758
17690
17624
17559
17494
17428
17359
17286
17210
17134
17058
16982
16909
16845
16794
16756
16735
16740
16777
16851
16961
17107
17288
17502
17746
18018
18316
18630
18955
19283
19609
19924
20223
20505
20766
21003
21213
21398
21557
21690
21797
21883
21950
22002
22040
22066
22082
22093
22099
22102
22101
22101
22106
22113
22119
22123
22123
22118
22110
22095
22071
22037
21996
21949
21893
21832
21766
21697
21627
21559
21494
21434
21382
21341
21309
21284
21266
21251
21236
21222
21209
21198
21189
21184
21182
21178
21171
21163
21154
21145
21134
21121
21105
21082
21051
21011
20962
20906
20847
20786
20722
20656
20588
20517
20445
20375
20307
20240
20174
20110
20044
19976
19908
19844
19783
19723
19664
19605
19546
19488
19433
19378
19325
19271
19214
19160
19108
19057
19005
18953
18902
18851
18797
18740
18680
18622
18568
18514
18464
18416
18369
18319
18266
18212
18159
18108
18053
17994
17933
17870
17805
17737
17673
17612
17549
17481
17404
17321
17236
17152
17071
16993
16919
16846
16774
16702
16630
16566
16520
16497
16499
16532
16605
16723
16888
17096
17342
17620
17923
18245
18580
18921
19258
19589
19907
20205
20481
20733
20957
21156
21330
21477
21598
21696
21771
21827
21863
21882
21886
21878
21862
21843
21823
21800
21774
21750
21729
21709
21687
21664
21638
21607
21570
21527
21477
21421
21359
21296
21231
21161
21090
21022
20957
20897
20844
20797
20757
20724
20699
20679
20665
20658
20653
20646
20642
20639
20635
20629
20624
20619
20614
20605
20590
20571
20548
20521
20488
20452
20413
20367
20313
20252
20186
20116
20040
19962
19883
19805
19728
19652
19576
19501
19426
19352
19279
19204
19133
19064
18996
18925
18853
18780
18710
18645
18581
18518
18460
18404
18344
18285
18230
18179
18129
18079
18028
17977
17927
17878
17830
17781
17733
17686
17635
17580
17525
17469
17412
17353
17293
17233
17171
17107
17041
16969
16889
16801
16710
16620
16535
16456
16380
16303
16226
16150
16077
16014
15963
15928
15917
15936
15989
16085
16229
16417
16647
16913
17210
17528
17858
18195
18531
18859
19170
19461
19729
19970
20185
20376
20541
20677
20785
20870
20932
20968
20983
20984
20971
20945
20910
20868
20825
20782
20739
20696
20650
20599
20545
20487
20424
20358
20290
20218
20139
20056
19976
19901
19830
19762
19697
19636
19579
19528
19485
19450
19423
19400
19382
19371
19365
19362
19365
19374
19386
19397
19407
19409
19404
19396
19386
19372
19351
19321
19285
19244
19199
19152
19102
19047
18990
18931
18870
18806
18739
18667
18588
18505
18420
18337
18257
18178
18101
18029
17959
17888
17816
17744
17674
17608
17545
17485
17427
17370
17319
17273
17230
17185
17135
17083
17029
16974
16921
16867
16812
16756
16705
16658
16613
16566
16518
16469
16423
16379
16334
16284
16232
16176
16115
16052
15988
15924
15857
15790
15722
15654
15585
15511
15435
15360
15288
15218
15150
15093
15054
15040
15060
15115
15209
15345
15526
15749
16011
16306
16626
16963
17309
17652
17984
18302
18601
18880
19139
19378
19591
19773
19926
20054
20160
20243
20308
20354
20386
20403
20404
20393
20374
20352
20330
20308
20284
20256
20222
20182
20137
20090
20042
19996
19947
19894
19836
19775
19712
19649
19585
19521
19460
19404
19355
19312
19274
19240
19215
19199
19190
19187
19190
19195
19201
19210
19221
19230
19235
19236
19237
19236
19228
19209
19183
19155
19123
19087
19043
18995
18943
18888
18832
18774
18711
18643
18570
18497
18425
18349
18265
18181
18099
18022
17949
17881
17814
17750
17690
17629
17564
17498
17432
17363
17292
17224
17161
17103
17048
16996
16945
16892
16837
16784
16735
16687
16644
16604
16565
16525
16482
16436
16389
16344
16301
16261
16223
16181
16133
16082
16028
15970
15908
15848
15788
15726
15661
15593
15519
15443
15366
15291
15218
15144
15074
15009
14952
14909
14888
14896
14940
15025
15156
15332
15554
15820
16123
16455
16807
17168
17531
17890
18240
18575
18892
19186
19454
19694
19906
20090
20248
20379
20486
20572
20636
20681
20708
20723
20727
20723
20716
20705
20692
20680
20667
20655
20646
20635
20620
20603
20583
20562
20538
20506
20469
20429
20383
20332
20275
20214
20152
20091
20032
19978
19931
19890
19856
19828
19807
19787
19765
19743
19725
19714
19706
19697
19686
19675
19663
19650
19633
19612
19588
19561
19530
19496
19459
19421
19382
19338
19289
19238
19188
19135
19079
19021
18955
18881
18803
18726
18653
18581
18509
18434
18357
18282
18208
18136
18068
18005
17943
17877
17808
17737
17667
17598
17533
17472
17411
17353
17298
17244
17189
17133
17076
17020
16966
16915
16863
16811
16757
16705
16652
16596
16537
16477
16417
16357
16296
16233
16169
16100
16028
15954
15881
15809
15737
15663
15588
15513
15441
15378
15329
15299
15293
15318
15382
15493
15654
15862
16112
16396
16704
17034
17380
17731
18079
18420
18748
19057
19346
19614
19859
20075
20262
20420
20551
20653
20730
20786
20826
20850
20860
20861
20855
20843
20826
20806
20782
20755
20723
20693
20669
20650
20630
20608
20585
20560
20529
20490
20445
20394
20337
20274
20205
20135
20068
20004
19945
19890
19840
19798
19761
19729
19703
19685
19672
19660
19648
19641
19639
19642
19646
19651
19654
19656
19656
19650
19634
19606
19571
19528
19477
19417
19353
19286
19218
19150
19082
19015
18946
18873
18798
18725
18653
18581
18509
18439
18373
18307
18243
18185
18129
18077
18027
17977
17927
17878
17828
17779
17730
17686
17643
17600
17555
17509
17462
17418
17374
17331
17290
17248
17204
17157
17108
17057
16999
16938
16880
16823
16765
16707
16651
16593
16534
16472
16406
16338
16270
16202
16138
16080
16032
15999
15988
16009
16066
16163
16301
16484
16712
16978
17275
17596
17931
18269
18602
18922
19227
19514
19780
20023
20242
20437
20605
20744
20855
20940
21000
21037
21060
21071
21070
21056
21030
20999
20965
20928
20892
20856
20817
20777
20739
20702
20665
20623
20577
20525
20467
20405
20338
20268
20196
20128
20068
20014
19965
19924
19892
19866
19844
19828
19819
19818
19823
19833
19845
19856
19865
19872
19874
19872
19866
19858
19845
19826
19804
19781
19755
19722
19680
19629
19574
19516
19459
19405
19353
19297
19239
19180
19122
19060
18993
18925
18857
18792
18728
18669
18614
18558
18501
18449
18401
18355
18310
18266
18224
18182
18140
18098
18051
18001
17950
17897
17845
17795
17747
17700
17651
17603
17558
17511
17462
17406
17346
17285
17225
17166
17111
17057
17000
16940
16879
16820
16765
16716
16678
16657
16658
16686
16748
16846
16977
17141
17340
17571
17831
18114
18416
18727
19040
19350
19651
19937
20205
20453
20678
20879
21056
21212
21348
21461
21553
21626
21678
21710
21729
21737
21739
21734
21723
21709
21695
21681
21669
21660
21654
21643
21627
21607
21584
21557
21522
21477
21426
21374
21321
21267
21211
21157
21103
21051
21003
20958
20920
20887
20859
20836
20820
20810
20807
20812
20819
20825
20825
20818
20810
20802
20791
20777
20760
20742
20720
20695
20669
20639
20601
20559
20516
20469
20414
20353
20288
20218
20142
20065
19990
19917
19847
19778
19710
19644
19583
19529
19479
19434
19390
19341
19286
19225
19165
19110
19060
19016
18974
18933
18891
18850
18814
18783
18751
18715
18677
18637
18593
18546
18495
18441
18385
18328
18268
18206
18144
18081
18019
17958
17899
17839
17779
17723
17671
17625
17585
17551
17532
17533
17557
17606
17686
17798
17947
18134
18355
18608
18885
19179
19483
19793
20107
20416
20712
20991
21251
21491
21707
21903
22081
22239
22376
22491
22586
22663
22726
22777
22819
22852
22877
22898
22916
22931
22941
22950
22960
22968
22973
22976
22976
22970
22956
22936
22915
22892
22866
22833
22790
22741
22688
22633
22576
22518
22461
22408
22360
22315
22276
22246
22225
22209
22196
22185
22173
22159
22148
22138
22129
22119
22108
22098
22084
22061
22033
22002
21969
21936
21899
21856
21808
21755
21699
21641
21582
21523
21462
21403
21342
21279
21213
21148
21083
21019
20954
20891
20828
20768
20710
20656
20605
20556
20508
20458
20406
20355
20305
20255
20204
20156
20109
20062
20015
19970
19930
19893
19861
19828
19791
19749
19701
19651
19600
19548
19490
19425
19358
19290
19221
19153
19091
19033
18974
18913
18851
18790
18731
18672
18613
18561
18521
18498
18495
18514
18557
18631
18740
18887
19072
19290
19537
19807
20100
20409
20724
21035
21339
21633
21912
22173
22415
22635
22832
23006
23155
23276
23372
23446
23504
23550
23588
23621
23644
23657
23668
23680
23691
23700
23708
23715
23724
23731
23732
23728
23721
23712
23699
23680
23652
23613
23562
23502
23436
23367
23294
23221
23153
23092
23039
22994
22956
22922
22894
22873
22856
22842
22830
22823
22819
22816
22809
22797
22779
22759
22741
22723
22698
22669
22638
22606
22568
22524
22474
22420
22361
22299
22235
22172
22111
22047
21984
21925
21867
21807
21743
21677
21610
21539
21466
21393
21321
21252
21189
21133
21080
21026
20973
20922
20871
20819
20769
20720
20673
20625
20575
20525
20476
20428
20380
20331
20279
20226
20169
20112
20054
19996
19937
19875
19810
19740
19668
19600
19534
19471
19411
19351
19286
19217
19145
19071
18993
18914
18831
18748
18664
18578
18490
18404
18323
18247
18175
18109
18052
18009
17983
17983
18017
18092
18212
18381
18597
18853
19143
19460
19796
20145
20501
20854
21198
21527
21833
22114
22368
22595
22797
22970
23118
23239
23335
23407
23462
23503
23531
23547
23552
23551
23545
23539
23531
23522
23513
23508
23508
23512
23514
23510
23501
23486
23461
23423
23378
23328
23270
23205
23133
23059
22987
22916
22848
22784
22724
22669
22622
22582
22551
22530
22516
22505
22496
22488
22479
22471
22465
22459
22451
22439
22425
22406
22382
22351
22316
22278
22238
22197
22151
22100
22044
21984
21921
21857
21789
21717
21645
21575
21506
21434
21359
21287
21216
21147
21077
21009
20942
20875
20810
20747
20687
20629
20574
20521
20468
20415
20362
20307
20255
20208
20163
20121
20080
20036
19986
19932
19879
19828
19777
19726
19676
19630
19587
19542
19492
19436
19378
19321
19261
19197
19128
19059
18990
18917
18844
18771
18699
18627
18554
18479
18404
18326
18246
18174
18114
18074
18057
18070
18115
18198
18325
18502
18725
18990
19287
19605
19937
20278
20620
20950
21263
21555
21823
22063
22276
22465
22629
22765
22874
22961
23027
23075
23110
23131
23136
23125
23105
23079
23051
23023
22998
22976
22954
22931
22904
22874
22837
22792
22743
22689
22631
22568
22501
22429
22353
22278
22208
22144
22085
22033
21986
21943
21903
21872
21853
21841
21838
21840
21845
21852
21859
21865
21867
21864
21857
21847
21835
21822
21803
21781
21757
21728
21689
21643
21593
21538
21478
21414
21345
21270
21190
21111
21035
20963
20895
20827
20760
20694
20627
20559
20491
20426
20364
20303
20243
20183
20121
20057
19991
19927
19868
19811
19755
19699
19645
19593
19540
19488
19439
19395
19352
19310
19267
19226
19186
19148
19107
19064
19017
18965
18910
18854
18797
18735
18670
18604
18540
18476
18408
18334
18257
18181
18109
18039
17968
17896
17826
17762
17703
17654
17617
17595
17591
17614
17674
17776
17923
18114
18344
18610
18906
19225
19561
19904
20246
20582
20908
21215
21498
21756
21992
22203
22392
22562
22712
22839
22942
23022
23082
23126
23158
23178
23187
23188
23182
23171
23159
23149
23142
23138
23136
23138
23137
23131
23117
23097
23070
23034
22985
22927
22862
22795
22727
22659
22592
22528
22465
22405
22349
22301
22263
22234
22210
22189
22169
22152
22138
22129
22125
22121
22116
22109
22100
22089
22074
22053
22024
21988
21946
21900
21854
21806
21754
21698
21638
21573
21502
21428
21355
21282
21208
21133
21057
20977
20897
20821
20755
20694
20634
20571
20505
20438
20373
20311
20249
20189
20131
20076
20021
19966
19910
19856
19803
19751
19698
19644
19587
19529
19476
19425
19375
19323
19266
19208
19152
19101
19050
18998
18947
18897
18849
18802
18755
18705
18652
18595
18539
18481
18419
18354
18287
18217
18142
18066
17990
17914
17833
17751
17672
17600
17537
17486
17450
17432
17433
17458
17518
17621
17770
17965
18210
18500
18824
19173
19538
19910
20279
20637
20981
21304
21605
21881
22131
22350
22538
22697
22830
22938
23024
23093
23147
23187
23216
23237
23251
23256
23254
23251
23249
23247
23243
23238
23232
23226
23222
23214
23201
23183
23158
23125
23082
23030
22971
22908
22842
22771
22702
22640
22583
22526
22467
22412
22365
22325
22290
22258
22234
22215
22199
22186
22175
22164
22153
22140
22123
22104
22082
22054
22020
21984
21947
21906
21862
21814
21765
21712
21656
21596
21533
21469
21400
21325
21249
21171
21093
21014
20936
20859
20779
20696
20613
20534
20456
20381
20308
20234
20160
20091
20026
19963
19898
19833
19768
19702
19634
19564
19496
19428
19362
19295
19227
19158
19093
19031
18968
18904
18843
18785
18727
18666
18602
18536
18468
18400
18333
18266
18195
18121
18046
17972
17895
17811
17725
17639
17553
17463
17370
17277
17185
17093
17002
16913
16826
16741
16659
16584
16518
16470
16448
16462
16519
16626
16786
16999
17264
17577
17932
18318
18724
19140
19556
19961
20346
20706
21034
21329
21588
21810
21999
22156
22285
22388
22467
22524
22562
22582
22589
22583
22567
22550
22530
22509
22488
22468
22451
22432
22411
22389
22367
22342
22310
22275
22240
22199
22150
22093
22029
21956
21877
21798
21721
21648
21577
21511
21448
21390
21339
21296
21262
21235
21212
21193
21177
21166
21160
21160
21162
21162
21158
21149
21134
21113
21083
21046
21001
20949
20894
20838
20779
20713
20639
20560
20477
20389
20299
20215
20133
20049
19966
19883
19797
19708
19618
19530
19446
19367
19289
19211
19130
19044
18957
18874
18793
18717
18644
18574
18506
18439
18372
18307
18242
18175
18108
18042
17976
17911
17849
17789
17726
17660
17593
17526
17459
17393
17326
17260
17195
17130
17064
16996
16926
16855
16783
16708
16626
16540
16452
16363
16272
16183
16094
16008
15923
15843
15774
15721
15688
15685
15719
15798
15927
16111
16348
16638
16977
17358
17770
18200
18636
19066
19477
19860
20207
20515
20781
21010
21205
21368
21500
21603
21680
21732
21760
21769
21766
21757
21739
21711
21677
21642
21604
21564
21524
21483
21442
21398
21349
21295
21235
21169
21098
21022
20938
20849
20755
20659
20565
20477
20397
20328
20268
20214
20166
20129
20104
20091
20085
20087
20097
20112
20129
20144
20156
20165
20170
20167
20155
20136
20110
20079
20046
20012
19974
19930
19878
19823
19763
19697
19627
19555
19477
19392
19306
19220
19133
19042
18951
18858
18766
18678
18597
18520
18445
18369
18293
18218
18145
18076
18009
17944
17879
17814
17749
17685
17621
17560
17498
17435
17373
17314
17258
17205
17156
17108
17062
17016
16965
16910
16850
16787
16724
16663
16600
16532
16458
16377
16293
16212
16131
16051
15972
15891
15809
15729
15654
15584
15519
15465
15428
15415
15433
15489
15595
15755
15969
16238
16557
16919
17313
17725
18145
18563
18971
19362
19728
20060
20355
20612
20833
21021
21178
21305
21402
21474
21526
21558
21574
21574
21564
21549
21528
21500
21468
21432
21394
21354
21315
21275
21236
21199
21161
21119
21072
21019
20960
20895
20826
20755
20683
20611
20543
20478
20419
20364
20312
20264
20224
20191
20165
20145
20132
20125
20126
20133
20141
20146
20146
20141
20130
20112
20090
20067
20043
20015
19979
19936
19889
19835
19775
19716
19656
19590
19517
19440
19360
19275
19185
19097
19012
18929
18845
18763
18683
18602
18519
18435
18351
18267
18185
18106
18029
17954
17881
17813
17752
17698
17647
17598
17547
17495
17440
17385
17330
17273
17217
17161
17106
17053
17003
16955
16906
16855
16804
16752
16697
16638
16576
16511
16438
16361
16281
16200
16119
16037
15955
15871
15788
15715
15661
15631
15631
15666
15740
15857
16023
16242
16514
16832
17193
17586
17996
18412
18821
19217
19595
19948
20270
20562
20825
21060
21264
21441
21593
21717
21813
21881
21927
21956
21970
21973
21970
21962
21951
21935
21916
21898
21886
21879
21870
21859
21846
21830
21810
21786
21759
21730
21695
21654
21606
21553
21495
21433
21371
21311
21255
21201
21152
21108
21067
21029
20996
20969
20946
20923
20904
20890
20879
20870
20863
20856
20846
20833
20817
20795
20768
20736
20698
20658
20614
20566
20515
20462
20403
20338
20271
20201
20128
20055
19981
19907
19831
19755
19681
19606
19534
19466
19398
19328
19255
19182
19112
19043
18979
18919
18859
18799
18739
18679
18624
18574
18526
18478
18429
18377
18327
18278
18231
18183
18135
18088
18041
17992
17942
17889
17833
17770
17704
17637
17570
17502
17434
17364
17290
17213
17138
17063
16987
16911
16841
16779
16724
16679
16649
16639
16655
16705
16797
16933
17114
17341
17611
17915
18248
18603
18968
19332
19686
20026
20347
20644
20916
21159
21377
21567
21726
21859
21971
22061
22129
22180
22217
22243
22257
22260
22256
22247
22234
22219
22202
22186
22172
22161
22153
22146
22140
22131
22115
22085
22044
21993
21937
21879
21819
21756
21688
21621
21557
21499
21444
21392
21343
21300
21262
21228
21202
21183
21169
21157
21147
21138
21126
21109
21090
21071
21055
21039
21021
20998
20968
20934
20896
20854
20810
20765
20713
20655
20590
20520
20447
20374
20299
20225
20151
20076
19995
19910
19824
19740
19659
19583
19509
19433
19357
19284
19215
19149
19085
19022
18962
18903
18844
18782
18719
18657
18597
18541
18485
18429
18373
18318
18268
18221
18170
18117
18062
18003
17938
17870
17802
17732
17660
17586
17513
17442
17371
17301
17228
17150
17069
16987
16907
16827
16746
16670
16604
16553
16520
16511
16532
16585
16678
16817
17007
17248
17533
17854
18204
18573
18948
19319
19676
20012
20320
20600
20851
21075
21268
21429
21554
21649
21723
21778
21817
21842
21855
21857
21852
21838
21818
21795
21772
21749
21727
21704
21678
21646
21611
21573
21534
21494
21454
21412
21364
21309
21249
21186
21118
21049
20981
20912
20844
20783
20731
20688
20653
20627
20611
20601
20595
20590
20586
20586
20588
20589
20589
20588
20587
20583
20573
20559
20540
20518
20493
20463
20427
20384
20332
20274
20215
20156
20093
20028
19960
19886
19804
19723
19647
19574
19500
19424
19348
19274
19205
19140
19078
19017
18956
18897
18840
18785
18732
18679
18624
18567
18513
18465
18420
18371
18320
18270
18220
18168
18112
18057
18002
17946
17890
17833
17776
17714
17649
17583
17517
17450
17379
17303
17226
17149
17073
17003
16948
16917
16910
16930
16982
17069
17195
17363
17571
17814
18086
18382
18695
19019
19345
19668
19981
20274
20540
20777
20983
21161
21313
21437
21535
21610
21662
21695
21712
21718
21712
21697
21674
21645
21612
21579
21545
21512
21479
21444
21406
21364
21320
21271
21216
21158
21098
21032
20960
20886
20811
20736
20662
20592
20528
20473
20424
20383
20348
20323
20306
20296
20291
20293
20299
20309
20323
20339
20350
20353
20351
20341
20324
20300
20275
20247
20217
20183
20146
20105
20060
20007
19949
19885
19816
19739
19659
19580
19501
19422
19343
19268
19195
19125
19057
18989
18923
18859
18799
18741
18684
18627
18569
18512
18455
18400
18349
18303
18261
18219
18174
18128
18084
18042
18001
17961
17920
17873
17820
17765
17711
17658
17605
17548
17486
17423
17357
17290
17225
17161
17096
17033
16972
16918
16874
16844
16833
16847
16893
16979
17109
17285
17507
17767
18059
18374
18704
19041
19377
19709
20030
20334
20615
20867
21089
21286
21459
21605
21723
21814
21883
21933
21971
22000
22019
22028
22027
22017
22002
21982
21961
21942
21926
21913
21898
21881
21865
21849
21831
21810
21782
21745
21701
21649
21593
21536
21479
21422
21367
21311
21260
21218
21184
21156
21134
21117
21101
21086
21074
21067
21063
21064
21068
21069
21065
21056
21042
21021
20997
20972
20944
20914
20883
20848
20811
20773
20734
20692
20643
20586
20523
20456
20384
20310
20234
20157
20080
20005
19932
19858
19786
19717
19652
19591
19533
19479
19428
19379
19334
19292
19251
19208
19162
19113
19068
19029
18994
18961
18924
18887
18852
18816
18775
18725
18671
18615
18555
18491
18427
18366
18307
18250
18196
18144
18089
18032
17973
17914
17859
17806
17754
17707
17672
17656
17663
17693
17753
17851
17988
18163
18376
18623
18899
19199
19517
19841
20159
20468
20764
21043
21302
21536
21750
21945
22112
22251
22368
22468
22554
22621
22671
22705
22726
22738
22740
22737
22730
22721
22711
22701
22693
22684
22674
22667
22661
22655
22642
22620
22588
22547
22499
22450
22401
22351
22298
22240
22179
22117
22060
22009
21965
21930
21903
21882
21869
21859
21848
21838
21830
21822
21814
21806
21796
21784
21771
21758
21743
21726
21705
21682
21654
21620
21581
21538
21488
21431
21369
21303
21238
21174
21111
21047
20981
20915
20847
20781
20716
20654
20597
20543
20491
20436
20378
20317
20255
20193
20133
20073
20016
19964
19911
19855
19798
19747
19701
19658
19613
19568
19522
19473
19420
19364
19307
19250
19192
19130
19065
18998
18929
18858
18788
18721
18656
18588
18517
18443
18369
18295
18222
18149
18077
18007
17941
17886
17848
17834
17851
17906
18004
18145
18330
18554
18813
19098
19404
19723
20049
20377
20701
21012
21302
21569
21811
22028
22223
22395
22543
22666
22763
22838
22895
22938
22966
22979
22980
22972
22962
22949
22933
22912
22890
22871
22857
22843
22827
22807
22784
22757
22723
22683
22636
22585
22532
22472
22407
22341
22274
22207
22142
22082
22026
21975
21932
21896
21867
21843
21827
21819
21818
21819
21822
21825
21827
21823
21813
21798
21778
21754
21729
21700
21664
21622
21577
21530
21480
21424
21363
21303
21242
21179
21114
21045
20971
20892
20812
20732
20651
20572
20495
20420
20346
20274
20206
20140
20078
20021
19968
19915
19860
19805
19750
19695
19641
19587
19533
19480
19426
19369
19312
19254
19194
19135
19077
19017
18954
18892
18831
18768
18698
18628
18559
18486
18406
18327
18247
18164
18078
17992
17907
17826
17753
17688
17635
17598
17582
17597
17650
17749
17900
18102
18348
18631
18944
19280
19629
19979
20319
20645
20952
21240
21501
21733
21931
22098
22237
22351
22439
22506
22554
22580
22586
22574
22550
22520
22485
22450
22416
22384
22354
22327
22297
22260
22218
22173
22126
22075
22018
21954
21884
21811
21734
21655
21578
21503
21430
21364
21309
21261
21218
21184
21160
21143
21129
21119
21112
21113
21119
21132
21148
21165
21177
21184
21187
21182
21164
21135
21098
21057
21015
20973
20927
20875
20819
20758
20695
20631
20563
20495
20425
20354
20283
20211
20136
20057
19979
19904
19830
19758
19689
19623
19558
19496
19437
19380
19325
19271
19218
19167
19120
19075
19028
18979
18931
18885
18838
18784
18728
18675
18623
18570
18515
18456
18394
18329
18262
18193
18121
18048
17977
17906
17839
17774
17715
17667
17633
17616
17624
17661
17731
17837
17983
18170
18394
18652
18938
19244
19560
19877
20187
20488
20776
21047
21298
21526
21728
21901
22041
22153
22239
22305
22352
22384
22400
22402
22394
22378
22354
22327
22298
22266
22232
22197
22158
22114
22063
22007
21949
21891
21831
21767
21701
21634
21562
21485
21408
21334
21264
21201
21146
21099
21058
21026
21001
20984
20971
20964
20963
20962
20960
20959
20959
20960
20955
20945
20935
20924
20912
20894
20868
20836
20800
20759
20716
20669
20618
20566
20512
20451
20382
20309
20236
20164
20094
20023
19950
19876
19802
19729
19659
19589
19520
19454
19392
19330
19268
19206
19145
19084
19025
18970
18918
18867
18816
18762
18707
18652
18596
18539
18482
18427
18375
18325
18275
18225
18175
18119
18056
17991
17922
17851
17782
17715
17649
17582
17516
17455
17402
17361
17339
17344
17381
17449
17551
17694
17882
18111
18377
18673
18990
19320
19657
19993
20320
20632
20925
21196
21444
21667
21865
22034
22176
22293
22386
22461
22521
22566
22599
22623
22638
22643
22640
22637
22633
22625
22615
22604
22595
22587
22580
22572
22560
22544
22522
22492
22453
22402
22343
22277
22204
22130
22057
21987
21921
21862
21810
21763
21721
21686
21658
21639
21627
21614
21599
21586
21573
21558
21544
21531
21516
21499
21481
21460
21434
21402
21365
21322
21274
21224
21173
21119
21063
21006
20944
20879
20811
20746
20682
20614
20544
20476
20409
20340
20271
20202
20135
20070
20003
19937
19874
19815
19757
19700
19645
19592
19542
19493
19447
19403
19357
19304
19247
19190
19134
19078
19023
18966
18905
18844
18783
18726
18674
18621
18565
18504
18437
18365
18291
18217
18145
18079
18018
17959
17900
17845
17807
17789
17797
17836
17910
18022
18173
18362
18588
18845
19124
19418
19721
20023
20318
20601
20868
21118
21352
21569
21763
21934
22084
22211
22317
22401
22468
22523
22566
22594
22607
22608
22604
22597
22588
22579
22570
22558
22545
22535
22528
22519
22506
22486
22458
22425
22390
22349
22301
22245
22184
22120
22055
21992
21932
21874
21814
21756
21704
21663
21631
21608
21589
21572
21557
21546
21538
21530
21523
21517
21509
21496
21478
21457
21436
21412
21383
21351
21316
21281
21243
21199
21147
21086
21021
20953
20880
20807
20737
20670
20605
20540
20477
20419
20364
20309
20254
20199
20142
20084
20025
19968
19911
19854
19800
19748
19697
19647
19597
19547
19497
19447
19399
19351
19303
19256
19213
19174
19134
19089
19042
18994
18943
18891
18839
18786
18731
18677
18623
18569
18512
18452
18389
18324
18258
18195
18133
18073
18016
17962
17918
17888
17880
17901
17955
18042
18166
18328
18526
18752
18998
19257
19525
19796
20067
20332
20584
20816
21028
21219
21392
21547
21683
21798
21889
21954
21999
22029
22049
22061
22065
22060
22048
22034
22018
22000
21981
21964
21945
21924
21902
21875
21845
21810
21771
21730
21688
21644
21600
21552
21500
21445
21387
21332
21282
21235
21189
21142
21099
21062
21028
20994
20965
20944
20930
20923
20919
20915
20913
20913
20913
20908
20896
20877
20854
20827
20797
20764
20730
20694
20654
20609
20563
20516
20467
20414
20359
20304
20250
20194
20135
20073
20011
19950
19890
19831
19776
19726
19679
19630
19578
19523
19469
19417
19368
19320
19272
19223
19177
19133
19091
19049
19005
18958
18909
18862
18818
18780
18742
18702
18660
18618
18573
18526
18476
18425
18373
18319
18263
18204
18144
18084
18020
17953
17886
17821
17758
17693
17625
17555
17484
17411
17345
17293
17260
17252
17275
17328
17417
17545
17712
17918
18159
18424
18700
18980
19258
19529
19792
20043
20277
20490
20680
20847
20991
21111
21204
21274
21325
21361
21381
21386
21378
21365
21351
21332
21309
21281
21251
21221
21193
21164
21133
21101
21068
21033
20995
20955
20910
20858
20800
20744
20687
20629
20571
20516
20464
20415
20370
20335
20311
20290
20275
20267
20263
20257
20254
20253
20254
20257
20264
20272
20278
20282
20283
20275
20260
20240
20216
20187
20157
20126
20091
20048
19997
19940
19885
19832
19779
19725
19673
19622
19572
19521
19469
19414
19358
19299
19240
19182
19126
19072
19020
18967
18916
18867
18819
18769
18719
18674
18637
18607
18579
18551
18519
18484
18447
18405
18362
18320
18278
18235
18194
18152
18113
18078
18045
18011
17976
17940
17898
17849
17798
17743
17685
17628
17576
17527
17479
17430
17382
17340
17314
17303
17308
17332
17385
17470
17592
17751
17942
18157
18392
18645
18906
19165
19417
19656
19881
20090
20284
20460
20610
20734
20833
20907
20962
21003
21036
21059
21067
21061
21043
21019
20989
20960
20935
20912
20888
20864
20835
20803
20766
20727
20688
20648
20604
20554
20499
20443
20389
20334
20281
20232
20188
20149
20114
20084
20055
20032
20016
20003
19991
19981
19974
19968
19967
19971
19977
19980
19983
19987
19991
19995
19996
19992
19977
19954
19924
19892
19858
19818
19772
19720
19661
19600
19538
19480
19424
19367
19312
19257
19200
19142
19085
19031
18977
18922
18865
18809
18757
18708
18663
18615
18567
18521
18475
18431
18391
18354
18319
18286
18253
18217
18179
18142
18104
18067
18030
17992
17953
17914
17874
17833
17791
17746
17701
17659
17617
17573
17528
17488
17449
17407
17362
17313
17258
17195
17127
17057
16986
16920
16859
16805
16761
16725
16698
16687
16700
16740
16812
16921
17069
17255
17479
17736
18013
18300
18593
18887
19178
19456
19714
19949
20163
20356
20529
20681
20813
20924
21012
21076
21120
21148
21163
21171
21175
21174
21165
21151
21135
21120
21104
21087
21072
21061
21053
21045
21032
21015
20997
20978
20953
20926
20898
20865
20827
20786
20743
20698
20653
20610
20568
20529
20494
20465
20440
20423
20413
20412
20415
20417
20420
20425
20428
20429
20429
20430
20428
20424
20419
20411
20400
20387
20375
20358
20333
20301
20264
20222
20176
20127
20072
20017
19962
19907
19850
19792
19736
19680
19627
19576
19526
19477
19425
19371
19315
19259
19207
19158
19113
19068
19025
18985
18949
18916
18882
18845
18804
18759
18713
18672
18638
18608
18577
18542
18506
18468
18427
18384
18344
18304
18262
18219
18173
18124
18069
18014
17962
17908
17854
17802
17748
17688
17624
17563
17506
17450
17397
17350
17308
17271
17244
17235
17247
17285
17347
17440
17566
17725
17919
18145
18396
18661
18930
19198
19461
19715
19959
20187
20393
20580
20746
20894
21022
21131
21223
21297
21353
21391
21414
21428
21435
21437
21432
21421
21404
21387
21372
21358
21344
21328
21311
21295
21280
21265
21252
21237
21215
21187
21150
21102
21047
20986
20922
20862
20806
20755
20709
20671
20639
20612
20590
20574
20562
20555
20555
20558
20560
20562
20565
20569
20572
20578
20585
20587
20582
20573
20558
20538
20512
20482
20448
20409
20364
20314
20266
20218
20168
20116
20060
19998
19931
19863
19793
19724
19654
19586
19524
19465
19408
19353
19303
19255
19208
19160
19114
19068
19022
18975
18930
18886
18845
18808
18773
18737
18700
18662
18623
18584
18543
18503
18464
18427
18391
18357
18318
18269
18216
18162
18109
18053
17994
17933
17872
17810
17745
17682
17622
17564
17508
17451
17392
17337
17292
17263
17254
17271
17320
17404
17530
17700
17910
18151
18417
18697
18985
19273
19553
19822
20078
20315
20529
20721
20890
21034
21154
21254
21336
21398
21438
21461
21470
21464
21444
21419
21393
21367
21341
21318
21298
21277
21253
21229
21202
21173
21140
21105
21068
21025
20976
20925
20869
20807
20740
20672
20606
20542
20484
20437
20400
20373
20355
20346
20346
20355
20369
20386
20406
20429
20449
20462
20470
20471
20468
20464
20460
20454
20445
20430
20406
20379
20351
20320
20285
20246
20204
20157
20108
20053
19994
19934
19876
19818
19759
19696
19629
19562
19500
19441
19384
19328
19273
19220
19170
19119
19064
19007
18952
18903
18859
18817
18775
18735
18696
18656
18615
18572
18529
18490
18453
18416
18379
18339
18296
18251
18208
18167
18126
18079
18027
17969
17908
17850
17795
17742
17691
17643
17598
17559
17531
17516
17520
17548
17605
17694
17818
17980
18177
18407
18660
18928
19207
19490
19768
20030
20271
20491
20691
20871
21031
21171
21291
21391
21473
21539
21588
21618
21630
21626
21611
21590
21564
21534
21500
21466
21439
21413
21382
21348
21312
21276
21239
21198
21152
21097
21041
20986
20930
20872
20815
20760
20706
20656
20611
20574
20544
20519
20501
20492
20490
20492
20498
20508
20519
20529
20538
20545
20549
20550
20549
20545
20539
20531
20519
20503
20478
20446
20410
20372
20334
20293
20246
20195
20142
20087
20030
19969
19905
19840
19777
19714
19650
19589
19532
19478
19424
19371
19318
19265
19212
19162
19115
19071
19030
18990
18951
18914
18879
18844
18811
18781
18754
18728
18704
18675
18638
18593
18546
18498
18449
18397
18342
18287
18230
18172
18117
18065
18015
17964
17911
17858
17806
17755
17706
17661
17623
17599
17596
17615
17664
17747
17870
18030
18227
18461
18726
19010
19303
19601
19900
20195
20479
20748
20995
21221
21422
21598
21748
21873
21977
22061
22127
22179
22216
22243
22259
22261
22257
22251
22243
22235
22231
22234
22241
22248
22255
22262
22267
22267
22260
22243
22215
22180
22142
22102
22058
22009
21959
21908
21855
21803
21758
21720
21688
21662
21644
21630
21618
21606
21594
21587
21584
21590
21601
21612
21620
21627
21632
21631
21623
21611
21598
21580
21557
21526
21488
21448
21406
21359
21306
21254
21203
21152
21103
21053
21000
20944
20884
20818
20750
20684
20622
20559
20496
20434
20376
20322
20276
20238
20205
20170
20132
20095
20061
20030
19996
19958
19921
19884
19843
19799
19751
19703
19659
19618
19577
19537
19497
19456
19411
19362
19312
19263
19209
19150
19088
19028
18972
18915
18855
18796
18737
18677
18615
18555
18500
18455
18425
18410
18412
18433
18479
18561
18682
18841
19034
19255
19500
19763
20040
20321
20599
20873
21143
21406
21656
21890
22103
22295
22464
22608
22730
22832
22914
22976
23020
23050
23069
23081
23091
23095
23094
23092
23091
23091
23091
23092
23096
23104
23113
23116
23109
23093
23067
23033
22988
22935
22878
22819
22756
22690
22624
22563
22510
22464
22424
22388
22356
22329
22310
22298
22290
22282
22273
22267
22261
22256
22250
22242
22231
22220
22208
22193
22170
22142
22111
22078
22037
21990
21939
21890
21840
21792
21744
21696
21643
21582
21517
21451
21384
21318
21253
21188
21123
21058
20993
20927
20860
20794
20734
20681
20634
20588
20540
20491
20441
20392
20344
20295
20244
20193
20144
20096
20047
19997
19945
19890
19832
19774
19720
19670
19623
19579
19536
19492
19441
19385
19333
19282
19229
19169
19105
19039
18971
18900
18829
18761
18697
18635
18577
18524
18477
18442
18425
18432
18471
18548
18664
18818
19014
19249
19516
19804
20104
20410
20715
21015
21302
21572
21824
22053
22259
22441
22597
22729
22839
22928
22998
23051
23086
23103
23104
23094
23078
23053
23021
22988
22958
22931
22906
22883
22859
22833
22800
22760
22719
22676
22630
22580
22526
22467
22402
22334
22268
22206
22146
22088
22031
21979
21935
21901
21876
21858
21847
21839
21834
21832
21835
21843
21852
21859
21862
21858
21850
21840
21829
21818
21802
21783
21758
21728
21693
21651
21599
21536
21466
21394
21319
21243
21164
21084
21004
20926
20851
20780
20712
20647
20580
20512
20444
20376
20308
20241
20176
20112
20047
19982
19919
19859
19801
19746
19691
19637
19585
19534
19478
19420
19366
19320
19279
19236
19190
19142
19092
19037
18975
18905
18829
18750
18673
18600
18531
18465
18398
18331
18264
18198
18133
18070
18016
17975
17952
17954
17988
18056
18159
18308
18505
18744
19018
19320
19640
19971
20304
20628
20932
21215
21477
21717
21930
22115
22272
22405
22512
22592
22651
22691
22715
22719
22705
22677
22637
22590
22539
22489
22439
22387
22337
22286
22233
22175
22112
22047
21979
21904
21822
21735
21646
21557
21469
21380
21296
21220
21156
21101
21052
21014
20985
20965
20951
20941
20939
20944
20954
20971
20996
21021
21043
21059
21070
21075
21073
21067
21054
21031
21000
20964
20924
20880
20832
20780
20723
20660
20593
20520
20445
20368
20289
20210
20131
20055
19983
19913
19846
19781
19720
19662
19604
19543
19483
19428
19378
19328
19272
19215
19161
19112
19067
19027
18987
18945
18900
18853
18808
18763
18717
18671
18626
18580
18535
18488
18441
18394
18347
18296
18237
18173
18109
18048
17991
17937
17885
17844
17813
17796
17799
17829
17885
17969
18086
18241
18436
18669
18935
19224
19526
19835
20141
20435
20712
20969
21208
21425
21618
21781
21913
22019
22104
22166
22207
22229
22236
22228
22211
22193
22171
22145
22115
22077
22032
21984
21934
21881
21822
21762
21702
21636
21565
21490
21415
21339
21262
21186
21110
21036
20970
20912
20862
20820
20787
20764
20751
20746
20746
20753
20762
20770
20776
20784
20794
20806
20813
20812
20809
20805
20796
20781
20757
20724
20685
20645
20603
20557
20505
20444
20375
20302
20229
20157
20085
20014
19943
19869
19793
19717
19644
19575
19506
19434
19360
19288
19222
19161
19103
19046
18990
18934
18880
18826
18772
18718
18664
18614
18565
18516
18468
18417
18361
18306
18252
18193
18127
18057
17983
17912
17846
17786
17728
17667
17603
17539
17475
17415
17366
17329
17308
17307
17333
17395
17502
17654
17849
18086
18364
18674
19005
19346
19687
20021
20344
20651
20935
21194
21429
21640
21827
21991
22129
22239
22326
22391
22439
22471
22489
22494
22489
22477
22455
22427
22396
22366
22341
22319
22298
22281
22260
22233
22202
22166
22124
22078
22030
21980
21929
21877
21828
21778
21728
21677
21630
21590
21556
21528
21504
21484
21469
21455
21442
21429
21416
21404
21392
21378
21365
21352
21338
21326
21313
21295
21271
21240
21206
21172
21138
21101
21060
21017
20970
20919
20860
20799
20740
20683
20622
20557
20484
20406
20327
20252
20183
20118
20054
19986
19918
19857
19801
19748
19699
19650
19601
19554
19504
19453
19404
19358
19316
19276
19234
19189
19142
19092
19041
18991
18943
18896
18847
18796
18740
18678
18609
18538
18465
18389
18308
18230
18159
18095
18040
17994
17957
17934
17929
17952
18006
18094
18219
18382
18584
18819
19085
19373
19672
19976
20278
20570
20849
21114
21363
21593
21801
21984
22142
22276
22389
22483
22560
22619
22659
22685
22698
22699
22693
22683
22671
22658
22645
22637
22632
22628
22623
22617
22610
22601
22590
22574
22551
22525
22494
22454
22405
22345
22276
22206
22140
22079
22020
21962
21906
21857
21814
21775
21741
21713
21695
21688
21684
21682
21677
21672
21666
21656
21641
21623
21601
21574
21543
21511
21477
21439
21398
21357
21315
21270
21222
21170
21113
21052
20988
20920
20850
20783
20721
20658
20592
20530
20473
20419
20364
20306
20246
20183
20118
20056
19998
19941
19886
19835
19786
19736
19686
19640
19597
19557
19516
19475
19436
19397
19357
19315
19273
19230
19184
19135
19084
19031
18977
18924
18872
18822
18776
18728
18674
18613
18550
18483
18415
18350
18290
18231
18174
18121
18074
18037
18011
17995
17997
18026
18087
18179
18302
18459
18644
18850
19070
19297
19528
19762
19998
20232
20461
20676
20872
21047
21198
21326
21435
21527
21600
21655
21691
21713
21721
21717
21706
21694
21682
21672
21663
21654
21646
21637
21623
21605
21584
21563
21543
21522
21501
21478
21450
21411
21365
21312
21255
21194
21133
21072
21014
20959
20910
20869
20832
20796
20762
20734
20713
20700
20692
20687
20685
20680
20672
20667
20664
20658
20649
20638
20623
20603
20580
20556
20528
20495
20458
20417
20372
20326
20276
20222
20166
20112
20056
19998
19940
19886
19832
19781
19735
19691
19644
19596
19547
19498
19446
19392
19339
19287
19239
19193
19148
19105
19065
19026
18985
18944
18903
18863
18822
18780
18737
18693
18647
18603
18561
18520
18480
18445
18415
18387
18355
18319
18280
18240
18199
18155
18111
18065
18016
17966
17917
17866
17813
17755
17697
17644
17595
17546
17492
17434
17375
17317
17263
17218
17185
17168
17169
17186
17225
17290
17379
17492
17625
17779
17950
18132
18325
18526
18726
18916
19095
19263
19416
19549
19660
19750
19818
19866
19898
19919
19930
19931
19924
19909
19889
19865
19843
19820
19794
19765
19735
19707
19681
19657
19633
19611
19589
19564
19535
19500
19461
19421
19380
19341
19306
19273
19240
19205
19169
19129
19091
19060
19034
19010
18990
18973
18956
18937
18920
18907
18897
18888
18878
18870
18863
18854
18841
18825
18804
18781
18757
18731
18703
18673
18639
18603
18568
18535
18500
18461
18420
18378
18338
18297
18253
18208
18163
18115
18062
18010
17959
17908
17860
17815
17771
17727
17685
17644
17605
17570
17541
17516
17489
17459
17425
17390
17355
17318
17282
17248
17213
17175
17132
17088
17043
16999
16960
16924
16890
16856
16823
16792
16761
16726
16689
16650
16609
16570
16532
16494
16454
16414
16376
16341
16307
16272
16238
16203
16164
16121
16073
16025
15978
15934
15887
15837
15789
15746
15709
15676
15642
15612
15590
15579
15581
15596
15623
15668
15737
15831
15947
16076
16220
16372
16525
16678
16829
16977
17117
17245
17361
17460
17542
17607
17654
17686
17702
17701
17686
17660
17629
17596
17563
17531
17500
17473
17452
17434
17415
17394
17372
17346
17318
17291
17265
17238
17208
17177
17148
17120
17093
17064
17034
17006
16982
16965
16952
16941
16930
16918
16907
16898
16890
16881
16877
16876
16873
16871
16871
16875
16877
16874
16869
16863
16854
16841
16825
16807
16787
16764
16739
16713
16685
16655
16623
16590
16554
16516
16477
16436
16392
16346
16300
16258
16222
16191
16161
16128
16092
16056
16021
15989
15959
15932
15906
15881
15855
15827
15796
15764
15731
15700
15675
15652
15633
15615
15596
15572
15545
15517
15489
15456
15421
15388
15359
15335
15307
15275
15243
15210
15174
15136
15100
15069
15041
15016
14992
14969
14946
14920
14889
14858
14827
14796
14762
14727
14689
14648
14606
14566
14526
14486
14446
14407
14368
14330
14296
14269
14251
14243
14245
14258
14287
14337
14408
14496
14599
14716
14842
14974
15109
15247
15384
15518
15642
15749
15840
15919
15984
16030
16058
16072
16076
16073
16066
16054
16033
16007
15978
15949
15921
15893
15867
15841
15816
15791
15766
15736
15704
15671
15636
15600
15563
15524
15490
15462
15437
15409
15379
15351
15329
