30476
30691
30909
30884
30579
30787
31125
30932
30760
30926
31303
31123
30872
30997
31284
30649
31067
31153
31072
31205
31170
31304
31139
31245
31343
31387
31446
30911
31294
31288
31431
31263
31639
31456
31105
31637
31645
31698
31422
31604
31523
31517
31494
31593
31938
31564
31332
31771
31782
31449
31764
31756
31708
31856
31969
31997
31818
31509
31974
31779
31854
31767
32449
32187
32159
32087
31951
32197
32231
32306
32221
32382
32254
32432
32100
32229
32310
32264
32075
31944
32141
32169
32287
32000
32085
31746
31775
31896
31831
31825
31938
31628
31685
31699
31436
31301
31848
31585
31523
30897
31765
31425
31123
31467
31308
31266
31213
31467
31438
31274
31442
31396
31322
31491
31179
31522
31588
31122
31324
31626
31540
31564
31651
31367
31588
31303
31892
31761
31420
31436
31685
31688
31663
31705
31751
31569
31665
31805
31993
31661
31806
31822
31980
31707
31620
31914
31694
31529
31905
32030
31882
31665
32038
31689
32074
31549
31998
32240
32136
31690
31825
31914
31649
31912
32270
32235
31759
32194
32120
32162
31947
32288
32182
32238
32053
32301
32173
32225
32032
32519
32414
32156
32385
32267
32358
32312
32378
32505
32425
32111
32702
31853
32110
31880
31906
31950
31496
31814
31891
31749
31509
31748
31587
31708
31458
31618
31731
31469
31210
31854
31524
31367
31083
31494
31633
31461
31500
31734
31524
31317
31548
31563
31367
31353
31609
31655
31616
31306
32220
31652
31641
31690
31865
31778
31520
31707
31950
31676
31546
32058
31830
31791
31476
31939
31739
31399
31647
31718
31889
31790
31858
32265
31731
31853
32030
31927
32213
31697
32216
31960
31959
31859
32191
31827
32000
31958
32187
32234
32072
32203
31840
32193
32335
32128
32220
32297
32105
32212
32408
31999
32357
32293
32262
32032
32391
32109
32563
32155
32432
32656
32367
32302
32504
32463
32180
32522
32437
32228
32015
31830
31628
32020
32003
31966
32064
31720
31690
31888
31880
31532
31640
31583
31756
31539
31749
31619
31631
31440
31637
31789
31555
31308
32189
31441
31375
31313
31193
31608
31239
31534
31717
31456
31455
31533
31623
31598
31146
31537
31631
31700
31663
31819
31689
31525
31476
31659
31724
31358
31558
31206
31674
31724
31748
31845
31714
31793
31904
31904
31400
31777
32019
31990
31561
31732
31931
31812
31852
31882
31519
31900
31901
32108
32158
31425
31747
32618
31648
31758
31800
32037
32417
31962
31974
32184
32114
31870
32107
32188
31960
32051
32446
32372
32014
32017
32250
32112
32088
32351
32707
32442
32154
32545
32345
32243
32090
32311
32258
31995
31904
32237
32055
31941
31899
31562
31525
31523
31871
31873
31681
31612
31534
31552
31667
31381
31622
31489
31290
31333
31269
31340
31005
31375
31208
31293
31063
31527
31613
31118
31025
30878
31413
31334
31346
31417
31675
31183
31466
31509
31483
31507
31572
31386
31393
31333
31290
31383
31412
31657
31574
31779
31514
31663
31786
31797
31450
31697
31942
31712
31220
31463
31592
32259
31301
31339
31644
31963
31879
32065
32464
32221
31951
32090
31878
31698
31757
31798
32029
31917
32165
32222
31742
31955
31998
32279
31776
31944
31902
32149
32209
32175
32316
32011
31597
32765
31927
31827
32115
32576
32218
32072
32296
32186
32224
32357
32248
32201
32059
32051
32086
31985
31769
31697
31579
31286
31929
31477
31720
31409
31306
31315
31276
31302
30890
31635
30978
31214
31111
31349
31689
30867
30910
30690
31713
30904
31174
31467
31239
31226
31453
31864
31322
31038
31199
31426
31126
31287
31135
31320
31098
31483
31649
31553
31157
31509
31599
31375
31720
31622
31596
31382
31600
31864
31496
31732
31478
31736
31610
31443
31585
31625
31549
31346
31771
31746
31656
31480
31939
31899
31736
31371
31726
31774
32165
31801
32074
31760
31590
31714
31948
31606
31854
31939
31901
31891
31900
31959
31999
32038
31955
31854
32067
32000
32178
32201
32409
31830
32146
32400
32450
32158
32014
32152
31648
31968
32291
31978
31844
31932
31828
31801
31523
31602
31673
31500
31562
31529
31414
31293
31245
31507
31354
31050
31068
31240
31260
31039
31332
31771
31167
31008
31140
31128
30968
30861
30836
31688
30742
30947
31016
30949
31033
31207
30987
31337
31243
31327
31191
30980
31070
31137
31430
31169
31267
31315
31436
31356
31259
31569
31508
31234
31742
31706
31463
31450
31579
31474
31394
31468
31494
31600
31412
31610
31733
31585
31815
31794
31871
31522
31504
31615
31701
31267
31629
32013
32016
31585
31584
32042
31894
31738
31856
31705
31889
31897
31915
31774
31872
31536
32065
31836
31518
31693
31983
32070
31637
32074
32288
32372
31956
32163
32054
32222
31994
32292
32216
31990
31771
32462
31807
31631
31920
31781
31633
31350
31647
31582
31351
31026
31354
30943
31162
30981
31073
31373
31101
31036
31138
31162
31239
31118
30995
31066
30929
30929
31167
30864
31060
31060
31328
30921
30977
31134
31266
31200
31510
31090
31049
30880
31177
31205
31174
30901
31712
31355
31327
31243
31290
31414
31457
31307
30760
31348
31211
31439
31524
31504
31342
31467
31541
31228
31362
31346
31761
31360
31721
31480
31528
31479
31817
31528
31715
31629
31679
31750
31591
31621
31953
31734
31678
31673
31901
31894
31496
31721
31649
31830
32014
31859
31905
31499
31859
31956
31953
31483
31748
31878
31694
31813
31809
31898
31988
31680
32110
32099
32075
31554
31922
31968
31546
31865
31794
31715
31459
31566
31806
31418
31420
31264
31498
31239
31214
31357
30963
31303
30872
30994
30828
30852
30974
30712
31030
30638
30917
30987
30934
30493
30946
30766
30897
30856
30881
30669
31013
30803
31114
30798
30631
31106
30902
31001
30978
30903
30976
31037
30826
31201
31278
31068
31043
31335
31211
30847
30945
31364
31321
31107
31155
31347
31359
30969
31585
31272
31279
31268
31386
31407
30922
31262
31249
31481
31192
31365
31518
31346
31076
31430
31767
31484
31259
31774
31407
31521
31356
31678
31545
31663
31420
31505
31634
31569
31599
31768
31339
32090
31787
31304
31748
31440
31964
31735
31391
31536
31772
31808
31574
31769
31794
31804
31561
31692
31651
31161
31188
31338
31308
31048
30913
31261
31096
30931
31018
31039
30948
30434
30811
31443
30836
30651
30757
30552
30480
30337
30659
30624
30343
30528
30668
30761
30195
30652
30089
30699
30378
30546
30622
30577
30404
30981
30783
30577
30506
30788
30654
30831
30952
30930
30821
30697
30932
30552
30837
30818
30859
30939
30807
30738
30840
31088
30841
30870
31272
31084
30871
31022
31360
31058
30860
31208
31119
30962
31099
31729
31230
31025
31230
31368
31255
31254
31544
31602
31383
31172
31556
31475
31391
31218
31645
31305
30852
31366
31480
31450
31131
31463
31638
31428
31137
31639
31705
31485
31512
31488
31761
31285
31323
31840
31566
31430
31598
31647
31409
31237
31379
31372
31049
31095
31065
31239
31044
30752
30950
30866
30592
30682
31352
30747
30810
30583
30634
30630
30286
30512
30386
30536
30470
30347
30695
30037
30203
30409
30406
30166
30053
30014
30363
30340
30267
30341
30374
30159
30669
30542
30257
30446
30114
30705
30193
30774
30643
30642
30706
30692
30534
30607
30273
30768
30769
30788
30623
30809
30667
30751
30859
30814
30722
30692
30867
30916
30836
30801
31083
30750
30965
30965
30778
30857
30824
30982
31183
31161
30715
31037
31199
30919
30782
31057
31256
31258
31088
31182
31368
31345
31112
31150
31422
31309
31257
31034
31341
31171
31422
31153
31278
31343
31426
31694
31792
31334
31344
31286
30915
31098
31389
31232
31083
31224
31202
30940
30768
30444
30567
30523
30564
30626
30832
30415
30495
30496
30446
30355
30359
30468
30328
30382
30315
30540
30439
30032
30374
30279
29910
30074
30257
30074
29996
30090
30282
30281
30215
30275
30329
30391
30116
30436
30368
30454
30175
30492
30710
30369
30327
30265
30394
30587
30548
30672
30600
30386
30312
30645
30632
30546
30905
30828
30603
30654
30460
30598
30548
30660
31213
30692
30656
30730
30798
30712
30626
31525
30697
31156
30573
31135
30817
30601
30754
30906
30977
30550
30974
31105
31034
30881
31079
31059
31086
30982
31305
31099
30981
31114
31145
31147
30899
31148
31179
31252
30977
31306
30957
31157
31080
31326
31349
30994
31187
31435
31058
31133
30742
30992
30773
30732
30688
30667
30668
30306
30567
30740
30358
30292
30216
30548
30413
30350
30263
30160
29862
30293
30295
30260
30002
30206
29954
30158
29881
30130
30109
30055
30097
30363
30339
29995
30135
30418
30164
30295
30696
30388
30068
30297
30110
30528
30507
30268
30319
30604
30024
30445
30165
30961
30651
30527
30583
30543
30590
30306
30750
30748
30484
31022
30834
30931
30526
31040
30754
30543
30551
30940
30245
30596
30121
31339
30135
30380
30625
30607
30364
30510
31307
30916
30804
30861
30433
31040
30386
30926
30960
30914
30829
31019
31135
31058
30830
31110
30997
30807
31105
31413
31038
30730
31257
31098
31118
31003
31057
31232
30792
30771
31010
30728
30566
30712
30582
30951
30620
30978
29906
30375
30232
30440
29944
29714
29667
30725
29917
30060
30005
30375
30164
29703
29989
30228
30089
29642
30040
30138
29713
29850
29926
29718
29933
29852
30042
30028
29899
30336
30013
30105
29938
30150
30021
30200
30116
30313
30557
30333
30233
30200
30594
29609
30323
30471
30490
30284
30631
30367
30268
30473
30498
30297
30521
30246
30746
30594
30284
30419
30678
30649
30370
30860
30667
30592
30637
30950
30432
30702
30520
30811
30701
30753
30620
31074
30814
30756
30816
30985
31021
30851
30960
31111
30964
30753
30998
31200
31277
30308
31235
31152
30660
31168
31106
31129
31339
30917
31202
31021
30850
30997
31242
30837
30606
30607
30621
30695
30250
30740
30094
30632
30417
30436
30170
30039
30119
29920
30150
30052
30155
30063
29749
29916
30229
29998
29942
29787
29913
30067
29818
29797
29806
29999
29940
30007
29540
29941
29682
30289
30200
29844
30107
30472
30027
29525
30210
30395
30000
30517
30434
30170
30982
30200
29782
30375
30157
30427
30777
30298
29806
30582
30375
30579
30443
30500
30420
30691
30328
30618
30574
30568
30527
30706
30679
30309
30332
30752
30617
30366
30669
30707
30660
30703
30778
30766
30089
30479
30631
30540
30624
30735
30663
30760
30641
30928
31132
30913
30668
30902
30896
31001
30654
30938
30881
30867
30726
31075
30918
30716
30834
31066
30790
30716
30803
30742
30810
30184
30787
30661
30408
30231
30344
30371
30262
30313
30514
30173
30096
30141
29992
30082
30021
29980
30329
29764
30006
29997
29881
29661
29875
29994
29864
29794
29839
29948
29808
29866
29751
30320
30101
29489
29865
30139
29718
29914
29918
29900
30121
30016
29861
30177
29766
30080
29749
30330
30177
30294
30142
30023
29920
30186
30336
29981
30184
30440
30380
30043
30263
30282
30656
30245
30490
30673
30470
30304
30046
30257
30194
30610
30476
30445
30726
30719
30210
30618
30479
30546
30765
30456
30291
30244
30756
30464
30330
30790
30744
30566
30618
30418
30692
29722
30870
31438
30835
30534
30817
30889
30700
30527
30930
31018
30736
30841
31000
30754
30571
31007
30914
30629
30403
30425
30475
30383
30281
30418
30063
30215
30090
30121
30401
29949
30045
30105
29949
29656
29956
30250
29970
29625
29927
30056
29643
30022
29672
29793
29664
30015
29976
29685
29715
30028
29883
29839
29242
29944
29985
29823
29891
30028
30051
30201
30123
30179
30245
29799
30319
29921
30034
29878
30488
30426
30199
30173
30733
30249
30149
30339
30277
30230
30060
30218
30536
30372
30288
30424
30690
30427
30057
30509
30485
30526
30429
30740
30573
30242
30462
30586
30679
30493
30411
30982
30632
30250
30837
30842
30597
31005
30867
30804
30645
30805
31009
31147
30506
31094
31006
30964
30940
31028
31002
31049
31033
31290
31194
30893
31135
31057
31125
30918
30974
30879
30819
30568
30716
30729
30353
30336
30617
30387
30338
30249
30444
30079
29944
30160
30310
30124
29938
30003
29875
30069
30040
30018
30296
29772
29707
30145
30106
30149
29816
29918
30266
29769
29913
29860
29877
29719
30048
30173
30213
30028
30090
30294
29797
30282
30129
30293
30308
30235
30264
30511
30352
30459
30576
30355
30172
30139
30568
30222
30297
30567
30466
30105
30451
30469
30497
30588
30534
30769
30706
30721
30661
30445
30833
30608
30892
30697
30773
30663
30776
30997
30888
30736
31056
30669
30876
30833
31149
30875
30892
30981
31078
30895
30943
31060
30900
30952
30952
30969
31133
31084
31215
31209
31447
30972
31294
31341
31166
31023
31278
31346
30837
30760
30774
30820
30571
30618
30898
30615
30565
30582
30680
30388
30168
30293
30364
30035
29962
30036
29948
29848
30138
30193
30162
29712
30084
29777
29922
29680
29954
29945
29843
29764
29886
30353
29853
30017
29875
30051
30122
30298
30096
29921
30098
29968
30197
30164
29979
30361
29935
30176
30169
30075
30086
30044
30320
30342
30340
30401
30217
30151
30601
30272
30312
30539
30405
30404
29975
30552
30367
30663
30851
30555
30348
30232
30481
30703
30485
30677
30714
30616
30571
30583
30640
30592
30558
30611
30800
30830
30904
30719
30741
30678
30722
31004
30556
30770
30682
31247
30730
30940
31092
31105
30887
31030
31043
30925
31077
31125
31161
31031
30666
30934
30914
30404
30415
31345
30316
30202
30877
30483
30403
30793
30695
29658
30101
30438
30496
30449
30324
29540
29929
29979
29717
30027
29978
30058
29261
29842
30133
29792
29750
29880
29510
29763
29450
29946
29891
29902
29868
30158
30019
29741
30020
30011
29975
30039
30002
30103
30132
29922
30101
30260
29834
30057
30047
30263
30048
30046
30274
30309
30095
30174
29953
30247
30147
30415
30301
30173
30331
30172
30434
30481
30203
30403
30384
30313
30621
30764
30720
30471
30689
30740
30716
30275
30652
30618
30834
30570
30718
30480
30359
30384
30579
30768
30351
30913
30717
30762
30710
30880
30713
30665
30766
31180
30877
30522
30784
30799
30855
31000
30911
30887
30787
30606
30675
30760
30772
30393
30608
30513
29940
30334
30428
30199
29870
30163
30262
30056
29751
29989
29939
29871
29694
29904
29698
29499
30033
29589
29752
29323
29761
29457
29749
29838
29741
29724
29633
29389
29810
29404
29555
29905
29917
29761
29572
29900
29784
29915
29659
30055
29984
29902
29799
30130
30007
29986
29832
30236
29973
29688
30049
30361
30331
29691
30149
30312
30099
29961
30155
30064
30185
30045
30248
30152
29794
30244
30423
30201
30198
30352
30790
30580
30210
30496
30324
30630
30250
30599
30631
30630
30511
30860
30237
30231
30957
30516
30772
30531
30670
30856
30768
30748
30813
31044
30678
30549
30790
30790
31062
30814
30911
30943
30816
30966
30949
31034
30668
30829
30870
30569
30481
30725
30517
30490
30250
30399
30251
29765
30015
30276
30211
29971
30015
29913
30297
30050
29913
30123
30194
29891
30267
30132
29372
29687
29690
29540
29614
29905
29773
29647
29562
29828
29971
29966
29609
29839
29721
29920
30274
30209
29958
29733
30073
30124
30056
29872
30032
29758
29553
30302
30308
29699
30145
29646
30913
29977
29666
30357
30464
30372
30057
30568
30312
30367
30088
30440
30360
30483
30281
30436
30510
30349
30586
30642
30464
30337
30553
30761
30541
30222
31055
30429
30429
30597
31131
30762
30907
30944
30831
30927
30484
30830
30856
30819
30706
30972
31130
31001
30546
30995
31087
30679
30816
30966
31055
30999
31152
30820
30912
30688
30924
31133
30681
30535
30683
30591
30420
30492
30232
30344
30289
30190
30318
30145
30210
30137
30034
30739
30605
29961
30015
29897
29817
30030
29872
29526
29986
30040
29899
30076
30063
30139
29487
29825
30012
29996
30039
29768
30261
30264
30268
29997
30496
30396
29431
30217
29930
30436
29957
30317
30264
30238
30107
30342
30371
30506
30288
30251
30357
30549
30333
30510
30305
30345
30689
30757
30637
30273
30518
30594
30413
30317
30829
30561
30337
30520
30921
30808
30476
30590
30704
30720
30231
30700
30852
30808
30393
30694
31088
30745
30860
30917
30777
30681
30869
31112
30924
30551
30958
30951
30975
30791
31124
31028
30889
31107
31145
31261
30961
31078
30863
31045
30776
30856
30733
30803
30472
30580
30694
30448
29934
30437
30396
30115
30274
30219
30125
30132
30184
29452
29522
29977
29850
30281
30076
29628
30090
29879
29888
29811
30096
29996
29663
29935
30062
30008
29827
30053
30184
30118
30021
30078
29994
30213
30045
30418
30200
30242
30282
30444
30170
30294
30314
30410
30361
29903
30491
30385
30324
30288
30333
30416
30437
30277
30236
30434
30278
30469
30420
30509
30448
30634
30447
30539
30314
30694
30561
30661
30559
30673
30718
30642
30642
30526
30711
30536
30836
30582
30892
30665
30962
30629
30924
30871
31210
30956
30923
31266
30993
31003
30867
31054
31228
31174
31081
31252
31212
30919
31446
31158
31010
30940
31016
31142
30826
30845
30534
30608
30460
30414
30434
30448
30387
30202
30453
30190
30146
30070
30138
29995
29638
30060
30035
29874
29701
29977
30017
29898
29817
30031
30216
29869
30126
30022
29829
29946
29821
30048
29899
29645
30014
30180
30158
29824
30166
30211
30516
29926
30607
30252
30210
30144
30557
30610
30314
30318
30251
30342
29875
30454
30579
30383
30303
30551
30589
30431
30276
30531
30321
30531
30533
30616
30755
30115
30698
30466
30686
30495
30652
30607
30727
30513
30523
30475
30713
31033
31368
30842
30897
30884
30908
30832
30665
31123
31054
30908
30757
31097
31049
30742
31059
31210
30809
31009
31077
31423
31081
30802
31244
31421
31298
31057
31267
31127
31274
31004
31120
30913
30647
30848
30865
30608
30316
30316
30513
30378
30199
30329
30294
29984
30215
30079
29954
30153
29951
29729
29862
29906
29963
29943
29971
29734
29893
29805
29838
29605
29789
29887
29938
29778
29713
29876
29799
30021
29930
29710
29728
30211
30059
30120
30075
30204
30404
30135
29991
30420
30419
29939
30282
30362
30390
30009
30221
30487
30383
30224
30370
30548
30304
30261
30657
30508
30333
30584
30676
30648
30363
30686
30639
30541
30629
30780
30476
30660
30561
30980
30708
30527
30653
30830
31039
30795
30814
31217
31014
30963
31215
31109
31046
30513
31083
31291
30378
30576
30949
31077
30913
30946
31418
31003
30770
31038
30912
30884
31504
31301
31226
31096
30577
30637
30865
30968
30545
30296
30464
30347
30435
30524
30238
30074
30246
30121
30169
30018
30205
30168
29837
30046
29933
29964
29764
30485
29774
29935
29978
30063
30264
29890
29952
30058
30044
30078
30025
30200
30134
29980
30087
30144
30435
29969
30206
30331
30233
30107
30371
30172
30432
30100
30449
30559
30591
30268
30304
30254
30750
30510
30812
30534
30196
30511
30492
30635
30399
30742
30646
30385
30562
30413
30473
30546
30521
30470
30641
30581
30697
30528
30694
30605
30902
31027
30730
31033
30750
30957
30529
30630
30805
30900
30529
30925
31003
30759
30610
30970
30851
30997
30762
31156
30944
31185
31196
30811
31253
30994
31122
31139
31130
30884
31088
31055
31001
30770
31133
30700
30313
30526
30848
30291
30074
30348
30457
30299
30218
30208
30152
30264
29769
30120
30097
30063
30056
29911
30283
29722
29760
29832
30079
29819
29974
30071
30079
29852
30030
30092
30191
29881
30096
30208
30268
29950
30277
30178
30137
30276
30295
30523
30134
30437
30555
30335
30280
30411
30429
30384
30118
30330
30268
30508
29991
30792
30560
30356
30585
30238
30619
30691
30648
30658
30267
30533
30467
30792
30477
30964
30740
30990
30426
30875
30998
30817
30696
30779
30777
30983
30674
31083
30932
30882
30718
31317
30874
30740
30842
30778
30788
30853
30967
30907
31015
30833
31135
31329
31082
30784
31639
31359
31056
31322
31190
31153
31024
30974
30759
30743
30503
30365
30641
30428
30252
30261
30271
30454
30079
30030
30201
29805
30504
30424
29551
29889
30511
30210
30577
29517
30269
29922
29922
29919
30055
30026
29841
29722
29802
29978
29545
29945
29872
29850
29512
29997
30005
29743
29795
30146
30048
30075
30121
30061
30247
30006
30219
30504
30343
29866
30090
30426
30357
30025
30693
30241
30448
30074
30374
30310
30115
30468
30319
30330
30416
30489
30381
30202
30351
30757
30642
30420
30266
30595
30663
30441
30572
30763
30618
30339
30683
30651
30802
30655
30899
31053
30792
30557
30817
31027
30682
30727
31058
31071
30989
31157
30789
30949
30752
31152
31348
31241
30836
31542
31304
31135
30978
31351
31075
30997
31162
30766
30636
30487
30713
30724
30542
30273
30358
30483
30278
30368
30398
30139
30290
29979
30406
30260
29525
30195
30497
29802
29687
30417
29746
29699
29684
30012
29856
29665
29725
30283
29878
30330
30087
30005
30093
28822
29989
29878
30152
29745
29976
30151
30082
30160
30183
30319
30331
30378
30492
30400
30020
30394
30395
30403
30365
30505
30377
30319
30117
30487
30387
30279
30655
30893
30507
30417
30529
30568
30600
30465
30761
30763
30767
30768
30860
30570
30506
30692
30794
30861
30706
30771
30910
30893
30688
30816
31345
30839
30854
30970
31214
30892
30976
31141
31054
30956
30906
30834
31478
30552
31348
31565
31312
31027
31205
31312
31076
31166
31501
30861
31036
30834
31221
30725
30629
30941
30692
30408
30315
30721
30350
30369
30080
30354
30344
29877
30227
30419
30168
29667
30074
30225
30130
29915
29929
29789
29776
29805
30011
30025
29970
29937
29943
30171
29233
30020
29849
30171
29555
30043
30266
30073
30075
29525
30288
29656
30084
30852
29752
30172
30790
30646
30387
30141
30316
30334
30564
30133
30539
30341
30081
30257
30809
30605
30248
30461
30757
30589
30321
30614
30796
30638
30517
30665
30789
30469
30395
30907
30797
30897
30677
30760
30847
30608
31021
31049
31019
31036
31023
30856
30973
30989
31085
31287
31061
31107
30935
31897
31168
31171
31301
31421
31417
32097
31457
31586
31319
31255
31765
31361
31338
31486
31341
31373
30506
31188
30675
30307
30748
30735
30584
30188
30554
30628
30132
30187
30358
30300
30115
30099
30167
30070
30018
30238
30192
29982
29597
30165
30169
30189
29930
30132
29628
30090
29811
30044
30442
30521
30123
30189
30381
30080
30278
30125
30270
30221
30571
30432
30499
30211
30494
30509
30338
30251
30530
30640
30359
30229
30639
30484
30703
31020
30998
30851
30217
30856
30789
30654
30728
30767
30971
30568
30824
30846
31076
30748
31048
31006
31140
30807
30994
31087
30577
30922
31135
30965
30844
30992
31562
31146
30714
31325
31048
31246
30910
31312
31815
31350
31217
31474
31355
31365
31666
31567
31539
31139
31634
31481
31385
31360
31561
31605
31595
31259
31271
31113
30981
30502
30837
30994
30514
30781
30953
30572
30510
30552
30430
30439
30322
30408
30348
30428
30152
30362
30237
30081
29966
30109
30208
29976
29973
29878
29911
30040
30155
30238
30075
29849
30708
30267
30045
30192
30112
30120
30116
30517
30733
30282
30130
30387
30649
30436
30249
30710
30313
30248
30451
30907
30945
30645
30666
30899
30767
30428
30718
30679
30533
30552
30891
30754
30712
30889
31153
30812
30338
30845
30964
30631
31313
31021
31274
31051
31364
31214
31691
31343
31143
31283
31112
31418
30898
31185
31879
30691
31439
30821
31313
31191
31377
31701
31559
31288
31580
31669
31198
31253
31806
31765
31566
31731
32219
31867
31390
31609
31642
31510
30873
31239
30976
30874
30440
31050
30756
30207
30505
30546
30201
30255
30487
30235
30290
30052
30265
30463
30243
30019
30219
30116
29737
29973
30162
30183
29603
30273
30265
30082
30059
30166
30175
30289
29908
30406
30292
30048
30123
30361
30502
30482
30311
30658
30384
30380
30478
30483
30440
30470
30542
30555
30539
30489
30781
30637
30262
30664
30701
30691
30221
30549
30877
30773
30005
30579
30639
30670
30499
30634
30818
30806
30730
30977
30978
30795
30941
31023
30865
30753
31022
31111
31177
30784
30731
31153
30877
31190
31075
31140
31187
31221
31397
31253
31218
31426
31076
31433
31299
31510
31550
31418
31225
31730
31624
31089
31428
31515
31449
31304
31371
31362
31197
30787
30689
30963
30673
30825
30730
30800
30540
30485
30830
30722
30182
30287
30571
30858
29912
30269
30013
30371
30053
29860
30255
30306
29981
30490
30255
30234
30076
30211
30214
29791
30398
30019
30178
30343
30370
30329
30452
30194
30537
30640
29799
30209
30713
30588
30236
30476
30470
30716
30074
30570
30680
30548
30532
30682
30520
30472
30527
30691
30593
30317
30768
30892
30754
30652
30788
30996
30874
30760
30902
31012
30835
30681
31204
30752
30228
30910
30849
31120
31005
31092
31145
31098
30817
31171
31200
31137
31107
31526
31209
31296
31138
31431
31189
30992
31519
31593
31525
31147
31375
31853
31585
31394
31830
31633
31537
31639
31456
31467
30988
31254
31192
31695
31125
30350
30865
30750
30370
30721
30443
30107
30110
30580
30597
30351
30330
30358
30357
29833
30128
29772
30125
30124
30146
30317
30169
29994
30300
30304
29829
29965
30433
30304
29839
30403
30110
30338
30104
29644
30102
30217
30383
30389
30502
30262
30349
30726
30477
30400
30728
30640
30733
30001
30511
30302
30611
30385
30737
30548
30295
30527
30778
30539
30575
30485
30765
30609
30772
31029
30879
30754
30588
30992
30842
30968
30958
30836
31130
30902
30841
31057
31051
30813
31216
31133
31414
30866
31034
31453
31143
31023
31351
31290
31182
31013
31184
31204
31199
31443
31459
31386
31231
31397
31760
31654
31306
31659
31590
31331
31190
31615
31592
31209
31398
31379
31078
30844
30936
30767
30865
30566
30677
30996
29948
30505
30116
30364
30188
30041
30313
30268
29810
30153
30163
30091
30023
30051
30085
30043
29724
30149
30118
29902
29783
30121
30222
30004
30040
30094
30460
30049
30611
30435
30289
29866
30450
30392
30330
30338
30515
30417
30766
30333
30753
30547
30296
30620
30874
30683
30182
30633
30497
30470
30556
30710
31131
30749
30480
30741
30841
30922
30961
30824
30765
30718
31045
31082
31093
30691
30949
31115
30783
30904
31042
31316
31239
30960
31443
31250
30944
31183
31575
31257
31249
31226
31369
31118
31063
31611
31530
31065
31328
31586
31616
31384
31529
31413
31593
31186
31611
31500
31431
31393
31403
31490
31386
31126
31230
31001
31074
30941
31286
30858
31266
30757
30873
30514
30156
30469
30306
30293
30020
30640
30540
30302
30172
30497
30455
29995
30503
30272
30322
30182
30466
30591
30269
30397
30452
30443
30092
30690
30545
30832
30911
30683
30933
31155
31007
31117
31305
30998
30911
31191
31205
31219
31319
31559
31672
31757
31702
31605
31670
31430
31690
31847
31846
31708
31845
31975
31976
31762
31675
32342
31806
32244
33155
32288
32153
32372
32412
32481
32428
32653
32389
32553
32486
32964
32681
32317
32385
32777
32654
32767
32761
33173
32944
32781
32923
33114
32993
32802
32982
32845
33064
32880
33050
33381
33157
32956
33213
33107
32800
33153
33145
33189
32770
33159
32923
33087
33025
33245
32997
32848
32985
32769
32573
32101
32561
32043
32498
31672
31971
31926
31725
31357
31882
31464
31100
31054
31267
31021
30907
31223
30910
30938
30962
30969
30681
30970
30636
30912
30912
30694
30925
31010
31007
31020
31317
31468
31273
31050
31398
31200
31484
31203
31573
31550
31260
31453
31573
31640
31463
31386
31757
31848
31373
31913
31903
31828
32048
31909
32155
32230
31737
31907
32178
31986
31992
31712
32266
31970
32255
32310
32252
32211
32414
32527
32410
32208
32447
32309
31936
32655
32427
32642
32430
32479
32827
32820
32625
32912
32918
32315
32391
32651
33145
32965
32982
32525
32780
32756
33019
33196
32967
32797
33024
33067
32938
32775
33036
33106
33186
32835
33332
33187
32943
32865
32879
32649
32615
32576
32393
32268
32267
32052
32170
31765
31644
31874
31513
31442
31313
30982
31140
31131
31407
31879
31332
31092
31047
31183
31104
31151
31284
31318
31110
30990
31538
31238
31110
31258
31644
31626
31498
31448
31544
31500
31410
31578
31610
31480
31500
32082
31821
31703
31818
32218
32243
32301
31880
31972
32105
31997
32245
32368
32140
32308
32431
32377
31949
32356
32506
32175
32331
32487
32271
32407
32192
32517
32509
32442
32474
32696
32736
32693
32461
32762
32813
32452
32834
32956
32829
32651
33456
33333
32809
33007
33069
33202
32835
32865
32973
33086
32905
33108
33168
33200
33098
33172
33363
33280
33121
33456
33468
33038
33207
33435
33235
33139
33205
33121
33416
33157
33055
33147
32800
32677
32760
32115
32174
31999
32168
32028
31889
31624
31738
31716
31995
31538
31504
31446
31269
31258
31258
31364
31032
31327
31385
31300
31240
31238
31524
31328
31214
31698
31410
31274
31532
31682
31634
31523
31630
31595
31763
31671
32061
31799
31827
31968
31946
31849
31501
32090
31783
32098
31808
32083
32397
32376
32125
32413
32366
32197
31779
32497
32558
31788
32184
32430
32516
32372
32495
32660
32548
32329
32615
32544
32462
32536
32470
32743
32484
32553
32537
32906
33132
32820
32637
32885
32830
32853
32765
32894
33012
33243
33427
32879
33103
32360
33206
32974
32960
33040
33084
33012
33230
33218
33027
33100
33322
33213
33151
32884
33274
33112
33066
33071
33025
32960
32815
32676
32486
32397
32071
32115
31856
31762
31584
31772
31724
31268
31362
31443
31408
31498
31317
31355
31343
31247
31245
31471
31153
31037
31446
31192
30957
31192
31603
31481
31380
31488
31199
31582
31427
31358
31613
31677
31629
31917
31933
31661
31605
32126
32154
31901
32057
31994
32147
31802
32275
32295
31969
32192
32200
32058
32398
32316
32340
32454
32395
32245
32352
32409
32516
32474
32657
32649
32735
32683
32710
32761
32590
32710
32920
32841
32886
33099
32718
32905
32854
33111
32913
32930
33095
33195
33070
32861
33271
33272
33501
33158
33891
33276
33105
33393
33526
33453
33362
33337
32834
33220
33335
33540
33800
33203
33379
33034
33308
33351
33342
33096
33181
32813
33111
33231
32966
32475
32885
32797
32332
32232
32755
32105
31951
32267
31567
31896
31443
31670
31711
31731
31364
31598
31476
31539
31408
31354
31383
31431
31096
31781
31757
31819
31700
32195
31837
31515
31525
32159
31880
31757
31995
32133
31940
32057
32202
32129
32228
31978
32330
32265
32191
32306
32734
32396
32270
32614
32676
32570
32659
32665
32724
32857
32666
32874
32681
32409
32674
32679
32807
32441
32976
32979
33152
32825
33200
33311
33128
32831
33537
33315
32869
33140
32608
33264
33393
33214
33532
33444
32906
33448
33683
33400
33318
33386
33471
33385
33375
33450
33541
33004
33485
33608
33483
33532
33602
33756
33293
33318
33529
33846
33266
33488
33559
33843
33316
33375
33570
33228
33145
33200
33065
33059
32620
32521
32633
32288
32061
32516
32399
32122
31986
32215
32003
31709
31920
32002
31704
31424
32117
31815
31537
31768
31809
32097
31435
31558
32112
31834
31685
31841
32204
32081
31821
32027
32308
32319
31781
32363
32398
32258
31994
32316
32582
32424
32285
32483
32476
32731
32920
32726
32660
32408
32928
32830
32836
32766
32934
33117
32896
32769
33134
33042
32827
33066
32993
33087
33263
33214
33271
33075
33366
33217
33530
33357
33335
33417
33377
33075
33556
33343
33684
33037
33515
33660
33559
33449
33693
33424
33224
33531
33473
33327
33598
33522
33727
33643
33688
33444
33691
33877
33291
33847
33536
33775
33285
34237
33148
32969
33406
33213
33281
32916
33044
33483
33632
33034
33098
32615
31734
31783
31537
32285
31872
32274
32187
32132
32086
31818
31600
31774
31641
31940
31782
31709
32029
31901
31866
31333
31653
31763
31772
31557
32007
32232
32497
31823
32038
32095
32116
32168
32411
32472
32541
31954
32525
32579
32450
32581
32653
32578
32769
32855
32951
33221
32813
32831
32808
32897
32784
32467
32567
33438
33231
33346
33247
32857
33198
33012
33083
33106
33050
33094
33189
33004
33356
33362
33193
33428
33583
33295
33361
33410
33229
33343
33139
33521
33478
33274
33203
33594
33337
33521
33148
34234
33789
33101
33782
33224
33641
33392
33430
33708
33798
33434
33796
33879
33679
33468
33688
33913
33269
33717
33748
33681
33314
33280
33553
32552
32485
32853
33149
32488
32212
32531
32272
32348
31897
31965
32025
31773
31679
32219
31722
31439
31786
31561
31647
31656
31092
31647
31868
31364
31753
31651
31272
31879
31921
31937
31466
31952
32023
31863
31976
32286
32182
32413
32406
32299
32476
32378
32362
32689
32649
32330
32666
32949
32835
32732
32846
32872
32883
32893
33006
33035
32610
32943
32985
33152
32742
33053
33713
33197
33126
33107
33088
33178
32789
33430
33437
33194
33106
33402
33493
32942
33313
33228
33263
33228
33438
33297
33592
33251
33445
33692
32712
33162
33739
33633
33200
33466
33740
33385
33572
33594
33933
33749
33269
33641
33727
33522
33474
33724
33799
33628
33610
33534
33455
33275
33343
33439
32978
32662
32815
32641
32746
32423
32558
32543
32238
32084
32457
32412
32187
31829
32073
32001
31685
32069
32103
32000
31750
31922
31704
31722
31591
31317
31614
32426
31505
31580
31999
31932
32102
32352
32684
31981
32359
32930
32887
32142
32352
32832
31983
32427
32743
32865
32529
32856
32786
32753
32551
32908
33120
32976
33023
32608
32749
32888
33302
32633
33448
33035
33016
33976
33280
32886
33191
33764
32825
33460
33363
33469
33174
33219
33546
33283
33555
33177
33469
33747
33338
33483
33564
33504
33408
33583
33603
33347
33631
33741
33785
33565
33495
33977
33671
33140
33576
34792
33619
33631
33744
33878
33636
33642
33594
33591
33655
33504
33695
33911
33482
33321
33947
33743
33237
32916
32290
32709
32459
32848
32464
32428
32190
32429
32292
32034
32093
31965
32085
31824
31881
31891
31869
31824
32030
32008
31818
32093
32093
32004
32021
31744
32007
32097
32131
32332
31906
32292
32220
32299
32823
32416
32541
32944
32482
32460
32586
32643
32922
32887
32857
33111
33643
33196
33066
33152
33054
32987
32686
33031
33087
32961
33022
33430
33195
33147
33561
33368
33172
33226
33396
33406
33129
33594
33606
33563
33215
33541
33522
33480
33374
33954
33577
33560
33467
33559
33623
33507
34015
33687
33490
33573
33628
33740
33415
33598
33545
33891
33573
33839
33866
33758
33521
33653
33827
33951
33543
33506
33780
33681
33328
33701
33365
33106
33079
33140
32742
32042
32893
32807
32609
32217
32465
32433
32154
31999
32067
32054
32163
31851
31696
31938
32180
31864
32155
31713
31581
31789
31707
31748
31978
31938
31851
31913
31721
32241
31907
32156
31917
32381
32185
32348
32300
32272
32223
32513
32679
32539
32393
32324
32552
32775
32477
32432
32682
32912
32456
32870
33087
32792
32692
32926
32959
32775
32959
32942
33075
33236
32750
33102
32860
33034
33075
33442
33256
33125
33187
33517
33056
32794
33367
33166
33064
33183
33142
33234
33418
33314
33532
33222
33122
33540
33394
33558
33436
33311
33574
33410
33274
33557
33520
33634
33281
33575
33333
33516
33634
33455
33571
33347
33386
33481
33288
33307
33158
33242
33169
32841
33151
32751
32574
32472
32533
32652
32207
32313
32513
32139
31818
32354
32456
32450
31394
32048
31989
31590
31628
31947
31747
31520
31728
31868
31686
31347
31901
32060
31646
31695
31799
32061
31753
31922
32005
32145
31990
32200
32906
32330
32241
32397
32666
32960
32785
32818
32881
32522
32501
32312
32829
32424
32911
32799
32733
32575
32952
33047
32945
32528
33788
32946
32920
32748
33268
32990
32920
33033
32807
33069
32990
33152
33224
33083
33004
32463
33500
33323
33214
33491
33284
33026
33117
33403
33246
33068
33481
33295
33253
33019
33387
33260
33414
33272
33383
33177
33182
33306
33686
33476
33382
33262
33528
33226
33380
33336
33528
32968
32916
32953
32768
32809
32479
32771
32631
32263
32102
32290
32270
32007
31883
31782
32033
31559
31554
31546
31639
31489
31792
31720
31310
31428
31733
31526
31065
31489
31644
31430
31341
31601
31627
31478
31786
31532
31775
31521
31441
31702
31816
31684
31740
31713
31731
31783
32153
32257
31945
32012
32229
32116
32008
31990
32442
32047
32208
32357
32410
32193
32382
33127
32698
32506
32556
32575
31838
31740
31837
31568
32004
32136
32955
32256
32759
32620
32842
32762
32800
32631
32879
32788
32959
32835
33406
32977
32938
33147
32941
33203
32756
32774
33951
33301
32609
33280
33623
33263
32842
33172
33139
33180
32992
33635
33121
33090
33173
33368
33170
33238
33241
33691
33365
32579
32651
32750
33180
32046
32740
32325
31756
32210
31820
32312
32284
31545
32019
32275
31015
30911
32011
30754
31138
30942
31382
31674
31637
30994
31247
31621
31721
31828
31310
30504
31213
31748
30729
30811
31110
31659
31075
31097
31288
31367
31247
31249
31941
31934
32050
31131
32046
31995
32200
32052
32342
31530
31925
31779
31795
31981
31793
31863
31822
31353
32915
32166
31702
31803
32319
32537
33138
32258
32982
32875
31901
32506
32228
32449
31862
32221
32723
32675
32197
33021
32112
32136
33159
32958
32762
32584
32534
33458
32754
32677
32361
33009
33007
32460
32827
33033
33795
33011
33196
33283
33605
32647
33049
33362
33069
33196
33017
32774
33097
33345
33577
33384
32218
33677
33220
32702
33116
32505
32826
31672
31647
31749
32195
31339
31717
31649
31660
31460
31508
31465
31302
31189
31273
31121
31264
31031
31440
31446
31091
31251
31273
31167
30730
31114
31163
31095
30941
31375
31311
31183
31403
31001
31396
31362
31213
31724
31701
31506
31555
31620
31679
31575
31767
31753
31633
31710
32004
31781
31411
31995
31490
32212
31737
32014
32161
32066
31923
32242
32525
32270
32234
32258
32531
32384
32433
31980
32633
31927
32446
32455
32405
32396
32492
32630
32409
32722
32495
32547
32771
32254
32781
32913
32497
32698
32802
32876
32704
32827
33024
32963
32805
33119
32744
32904
32895
33080
33008
32882
32939
32988
33055
32996
32972
33255
33024
32554
32722
32815
32711
32490
32519
32536
32047
31838
31890
31889
31497
31705
31665
31511
31167
31406
31719
31301
31315
31434
31264
31396
30821
31343
31332
31200
31157
31544
31123
31164
31179
31062
31135
30872
31385
31403
31447
31179
31528
31565
31547
31309
31813
31870
31620
31965
31896
32168
31744
32158
32063
31989
32052
32199
32436
32140
32120
32030
32262
32199
32385
32553
32546
32412
32191
32633
32459
32393
32496
32817
32381
32472
32517
32824
32676
32595
32674
32607
32875
32844
33597
32978
33457
32886
33364
32997
32809
33176
32913
32976
32967
32972
33215
33030
33055
32954
33092
32943
32910
33125
33241
32629
33464
33360
32995
32953
33397
33323
32843
33315
33035
33027
32930
33051
32895
32653
32466
32566
32629
32270
32000
32383
31828
31746
31359
31597
31626
31313
32013
31474
31261
31165
31382
31516
31286
30841
31142
30991
30931
31178
31281
31071
30898
31135
31430
31895
30912
31864
31180
31457
30976
31343
31291
31356
31426
31620
31975
31376
31733
32033
31991
31555
31684
31844
31975
31932
32012
32373
31979
31875
32329
32094
32442
32118
32573
32506
32295
32381
32576
32548
32697
32627
32706
32318
32569
32821
32620
32606
32791
32636
32993
32392
32695
32729
32803
32551
32953
33200
32962
32458
32926
32899
32777
32955
32953
32984
32756
32995
33096
32899
33184
33150
32906
33032
32954
33077
32906
32895
32902
33323
33146
32852
32769
32995
33059
32324
33186
32764
32513
32165
32321
32260
31924
31470
31713
31787
31349
31310
31310
31322
31264
31317
31429
31083
30907
31127
31372
30892
30806
30925
30879
30375
30911
31004
31034
30721
31074
31085
30672
30910
31368
31065
30878
30727
30516
31463
31857
31057
31245
31195
30683
31785
31754
31644
31182
31623
31526
31868
31397
31578
31437
31811
31356
31662
31843
31625
31757
32070
31747
31574
31865
32083
31927
31992
32208
32487
32368
32064
32571
32205
31733
32305
32290
32429
32238
32812
32503
32474
32401
32520
32498
32605
32325
32676
32914
32617
32434
32914
32796
32579
32639
32841
32696
32800
32939
32972
32749
32373
32964
33178
33218
32561
32973
32797
32912
33073
33093
32760
32788
32626
32354
32479
32287
32401
32209
31927
31665
31610
31506
31524
31103
31219
31352
30588
31138
31282
31168
30834
31064
31008
30549
30988
31241
31186
30973
31135
31094
31333
30104
31403
31197
30966
30889
31151
31344
31108
30449
31142
31269
31475
30983
31512
31262
30954
31235
31661
31464
31227
31591
31662
31557
31623
31688
31567
31661
31493
31773
32007
31593
31681
31871
31941
32081
32011
32307
31927
31730
32155
32405
32167
32232
32233
32190
32156
32291
32518
32087
32368
32495
32173
32515
32189
32431
32566
32465
32505
32600
32460
32704
32536
32715
32902
32380
32730
32868
32651
32584
32648
32827
32930
32696
32905
32787
32638
32811
33045
33087
32518
32791
32819
32947
32508
32139
32870
32662
32179
32334
32244
31936
31798
31874
31557
31633
31387
31533
31498
30715
31185
31205
31114
31095
31050
30916
30894
30498
30706
31210
30803
30414
31080
31018
30363
30752
30970
30817
30561
31046
31281
30659
30929
31120
31076
31109
30953
31407
31412
31178
31345
31660
31499
31381
31396
31973
31690
31376
31779
32226
31616
31602
31895
31865
31452
31582
32008
32006
31521
31773
31988
31960
31824
32163
32051
32035
31881
32160
32453
32008
32218
32172
32556
32160
32468
31938
33163
31539
32518
32907
32456
32487
32678
32346
32748
32619
32636
32769
32615
32589
33144
32715
32390
32686
32849
32707
32545
32928
32856
32726
32716
32780
32777
33026
32549
32736
32778
32477
32599
32899
32528
32127
32667
32339
32041
31865
31863
31448
31373
31169
31537
31387
31055
31149
31238
31141
31218
31062
31164
31032
30600
30979
31205
31089
30754
30914
30849
31269
30909
31059
30881
30622
31068
31166
31003
31174
31294
31265
31131
31307
31322
31457
31030
31218
31134
31514
31712
31394
31566
31552
31278
31689
31745
31900
31578
31689
31760
31810
31692
31809
32156
31876
31809
32164
32001
31750
32054
32464
32008
32002
32292
32455
32313
32294
32471
32831
32026
32294
32488
32382
32189
32822
32967
32404
32458
32425
32436
32382
32486
32784
32782
32224
32584
32739
32680
32472
32499
32795
32780
32771
32803
32926
32753
32565
33074
32918
32601
32499
32297
32838
32498
32740
32878
32665
32521
32358
32871
32646
31686
31788
31820
31610
31637
31454
31321
30975
31163
31277
31384
31278
30972
30885
31067
30486
30825
30832
30966
30764
31132
31055
30854
30720
31062
31094
30862
30949
31012
30885
30861
31257
31028
31386
31207
31364
31368
31150
31280
31110
31460
31470
31326
31882
31547
31130
31754
31701
31690
31495
31812
31779
31688
31719
31543
32067
31754
32011
31943
31866
32217
32058
32221
32143
31739
32098
32306
32079
31648
32390
32046
32411
32042
32519
32164
32114
32373
32197
32409
32133
32559
32349
32465
32569
32769
32577
32275
32588
31960
32663
31909
31946
32656
32633
32614
32721
32799
32737
32628
32755
32936
32786
32645
32804
32760
32575
32638
32896
32590
32257
32412
32345
32303
31643
32024
32063
31728
31380
31570
31513
31016
31135
30983
31119
31023
30901
31066
30148
30577
30959
31065
31040
30795
30888
30630
30212
30385
30600
30716
30834
30675
30999
30920
30684
31324
31041
30872
30832
31052
31089
31240
30798
31331
31240
31548
31610
31248
31524
31624
31538
31406
31356
31431
31499
31692
31859
31466
31430
31903
31775
31806
31712
31493
31637
31859
31991
32188
31671
32055
31951
32211
31965
31985
32223
32373
32288
32229
32306
32144
32263
32481
32342
32133
32458
32715
32277
32241
33348
32714
32336
32452
32869
32871
32311
32762
32760
32769
32505
32897
32709
32668
32419
32700
32797
32637
32854
32685
32799
32750
32510
32605
32513
32050
32442
32378
32293
31785
32149
31771
31568
31494
31606
31506
31229
31128
31269
31127
30407
30888
31068
30370
30742
31125
31138
30736
30327
30914
30628
30435
30520
30870
30906
30643
30967
30930
30888
30612
30727
31135
31146
30809
31011
31305
31383
30805
31189
31287
31372
31181
31575
31362
31240
31538
31826
31446
31349
31656
31557
31493
31461
31722
31911
31382
31550
31449
31808
31552
31591
31800
31826
31436
31964
31889
31853
31369
31629
31813
32094
32078
32045
32362
32115
32310
32231
32258
32618
32243
32425
32244
32536
32303
32401
32319
32148
32189
32317
32342
32137
32519
32286
32654
32610
32982
33223
32520
32725
32398
32609
32519
32647
32631
32541
32465
32607
32407
32438
32646
32663
32369
31993
32255
32057
31782
31251
31528
31714
31530
31191
31451
31263
30617
30928
30760
30794
30415
30861
30820
30815
30482
30896
30771
30775
30414
30730
30646
30282
30679
31124
30708
30594
30799
30952
30799
30466
30961
30937
31022
30881
31293
31318
30540
31191
31069
31314
31296
31135
31277
31394
31114
31689
31592
31427
31489
31471
31758
31365
31530
31999
31850
31314
31875
31733
31649
31564
31879
32181
31935
31753
31979
32200
32003
32030
32087
32210
31919
32160
32216
32216
31978
32264
32486
32162
32207
32285
32449
32492
31990
32442
32545
32718
32433
32287
32628
32371
32517
32585
32171
32403
32572
32346
32695
32568
32858
32554
32333
32428
32491
32619
32680
32623
32362
32360
32473
32089
32115
31812
31653
31741
31415
31104
31106
31353
30964
30862
30856
31131
30707
30434
30785
30469
30474
30250
30675
30700
30399
30394
30787
30842
30420
30368
30992
30374
30413
30433
30614
30662
30530
30751
30348
30218
30743
30454
30838
30397
30849
30944
31037
31379
30749
31228
31132
31403
31111
31123
31357
31247
31447
31441
31424
30781
31830
31344
31518
31728
31457
31590
31176
31534
31323
31660
31062
31191
31603
31708
31661
31854
31857
31558
31822
31709
31915
31743
31894
32185
31941
31760
32080
31875
32139
32096
32481
32148
31887
32073
32270
32457
32289
32422
32348
32263
32209
32427
32461
32813
32426
32493
32325
32356
32413
32174
32307
32269
32286
32469
32292
32249
32015
32049
31765
31509
31296
31530
30950
30893
31771
30837
30748
30670
31035
30603
30569
30627
30597
30546
30429
30600
30550
30261
30181
30887
30290
30361
30408
31423
30911
30009
30674
30604
30560
30341
30756
30628
30368
30528
30780
30743
30487
30654
31085
30833
30628
30801
30952
30984
31016
31144
31125
31283
30734
31151
31221
31605
31172
31176
31316
31314
31270
31326
31543
31080
31427
31609
31294
31275
31636
31647
31777
31760
31744
31775
32116
31948
31775
31860
31980
31848
32115
31892
31833
31972
32109
31995
31902
32011
32279
31765
32083
32307
32183
31915
32019
32015
32230
31994
32015
31705
32348
31933
31777
32625
32376
31694
31793
32902
31905
32364
32837
32155
31983
32142
32151
31800
31386
31612
31423
31102
30973
31197
30907
30815
30644
30706
30455
30239
30507
30649
30623
30315
30587
30690
30660
30255
30287
30334
30270
30127
30033
30450
30493
30177
30661
30458
29891
30493
30924
30509
30491
30727
30791
30560
30648
31151
31097
30901
31018
31218
31183
30984
31179
31107
30926
31021
31162
31355
30965
31198
31052
31280
31265
31297
31437
31441
31211
31487
31535
31696
31369
31688
31633
31904
31486
32159
31669
31797
31631
32050
31983
31455
32103
32239
32008
31839
32099
32035
32073
31809
32239
32123
32122
32040
32529
32330
31700
32352
33138
32346
31845
32412
33088
31746
32145
32463
32569
32265
32458
32545
32490
32342
32387
32517
32354
32129
32338
32395
32260
31994
32069
31760
31746
31295
31460
31657
31242
31118
31213
31104
30894
30913
30997
30890
30518
30810
30701
30632
30550
30703
30607
30547
30428
30685
30600
30668
30712
30890
30801
30691
30903
31092
31024
30619
31038
31176
31075
30879
31352
31200
30956
31048
31503
31383
30914
31016
31508
31484
31453
31461
31729
31652
31358
31689
31781
31487
31691
31775
31885
31700
31771
31889
31824
31764
31974
31986
31898
31912
32050
32253
31927
31944
32150
32256
31886
32061
32047
32120
32031
32184
32492
32323
32058
32548
32229
32161
32227
32553
32445
32398
32421
32499
32568
32432
32688
32664
32428
32348
32502
32711
32759
32816
32432
32601
32398
32570
32457
32509
32506
33108
32346
32179
31877
32072
31979
31725
31696
31487
31633
31055
31168
30821
30995
30610
30841
31035
30713
30688
30676
30538
30679
30813
30742
30905
30949
30306
30345
30358
30484
30611
30753
30546
30403
30661
30952
30573
30566
30662
30776
30498
30763
31056
31162
30821
31232
31353
30949
31060
31245
31246
31241
30829
31582
31240
31073
31087
31709
31729
30947
31306
31558
31552
30937
31571
31402
31533
31299
31607
31580
31839
31966
31933
31937
31685
31784
31947
32229
31759
32031
32066
32189
32090
32137
32172
31716
32145
32077
32285
32224
32143
31927
32344
32103
32200
32349
32266
32101
32443
32450
32390
32343
32502
32557
32601
32147
32698
32707
32477
32445
32529
32471
31589
32805
32128
32194
31560
31748
31807
31661
31179
31380
30892
30625
30874
30912
30647
30286
30543
30578
30456
30577
30447
30533
30468
30416
30262
30699
30474
30158
30271
30368
29993
30266
30487
30271
30578
30491
30594
30653
30299
30588
30771
30618
30675
30505
30990
31044
30353
30956
30939
30583
30928
30774
31037
30912
31190
31176
31303
31023
31115
31394
31124
31323
31517
31322
31083
31472
31248
31496
31347
31424
31864
31452
31265
31828
31613
31266
31647
31639
32296
31981
31877
31934
31913
31528
32025
32144
31870
32019
32212
32406
32038
31973
32079
32414
32125
32630
32309
32210
32191
32357
32314
32349
32235
32306
32352
32160
32434
32754
32339
32250
31857
32373
31820
31455
31991
32533
31591
31698
32050
31002
31446
30818
30464
30458
30411
30652
30552
30585
30768
30385
30404
30456
30348
30290
30472
30361
30099
30378
30389
29696
30074
31460
30541
29436
30384
30572
30310
30290
30541
30490
30501
30566
30678
30750
30279
30473
31530
30388
30831
31078
30843
30874
30837
31246
31355
31232
30727
30860
31315
31235
31021
31312
31532
30997
31439
31595
31221
31585
31411
31647
31530
31648
31627
31633
31687
31467
32014
32137
31276
31577
31954
31791
31901
31846
31668
31946
31648
32066
31819
32765
31839
32066
32251
32248
31888
32464
32106
31978
32181
32213
32264
32148
32216
32511
32304
32008
32611
32479
32313
32326
32246
32364
32698
32344
32564
32266
31849
32134
32052
31740
31540
31612
31627
31539
30834
30979
31172
30639
30740
30387
30706
29933
30421
30542
30342
29908
30170
30343
30264
29804
29936
30431
30184
30130
30364
30472
30148
30327
30653
30019
30070
30373
30046
29749
30125
30554
30744
30447
30493
30915
30880
30355
30674
30651
30796
30896
30819
31247
30917
30735
31065
31029
30919
30784
30844
31257
31003
31256
31228
31239
31225
31199
31357
31500
30987
31361
31393
31493
31340
31406
31637
31206
31546
31585
31631
31471
31519
31992
31752
31391
31668
31368
32635
32114
32082
32083
31875
32424
32131
32212
32042
32060
32108
32047
32190
32189
32060
32130
31971
32251
32168
32316
32299
32412
32239
32160
32320
32160
32115
32052
32071
32130
31866
31518
31790
31374
31424
30959
31111
30887
30466
30692
30404
30617
30255
30539
30415
30523
30593
30126
30194
30567
30019
30123
30754
30199
30156
30522
30284
30206
30153
30310
30345
30249
30656
30750
30553
30390
30169
30552
30764
30793
31193
30845
30843
30864
30923
31065
30812
30959
31282
31049
31042
31342
31404
31436
31205
31380
31327
31532
31308
31640
31605
31537
31382
31961
31608
31498
31781
31718
31749
31947
31734
31903
31941
31886
32393
31990
31942
31808
32157
31838
31658
32063
31482
31587
31735
32201
32057
32227
32107
32352
32022
31865
32157
32315
32074
32076
32331
32669
32226
31889
32503
32572
32544
32388
32476
32462
32090
32211
32174
32250
32083
32160
32141
32312
31725
32000
31885
31618
31174
31329
31264
31070
30899
30868
31044
30619
30704
30862
30815
30699
30538
30860
30673
30261
30669
30416
30274
30210
30810
30859
30213
30673
30788
30678
30714
30971
30964
30922
30699
30953
31192
30960
30731
31274
31276
30932
31148
31402
31381
31321
31321
31274
31614
31286
31884
31701
31550
31578
31927
31747
31604
31399
31918
31557
31518
31820
32125
31927
31763
32059
31937
31924
32134
32157
31924
31915
31996
32325
32266
32238
32166
32272
32334
32283
32312
32672
32248
32307
31798
32006
32528
32204
32490
32366
32031
32247
32658
32584
32382
32472
32517
32441
32632
32589
32883
32580
32519
32644
32790
32371
32422
32708
32540
32749
32501
32520
32522
32047
32336
32397
32220
31703
31935
32082
31700
31541
31788
31421
31318
31131
31257
31040
31161
30899
31067
30817
30743
30934
31007
30861
30797
31069
30725
30737
30633
30992
31267
30615
30862
30965
31085
30934
31146
31432
31206
30976
31298
31617
30888
31306
31399
31487
31187
31800
31351
31138
31172
31237
31325
32490
32254
31287
31494
31364
32170
31555
31831
31713
31827
32054
32144
31886
32170
32114
32162
32403
32147
32508
32234
32203
32362
32340
32167
32275
32557
32339
32205
32310
32179
32597
32552
32500
32335
32649
32307
32302
32772
32459
32560
32425
32611
32277
32395
32354
32542
32473
32664
32749
32613
32434
32604
32704
32368
32274
32547
32672
32524
32287
32387
32228
31893
32083
31771
31667
31519
31362
31618
30927
30549
31142
31234
31143
30842
30971
30909
30653
30735
30474
30619
30614
30695
30815
30555
30480
31018
30560
30247
30528
30824
30697
30605
30628
30852
30839
30690
31175
31084
31083
30743
31048
31309
31379
31113
31137
31385
30948
31403
31251
31790
31175
31675
31455
31436
31238
31671
31748
31946
31448
31813
31885
31832
31760
32010
31882
31756
32015
31529
31943
31766
31948
32143
31843
31981
32254
32213
32021
32052
32289
32327
31693
32046
32555
32253
32269
32286
32509
32142
32132
32672
32387
32024
32478
32373
32525
32269
32479
32911
33132
32668
32566
32405
32532
32220
32575
32820
32592
32603
32307
32430
32009
32163
32204
32020
32039
31921
31853
31517
31425
31457
31363
30936
31008
31012
30942
30448
30797
30771
30750
30746
30540
30647
30344
30317
30529
30532
30437
30292
30309
30553
30074
30339
30997
31257
30351
30696
30751
30548
30312
30769
30730
30788
30595
31051
30747
31199
30977
31435
31397
31105
31222
31677
31346
31219
32102
31803
31494
31400
31453
31714
31708
31545
31171
31723
31662
31810
31601
31707
31844
31691
31694
31936
31686
31928
32130
32256
31622
32282
32108
31976
32059
32362
31906
32332
32087
32275
32132
32589
32445
31870
32218
31761
32049
31984
32200
32321
32603
32423
32617
32329
32478
32559
32465
32568
32589
32600
32245
32558
32397
32428
32619
32214
32520
32349
32242
32497
32128
32204
31892
31675
31647
31200
31454
31352
31146
31158
30904
31095
30756
30513
30783
30679
29939
30656
30815
30610
30097
30608
30841
30348
30409
30614
30431
30212
30477
30742
30628
30610
30757
30729
31022
30699
31038
30891
31019
30775
31037
31224
31082
30953
31341
31093
31157
31165
31301
31396
30947
31582
31751
31565
31515
31739
31676
31675
31893
32153
31929
31606
31795
31718
31764
32032
31986
32345
32018
31786
32055
32063
32148
32461
31606
32371
32187
31767
31980
32108
32162
32281
32719
32302
32150
32166
32354
32302
31960
32277
32547
31979
32292
32588
32393
31980
31964
32482
32372
32284
32433
32624
32437
32433
32541
32549
32207
32387
32444
32341
31989
32324
32242
32029
31640
31870
31816
31411
31191
31448
31287
31090
30527
30811
30919
30749
30670
30710
30671
30559
30685
30688
30748
30700
30825
30845
30648
30617
30638
30452
30737
30671
30514
30867
30383
30833
31073
30804
31056
31216
31421
31356
31126
31525
31256
30800
31489
31262
31554
31545
31670
31960
31807
31541
31846
32066
31874
31956
32127
32030
31836
31644
32214
32037
31394
32336
32444
32422
31751
32315
32571
32273
32305
32095
32364
32245
32168
32289
32838
32355
32424
32566
32675
32022
32266
32779
32484
32329
32514
32564
32747
32421
32621
33084
32539
32373
32689
32715
32524
32633
33085
32694
33229
32822
32579
32727
32478
32769
32641
33037
32697
32664
32679
31943
32365
32142
32753
32582
32875
32528
32403
32106
30954
32176
30934
30869
31665
31257
31467
31526
31070
31211
31074
30977
31006
30975
30928
30815
31048
31083
30758
31141
31449
31163
31228
31249
31251
31469
31465
31205
31385
31495
31565
31399
31359
31664
31692
31848
31802
31654
31822
32020
30795
31801
31980
32068
31660
32104
32098
31841
31869
32232
32328
31885
32005
32238
32085
32097
32363
32582
32414
32146
32387
32616
32290
32049
32579
32807
32535
32345
32414
32797
32283
32365
32492
32690
32215
32684
32575
32636
32545
32523
32593
32582
32429
32922
32581
32375
32822
32775
32745
32369
32413
32477
32951
32604
32588
33011
32652
32157
32771
32608
32498
32390
32285
32374
31608
31863
32139
31831
31231
31573
31437
31282
30927
31213
31304
30691
30925
30996
31092
30686
30488
31299
30489
30647
30730
30876
30807
30350
30882
30836
30845
30569
30864
31036
31089
30722
31344
31306
30738
30815
31243
31127
30943
31035
31309
31150
31248
31576
31448
31281
31150
31707
31543
31554
31689
31674
31580
31418
31566
31555
31645
31484
31822
31683
31915
31805
31952
32021
31982
31868
32044
32213
31950
31460
32000
32132
31703
32013
31891
32145
32090
32082
32460
32029
32181
31869
32190
31933
32152
32318
32287
32098
32501
32422
32304
32391
32557
32571
33032
32359
32435
32396
32361
32241
32970
32530
32237
32255
32734
32382
32044
32313
32421
31839
31935
32109
31906
31588
31598
31527
31282
30578
30974
31445
31539
31110
30874
31505
29988
29844
29946
30071
30724
30338
30469
30442
30296
30559
30455
30398
30288
30551
30146
30574
29988
30609
30545
30453
30610
30723
30503
29932
30094
31498
30915
30799
31461
31226
30926
30547
31377
30941
30920
31346
30927
31257
31631
31215
31042
31379
31924
31208
31546
31380
31344
31411
31438
31209
31178
31609
31392
31220
31221
31873
31475
31607
31863
31382
31553
31279
31766
31803
31864
31328
31717
31886
31656
31659
31959
32035
31948
31315
31889
32028
31934
32211
32144
32040
32318
32281
32175
32097
32423
32448
32391
32118
32103
32549
32342
32336
32185
32518
32255
31462
32081
32574
31995
31420
31600
31534
31167
30680
31965
30768
30497
31105
30511
30768
30576
30652
30787
30682
30628
30599
30456
30459
30581
30101
30618
29763
30555
30159
30378
30159
30996
30705
30459
30219
30524
30719
30409
30384
30892
30829
30740
30641
31261
30912
30920
30948
30806
31009
30888
31233
31384
31286
31094
31228
31054
31453
31050
31296
31646
31271
31368
31591
31633
31196
31556
31546
31710
31604
31721
31720
31750
31549
31863
31829
31821
31509
31815
32006
31845
31895
32287
32178
31894
32245
31935
32139
32116
32425
32187
31747
31948
32444
32217
31722
32402
32448
32122
31999
32320
32444
32107
32301
32202
32529
32416
32419
32632
32147
32072
32365
32293
32229
31982
32031
32119
31834
31486
31207
31371
31166
31132
30974
31139
30978
30950
31264
30789
30479
30621
30708
30569
30423
30098
30439
30624
30457
30624
30475
30353
30523
30194
30702
30458
30772
30879
30729
30580
30751
30999
30705
30901
30841
31040
31116
30899
31056
31096
30895
31198
31240
31586
30688
30806
31773
31633
31770
31725
32004
31833
31952
32292
32282
31721
31929
31124
31988
31897
32021
31927
31775
31755
31669
32076
32223
31670
31834
31717
32437
32304
32577
32143
32325
31859
31616
31648
32795
32339
32407
32250
32227
32177
32319
31878
32231
32505
32645
32002
32330
32517
32230
32278
32475
32691
32436
32144
32252
32635
32250
32171
31991
32366
31939
32183
32084
32153
31812
31859
32155
31846
31602
31477
31501
31282
31136
31301
30817
31019
30752
30650
30763
30694
30756
31059
30509
30644
30092
30767
30378
30267
30600
30731
30386
30647
30820
30687
30463
30908
30651
30911
30492
31645
31014
31039
31021
31249
31210
31152
31065
31314
31617
31182
31334
31677
31315
31510
31461
31544
31505
31544
31511
31580
31843
31622
31523
31619
31550
31560
31771
31861
31752
31754
31905
31799
32030
32026
32072
31970
31916
31990
31980
32028
32460
32446
32017
32453
32151
32560
32238
32148
32162
32446
32372
32048
32554
32172
32487
32464
32686
32530
32354
32353
32731
32342
32319
32635
32463
32324
32339
32402
32485
32335
32144
32525
32512
32105
31970
31964
31899
31486
31735
31496
31344
30914
31070
31234
31094
30776
30736
30842
30639
30396
30471
30570
29983
30361
30569
31292
30127
30504
30505
30413
30521
30505
30481
29898
30618
30603
30522
30668
30713
30948
30775
30614
30762
31253
30950
30696
31434
31079
30993
30911
31105
31241
31039
31046
31170
31331
31322
31273
31544
31466
30931
31461
31746
32203
31395
31732
31735
31238
31410
31146
31627
31626
31593
31832
31709
31546
31900
31763
31882
31671
31796
32122
31761
31856
32087
31892
31826
32152
32026
32330
31675
32155
32267
32222
31794
32350
32451
32187
31873
32295
32202
32074
32292
32242
32327
32148
32343
32218
32404
32247
32394
32177
32451
31790
33114
32094
32580
31538
31742
31111
31795
31536
31232
31333
30703
30860
30946
30223
30498
30796
30538
30189
30419
30289
30394
30127
30504
30454
30407
29851
30269
30356
30109
30214
30168
30524
30323
30339
30851
30763
30381
30493
30066
30846
30065
30717
30793
30777
30856
30987
30934
30961
30778
30450
31080
30593
30814
31132
31028
31115
31310
31362
31239
31344
31226
31396
31355
31295
31397
31500
31233
31993
31887
31449
31479
31551
31785
31752
31819
31631
32044
31827
31568
31941
31819
31761
31915
32005
32003
31870
31987
32065
31983
31436
32114
32227
32255
31954
32158
32277
31615
31947
32546
32131
32118
31662
31940
32456
32004
32320
32483
32222
31998
32144
31904
32080
31628
31748
31767
30306
30872
30680
31282
29943
31118
30746
30774
30270
30575
30583
30242
30224
30448
30381
30125
30254
30407
30432
30291
30245
30279
30281
30061
30205
30267
30277
30114
30071
30124
30293
29961
30188
30596
30030
30448
30550
30438
30199
30559
30317
30917
30325
30569
30719
30739
30679
31186
31080
30769
30982
30735
30940
30881
31128
31097
31179
30693
31110
31264
31246
30948
31863
31187
31178
31462
31590
31547
30582
31209
31246
31430
31229
31526
31687
31512
31348
31858
31941
31865
31999
31972
31807
31739
31877
31798
32036
32418
31991
32302
32145
32039
32183
32109
31601
32015
32225
32100
32054
32510
32019
32162
32083
32122
31850
32031
31810
32018
31700
31736
31473
31498
31480
31198
30735
31127
30657
30356
30596
30290
30389
30016
30029
30257
30181
29981
30118
30238
29820
30006
30025
30057
30032
29689
30015
30037
30058
30000
29751
29848
29741
30246
30153
30214
29950
30144
30163
29887
30234
30488
30487
30057
30390
30723
30543
30167
30757
30603
30909
30669
31175
30946
30785
30617
30882
30910
30980
30873
31195
30719
30691
31120
31089
30513
30866
31304
31106
31093
31122
31358
31411
31098
31407
31790
31260
30802
31423
31845
31576
31503
31437
31811
31422
31087
31751
31664
31313
31431
31716
31815
31443
31812
31634
31748
31502
31531
31442
31860
31357
31971
31659
31700
31507
31881
31972
31871
31850
32031
31744
31539
31473
31523
31117
30922
30701
30813
30526
30127
30323
30032
30236
30033
30231
30103
29647
29921
30086
29388
29538
29853
29509
29950
29703
29765
30117
29981
29750
29639
29850
29670
29802
30200
29708
29518
30078
29841
29993
29563
30281
30387
29895
30124
29978
30159
30072
30336
30592
30296
30190
30358
30664
30979
30549
30645
30661
30374
30342
30776
30822
30748
30901
30919
30929
30690
31022
30669
31078
31012
31071
30791
31335
31581
31510
30998
30477
31547
30885
31013
30889
31510
31554
31322
31368
31589
31537
31484
31599
31913
31825
31751
31653
31116
31753
31718
31874
32104
31852
31656
31862
31889
32018
31796
31984
31913
31640
31967
32079
32057
31995
31951
31602
31847
31854
31732
31520
31589
30983
31422
31098
30677
30812
30935
30225
30282
30348
30595
30210
30247
30203
30152
30035
29931
30295
30168
30078
29676
30022
30080
29963
29716
30017
30104
29907
29951
30112
30198
29905
30241
30357
30362
30128
30568
30263
30043
30516
30385
30592
30450
31311
31453
30930
29925
30857
30865
30869
30650
31031
30980
30853
30677
30929
31016
30609
30840
31291
30941
30685
31250
31212
31206
31049
31414
31276
31253
30786
31629
31801
31144
31478
31703
31581
31298
31559
31616
31706
31700
31766
31803
31717
31575
32113
31768
31753
31690
31829
31859
31782
31935
31740
32025
31796
31895
31948
31830
31851
31821
31676
32196
32126
32768
32062
31883
31850
31755
31564
31721
31531
31231
31250
30803
30315
30483
30828
30476
30575
30373
30293
30121
30403
30298
29678
30068
30141
29867
30011
29955
30294
29718
29727
30343
29683
29310
29674
30516
30103
29450
30285
30599
30123
29891
30276
30174
30216
30208
30409
30524
30405
30289
30403
30506
30311
30602
30852
30749
30332
30597
30102
30786
30497
31271
31225
30593
30682
30522
31001
30681
30913
31047
31048
31020
30842
31369
31247
30946
31258
31889
31835
30888
30648
31728
30922
31135
31728
30827
31632
31605
32126
31385
30902
30991
31279
31729
31531
31694
31788
31636
31791
32158
31891
31782
31626
31604
31772
31284
31998
31888
31982
31437
32094
32441
31716
31988
31775
31921
31438
31735
31791
31589
30967
31420
31374
31433
30786
29903
30499
30597
29781
30255
29997
29567
29763
29799
29818
29730
29954
30001
30118
29619
29899
29921
29726
29200
29668
29791
29627
29640
29806
29877
29381
30092
30264
29959
29972
29327
30199
30155
30245
30550
30297
30341
30496
30423
30562
30365
30503
30585
30645
30546
30574
30805
30779
30733
30866
30955
30423
30738
31296
31014
31186
30697
30955
31215
30511
31089
30961
31266
30935
31221
31333
31202
31326
31454
31192
31386
31114
31575
31895
30925
31380
31823
31605
31343
31706
31589
31799
31626
31652
31706
31615
31698
31804
31763
31687
31944
31823
31899
31544
31988
31877
31851
31689
32028
31943
32076
31756
31837
32014
31885
31601
31371
32140
31201
31490
31009
31150
30719
30890
30679
30597
30006
30518
30458
30337
29871
30346
30166
29619
29872
30096
29859
29747
30071
29707
29201
29673
29835
29998
29652
29837
30060
30062
29691
29922
29809
30082
29838
30156
30139
29502
30162
30395
30697
30251
30412
30660
30613
30328
30554
31026
30612
30421
30776
30792
30895
30651
31014
30784
31013
30926
31231
31164
30592
31110
31282
31393
31346
31247
31691
31563
31086
31351
31675
31198
31193
32048
31587
31413
31492
32109
31738
31363
31593
32065
31752
31364
31859
32081
31953
31815
32209
31688
31705
31892
32450
32181
32894
31797
32135
32073
31681
31840
31837
32023
31824
32058
32125
31889
31712
31967
32002
31815
31954
31974
31865
31376
31615
31835
31372
31252
30635
30706
30892
30555
30638
30505
30419
30226
30302
30128
30178
30081
30359
30127
30087
30214
30295
29674
30002
30244
30053
29715
30109
30246
30067
30175
30081
30434
30423
29907
30398
30503
30684
30406
30826
30491
30630
30189
30623
30306
31100
31217
31387
31027
31113
31227
31327
31139
31165
31245
31360
31047
31506
31311
31319
31233
31509
31601
31628
31455
31646
31730
31665
31822
31796
31615
31781
31670
31612
32109
32269
31710
31988
32149
31567
31965
32069
32037
31833
32047
32173
31963
31707
31444
32431
32009
31624
32257
32152
31841
32090
32076
32334
32076
31818
32333
32151
31852
31690
31934
32307
32196
31922
32261
32160
31593
31854
32007
31736
31794
31835
31633
31554
31713
31400
31460
31182
31364
31055
30767
30669
30949
30677
30591
30669
30536
30525
30176
30695
30524
30538
30180
30556
30448
30596
30635
30566
30989
30107
30105
31176
30793
30518
30975
31086
31099
30660
31344
31389
31218
31299
31461
31706
31647
31261
32013
31847
31567
31643
31916
31569
31262
31900
31814
31873
31368
31837
32250
31552
31860
31784
32259
31526
31997
32384
31803
31935
32708
32659
32049
32007
32348
32355
32482
31985
32869
32491
32042
32287
32365
31970
31896
32237
32250
32688
31790
32487
32570
32421
32037
32601
32375
32191
32345
32327
32405
32329
32400
32770
32418
32444
32498
32330
32400
32150
32446
32446
32168
32253
32357
32325
32258
32190
32423
32155
31905
32484
32018
31790
31532
31725
31780
31413
31198
31566
31269
31145
31165
31053
31032
30841
31384
31063
30966
30883
31173
31319
31055
30823
31288
31263
31380
30939
31633
31517
31023
31543
31376
31351
30952
31787
31781
31848
31437
31531
31943
31909
31597
31703
32165
31987
31900
31728
31950
31873
32084
32243
31205
31464
31970
31604
31678
31787
31888
32195
31985
32020
32507
32285
31707
32230
32161
32177
32325
32416
32319
32339
32062
32574
32144
32287
32112
32652
32397
32048
32397
32733
32618
32035
32386
32119
32566
32064
32400
32458
32010
32433
32426
32266
32216
32371
32943
32526
32260
32689
32576
32269
32086
32666
32174
32234
32151
32267
32217
32145
32335
32262
32222
32048
31939
31662
31406
31747
31768
31686
31800
31352
31263
31385
30707
31010
31173
31298
31216
31060
30950
30528
30895
31169
30882
30807
30780
30905
31221
30922
30934
31240
31306
31238
31403
31832
31543
31000
31789
31925
31451
31535
31914
31872
31381
31599
31958
31932
31756
31849
31543
31983
32103
31961
31779
31931
31852
32242
32136
32132
32293
31937
32327
31725
32116
31975
32351
31559
32219
32395
32261
31703
32320
32071
32240
31919
31968
32204
32030
32205
32384
32156
32173
32371
32152
32908
31784
32412
31898
32203
32045
32389
32517
32244
32420
32230
32651
32285
32349
32498
32441
32288
32606
32326
32328
32444
32642
31944
31915
31987
32683
31828
32547
32223
31725
32927
31195
32727
31298
31977
31607
32511
32072
31569
31356
32178
31739
31473
31092
31576
31301
31222
30890
31458
30767
31560
30842
30714
31111
31112
31042
31308
30826
31032
31022
31515
30991
31315
31581
31543
31383
31511
31853
31531
31451
31964
31848
31391
31812
31808
31956
31851
31831
32141
31997
31686
31978
32138
31948
31766
31984
32344
31511
32042
32083
32209
31987
31870
32652
32851
31896
32099
32133
32280
32027
32443
32357
32232
31894
32558
32331
32253
32066
32545
32100
32257
32322
32496
32563
31850
32395
32088
32410
32099
32589
32197
32393
32186
32220
32295
31974
32394
32325
32278
31947
32489
33053
32420
32149
32594
32518
32517
31938
32455
32329
32624
32232
32595
32279
32160
32422
32261
32287
31913
32180
32368
31944
31978
31800
31672
31630
31645
31568
31621
31435
31542
31331
31400
31411
31523
31403
31357
31325
31494
31362
31146
31544
31673
31528
31378
31824
31996
31696
31077
31853
31846
31722
31453
31966
32189
31783
31809
32310
32239
31598
31795
32130
32033
31849
32203
32032
32087
31908
32434
32232
32161
32153
32376
32280
32163
31877
32235
32190
31856
32297
32370
32434
32017
32006
32287
32486
32407
32452
32296
32144
32382
32328
32640
32671
32267
32177
32577
32026
32475
32495
32349
32460
32564
32628
32624
32146
32398
32402
32349
32228
32390
32326
32269
32487
32404
32441
32439
32327
32538
32383
32405
32670
32547
32221
32415
32907
32472
31564
32379
32457
32397
32088
32291
31926
32157
31950
32204
31954
31620
31774
31950
31690
31658
31616
31696
31646
31330
31534
31752
31357
31246
31603
31445
31474
31125
31364
31771
31268
30986
31256
31685
31728
31788
31825
31881
32050
31872
32135
32019
31815
32108
31896
31668
32143
32141
32313
32020
32231
32507
32153
32427
32245
32509
32139
32184
32565
32148
32169
32302
32934
32018
32630
32207
32053
32240
32095
32618
32364
32233
32176
32501
32600
32353
32284
32567
32331
32146
32322
32822
32595
32281
32587
32808
32506
32288
32605
32609
32390
32481
32429
32395
32403
32372
32524
32533
32227
32484
32410
32443
32514
32805
32582
32500
32482
32379
32559
32423
32409
32335
32563
32275
32301
32561
32431
32543
32209
32159
32310
32238
32223
32179
31911
31918
31882
31954
31643
31786
31754
31591
31670
31539
32289
31548
31460
31354
31470
31297
31187
31764
31682
31604
31375
31686
31612
31754
31874
31666
31849
31800
32180
32134
32052
31837
32330
31906
32237
31955
32142
32871
31671
32174
32498
32222
31991
32194
32117
31700
31925
32325
32248
32197
31963
32150
32138
32152
32160
32532
32386
32343
32263
32834
32977
32705
32201
32851
32400
32070
32385
32390
31880
32369
32377
32553
32292
32493
32178
32258
32134
32355
32568
32371
31889
32457
32571
32140
32366
31676
32333
32144
32448
32830
33239
32394
33321
32651
31650
32189
32816
32673
32096
32518
32785
32384
32392
32565
32778
32306
32163
32278
32102
32235
32031
31893
32139
31746
31685
31541
31521
31196
31755
31070
31448
30981
31872
30658
31214
31027
31333
31946
31202
30869
30826
31122
30876
30929
31016
31260
30768
31225
31522
31201
31090
31359
31431
31288
31209
31509
31722
31713
31436
31756
31718
31294
31558
31529
31704
31454
31891
31779
32065
31645
32270
31968
31795
31814
32500
31985
31705
31973
31901
32097
32252
32012
32295
32199
31714
32016
32100
32245
31784
31994
32076
32152
31914
32203
32134
31619
32144
32048
32329
31953
32285
32089
32662
32489
32308
32040
31787
32152
32464
32435
32179
32326
32707
32290
31906
32403
32540
32099
32123
32125
32442
32270
32125
31849
32373
32282
32379
32489
32348
32082
32383
32430
32148
31647
31934
31977
32151
31719
31734
31852
31151
31460
31843
31270
30916
31160
31224
31302
30997
31042
31141
30930
30753
30907
31134
30806
30801
31175
31129
30532
31087
31169
30914
30684
30779
30973
31828
30697
31237
31322
31303
31276
31075
31391
31383
31251
31392
31686
31495
31787
31689
31691
31330
31774
31602
31543
31764
31789
31634
31638
31719
31816
31873
31202
31856
31968
31881
31711
31978
32068
31816
31888
32225
32115
31659
32130
32506
31888
32563
31912
32183
32404
31956
32286
32264
32219
31974
32066
32073
31876
31942
32337
32262
32190
32187
32334
32190
32403
32403
32731
32425
31910
32199
32332
32083
31828
32103
32177
32446
32190
32623
32349
32449
32219
32625
32261
32093
32083
32105
31992
31784
31528
31796
31914
31571
31967
31398
31421
31328
31565
31212
31030
31025
31742
31005
31018
31121
31180
30620
31014
30825
30735
30356
30903
31220
30842
30574
31208
31111
30999
30196
31097
30888
31064
31197
31503
31548
31400
31556
31313
31554
31565
31594
31655
31724
31642
31900
31636
31735
31801
32110
31720
31677
31763
32054
31990
31647
31798
32191
32001
31827
31982
31835
32095
31933
32223
32175
32027
32035
32234
32454
31891
32232
32483
32249
31637
32234
32356
32003
32170
32149
32238
32077
31973
32650
32460
31767
32122
32228
32449
32258
32468
32707
32303
31985
32367
32340
32104
32205
32275
32375
32057
32031
32218
32507
32189
32298
32490
32172
31878
32252
32122
32444
31850
32178
32054
31717
31625
31789
31580
31567
31495
31528
31314
31080
31073
31029
31214
30697
30889
30916
30833
30808
31290
30790
30808
30795
30834
30899
30494
30831
30836
30701
30953
30834
30864
31117
30975
31397
31252
30939
31290
30790
31222
31193
31335
31479
31487
31309
31330
31517
31471
31186
31631
31508
31463
31489
31012
31682
31383
31781
31747
31990
31802
31872
31949
31746
31827
31830
32277
31781
31852
32004
31946
31518
31913
32573
31892
31353
32080
32368
32154
32024
32484
32197
32185
31987
31834
32319
31743
32067
32324
32165
32258
32205
32205
32586
31957
32192
32194
32347
31971
32522
32457
32240
32014
32050
32029
31918
32267
32270
32233
31907
32199
32093
32318
32142
31900
31627
31789
31702
32124
31746
31447
31375
31260
31492
30950
31154
31672
31244
31020
30713
31087
30552
30774
31189
30507
30492
30382
30581
30868
30546
30898
30581
30482
30755
31205
30330
31139
30808
31351
31395
31411
30213
31452
30922
31684
30693
30966
30906
31323
30906
32049
31579
31560
31126
31877
31647
31548
31514
31613
31484
31689
31722
31872
31669
32129
31896
31531
31602
32010
31965
31862
31813
32293
31905
31942
31903
32418
31774
31791
32094
32322
32021
32162
32310
31914
31833
31809
32504
32249
32034
32264
31997
32763
31343
32218
32243
32144
32284
32146
32335
32293
32306
32106
32164
32126
32187
32306
32443
31706
32187
32254
32168
32054
32374
31983
32327
32104
32368
32080
31992
31941
32173
31928
31325
31617
31792
31907
31160
31436
31688
31136
30794
31240
31387
31226
30826
31082
30946
31040
30775
30875
30894
31056
31136
31221
30842
31071
31246
31378
31100
30758
31342
31129
31190
31427
31449
31465
30916
31457
31776
31650
31520
31704
31807
31771
31608
32294
31755
31576
31587
31656
31971
31515
31801
31692
31869
31557
31871
31783
32017
31457
32340
31967
32029
31888
32416
32097
32009
32167
31734
32064
31544
32058
32208
32137
31943
32044
32262
32223
31932
32004
32165
