27120
27086
27063
27129
27128
27227
27214
27277
27282
27166
27266
27162
27297
27292
27371
27503
27367
27374
27564
27413
27491
27468
27628
27510
27634
27605
27673
27686
27777
27626
27690
27629
27717
27642
27527
27779
27732
27760
27619
27644
27677
27672
27710
27710
27887
27756
27955
27821
28014
27838
28087
28191
28126
28246
28287
28295
28161
28152
28223
28395
28269
28285
28492
28378
28360
28438
28614
28483
28460
28663
28560
28590
28685
28740
28770
28650
28739
28901
28840
28763
28868
28883
28922
28949
28932
28918
29042
28994
28978
29065
29062
29050
29182
29058
29113
29235
29163
29252
29242
29116
29300
29158
29155
29223
29306
29436
29319
29330
29300
29301
29406
29503
29476
29452
29427
29446
29340
29469
29418
29299
29002
28874
28852
28569
28582
28380
28398
28249
28192
28053
28053
27979
27969
27876
27941
27970
27841
27880
27855
27782
27847
27722
27751
27924
27756
27702
27741
27941
27919
27864
27923
27843
27885
27898
27909
27909
27973
27964
27882
28022
27965
27985
28119
28181
28241
28166
28255
28329
28425
28441
28441
28573
28450
28552
28583
28426
28530
28511
28570
28727
28584
28662
28526
28675
28580
28755
28698
28743
28648
28792
28767
28843
28865
28936
28989
28988
28940
29068
29049
28989
28967
29173
29140
29053
29044
29273
29259
29316
29263
29319
29307
29295
29350
29339
29314
29360
29302
29318
29475
29430
29266
29375
29509
29430
29471
29339
29386
29371
29456
29476
29403
29505
29471
29445
29521
29465
29488
29564
29476
29411
29619
29534
29500
29565
29473
29548
29695
29535
29586
29619
29582
29576
29566
29637
29563
29763
29751
29645
29771
29624
29702
29680
29596
29666
29520
29435
29421
29166
29223
28992
28781
28738
28421
28435
28417
28261
28213
28172
28228
28053
27895
28038
28082
27872
28009
27956
27874
27910
27899
27857
27857
27913
27674
27778
27869
27735
27658
27660
27659
27734
27807
27663
27772
27705
27893
27908
27845
27946
27990
27987
28122
28052
28156
28116
28012
28177
28204
28082
28092
28145
28280
28108
28108
28325
28166
28204
28245
28160
28202
28254
28123
28353
28329
28368
28360
28288
28299
28260
28294
28372
28461
28341
28430
28457
28388
28505
28498
28525
28490
28533
28468
28433
28450
28522
28613
28491
28648
28515
28716
28631
28711
28784
28766
28845
28851
28790
28793
28794
28735
28837
28718
28847
28815
28923
29054
28922
28835
29057
28931
29043
29041
28897
29067
28951
29010
28911
29049
29157
29036
29206
29078
29191
29143
29001
29160
29170
29111
29133
29174
29246
29128
29145
29167
29181
29279
29270
29080
29131
28889
28741
28718
28710
28316
28223
28143
28249
28128
28117
27957
28046
27810
27912
27835
27784
27689
27804
27702
27585
27720
27641
27524
27545
27474
27654
27593
27559
27710
27636
27615
27499
27452
27496
27701
27621
27594
27580
27664
27684
27712
27774
27732
27706
27690
27833
27809
27735
27810
27755
27882
27908
28002
27967
27983
27976
28044
28034
28130
28052
27954
28085
28071
28022
28160
28173
28108
28124
28243
28161
28276
28155
28179
28304
28179
28372
28244
28150
28361
28432
28436
28472
28517
28352
28355
28492
28430
28540
28497
28461
28611
28610
28732
28598
28528
28713
28792
28697
28742
28757
28705
28669
28854
28818
28891
28905
28951
28743
28762
28970
28862
29000
28791
28897
28956
29039
28878
29080
29068
29053
28918
28979
29144
29069
29200
29037
29150
29178
29158
29273
29178
29195
29251
29150
29268
29190
29245
29211
29360
29211
29302
29331
29246
29301
29378
29372
29381
29221
29038
28971
29002
28748
28638
28354
28208
28169
28034
28191
27959
27971
27809
27765
27749
27849
27749
27668
27694
27795
27743
27796
27802
27549
27687
27596
27563
27715
27508
27641
27495
27620
27542
27595
27639
27616
27680
27640
27655
27620
27554
27574
27649
27750
27647
27845
27844
27716
27843
27790
27914
27882
28058
28084
28105
28091
27962
28205
28017
27955
28016
28066
28160
28181
28232
28062
28285
28211
28173
28179
28122
28169
28341
28348
28311
28373
28376
28446
28384
28415
28441
28333
28510
28447
28529
28560
28629
28659
28487
28529
28557
28607
28658
28672
28697
28763
28784
28773
28644
28871
28886
28881
28980
28965
28905
28868
28916
29074
28920
28919
29084
29026
29040
29049
29003
29101
29067
29169
29237
29239
29179
29317
29287
29130
29230
29208
29152
29279
29300
29241
29376
29278
29273
29218
29403
29398
29326
29257
29360
29424
29421
29473
29427
29335
29411
29431
29456
29473
29439
29515
29540
29339
29340
29263
29173
29228
28966
28776
28732
28610
28391
28381
28361
28156
28085
28006
28124
27976
28064
27859
27856
27837
27915
27768
27738
27752
27741
27740
27789
27725
27845
27843
27810
27614
27723
27773
27677
27698
27818
27739
27619
27743
27747
27781
27827
27845
27797
27918
27906
27971
27965
28006
28076
28178
28118
28280
28154
28184
28178
28300
28299
28201
28194
28214
28370
28361
28277
28203
28360
28248
28416
28367
28350
28437
28481
28286
28541
28394
28377
28374
28578
28632
28417
28588
28582
28674
28629
28550
28774
28746
28639
28760
28648
28869
28735
28728
28852
28747
28877
28837
28982
28893
29053
29028
29038
28990
28938
28974
29103
29068
29065
29138
29108
29017
29035
29199
29110
29165
29140
29008
29049
29068
29250
29046
29089
29245
29182
29276
29155
29299
29113
29320
29266
29123
29250
29276
29198
29268
29391
29400
29434
29329
29318
29215
29316
29277
29251
29305
29142
29155
28923
28745
28655
28566
28368
28267
28225
28161
28104
28028
27918
27965
27984
27831
27718
27796
27847
27655
27796
27661
27553
27666
27708
27693
27658
27749
27703
27587
27558
27693
27574
27670
27626
27732
27732
27534
27785
27767
27772
27709
27799
27854
27874
27931
27956
27867
28029
27945
27850
28066
28019
28087
28057
28086
28067
27986
28086
28055
28063
28153
28071
28093
28068
28153
28150
28080
28156
28273
28277
28129
28119
28242
28298
28322
28330
28391
28255
28360
28259
28399
28438
28528
28590
28552
28414
28463
28652
28676
28560
28496
28531
28778
28594
28765
28700
28810
28740
28778
28860
28746
28783
28852
28782
28846
28876
28873
28885
28933
29009
28856
28981
29023
28833
28884
29001
29012
28912
29042
28989
29076
28944
29003
29058
28957
29087
29173
29030
29048
29162
28979
29047
29183
29165
29058
29274
29176
29116
29227
29183
29256
29240
29196
29056
29089
28980
28715
28532
28424
28312
28122
28137
27943
28013
27826
27831
27912
27720
27749
27866
27615
27731
27770
27568
27548
27538
27609
27494
27584
27649
27606
27509
27629
27603
27551
27561
27626
27550
27568
27556
27659
27657
27587
27557
27552
27589
27655
27740
27753
27738
27903
27761
27887
27878
27935
27904
28043
28003
27970
27929
28123
27939
28043
28008
28119
28135
28100
27999
28117
28209
28206
28272
28297
28251
28312
28204
28253
28170
28294
28204
28208
28340
28391
28227
28252
28319
28235
28277
28507
28431
28395
28576
28590
28572
28614
28528
28691
28704
28548
28674
28608
28595
28629
28693
28816
28729
28803
28770
28777
28776
28730
28792
28714
28907
28904
28926
28858
28815
28840
28997
28975
29033
28977
28857
28978
29102
29075
29040
28929
28923
29035
29041
29073
29071
29008
29068
29101
29131
29265
29167
29054
29150
29089
29185
29127
29174
29377
29185
29227
29325
29149
29280
29134
29055
28826
28836
28581
28529
28391
28125
28189
27986
27949
27958
27835
27872
27727
27851
27639
27650
27714
27748
27628
27614
27731
27514
27434
27528
27627
27563
27566
27610
27510
27628
27486
27635
27428
27541
27536
27531
27568
27490
27466
27522
27617
27487
27723
27636
27704
27641
27798
27771
27639
27848
27830
27888
27765
27823
27959
27867
27877
27842
28043
27921
27902
27973
27896
27895
28002
28099
27939
28105
28163
27954
28062
28055
28049
28125
28172
28191
28084
28169
28276
28323
28385
28325
28294
28448
28248
28278
28454
28452
28434
28616
28542
28450
28576
28591
28681
28526
28595
28836
28755
28784
28783
28778
28841
28847
28890
28874
28827
28807
28796
28804
28996
28908
28973
28863
29019
29044
28904
29022
29056
29083
29009
29006
28922
29087
28946
28925
28962
29093
29049
28912
29116
29169
29194
29122
29169
29136
29043
29218
29118
29186
29206
29161
29116
29164
29182
29260
29171
29156
29248
29255
29220
29097
29012
28923
28749
28519
28456
28380
28251
28138
28027
28042
27908
27929
27916
27777
27908
27696
27728
27727
27654
27631
27754
27609
27563
27712
27708
27667
27629
27604
27722
27495
27564
27703
27661
27483
27533
27668
27505
27479
27493
27501
27671
27770
27753
27686
27758
27733
27704
27878
27861
27817
27908
27939
27926
27884
28051
28033
28025
28058
27972
27972
28024
27990
28057
28048
27999
28184
28110
28085
28119
28163
28164
28180
28220
28237
28241
28289
28287
28274
28324
28285
28338
28367
28466
28408
28458
28532
28535
28525
28667
28573
28526
28686
28473
28532
28588
28671
28567
28639
28721
28672
28654
28810
28852
28784
28870
28852
28725
28810
28939
28914
28910
28868
28915
28925
29059
28922
28857
28975
28915
28899
29071
28930
29062
28950
29041
29041
29067
29183
29109
29146
29080
29125
29101
29026
29085
29088
29172
29197
29087
29261
29122
29131
29185
29276
29204
29056
28956
29040
28791
28601
28564
28292
28146
28214
28059
27925
27849
27816
27890
27865
27871
27694
27644
27803
27565
27716
27693
27563
27544
27607
27672
27559
27483
27557
27473
27530
27413
27521
27402
27434
27420
27522
27413
27517
27582
27676
27487
27670
27528
27537
27655
27620
27790
27731
27787
27837
27851
27792
27943
27944
27902
27866
27940
27866
28056
27953
28071
27946
28053
27845
27891
28056
27905
27979
28060
27991
28040
28109
28031
28139
28105
28149
28224
28171
28317
28385
28351
28429
28338
28407
28323
28317
28299
28526
28534
28472
28562
28489
28460
28588
28556
28491
28642
28448
28681
28628
28578
28555
28555
28523
28640
28713
28631
28709
28596
28594
28653
28715
28588
28706
28650
28627
28701
28738
28789
28807
28771
28770
28956
28887
28996
28889
28804
28960
28960
28920
28927
28932
28986
28895
28954
28886
28885
28889
28970
29014
28910
29039
29005
28744
28810
28726
28425
28315
28222
28107
28089
27944
27869
27920
27738
27633
27752
27670
27711
27583
27634
27454
27565
27380
27462
27349
27490
27540
27444
27499
27438
27517
27336
27482
27493
27524
27452
27461
27370
27374
27425
27478
27535
27463
27513
27491
27514
27570
27502
27575
27677
27705
27807
27828
27765
27841
27872
27732
27950
27886
27914
27801
27931
27865
27774
27965
27792
27982
27833
27798
27875
27851
27880
28014
27942
28004
28057
28037
27999
28041
28039
28128
28055
28302
28269
28154
28199
28346
28381
28209
28331
28395
28474
28549
28369
28484
28414
28587
28596
28609
28555
28619
28593
28634
28741
28653
28568
28758
28633
28823
28665
28767
28750
28785
28920
28935
28987
29009
28924
28930
28888
29030
28926
29053
28878
28927
29089
29080
29036
29108
29042
29011
29050
29004
29046
29123
29239
29031
29264
29114
29120
29162
29236
29240
29118
29286
29220
29291
29171
29007
29094
28969
28814
28499
28468
28261
28315
28119
27970
27929
27868
27954
27805
27823
27820
27697
27727
27665
27709
27623
27515
27572
27606
27532
27426
27541
27521
27475
27553
27448
27431
27424
27494
27469
27563
27632
27455
27460
27508
27666
27555
27534
27638
27710
27705
27667
27654
27802
27779
27822
27827
27880
27946
28060
27970
28012
28119
28016
28145
28210
28200
28160
28118
28116
28177
28143
28216
28238
28125
28219
28342
28361
28204
28399
28454
28350
28381
28368
28312
28431
28469
28570
28435
28500
28488
28662
28627
28680
28568
28622
28606
28700
28768
28882
28812
28932
28884
28990
28931
29029
29008
29081
29027
29134
29049
29109
29097
29138
29271
29228
29322
29297
29134
29167
29219
29227
29278
29270
29411
29229
29243
29267
29455
29402
29388
29289
29350
29441
29496
29515
29448
29460
29406
29417
29548
29485
29409
29555
29471
29554
29570
29581
29529
29612
29642
29619
29558
29502
29528
29472
29415
29311
29098
28921
28667
28623
28404
28358
28259
28135
28258
28162
28028
28151
28092
28115
28119
28066
28123
27928
27965
28037
27992
28002
27959
27957
27887
28044
27960
27871
28103
27920
27959
27890
27953
27893
27979
27912
28003
28189
28090
28118
28207
28294
28217
28222
28338
28327
28461
28397
28508
28516
28563
28542
28709
28570
28584
28555
28686
28576
28701
28708
28584
28570
28467
28679
28663
28702
28720
28617
28801
28790
28675
28686
28879
28672
28803
28743
28747
28775
28869
28845
28980
28912
29025
28999
29112
29036
29117
29053
29018
29025
29187
29188
29108
29194
29137
29084
29252
29308
29223
29178
29323
29207
29314
29462
29282
29398
29333
29309
29313
29346
29384
29405
29356
29447
29441
29514
29502
29493
29625
29460
29419
29497
29602
29476
29538
29484
29667
29641
29648
29601
29591
29629
29635
29658
29703
29745
29645
29784
29580
29666
29482
29409
29362
29134
29015
28871
28715
28552
28369
28467
28233
28294
28076
28081
28052
28156
28030
28037
27988
28051
27992
28108
28029
27905
28002
28114
28040
27838
27973
27999
27886
27971
27807
28004
28037
27954
28069
28017
28115
28004
27970
28060
28282
28267
28091
28310
28333
28295
28361
28327
28394
28414
28396
28366
28539
28393
28534
28429
28354
28396
28593
28385
28391
28560
28393
28475
28483
28436
28427
28616
28638
28471
28661
28479
28604
28693
28667
28732
28636
28755
28658
28806
28730
28836
28874
28707
28783
28750
28748
28969
28979
28801
28825
28892
29055
28966
29072
29031
29000
29030
28978
29037
29020
29109
29065
29108
29156
29179
29138
29088
29119
29290
29256
29154
29162
29260
29122
29349
29342
29256
29383
29235
29392
29239
29204
29351
29401
29318
29426
29389
29330
29401
29520
29359
29562
29497
29365
29362
29431
29243
29242
28991
28985
28931
28660
28602
28359
28221
28333
28151
28043
28036
28142
28069
27886
27944
27797
27969
27949
27890
27777
27865
27803
27741
27828
27738
27824
27747
27846
27722
27852
27861
27839
27714
27852
27793
27895
27896
27926
27975
27968
27810
27909
28029
27929
28122
27984
28113
28266
28211
28168
28230
28411
28362
28454
28316
28296
28283
28291
28255
28446
28340
28336
28284
28388
28371
28368
28433
28426
28493
28509
28565
28536
28578
28469
28486
28525
28475
28490
28606
28681
28641
28689
28667
28553
28600
28767
28645
28760
28726
28882
28740
28720
28859
28828
28873
28856
29005
28844
28784
28862
28871
28850
28986
28968
29049
28915
29025
29106
29081
29173
29122
29098
29019
29197
29067
29233
29121
29229
29174
29170
29084
29116
29084
29196
29125
29240
29140
29323
29235
29246
29148
29353
29360
29190
29233
29362
29300
29383
29311
29270
29224
29224
29126
29098
28818
28818
28616
28494
28355
28192
28211
27967
28056
28001
27762
27794
27691
27824
27679
27763
27586
27745
27587
27578
27573
27549
27619
27482
27628
27508
27546
27433
27533
27404
27520
27576
27625
27647
27559
27618
27552
27654
27497
27530
27528
27567
27733
27760
27780
27823
27838
27912
27783
28031
27872
28066
28132
27985
28113
28007
27980
27970
28068
28129
28117
28223
28120
28193
28147
28188
28121
28170
28207
28250
28112
28265
28284
28274
28347
28316
28394
28373
28266
28425
28474
28418
28419
28584
28408
28488
28481
28675
28590
28518
28653
28588
28775
28755
28769
28616
28631
28639
28683
28754
28751
28756
28743
28918
28918
28854
28825
28873
28996
28872
28796
28844
28836
29015
28920
29043
28929
28987
28893
28955
28995
28972
29045
28948
29096
29205
29176
29032
29111
29006
29207
29075
29257
29247
29244
29304
29233
29281
29342
29242
29162
29150
29145
29043
28890
28907
28788
28666
28406
28381
28159
28096
28075
28080
27945
27833
27830
27821
27843
27822
27653
27588
27780
27656
27736
27758
27641
27554
27673
27651
27557
27598
27569
27540
27699
27716
27517
27555
27696
27664
27731
27728
27759
27609
27822
27842
27905
27892
27836
27851
28009
27969
27949
28046
28099
28000
27990
28126
28174
28099
28038
28174
28118
28150
28134
28134
28103
28079
28267
28185
28237
28212
28276
28285
28234
28255
28204
28174
28407
28475
28301
28251
28346
28333
28375
28423
28607
28629
28438
28586
28667
28610
28652
28710
28635
28667
28673
28769
28916
28919
28976
28985
28951
28840
29038
29026
28906
28916
29039
28885
29003
29187
29108
29121
29104
29109
29120
29176
29275
29166
29135
29181
29180
29240
29242
29196
29290
29240
29198
29341
29358
29417
29367
29423
29408
29255
29445
29502
29440
29507
29582
29533
29598
29601
29620
29583
29470
29569
29525
29497
29387
29262
28958
28834
28589
28443
28351
28296
28192
28244
28064
27972
27984
28068
27808
27870
27887
27947
27811
27701
27746
27766
27754
27776
27712
27692
27706
27654
27595
27673
27661
27678
27680
27617
27591
27689
27731
27668
27689
27681
27809
27783
27803
27786
27959
27973
27907
27886
27981
27979
27970
27919
27990
28034
28157
28195
28185
28171
28033
28012
28026
28034
28021
28120
28160
28049
28021
28121
28259
28131
28057
28145
28185
28184
28309
28277
28332
28341
28303
28339
28427
28233
28415
28442
28345
28384
28481
28588
28494
28619
28560
28519
28581
28534
28704
28574
28733
28633
28712
28594
28721
28798
28854
28673
28766
28637
28665
28751
28747
28708
28807
28874
28902
28775
28702
28857
28780
28892
28748
28780
28803
28830
28908
28992
28885
28937
28828
28964
28990
28991
29099
29010
29080
29017
29079
28986
28926
28979
28964
28789
28838
28828
28596
28463
28255
28298
28044
27909
27870
27865
27754
27690
27731
27655
27674
27501
27682
27587
27622
27496
27603
27516
27451
27424
27518
27356
27363
27312
27376
27364
27288
27355
27340
27368
27333
27354
27340
27462
27474
27423
27380
27397
27484
27589
27512
27698
27569
27654
27555
27608
27684
27650
27788
27698
27707
27805
27666
27714
27702
27710
27796
27670
27800
27706
27778
27848
27811
27798
27788
27776
27823
27772
27873
27779
27932
28027
28013
28075
27886
28050
28088
28110
28059
28040
28105
28217
28030
28115
28216
28124
28324
28352
28231
28378
28381
28266
28391
28317
28463
28432
28458
28567
28556
28510
28509
28600
28518
28510
28643
28611
28695
28560
28479
28679
28578
28638
28669
28540
28714
28583
28741
28590
28618
28711
28690
28808
28761
28866
28751
28863
28870
28667
28804
28906
28968
28956
28774
28987
28831
28736
28803
28693
28636
28449
28443
28148
28138
28009
27703
27818
27795
27749
27692
27466
27429
27433
27426
27393
27401
27446
27408
27395
27325
27221
27356
27153
27298
27264
27319
27215
27242
27224
27263
27228
27217
27087
27137
27069
27192
27160
27221
27177
27117
27325
27256
27236
27265
27301
27469
27329
27443
27593
27559
27580
27542
27564
27577
27575
27515
27564
27581
27618
27698
27606
27751
27639
27574
27588
27534
27615
27815
27786
27601
27751
27795
27682
27782
27817
27849
27740
27884
27933
27870
27871
28003
27852
28001
27951
28088
27965
28097
28114
28189
28154
28192
28174
28081
28274
28134
28105
28336
28277
28195
28335
28426
28193
28350
28371
28422
28426
28390
28360
28402
28368
28428
28506
28482
28330
28427
28390
28409
28485
28593
28548
28451
28512
28546
28588
28577
28657
28642
28578
28706
28668
28634
28743
28576
28683
28551
28643
28633
28649
28746
28726
28681
28572
28365
28419
28171
28059
27971
27883
27778
27633
27708
27605
27578
27442
27531
27379
27439
27392
27215
27164
27163
27154
27252
27217
27277
27207
27104
27213
27181
27023
27183
27060
27126
27088
27110
27216
27174
27127
27071
27044
27175
27001
27139
27135
27030
27213
27354
27212
27199
27418
27310
27462
27541
27436
27493
27536
27519
27531
27574
27622
27605
27585
27614
27768
27591
27778
27704
27696
27680
27772
27759
27659
27766
27667
27675
27812
27913
27788
27941
27833
27921
28033
27880
28094
27920
28006
28033
28145
28214
28177
28166
28266
28314
28146
28170
28367
28255
28316
28383
28318
28475
28329
28524
28428
28351
28576
28466
28399
28640
28569
28499
28535
28591
28516
28593
28460
28473
28567
28592
28632
28592
28536
28628
28639
28664
28725
28703
28776
28752
28666
28689
28748
28850
28724
28910
28747
28801
28922
28959
28964
29014
28871
29016
28883
28924
28865
28817
28779
28704
28713
28583
28405
28344
28115
28073
27811
27859
27870
27759
27603
27662
27525
27425
27444
27408
27403
27389
27379
27320
27390
27245
27320
27269
27318
27232
27256
27206
27294
27301
27229
27180
27269
27271
27377
27306
27246
27200
27290
27369
27421
27448
27512
27304
27361
27525
27407
27630
27664
27651
27586
27752
27610
27669
27732
27786
27869
27716
27717
27841
27780
27814
27807
27848
27707
27799
27702
27822
27741
27842
27973
27896
27874
28028
27855
28062
27970
27940
27952
27990
28236
28033
28191
28278
28147
28244
28168
28210
28197
28271
28400
28457
28417
28349
28494
28469
28417
28498
28444
28479
28678
28606
28477
28644
28466
28476
28573
28643
28693
28565
28554
28694
28702
28663
28547
28706
28567
28772
28690
28583
28615
28610
28617
28617
28684
28725
28844
28798
28911
28895
28942
28835
28840
28947
29057
28913
28875
28824
28914
28912
28857
28858
28740
28701
28527
28382
28177
28220
27943
27919
27926
27704
27717
27751
27534
27509
27472
27518
27386
27431
27331
27371
27342
27350
27487
27444
27450
27381
27381
27246
27423
27311
27402
27443
27310
27395
27253
27455
27267
27353
27436
27437
27458
27588
27403
27458
27527
27555
27507
27688
27800
27727
27619
27721
27742
27769
27883
27816
27717
27800
27789
27708
27724
27858
27804
27716
27729
27719
27816
27718
27871
27940
27759
27942
27925
27784
27800
27998
28013
27877
27893
27945
27925
27985
28077
28063
27961
28133
28141
28026
28047
28093
28094
28206
28186
28127
28194
28136
28215
28234
28210
28170
28349
28382
28236
28343
28474
28384
28412
28376
28505
28413
28489
28413
28391
28438
28570
28407
28317
28367
28589
28369
28638
28506
28485
28638
28563
28689
28553
28523
28596
28638
28614
28539
28695
28733
28665
28738
28573
28710
28668
28540
28367
28208
28190
28034
28028
27809
27620
27559
27673
27527
27536
27286
27233
27365
27330
27286
27207
27117
27106
27021
27152
27015
26984
27138
27040
26969
27038
26879
26947
27037
27044
27024
26889
26899
26837
26899
26861
27068
26864
26954
26855
26954
26955
27154
27062
27012
27149
27181
27239
27214
27263
27328
27290
27243
27312
27440
27409
27375
27324
27372
27468
27453
27331
27420
27352
27403
27372
27531
27453
27374
27519
27584
27549
27540
27514
27505
27702
27648
27657
27679
27778
27818
27688
27708
27836
27843
27931
27773
27846
27897
27849
27865
27865
27982
28092
28031
28135
28024
27966
28102
28197
28102
28152
28234
28206
28188
28131
28135
28259
28330
28277
28369
28247
28387
28308
28212
28407
28305
28441
28256
28365
28463
28325
28431
28519
28410
28412
28509
28575
28542
28395
28507
28580
28421
28586
28591
28584
28540
28651
28715
28589
28470
28517
28579
28423
28363
28183
28052
27904
27698
27701
27562
27617
27434
27538
27310
27340
27247
27124
27258
27244
27096
27058
27048
26999
27067
26998
27071
27074
27080
27035
27030
27010
26963
27017
27047
26892
26789
26856
27005
26990
27047
26902
26958
26842
27043
27075
27039
26906
27113
27121
27189
27112
27265
27106
27266
27349
27159
27244
27361
27243
27331
27287
27271
27292
27389
27299
27397
27334
27291
27343
27332
27419
27267
27343
27307
27297
27335
27541
27400
27567
27527
27588
27542
27683
27480
27451
27673
27503
27687
27733
27680
27625
27559
27715
27740
27730
27759
27752
27834
27855
27751
27943
27967
27949
27807
28036
27885
28106
27977
28047
27987
28135
28002
27996
28071
28001
28124
28241
28073
28111
28150
28227
28298
28193
28099
28235
28327
28318
28299
28306
28218
28382
28245
28342
28243
28302
28341
28306
28430
28550
28396
28519
28557
28420
28401
28424
28594
28409
28535
28461
28414
28433
28495
28302
28097
27986
28029
27782
27741
27574
27552
27519
27514
27443
27292
27211
27303
27260
27130
27080
27187
26968
27093
27030
27015
26962
26954
26971
27079
27088
26983
26995
26881
26955
26973
26923
26942
27021
27075
26979
26880
26982
27092
26905
27050
26960
27009
27232
27072
27170
27251
27305
27277
27436
27401
27320
27441
27399
27475
27350
27354
27500
27367
27514
27594
27517
27435
27457
27520
27476
27625
27549
27639
27580
27544
27718
27638
27653
27624
27656
27718
27808
27756
27609
27728
27892
27871
27788
27886
27940
27848
27883
27921
28103
27926
27957
27946
28046
28214
28164
28214
28124
28291
28147
28200
28145
28159
28400
28408
28368
28293
28320
28454
28343
28403
28289
28402
28552
28482
28402
28357
28627
28390
28610
28489
28651
28431
28582
28601
28567
28648
28606
28491
28528
28585
28679
28592
28682
28770
28765
28764
28679
28748
28835
28839
28891
28863
28778
28799
28756
28768
28747
28629
28453
28427
28184
28172
27984
27971
27799
27753
27625
27524
27546
27439
27433
27411
27482
27227
27247
27364
27183
27239
27206
27276
27318
27208
27128
27181
27283
27201
27154
27152
27147
27208
27191
27243
27258
27183
27244
27147
27250
27158
27218
27362
27333
27332
27423
27480
27290
27411
27373
27648
27438
27489
27634
27540
27547
27496
27501
27598
27690
27624
27560
27733
27640
27635
27595
27592
27691
27609
27663
27785
27750
27774
27769
27664
27783
27806
27831
27832
27894
27979
27788
27930
27825
27997
27883
27907
27992
28097
28187
28076
28089
28078
28274
28164
28177
28132
28117
28290
28192
28150
28320
28282
28376
28264
28357
28447
28332
28436
28284
28224
28398
28299
28307
28387
28262
28408
28259
28333
28535
28474
28528
28515
28431
28513
28460
28407
28504
28400
28520
28417
28474
28527
28464
28569
28461
28561
28541
28567
28468
28428
28446
28261
28285
28013
27895
27911
27678
27621
27469
27528
27446
27314
27230
27249
27292
27127
27214
27188
27038
26979
27050
26997
26988
26898
26993
27035
26901
26830
26927
26752
26959
26903
26826
26830
26938
26884
26754
26832
26879
26974
26805
26846
26814
27051
27150
26964
27014
27067
27176
27163
27207
27081
27144
27080
27252
27347
27218
27133
27134
27359
27239
27319
27211
27382
27255
27384
27317
27190
27350
27203
27417
27434
27410
27345
27447
27380
27502
27443
27495
27441
27416
27529
27520
27513
27547
27639
27535
27608
27544
27525
27550
27613
27748
27578
27618
27643
27688
27679
27864
27860
27829
27825
27852
27781
27892
27842
27842
27844
27801
27959
27891
27916
27965
27905
27862
27861
28043
27944
27951
28110
28115
27948
28021
27993
27987
28202
28120
28141
28217
28169
28149
28212
28263
28214
28338
28266
28206
28213
28282
28379
28276
28400
28230
28357
28261
28052
28180
27845
27863
27733
27540
27611
27336
27220
27227
27298
27242
27036
27048
27092
26984
26971
26972
26898
26821
26856
26768
26711
26671
26872
26651
26645
26827
26610
26666
26595
26642
26582
26744
26696
26661
26734
26674
26606
26606
26758
26751
26775
26755
26781
26823
26796
26731
26851
26796
26912
26917
27064
27132
26968
27163
26970
26992
27145
27035
27085
27209
27198
27244
27138
27149
27101
27261
27088
27134
27198
27245
27311
27217
27293
27343
27316
27215
27375
27346
27421
27484
27480
27378
27476
27662
27679
27698
27684
27827
27672
27709
27863
27812
27900
27842
27976
27858
27845
27873
27956
28101
27968
27988
28034
28073
27999
28102
28140
28079
28151
28144
28139
28058
28221
28057
28191
28219
28202
28263
28188
28184
28144
28218
28160
28226
28206
28257
28161
28247
28326
28352
28283
28348
28458
28332
28410
28329
28345
28281
28450
28486
28389
28428
28439
28426
28303
28171
28318
28279
27983
27847
27672
27591
27666
27501
27275
27286
27412
27291
27258
27045
27129
27158
26964
26937
26903
27028
26788
26957
26774
26792
26931
26917
26782
26882
26866
26875
26878
26721
26859
26796
26773
26691
26649
26762
26898
26753
26760
26745
26890
26877
26823
26922
27024
26891
26974
26982
27036
27045
27135
27036
27151
27203
27275
27124
27263
27366
27262
27311
27363
27224
27399
27329
27446
27411
27276
27319
27517
27395
27472
27495
27582
27595
27516
27529
27644
27679
27630
27661
27748
27765
27766
27914
27853
27794
27903
27903
27965
27829
27959
28003
28083
28034
28131
28130
28139
28219
28293
28168
28174
28183
28361
28207
28391
28427
28424
28279
28352
28452
28491
28537
28502
28514
28564
28626
28618
28741
28623
28717
28645
28771
28728
28821
28720
28773
28875
28752
28716
28818
28885
28813
28955
28937
28942
28848
28997
28860
29007
28886
29005
28906
28901
29068
29108
29028
29028
28985
28930
28949
28885
28811
28687
28615
28459
28282
27997
28063
27774
27844
27688
27636
27588
27512
27463
27462
27471
27409
27372
27292
27313
27317
27333
27211
27226
27131
27236
27225
27195
27213
27138
27153
27139
27206
27149
27265
27205
27208
27164
27174
27096
27179
27203
27362
27327
27236
27242
27355
27286
27536
27365
27447
27601
27512
27402
27630
27518
27450
27539
27464
27545
27656
27623
27680
27727
27685
27565
27626
27553
27676
27704
27588
27644
27610
27822
27777
27804
27694
27647
27850
27734
27778
27852
27954
27870
27865
27995
27936
28007
28182
28120
28099
28235
28264
28204
28421
28236
28420
28383
28379
28355
28426
28309
28476
28534
28453
28514
28571
28534
28625
28539
28509
28485
28711
28527
28668
28707
28596
28704
28667
28672
28576
28700
28777
28718
28641
28738
28765
28834
28754
28825
28724
28811
28754
28688
28835
28902
28920
28712
28909
28760
28800
28908
28737
28750
28717
28543
28533
28363
28284
28055
27990
27880
27915
27741
27813
27704
27609
27680
27661
27626
27407
27403
27396
27482
27437
27360
27424
27351
27226
27193
27371
27454
27269
27384
27334
27355
27218
27399
27137
27376
27240
27306
27216
27390
27405
27262
27384
27504
27552
27573
27555
27544
27569
27667
27575
27619
27612
27755
27713
27711
27738
27775
27705
27586
27734
27692
27698
27756
27716
27769
27811
27745
27858
27823
27751
27861
27813
27852
27982
27796
27972
27851
27981
27864
28058
27877
28065
27996
28000
28020
28124
28083
28166
28277
28164
28324
28286
28260
28315
28234
28340
28361
28322
28285
28439
28309
28387
28469
28373
28338
28412
28437
28470
28372
28417
28525
28407
28561
28558
28429
28523
28644
28583
28563
28500
28520
28620
28631
28479
28699
28742
28641
28700
28660
28681
28712
28583
28649
28623
28749
28592
28645
28797
28761
28645
28474
28475
28263
28154
27948
27860
27870
27778
27692
27582
27498
27449
27407
27347
27255
27381
27412
27240
27246
27249
27235
27192
27240
27148
27165
27012
27200
27150
27013
27062
27081
27002
27015
27017
27073
27112
26924
27020
27125
27018
27059
27026
27043
27234
27106
27150
27224
27375
27359
27337
27409
27263
27451
27425
27461
27339
27468
27422
27451
27386
27528
27530
27498
27477
27569
27434
27404
27524
27555
27546
27607
27633
27463
27578
27473
27719
27664
27656
27742
27771
27772
27807
27702
27680
27812
27947
27872
27995
27785
27797
27986
28024
27991
28060
28111
27989
28113
28109
27984
28012
28222
28205
28247
28180
28094
28281
28258
28287
28189
28198
28217
28361
28303
28215
28287
28272
28340
28443
28358
28475
28318
28475
28416
28487
28380
28575
28345
28526
28529
28475
28438
28554
28514
28537
28530
28571
28540
28686
28561
28639
28787
28669
28595
28713
28567
28492
28302
28151
28001
27885
27918
27709
27732
27530
27602
27323
27516
27315
27401
27258
27340
27137
27159
27174
27229
27139
27013
27084
27027
27068
27035
27082
27030
27030
27043
27106
27065
26976
26969
26876
26942
26966
26969
27050
26920
27076
27078
27036
27150
27028
27131
27153
27151
27212
27153
27230
27217
27395
27453
27367
27455
27434
27415
27303
27476
27402
27429
27362
27444
27492
27399
27439
27441
27592
27635
27663
27575
27604
27535
27562
27643
27591
27554
27606
27800
27656
27714
27749
27800
27835
27919
27776
27934
27972
27933
27946
28002
28107
28044
28110
28042
28099
28113
28071
28251
28283
28082
28379
28251
28335
28230
28231
28299
28401
28311
28452
28292
28489
28320
28303
28337
28461
28403
28419
28555
28404
28500
28404
28540
28624
28537
28619
28561
28674
28674
28694
28686
28498
28673
28715
28680
28759
28567
28637
28793
28691
28760
28819
28879
28754
28843
28761
28653
28656
28561
28458
28238
27999
27962
27852
27731
27503
27539
27406
27452
27412
27415
27280
27285
27254
27118
27147
27073
27104
27227
27191
27222
27061
27194
26978
27013
27084
27003
27133
27091
26945
27101
27015
26974
27033
27009
27012
27033
27018
27134
27251
27268
27266
27238
27273
27334
27305
27372
27428
27388
27465
27590
27534
27584
27499
27477
27462
27446
27461
27654
27640
27596
27646
27560
27657
27594
27652
27564
27669
27655
27622
27649
27699
27693
27687
27631
27732
27789
27706
27827
27854
27773
27916
27978
27880
28013
27939
28096
28126
27909
28168
28115
28145
28182
28286
28119
28074
28247
28188
28214
28155
28234
28269
28186
28227
28442
28485
28287
28457
28412
28332
28501
28479
28495
28442
28396
28466
28396
28545
28537
28586
28630
28615
28587
28665
28620
28549
28661
28747
28696
28682
28692
28849
28774
28822
28797
28828
28855
28762
28900
28845
28786
28875
28816
28982
28856
28907
28978
28899
29039
28833
28676
28579
28418
28178
28057
28065
27991
27696
27739
27758
27669
27673
27622
27570
27400
27388
27435
27313
27349
27266
27395
27292
27303
27326
27361
27221
27374
27210
27342
27194
27087
27219
27271
27314
27161
27204
27288
27170
27296
27456
27359
27268
27377
27370
27490
27396
27554
27459
27684
27562
27643
27696
27675
27691
27779
27764
27809
27706
27772
27653
27622
27731
27642
27796
27773
27742
27885
27812
27726
27742
27840
27823
27917
27907
27947
27825
27975
28120
27951
28127
28026
28124
27974
28095
28164
28210
28209
28117
28084
28111
28339
28271
28398
28330
28283
28234
28367
28492
28417
28522
28431
28477
28368
28466
28391
28547
28506
28347
28556
28454
28538
28609
28435
28582
28468
28553
28545
28617
28546
28570
28674
28592
28542
28710
28505
28559
28591
28590
28626
28730
28774
28698
28783
28681
28719
28807
28786
28845
28752
28687
28753
28684
28802
28768
28540
28629
28325
28263
28218
27940
27870
27881
27615
27553
27641
27427
27585
27472
27281
27315
27411
27270
27325
27160
27119
27195
27297
27129
27146
27207
27063
27186
27239
27171
27063
27048
27215
27104
26999
27123
27217
27112
27228
27184
27248
27250
27168
27274
27257
27385
27327
27501
27365
27561
27444
27451
27582
27619
27516
27495
27540
27487
27617
27638
27491
27671
27656
27486
27510
27630
27532
27651
27664
27587
27652
27713
27604
27726
27743
27666
27635
27794
27682
27812
27795
27805
27831
28016
27876
27953
27960
27985
27999
27989
28038
28066
28108
28042
28053
28159
28228
28161
28300
28231
28276
28228
28250
28197
28298
28311
28254
28260
28323
28431
28296
28326
28425
28529
28440
28414
28558
28503
28545
28565
28505
28653
28646
28502
28695
28678
28675
28570
28561
28605
28744
28632
28710
28587
28845
28804
28718
28786
28756
28668
28664
28660
28780
28799
28757
28689
28700
28694
28750
28685
28552
28506
28335
28119
27924
27929
27705
27656
27536
27523
27378
27489
27306
27261
27186
27181
27327
27193
27228
27061
27057
27067
27197
27026
27102
27004
26998
27043
26977
27078
26999
26922
26987
27028
27001
26922
27110
27034
27020
27081
27164
26992
27228
27100
27069
27290
27296
27354
27278
27395
27340
27361
27292
27439
27401
27395
27391
27527
27576
27562
27432
27610
27573
27527
27519
27454
27514
27508
27672
27582
27727
27620
27727
27682
27799
27724
27803
27857
27716
27861
27947
27799
27999
28066
28015
28030
28079
28003
28015
28149
28225
28214
28272
28196
28171
28309
28178
28334
28258
28283
28477
28339
28318
28416
28508
28550
28499
28427
28539
28622
28463
28452
28508
28670
28611
28465
28684
28559
28615
28661
28625
28754
28660
28792
28699
28764
28790
28722
28765
28756
28673
28812
28679
28818
28748
28788
28989
28939
28837
28840
28955
29001
28862
29082
28955
28951
29066
29036
28894
28813
28821
28796
28414
28456
28248
28108
27776
27749
27824
27577
27561
27612
27416
27468
27385
27458
27459
27428
27244
27370
27415
27389
27392
27362
27186
27193
27247
27328
27285
27161
27273
27130
27293
27154
27204
27143
27336
27265
27165
27250
27291
27286
27416
27355
27277
27493
27499
27519
27693
27640
27687
27697
27724
27757
27727
27751
27757
27816
27792
27731
27726
27842
27785
27860
27835
28025
27774
27999
27774
27761
28002
27948
27905
28010
28047
27930
28130
28057
27946
28174
28245
28247
28034
28070
28115
28280
28174
28175
28243
28306
28300
28435
28400
28346
28495
28474
28479
28525
28533
28553
28638
28541
28508
28571
28705
28613
28757
28685
28616
28837
28758
28728
28761
28914
28891
28746
28805
28760
28791
28769
28837
28829
28898
28825
28890
29070
28864
28986
29018
29032
29100
28940
29114
29041
29065
29061
29181
29064
29130
29195
29220
29111
29114
29159
29199
29223
29164
29099
29201
29006
29109
28934
28688
28525
28325
28318
28036
28129
27896
28042
27730
27838
27627
27640
27625
27633
27518
27573
27376
27494
27480
27515
27379
27396
27487
27376
27387
27439
27315
27428
27476
27539
27378
27556
27473
27525
27560
27513
27425
27466
27547
27698
27711
27699
27789
27830
27870
27836
27759
27868
27843
27941
28046
28051
27968
28093
28025
28092
28139
28081
28018
28129
28138
28209
28077
28103
28058
28034
28161
28093
28101
28336
28180
28374
28292
28346
28442
28424
28396
28459
28335
28390
28413
28475
28390
28625
28568
28487
28529
28633
28640
28772
28727
28689
28733
28855
28778
28904
28811
28945
28826
28919
28809
28944
29030
29036
29057
28923
29020
28986
28912
28952
28901
28991
29069
29093
28965
28918
28905
29096
29056
28974
29023
29009
29066
29208
29159
29102
29117
29181
29073
29234
29092
29082
29307
29130
29158
29356
29253
29127
29307
29267
29058
29218
29128
28998
28921
28804
28618
28400
28344
28122
28053
27926
27901
27714
27749
27759
27685
27756
27644
27673
27510
27612
27588
27477
27389
27392
27539
27467
27521
27360
27511
27387
27316
27404
27485
27345
27530
27568
27547
27548
27456
27588
27609
27634
27516
27708
27671
27685
27830
27836
27880
27843
27900
27887
27963
27842
27961
27919
28047
27999
28054
27982
28105
28043
28113
27968
28104
27951
27985
28046
28034
28140
28097
28042
28140
28254
28113
28190
28185
28211
28289
28308
28406
28221
28429
28486
28325
28512
28554
28446
28428
28581
28596
28546
28676
28675
28757
28718
28596
28687
28645
28782
28902
28739
28786
28917
28764
28962
28977
28932
28861
28847
28912
28909
28943
29066
28929
29115
28889
29032
28937
29034
28958
29028
29154
29115
29065
29128
29241
29018
29023
29039
29242
29112
29093
29137
29081
29273
29188
29221
29175
29240
29297
29248
29216
29208
28979
28893
28750
28805
28599
28287
28283
28059
27961
27832
27826
27730
27567
27702
27499
27514
27633
27556
27555
27551
27496
27563
27533
27436
27473
27385
27332
27397
27429
27452
27262
27426
27351
27360
27423
27415
27386
27437
27373
27370
27374
27455
27570
27511
27544
27629
27729
27569
27779
27692
27687
27805
27829
27713
27822
27764
27836
27811
27979
27881
27958
27964
27964
27899
28014
27944
27849
28011
27863
27944
28030
28011
28000
28056
27990
28169
28196
28050
27970
28052
28047
28075
28164
28124
28228
28186
28284
28447
28357
28502
28359
28500
28468
28409
28434
28660
28550
28550
28585
28743
28777
28778
28631
28798
28901
28909
28966
28876
28925
28903
28972
28899
28941
28905
28991
28987
28999
29021
28999
29096
29043
29147
29062
28987
29109
29110
29206
29165
29238
29125
29077
29271
29182
29198
29380
29379
29412
29289
29306
29395
29243
29426
29280
29386
29284
29470
29342
29456
29505
29301
29242
29248
29040
28810
28689
28554
28440
28364
28232
28097
28063
27950
27980
27802
27842
27832
27825
27708
27791
27613
27682
27735
27666
27678
27590
27755
27612
27696
27556
27593
27544
27547
27569
27490
27584
27628
27677
27572
27524
27535
27664
27666
27831
27797
27803
27837
27975
27922
27927
27968
28062
28152
28124
28147
28255
28128
28243
28194
28172
28189
28229
28328
28159
28300
28224
28377
28172
28390
28268
28296
28282
28477
28241
28349
28430
28468
28427
28476
28405
28646
28691
28599
28720
28615
28653
28683
28766
28812
28807
29030
28924
28970
28963
28900
29017
29138
29042
29159
29143
29198
29305
29329
29331
29305
29354
29359
29387
29497
29485
29438
29419
29547
29406
29546
29532
29496
29519
29629
29678
29636
29534
29700
29533
29668
29635
29573
29681
29775
29721
29818
29671
29867
29731
29725
29862
29791
29779
29797
29736
29784
29878
29821
29891
29845
29806
29873
29810
29841
29835
29932
29889
29759
29858
29752
29675
29419
29180
29068
28838
28705
28539
28472
28204
28295
28089
28010
28167
28017
28102
28011
27924
27935
27748
27934
27784
27866
27915
27798
27749
27870
27806
27868
27747
27783
27756
27894
27685
27818
27827
27847
27817
27723
27847
27936
27779
27844
27988
27944
28050
27997
28184
28009
28232
28162
28145
28338
28201
28388
28407
28397
28418
28390
28405
28253
28320
28377
28377
28520
28413
28462
28420
28555
28368
28559
28421
28468
28524
28596
28505
28639
28718
28736
28608
28751
28699
28839
28854
28876
28896
28904
28946
28977
28958
28911
29004
29091
28988
29222
29062
29136
29280
29228
29215
29238
29183
29251
29214
29238
29253
29259
29348
29261
29335
29289
29385
29448
29411
29457
29481
29492
29540
29410
29375
29534
29449
29360
29492
29493
29467
29459
29563
29604
29481
29456
29428
29588
29619
29521
29479
29584
29500
29630
29667
29564
29655
29690
29768
29621
29677
29502
29665
29596
29440
29194
29136
28875
28598
28563
28363
28163
28190
28189
28125
28038
28092
27834
27860
27791
27934
27923
27755
27887
27765
27848
27650
27703
27712
27695
27664
27663
27645
27748
27639
27830
27748
27712
27734
27707
27801
27716
27861
27784
27890
27881
27979
27985
27955
28154
28001
28177
28130
28148
28201
28210
28160
28266
28264
28330
28247
28378
28428
28268
28335
28423
28413
28422
28349
28305
28291
28353
28391
28346
28401
28515
28397
28412
28522
28384
28431
28487
28471
28484
28714
28615
28606
28660
28672
28668
28831
28728
28805
28856
28810
28738
28765
28915
28889
28903
28904
29061
29039
28884
28979
29071
28918
28932
29039
29094
29142
29088
29103
28981
29166
29082
29127
29145
29068
29230
29085
29194
29322
29231
29288
29303
29236
29188
29317
29319
29356
29279
29308
29423
29347
29323
29326
29481
29292
29441
29324
29442
29470
29458
29279
29365
29208
29223
29093
28913
28586
28550
28383
28282
28231
27992
27989
27999
27797
27961
27875
27790
27825
27770
27744
27612
27603
27590
27519
27675
27524
27492
27530
27576
27536
27510
27488
27507
27527
27610
27662
27592
27599
27575
27473
27583
27607
27633
27688
27766
27693
27815
27912
27885
27953
28021
27896
27947
28025
27896
28127
27953
28126
28089
28006
28004
28144
28073
28209
28053
28108
28058
28064
28242
28075
28180
28099
28215
28145
28264
28387
28349
28346
28330
28310
28467
28470
28539
28469
28490
28521
28617
28544
28755
28742
28618
28772
28674
28880
28844
28868
28805
28748
28901
28888
28826
29012
28898
28868
29076
28899
28950
29138
29014
29163
29205
29095
29121
29199
29150
29085
29165
29238
29085
29273
29117
29293
29148
29166
29187
29183
29404
29205
29363
29290
29297
29353
29400
29343
29421
29298
29447
29401
29386
29470
29442
29447
29543
29458
29489
29394
29439
29254
29046
29042
28700
28672
28325
28354
28125
27970
27932
28028
27899
27767
27752
27728
27697
27614
27735
27750
27603
27543
27570
27639
27606
27533
27519
27583
27457
27517
27534
27492
27435
27486
27624
27488
27516
27479
27611
27516
27604
27460
27668
27699
27599
27671
27710
27815
27788
27917
27867
27748
27946
27862
27955
27932
28129
27942
28159
28127
27935
28107
28094
28111
28100
28068
28211
28199
28231
28104
28149
28281
28283
28092
28157
28341
28278
28388
28391
28295
28364
28331
28349
28361
28584
28593
28576
28494
28639
28719
28539
28612
28604
28665
28832
28870
28665
28833
28738
28914
28850
28800
28920
28928
28912
28801
28956
29083
28945
29055
29076
29166
29016
28980
29187
28965
29066
29127
29045
29140
29150
29173
29263
29175
29299
29173
29283
29257
29090
29139
29255
29207
29197
29375
29387
29311
29380
29290
29264
29287
29437
29480
29429
29535
29484
29497
29379
29351
29271
29292
29208
28921
28693
28559
28344
28350
28043
28183
27934
27897
28041
27815
27860
27890
27793
27734
27757
27632
27731
27769
27670
27725
27652
27670
27589
27718
27549
27737
27645
27598
27683
27668
27671
27658
27689
27702
27572
27606
27785
27610
27797
27724
27711
27833
27832
27817
27880
27926
28070
28012
28174
28076
28125
28349
28268
28189
28181
28299
28175
28256
28161
28192
28151
28207
28396
28321
28230
28292
28195
28392
28290
28290
28512
28364
28449
28503
28594
28466
28515
28640
28646
28605
28651
28595
28661
28678
28807
28700
28726
28730
28784
28957
28878
29016
28869
28967
29074
29101
28992
29127
29152
29099
29204
29131
29165
29291
29246
29326
29274
29231
29301
29242
29273
29325
29388
29480
29432
29331
29441
29377
29389
29373
29530
29608
29407
29580
29591
29556
29631
29700
29723
29686
29777
29620
29567
29699
29735
29701
29698
29747
29754
29794
29659
29555
29630
29315
29365
29004
28939
28718
28671
28575
28267
28197
28332
28143
28042
28047
28023
27985
27984
27970
27909
27840
27842
27895
27960
27937
27844
27941
27847
27773
27899
27985
27828
27699
27812
27824
27955
27804
27770
27774
27948
27853
27887
28079
27940
28153
28145
28158
28059
28195
28265
28182
28315
28328
28245
28372
28465
28491
28291
28516
28495
28355
28333
28460
28444
28287
28447
28423
28485
28407
28504
28496
28515
28441
28486
28562
28451
28577
28676
28556
28535
28599
28572
28625
28747
28733
28662
28654
28733
28855
28756
28867
28866
28935
28982
28939
28835
28945
29010
28865
29039
28863
28868
28912
29072
28923
28911
29009
29116
29051
29037
29067
29173
29072
29173
29107
29093
29214
29166
29237
29220
29241
29203
29202
29203
29379
29254
29220
29288
29381
29405
29322
29297
29265
29440
29533
29480
29357
29327
29390
29476
29330
29137
29074
28974
28759
28537
28440
28258
28195
28130
28029
28036
27892
27899
27835
27839
27721
27775
27864
27645
27733
27635
27561
27598
27723
27583
27705
27599
27695
27660
27624
27641
27627
27529
27697
27655
27632
27519
27604
27606
27631
27742
27883
27700
27901
27825
27804
27879
28098
28050
28122
28055
28065
28055
28279
28222
28100
28234
28218
28254
28235
28290
28294
28362
28178
28210
28208
28261
28239
28347
28396
28304
28425
28330
28454
28388
28513
28467
28561
28370
28371
28478
28484
28464
28582
28697
28587
28621
28765
28772
28698
28724
28837
28750
28725
28914
28896
28804
28951
29032
28981
29038
29025
29061
28887
29005
28955
29047
29052
29079
29146
29175
29052
29161
29242
29242
29179
29261
29143
29213
29217
29301
29225
29152
29241
29232
29250
29227
29394
29412
29305
29270
29439
29466
29368
29468
29524
29463
29490
29408
29581
29469
29508
29542
29285
29282
29340
29195
29059
28912
28669
28443
28332
28272
28149
28034
28046
27998
27837
27828
27764
27759
27689
27758
27622
27682
27647
27664
27635
27527
27432
27602
27467
27569
27583
27615
27630
27581
27539
27523
27486
27513
27509
27606
27465
27533
27516
27547
27598
27699
27661
27715
27816
27805
27742
27882
27963
27970
28064
27917
27951
27991
27901
28085
27952
28137
28085
28179
28101
28111
28192
28081
28208
28093
28036
28205
28072
28109
28097
28212
28356
28336
28359
28384
28245
28350
28336
28427
28399
28474
28565
28521
28519
28576
28612
28580
28649
28666
28700
28749
28796
28786
28818
28679
28797
28814
28807
28897
28751
28828
29003
28788
28993
28931
28974
29052
28955
28928
29084
28968
28937
29115
29063
29077
28965
29044
29008
29133
29081
29130
29143
29057
29109
29078
29116
29001
29150
29107
29216
29207
29252
29281
29274
29231
29140
29180
29279
29227
29158
29190
29337
29142
29094
28986
28825
28822
28703
28329
28212
28193
28126
27896
27776
27722
27746
27811
27709
27725
27612
27641
27525
27439
27430
27433
27502
27389
27432
27467
27437
27385
27383
27395
27473
27359
27366
27335
27351
27342
27244
27351
27235
27341
27323
27317
27463
27498
27557
27447
27667
27675
27575
27727
27705
27846
27818
27758
27915
27935
27865
27844
27907
27909
27971
27848
28039
27957
27786
27878
27868
27922
27894
28052
27973
28035
28107
28149
28114
28238
28142
28124
28202
28116
28184
28138
28299
28417
28319
28358
28363
28327
28394
28593
28379
28527
28576
28624
28685
28636
28776
28669
28793
28796
28902
28741
28768
28854
28776
28778
28848
28993
28945
29037
28911
29011
28996
29012
29129
29111
28965
28978
29002
29101
29043
29162
29241
29142
29274
29177
29294
29229
29159
29242
29189
29238
29261
29229
29275
29352
29301
29376
29371
29357
29402
29298
29361
29300
29327
29265
29220
29297
29152
29002
28890
28630
28309
28322
28067
28028
28010
27868
27955
27708
27757
27658
27672
27697
27579
27729
27587
27512
27479
27597
27431
27538
27470
27495
27450
27430
27572
27581
27531
27456
27433
27328
27423
27390
27603
27487
27519
27492
27455
27505
27700
27619
27772
27771
27753
27734
27785
27834
27801
27730
27919
27855
27893
27956
27948
27873
27855
27967
28011
27793
27839
28028
27927
27965
27938
27815
28000
27888
27951
28053
28098
27965
28009
28026
27955
28190
28103
28248
28141
28289
28167
28151
28270
28268
28231
28419
28205
28247
28387
28270
28477
28319
28463
28444
28506
28534
28486
28512
28576
28566
28662
28598
28483
28505
28431
28594
28531
28698
28535
28666
28595
28657
28585
28738
28709
28598
28774
28736
28800
28619
28803
28810
28787
28805
28855
28790
28904
28750
28768
28826
28968
28902
28762
28862
28932
28737
28818
28558
28422
28433
28354
28211
28066
27855
27739
27826
27671
27524
27499
27428
27421
27364
27487
27263
27426
27333
27392
27187
27365
27295
27280
27200
27194
27223
27282
27276
27110
27144
27071
27050
27234
27122
27156
27102
27216
27255
27254
27317
27412
27458
27454
27332
27470
27588
27513
27635
27657
27679
27634
27649
27736
27636
27629
27568
27578
27713
27570
27693
27699
27608
27752
27699
27754
27760
27670
27753
27876
27769
27817
27771
27880
27833
27921
27855
27940
27983
27988
28042
27995
28057
28108
28127
28150
28117
28160
28200
28142
28260
28205
28225
28324
28269
28393
28366
28255
28408
28360
28459
28399
28392
28485
28536
28521
28486
28426
28478
28514
28572
28570
28603
28596
28691
28548
28489
28605
28515
28496
28701
28756
28718
28761
28672
28746
28783
28751
28731
28736
28760
28807
28878
28851
28945
28884
28820
28793
28808
28710
28661
28366
28387
28179
28086
27757
27741
27703
27618
27603
27464
27475
27403
27384
27236
27404
27154
27283
27088
27141
27246
27144
27221
27128
27079
27089
27174
27099
27005
27139
27073
26988
27097
27151
27075
26991
27123
27155
27161
27193
27159
27174
27175
27151
27299
27304
27385
27431
27401
27426
27337
27426
27357
27549
27517
27502
27576
27442
27596
27473
27658
27447
27495
27491
27536
27661
27601
27487
27677
27672
27687
27568
27728
27673
27767
27793
27791
27785
27837
27760
27751
27890
27880
27906
28012
27964
27851
28020
27922
28104
27994
28136
28025
28017
28259
28213
28066
28272
28137
28345
28273
28316
28367
28437
28438
28452
28316
28426
28400
28490
28442
28440
28361
28422
28562
28530
28476
28498
28377
28465
28412
28539
28449
28642
28447
28628
28599
28573
28580
28504
28688
28697
28638
28542
28624
28800
28647
28795
28813
28756
28658
28734
28733
28687
28794
28553
28545
28326
28115
27984
27778
27791
27605
27549
27668
27497
27390
27331
27416
27213
27194
27276
27167
27060
27009
27028
27167
27142
27052
27043
26982
26978
26971
26964
27066
27036
26882
27003
26998
26968
26887
27044
27074
27012
27077
27038
26956
26985
27093
27048
27146
27279
27235
27350
27281
27416
27316
27298
27346
27542
27456
27433
27543
27425
27358
27511
27580
27468
27559
27564
27652
27649
27652
27703
27662
27678
27557
27630
27701
27668
27779
27640
27854
27857
27852
27799
27882
28032
27909
27965
28035
27945
28032
28059
28119
28094
28105
28179
28232
28181
28177
28303
28375
28382
28200
28257
28356
28277
28319
28384
28488
28502
28378
28437
28402
28532
28604
28523
28535
28617
28481
28637
28516
28645
28713
28604
28520
28649
28771
28645
28777
28694
28829
28745
28788
28723
28792
28834
28833
28794
28814
28905
28969
28802
28891
29004
28957
28917
28866
28884
28849
28852
28740
28675
28580
28185
28259
28076
27816
27723
27811
27608
27580
27605
27584
27540
27504
27369
27416
27434
27307
27396
27265
27179
27241
27325
27293
27135
27274
27098
27217
27161
27249
27288
27126
27079
27231
27111
27117
27250
27224
27203
27242
27300
27376
27309
27201
27468
27313
27490
27556
27532
27539
27432
27538
27496
27532
27479
27578
27700
27623
27489
27565
27687
27573
27497
27591
27602
27612
27603
27708
27577
27732
27640
27745
27606
27850
27816
27677
27799
27807
27760
27834
27923
27843
27885
27892
27885
27922
27874
27976
27982
28006
27963
28142
28094
28202
28162
28226
28057
28128
28284
28271
28252
28213
28293
28295
28350
28447
28249
28257
28291
28396
28471
28269
28325
28444
28426
28487
28399
28348
28357
28393
28509
28562
28557
28565
28433
28493
28561
28524
28565
28646
28578
28621
28597
28633
28582
28690
28566
28690
28588
28607
28361
28274
28115
27886
27866
27652
27755
27545
27467
27518
27398
27399
27266
27216
27152
27148
27152
27228
27057
26976
27044
27034
27038
27127
27036
27167
27070
27001
27035
26939
27041
26972
26904
26965
26904
27045
26890
27113
27049
26991
27012
27140
27027
27007
27087
27211
27136
27299
27184
27157
27250
27361
27268
27356
27301
27421
27255
27259
27321
27292
27350
27263
27336
27274
27423
27417
27231
27267
27445
27369
27390
27302
27444
27422
27321
27337
27546
27539
27513
27474
27618
27583
27476
27628
27654
27636
27694
27683
27610
27654
27555
27778
27583
27803
27644
27752
27666
27807
27764
27824
27815
27819
27887
27857
27788
27865
27850
27914
27856
27929
27980
27850
27960
27907
28044
27985
28052
27964
27998
28082
28126
28111
28048
27992
28054
28148
28177
28160
28083
28243
28131
28238
28286
28170
28167
28132
27936
28001
27968
27668
27633
27420
27465
27279
27262
27284
27227
27209
27028
27065
26847
26898
26900
26964
26781
26782
26700
26757
26872
26750
26668
26769
26650
26704
26689
26734
26850
26605
26794
26688
26842
26684
26720
26802
26677
26643
26803
26767
26841
26912
26859
26898
27077
26865
27023
27152
27050
27106
26985
27042
27123
27178
27100
27155
27134
27133
27253
27209
27071
27257
27214
27280
27213
27118
27269
27127
27218
27216
27226
27330
27381
27409
27295
27465
27312
27325
27358
27465
27565
27408
27546
27499
27687
27601
27505
27583
27589
27686
27682
27771
27670
27671
27651
27872
27748
27920
27833
27759
27827
28022
27843
28037
28003
27979
28020
27862
27930
27974
28035
28065
28174
28056
27978
28093
27990
28143
28012
28161
28136
28198
28267
28314
28125
28143
28257
28366
28294
28330
28241
28348
28282
28451
28401
28496
28421
28271
28424
28416
28287
28104
27952
27864
27629
27650
27604
27360
27439
27312
27125
27188
27199
27038
26937
26928
26937
26918
26928
26794
26844
26921
26765
26908
26799
26758
26838
26865
26757
26773
26695
26777
26683
26746
26639
26784
26759
26784
26863
26752
26699
26889
26759
26933
26797
26845
27082
26978
26974
27169
27131
27201
27179
27252
27224
27269
27092
27297
27177
27246
27124
27145
27338
27188
27176
27294
27179
27275
27306
27262
27390
27447
27308
27305
27316
27366
27378
27390
27471
27448
27468
27485
27548
27422
27572
27673
27590
27542
27636
27808
27711
27805
27653
27864
27771
27755
27823
27778
28000
27903
27945
27885
27877
27957
27921
28133
28150
27983
28168
28166
28234
28071
28127
28049
28101
28082
28161
28255
28149
28151
28284
28164
28140
28244
28351
28283
28280
28361
28253
28334
28271
28449
28320
28479
28521
28424
28450
28579
28614
28562
28645
28633
28649
28483
28538
28562
28376
28362
28161
28094
27861
27808
27553
27496
27459
27339
27299
27209
27135
27146
27238
27110
27039
27054
27154
27093
26906
27085
26976
27044
26837
27015
26850
26815
26975
26990
26838
26873
26864
26869
26747
26954
26933
26929
26857
26953
26830
26869
27010
26972
26999
27137
27208
27108
27090
27189
27166
27258
27093
27137
27139
27189
27323
27251
27313
27249
27284
27244
27252
27413
27352
27427
27371
27414
27322
27299
27322
27344
27395
27453
27328
27462
27444
27560
27397
27601
27463
27571
27576
27529
27546
27564
27718
27751
27745
27895
27778
27827
27790
27881
27845
27944
28001
27897
27984
28025
27977
27992
28050
28095
28263
28202
28261
28221
28192
28242
28400
28317
28375
28347
28352
28422
28382
28305
28492
28325
28458
28441
28409
28481
28541
28391
28462
28563
28610
28452
28650
28642
28648
28697
28730
28597
28752
28656
28617
28745
28762
28648
28808
28787
28668
28547
28596
28540
28222
28040
27944
27880
27716
27557
27566
27423
27405
27362
27388
27340
27318
27195
27209
27157
27060
27022
27215
27001
26996
27010
27142
26945
27024
26918
26997
26951
26966
27003
26947
27086
27015
27125
27008
26913
27063
27078
27055
26955
27077
27021
27132
27243
27183
27225
27251
27233
27312
27310
27304
27297
27421
27292
27414
27358
27442
27336
27275
27322
27262
27440
27419
27302
27277
27400
27348
27347
27468
27477
27472
27374
27477
27598
27398
27578
27593
27608
27480
27673
27506
27684
27716
27615
27622
27693
27699
27675
27754
27846
27757
27830
27955
27909
27956
28014
27910
27952
27963
27961
27953
27922
27952
27859
28071
28116
28161
28098
28032
28148
28179
28192
28050
28161
28153
28121
28242
28260
28319
28208
28397
28244
28254
28185
28239
28276
28318
28410
28367
28401
28335
28455
28364
28286
28300
28380
28199
28172
28034
27958
27706
27562
27552
27482
27495
27374
27250
27242
27261
27041
27002
26958
27026
27047
27115
26832
26889
26828
26854
26817
26839
26883
26807
26706
26797
26811
26844
26751
26794
26852
26738
26812
26877
26856
26864
26875
26918
26848
26844
26987
26902
27050
27064
27033
27167
26979
27174
27196
27031
27042
27125
27220
27198
27222
27044
27082
27290
27214
27128
27186
27214
27184
27317
27240
27127
27276
27284
27223
27395
27337
27439
27217
27323
27413
27428
27300
27470
27468
27469
27557
27535
27484
27577
27575
27628
27726
27655
27717
27757
27605
27635
27800
27861
27843
27724
27830
27843
27866
27775
27873
27981
27852
28010
27855
27879
28047
28017
28021
27883
27941
28028
28042
27992
28052
27961
28135
28060
28213
28209
28125
28055
28187
28213
28285
28292
28223
28149
28306
28334
28352
28394
28333
28272
28269
28428
28311
28321
28171
28276
27970
28000
27834
27611
27648
27394
27524
27295
27380
27200
27092
27115
27012
27027
27011
26971
26883
26802
26859
26847
26796
26831
26774
26847
26703
26628
26684
26695
26645
26776
26700
26618
26704
26585
26657
26689
26759
26612
26570
26647
26687
26635
26830
26685
26665
26820
26721
26881
26828
26903
26913
26872
26939
26852
26951
26901
26965
27053
27119
27153
27020
27054
27028
27031
27218
27086
27210
27060
27239
27189
27017
27062
27217
27211
27306
27073
27275
27126
27335
27308
27220
27334
27272
27381
27455
27489
27378
27284
27420
27417
27579
27586
27528
27605
27582
27572
27760
27636
27840
27674
27600
27776
27676
27814
27730
27841
27826
27835
27828
27838
27886
27852
27950
27989
27985
27883
28019
28154
28095
28077
28007
28130
28060
28081
28048
28160
28219
28228
28167
28113
28238
28307
28254
28293
28403
28356
28219
28389
28213
28284
28322
28301
28372
28464
28303
28291
28061
27910
27882
27622
27669
27560
27315
27206
27266
27159
27234
27183
27005
26981
27080
26956
26962
26822
26951
26872
26730
26839
26744
26692
26786
26772
26649
26694
26695
26784
26703
26719
26591
26540
26720
26626
26707
26526
26713
26640
26701
26676
26803
26830
26808
26778
26830
26844
26774
27010
26981
26843
26850
26899
26893
27095
27091
27127
26977
26996
27103
27059
27120
27113
27091
27063
27103
27040
27065
27045
27150
27125
27198
27150
27120
27143
27052
27121
27087
27232
27126
27242
27238
27321
27278
27258
27356
27447
27404
27519
27499
27617
27584
27592
27478
27508
27625
27645
27581
27663
27771
27768
27839
27758
27798
27933
27996
27823
27842
27916
27951
28016
27908
27889
27899
28061
27921
28027
28121
28197
28083
28057
28134
28239
28165
28161
28136
28252
28194
28197
28232
28219
28295
28323
28407
28274
28391
28286
28476
28388
28485
28376
28428
28496
28498
28381
28592
28549
28285
28387
28166
28031
27841
27835
27596
27427
27386
27303
27351
27148
27195
27142
27012
26964
26933
26954
26973
26891
26918
26818
26802
26866
26939
26724
26744
26690
26713
26815
26736
26811
26739
26778
26771
26648
26821
26897
26820
26682
26774
26720
26921
26809
26969
26952
27049
27017
27130
27071
27158
27097
27166
27132
27066
27100
27262
27175
27211
27141
27295
27164
27222
27281
27312
27340
27296
27208
27239
27174
27180
27199
27285
27230
27303
27441
27404
27441
27343
27421
27481
27395
27375
27469
27625
27581
27600
27536
27701
27705
27741
27620
27625
27713
27682
27624
27743
27749
27884
27792
27911
27773
27962
27843
27917
27995
28023
27984
27953
27948
27944
28015
28102
28000
28109
27994
28114
27921
27930
28125
28072
28096
28103
28227
28123
28089
28192
28210
28183
28135
28081
28271
28239
28294
28192
28247
28241
28301
28387
28321
28185
28344
28303
28337
28200
28186
28115
27943
27903
27809
27608
27514
27449
27455
27349
27353
27152
27163
27021
26940
27044
26858
26888
26808
26914
26780
26946
26753
26793
26800
26780
26629
26819
26668
26621
26737
26615
26754
26661
26667
26752
26761
26807
26681
26669
26827
26831
26887
26812
26746
26819
26895
26966
27004
26942
27060
26920
26956
26869
27070
26994
26900
27001
26943
27006
27031
26984
26965
27094
27103
26993
26983
27165
27137
27174
27017
26948
27158
27057
27166
27255
27045
27185
27093
27147
27118
27149
27332
27322
27271
27340
27289
27403
27336
27431
27377
27307
27414
27510
27448
27513
27491
27568
27565
27606
27564
27602
27661
27629
27665
27642
27744
27600
27647
27656
27711
27702
27729
27667
27644
27679
27624
27787
27741
27890
27797
27698
27788
27696
27805
27712
27895
27783
27727
27987
27911
27902
27956
27968
27995
27817
27936
27969
27908
27830
27862
27779
27787
27609
27640
27467
27413
27217
27135
27205
26999
27032
26971
26894
26799
26900
26684
26800
26746
26571
26645
26508
26606
26599
26549
26402
26535
26455
26424
26416
26460
26344
26441
26507
26371
26502
26351
26563
26517
26536
26374
26386
26477
26562
26578
26653
26693
26509
26612
26801
26619
26820
26689
26823
26721
26812
26907
26808
26801
26846
27037
26823
26749
26870
26831
26884
26968
26985
26935
26841
26834
26942
26996
26974
26998
26963
26991
27155
27010
27182
27161
27190
27216
27086
27078
27206
27263
27188
27114
27163
27347
27249
27344
27309
27236
27344
27440
27311
27436
27563
27444
27508
27507
27460
27581
27605
27533
27596
27609
27540
27642
27574
27658
27703
27775
27675
27658
27741
27802
27744
27707
27862
27850
27829
27953
27792
27929
27814
27918
27842
27836
27909
27876
27905
27925
27901
28025
28079
27985
28141
27927
28102
28017
28051
27936
27936
27836
27752
27617
27510
27510
27339
27343
27158
27136
26991
26949
26994
26849
26913
26782
26666
26788
26599
26677
26587
26601
26593
26517
26581
26630
26497
26472
26652
26629
26633
26420
26462
26411
26592
26566
26594
26582
26545
26517
26480
26511
26627
26676
26583
26575
26633
26807
26784
26900
26770
26963
26873
26897
27059
26902
27054
26975
26949
27038
26982
27100
27076
27147
27069
27149
27048
27049
27130
27183
27176
27301
27271
27211
27267
27353
27185
27219
27324
27389
27467
27532
27431
27504
27418
27532
27591
27554
27602
27466
27652
27593
27550
27751
27568
27675
27712
27750
27755
27865
27810
27760
27818
27813
27905
27959
27979
28015
27913
27945
27953
27958
28060
28075
28150
28112
28150
28040
28077
28039
27980
28006
28154
28135
28133
28087
28175
28161
28226
28237
28117
28136
28211
28260
28180
28177
28284
28257
28214
28277
28335
28262
28193
28315
28344
28246
28351
28301
28195
28280
28117
28025
28002
27843
27657
27578
27463
27402
27269
27272
27162
27065
27120
27054
27018
26832
26755
26778
26846
26769
26738
26791
26817
26688
26844
26631
26762
26682
26749
26647
26723
26586
26557
26653
26726
26715
26784
26795
26686
26881
26832
26816
26853
26844
26827
26919
26835
27082
27076
27132
26983
27107
27183
27151
27119
27270
27068
27219
27190
27212
27345
27303
27257
27294
27339
27160
27302
27405
27404
27381
27312
27385
27432
27433
27484
27538
27456
27490
27597
27527
27566
27592
27713
27542
27663
27587
27617
27762
27755
27833
27888
27891
27849
27922
28032
27985
28018
27992
28041
28051
28135
28187
28130
28043
28211
28313
28201
28185
28244
28329
28409
28302
28359
28312
28289
28338
28493
28390
28321
28499
28565
28436
28463
28507
28360
28550
28601
28512
28475
28588
28633
28656
28692
28665
28515
28634
28618
28668
28750
28687
28656
28703
28617
28618
28567
28313
28296
28169
27973
27896
27777
27629
27487
27533
27530
27340
27363
27274
27179
27204
27135
27096
27098
27048
27053
27028
26981
27011
26966
26938
26977
26926
26951
26807
26905
26839
26863
26992
26926
26909
26869
26928
26922
26874
26895
26901
26903
26974
27202
27058
26994
27174
27122
27214
27232
27117
27284
27328
27232
27244
27208
27319
27248
27254
27259
27198
27401
27338
27217
27252
27333
27267
27254
27305
27272
27346
27349
27342
27274
27397
27340
27487
27483
27377
27500
27632
27505
27513
27556
27584
27609
27459
27625
27529
27560
27774
27761
27663
27818
27693
27860
27703
27692
27824
27835
27780
27728
27847
28001
27921
27960
27867
28002
27987
27959
27880
27937
27840
27920
28015
28021
28078
27981
28135
27922
28084
28131
28042
28161
28180
28158
28117
28017
28187
28076
28127
28194
28123
28175
28287
28121
28078
28024
28010
27876
27730
27580
27660
27500
27256
27293
27167
27083
26953
27099
26868
26861
26735
26857
26749
26800
26624
26766
26746
26611
26591
26624
26549
26541
26612
26494
26589
26416
26621
26418
26567
26607
26567
26495
26641
26438
26530
26548
26634
26583
26484
26681
26713
26752
26714
26629
26707
26657
26782
26946
26792
26892
26853
26848
26838
26795
26948
26836
26844
26933
26970
26896
26875
27028
26899
27022
26911
26994
26936
26939
27033
27110
27089
27107
27097
27153
27072
27165
27109
27183
27202
27299
27313
27200
27377
27439
27365
27392
27380
27421
27466
27490
27490
27526
27522
27570
27571
27620
27626
27661
27697
27672
27785
27719
27808
27725
27807
27713
27704
27923
27827
27789
27747
27868
27878
28009
27904
27988
27854
27795
27929
28116
28042
28119
27984
28182
27986
27970
28048
28144
28183
28066
28137
28183
28175
28111
28111
28051
28057
28036
27904
27845
27644
27620
27384
27336
27238
27184
27112
27081
26844
26918
26857
26711
26752
26764
26612
26670
26578
26641
26664
26664
26453
26595
26568
26423
26528
26395
26550
26320
26410
26327
26511
26359
26433
26268
26329
26317
26466
26408
26400
26551
26522
26351
26433
26489
26568
26585
26433
26624
26542
26667
26763
26749
26715
26662
26597
26716
26727
26834
26861
26842
26728
26803
26782
26679
26709
26696
26841
26687
26806
26869
26890
26886
26914
26790
26886
26889
26834
26993
26924
26903
26916
26964
27038
27017
27090
27164
27021
27142
27098
27284
27180
27191
27245
27202
27323
27358
27355
27375
27471
27450
27463
27448
27559
27560
27552
27558
27468
27634
27706
27558
27609
27658
27748
27683
27748
27630
27689
27727
27685
27809
27762
27748
27724
27733
27861
27757
27766
27801
27937
27820
27854
27892
27923
27962
28014
28175
28128
28064
28062
28040
28132
28082
28121
27963
27713
27557
27615
27313
27410
27230
27211
27030
26954
27049
26958
26902
26869
26745
26711
26770
26642
26744
26639
26493
26425
26502
26579
26512
26615
26487
26441
26498
26532
26491
26551
26507
26519
26500
26587
26566
26422
26446
26464
26466
26591
26516
26656
26557
26698
26823
26650
26742
26888
26891
26816
26823
26832
26840
26904
26849
26977
27038
27084
27059
26886
26949
27068
26927
27064
26959
26914
27088
26988
27081
27110
27221
27068
27011
27188
27165
27185
27189
27267
27247
27333
27392
27366
27376
27406
27388
27542
27556
27532
27636
27718
27647
27669
27700
27615
27644
27856
27768
27719
27839
27834
27931
27873
27840
27923
28080
28014
27936
27999
28146
28001
28057
28059
28102
28129
28190
28164
28170
28318
28264
28153
28368
28243
28333
28420
28333
28300
28501
28522
28491
28342
28543
28476
28563
28538
28581
28576
28664
28609
28504
28666
28661
28701
28684
28652
28671
28737
28712
28653
28629
28515
28460
28448
28250
27936
27809
27642
27754
27458
27391
27320
27394
27399
27214
27378
27113
27183
27241
27099
27224
27077
27196
27159
27027
27028
27156
27143
27016
27000
27043
27060
27096
27111
27059
27078
27117
27092
27085
27174
27102
27088
27260
27276
27181
27297
27335
27353
27365
27466
27458
27599
27692
27577
27703
27629
27602
27695
27647
27577
27616
27592
27610
27621
27590
27618
27564
27730
27631
27705
27731
27779
27829
27799
27839
27869
27919
27978
27928
28013
28044
28079
28084
28120
28215
28199
28169
28235
28249
28319
28381
28458
28380
28312
28391
28315
28414
28476
28523
28617
28563
28518
28615
28529
28530
28494
28602
28716
28541
28716
28645
28529
28671
28648
28497
28652
28730
28613
28746
28755
28661
28778
28690
28639
28830
28882
28801
28773
28884
28729
28948
28785
28929
28943
28930
28920
28901
28897
28887
28909
28890
28913
28800
28861
28894
28754
28562
28462
28228
28155
28004
27766
27659
27625
27473
27458
27456
27393
27195
27300
27196
27157
27054
27026
26990
27114
27009
26991
27007
26997
27136
26966
26952
26953
27040
27013
27026
26992
27023
27068
27029
27118
26976
27181
27155
27020
27099
27249
27198
27250
27378
27292
27416
27366
27553
27398
27354
27622
27517
27467
27602
27480
27522
27497
27405
27520
27651
27569
27535
27453
27552
27711
27549
27671
27602
27584
27724
27846
27725
27872
27770
27964
27914
28042
27858
28014
28107
28076
28065
28049
28030
28135
28075
28187
28319
28230
28341
28242
28245
28373
28294
28311
28499
28451
28552
28455
28461
28415
28602
28710
28611
28522
28622
28620
28622
28595
28782
28731
28806
28778
28754
28847
28889
28823
28858
28908
28801
28977
28887
28812
28995
28959
28962
28988
28923
28925
29055
29061
28990
29005
29116
29028
29177
29194
29126
29230
29205
29022
29110
29007
28849
28691
28624
28304
28128
28121
28028
27973
27945
27829
27913
27845
27719
27605
27771
27632
27668
27674
27563
27682
27533
27635
27463
27625
27536
27395
27505
27433
27409
27541
27539
27476
27499
27435
27538
27448
27415
27507
27576
27526
27504
27456
27591
27659
27585
27725
27763
27645
27710
27778
27902
27864
27955
27920
27823
27975
27870
27975
27753
27851
27946
27867
27866
27755
27854
27774
27849
27818
27844
27801
27828
27864
27869
27961
27985
27955
27978
28014
28029
28051
28073
28101
28078
28168
28089
28085
28184
28181
28249
28244
28292
28316
28332
28404
28355
28390
28303
28406
28472
28487
28564
28403
28427
28514
28575
28493
28530
28380
28522
28600
28495
28406
28467
28564
28572
28513
28583
28475
28581
28616
28502
28594
28460
28633
28661
28568
28595
28605
28628
28572
28640
28748
28789
28713
28633
28678
28657
28719
28702
28652
28732
28694
28685
28620
28574
28483
28383
28218
28053
27961
27787
27684
27523
27427
27412
27370
27293
27207
27155
27155
27082
27070
27022
26990
26950
26975
26941
26931
26781
26912
26986
26985
26911
26926
26799
26700
26776
26732
26754
26844
26827
26860
26912
26811
26759
26869
26845
26901
26896
26923
26973
27032
27094
27141
27177
27115
27280
27133
27188
27186
27268
27226
27218
27216
27252
27340
27265
27372
27245
27413
27368
27319
27237
27392
27417
27329
27325
27438
27415
27463
27502
27490
27528
27574
27467
27607
27661
27666
27692
27775
27782
27768
27829
27953
27924
27807
27971
27893
28058
28080
28107
28088
28147
28202
28217
28246
28306
28234
28290
28332
28271
28425
28312
28377
28308
28358
28426
28554
28519
28467
28514
28535
28544
28698
28588
28677
28590
28655
28656
28790
28725
28730
28842
28873
28723
28802
28740
28803
28882
28879
28978
28932
29027
28956
28928
28884
29056
29005
28846
28827
29015
28841
28773
28754
28435
28285
28170
27997
27886
27783
27590
27452
27429
27466
27341
27394
27310
27235
27122
27139
27130
27110
27106
27090
27153
27049
27099
26949
26951
27071
27070
27027
26968
26869
27013
27011
26869
26978
26954
26917
26879
26924
26966
27006
27063
26923
27196
27220
27134
27203
27325
27172
27381
27276
27269
27279
27307
27398
27463
27303
27330
27431
27314
27337
27287
27348
27383
27320
27386
27394
27498
27525
27527
27514
27602
27638
27509
27657
27714
27703
27792
27712
27837
27770
27778
27839
27938
27782
27955
27874
28006
28067
27946
28126
28113
28075
28201
28104
28126
28359
28273
28204
28408
28442
28368
28349
28410
28427
28465
28324
28437
28465
28508
28526
28461
28604
28451
28667
28666
28522
28646
28763
28563
28609
28695
28732
28652
28677
28828
28682
28626
28760
28737
28685
28687
28774
28853
28825
28868
28903
28738
28803
28880
28749
28722
28646
28641
28397
28269
28107
27928
27757
27730
27617
27598
27571
27401
27254
27292
27364
27203
27176
27096
27104
27042
27046
27040
27126
26977
26974
27009
26967
27038
26950
27005
26981
27020
26943
26828
27011
27024
27020
27053
26897
27122
27012
26991
27068
27052
27064
27133
27280
27227
27198
27302
27204
27272
27313
27373
27356
27239
27226
27351
27304
27365
27246
27390
27334
27352
27242
27416
27371
27295
27322
27437
27347
27419
27374
27385
27306
27384
27409
27443
27395
27391
27389
27516
27381
27623
27448
27656
27476
27694
27592
27662
27762
27793
27699
27725
27720
27643
27709
27833
27706
27914
27915
27950
27875
27756
27831
27875
27954
27888
27881
27869
27869
27927
27930
28042
27878
27920
28115
28103
27957
27952
27980
27959
28063
28188
28017
28234
28093
28219
28147
28083
28142
28094
28216
28302
28178
28269
28249
28161
28075
27994
27962
27698
27550
27489
27445
27311
27233
27167
27126
27079
27021
27092
26897
27043
26854
26966
26778
26710
26873
26878
26772
26805
26622
26620
26782
26742
26752
26785
26612
26697
26693
26661
26687
26625
26750
26714
26653
26688
26865
26868
26821
26777
26880
26813
26959
26986
27012
26999
27025
27028
27069
27219
27171
27269
27076
27250
27183
27157
27270
27182
27295
27271
27320
27166
27259
27135
27132
27171
27234
27278
27263
27277
27412
27332
27367
27514
27494
27343
27501
27491
27592
27528
27546
27677
27614
27637
27626
27660
27671
27676
27819
27725
27790
27833
27830
27871
27755
27753
27882
27887
27988
27953
27799
27913
27942
28067
28015
28017
28059
27946
28062
28100
28048
28066
28093
28028
27988
28109
28036
28134
28185
28119
28168
28170
28268
28110
28127
28167
28372
28201
28368
28208
28404
28374
28384
28346
28296
28402
28299
28429
28410
28446
28344
28114
28085
28031
27652
27648
27582
27398
27454
27291
27313
27195
27052
27105
27160
27024
27004
26985
26835
26904
26921
26927
26856
26776
26908
26731
26863
26776
26834
26913
26777
26783
26688
26610
26667
26645
26670
26633
26687
26651
26610
26683
26674
26829
26778
26763
26743
26933
26866
27042
26920
27073
26977
26941
27032
27020
27048
27225
27083
26998
27179
27059
27050
27095
27259
27043
27257
27145
27203
27091
27140
27184
27145
27309
27183
27307
27342
27262
27192
27271
27373
27239
27342
27464
27323
27503
27404
27379
27490
27411
27510
27585
27639
27472
27648
27502
27687
27619
27646
27765
27865
27776
27937
27864
27850
27835
28044
27844
28068
28048
28109
27954
28179
28040
28147
27942
28053
28083
28185
28097
28116
28135
