41220
41120
41023
40923
40820
40718
40621
40529
40436
40342
40250
40163
40075
39989
39909
39838
39768
39694
39617
39539
39465
39396
39332
39269
39201
39123
39046
38973
38904
38840
38780
38726
38675
38623
38571
38520
38473
38428
38382
38333
38280
38220
38154
38085
38014
37942
37867
37785
37700
37617
37538
37463
37399
37361
37360
37405
37510
37692
37956
38294
38700
39156
39640
40134
40622
41089
41525
41925
42285
42603
42879
43106
43291
43443
43562
43646
43700
43729
43735
43717
43684
43644
43594
43536
43472
43409
43345
43281
43214
43144
43074
43004
42931
42855
42780
42704
42621
42526
42425
42323
42218
42105
41992
41886
41785
41689
41601
41523
41458
41406
41367
41341
41328
41328
41338
41361
41402
41454
41508
41561
41615
41669
41721
41765
41804
41838
41861
41866
41857
41840
41818
41786
41744
41698
41648
41592
41522
41443
41359
41268
41170
41068
40967
40866
40761
40657
40556
40459
40365
40272
40182
40097
40016
39934
39852
39772
39693
39612
39529
39447
39367
39288
39208
39127
39050
38976
38902
38833
38771
38714
38655
38593
38536
38484
38432
38376
38316
38255
38194
38136
38078
38019
37960
37900
37838
37768
37698
37631
37566
37503
37440
37373
37305
37234
37159
37083
37008
36932
36851
36769
36694
36634
36591
36576
36606
36701
36872
37121
37452
37866
38352
38884
39438
39997
40543
41054
41520
41946
42329
42662
42946
43187
43391
43556
43684
43776
43837
43872
43885
43882
43867
43843
43809
43767
43717
43663
43612
43565
43521
43473
43421
43369
43320
43270
43217
43163
43109
43051
42988
42921
42852
42778
42696
42607
42517
42429
42344
42264
42196
42144
42103
42071
42051
42045
42048
42057
42073
42096
42128
42165
42199
42227
42251
42272
42287
42296
42305
42317
42322
42315
42295
42266
42228
42179
42124
42066
42001
41929
41853
41775
41694
41611
41527
41439
41344
41241
41133
41027
40922
40823
40730
40637
40539
40441
40346
40254
40166
40082
40002
39922
39840
39759
39679
39602
39529
39456
39381
39307
39236
39164
39086
39004
38924
38853
38785
38715
38649
38584
38515
38443
38370
38298
38224
38153
38091
38036
37982
37928
37874
37820
37768
37716
37664
37611
37554
37493
37428
37363
37296
37222
37144
37064
36991
36922
36855
36790
36734
36698
36688
36714
36796
36949
37180
37496
37895
38362
38878
39424
39979
40526
41045
41518
41941
42318
42651
42938
43179
43381
43545
43671
43760
43817
43853
43868
43864
43846
43817
43781
43739
43691
43639
43583
43526
43467
43403
43340
43284
43233
43181
43132
43082
43026
42962
42893
42820
42740
42650
42555
42458
42362
42261
42156
42055
41965
41887
41821
41775
41750
41743
41752
41772
41800
41837
41880
41924
41967
42012
42055
42095
42128
42153
42173
42185
42189
42182
42165
42138
42101
42052
41993
41927
41854
41771
41685
41599
41516
41430
41337
41240
41149
41064
40979
40890
40802
40720
40639
40557
40477
40398
40317
40229
40139
40052
39969
39888
39808
39726
39644
39569
39495
39421
39347
39278
39213
39148
39084
39022
38960
38895
38834
38778
38722
38660
38593
38524
38457
38394
38336
38278
38216
38152
38085
38015
37940
37862
37779
37690
37600
37511
37425
37343
37266
37196
37143
37123
37149
37230
37377
37602
37906
38281
38711
39180
39670
40160
40638
41091
41511
41898
42247
42552
42818
43048
43240
43392
43506
43588
43645
43680
43693
43686
43662
43623
43571
43510
43445
43381
43319
43254
43187
43122
43054
42984
42918
42857
42794
42719
42636
42547
42449
42342
42228
42116
42006
41893
41778
41669
41571
41484
41407
41346
41304
41278
41268
41278
41304
41340
41385
41440
41497
41553
41609
41666
41719
41763
41794
41814
41825
41828
41823
41809
41787
41757
41717
41662
41593
41516
41434
41347
41261
41174
41083
40988
40892
40797
40704
40617
40534
40451
40361
40266
40176
40093
40014
39936
39862
39793
39723
39647
39570
39489
39405
39320
39240
39163
39083
38998
38913
38834
38760
38687
38614
38544
38476
38409
38344
38284
38231
38182
38134
38086
38039
37994
37951
37908
37860
37803
37741
37674
37603
37527
37451
37380
37314
37253
37202
37166
37157
37188
37279
37443
37688
38009
38397
38835
39307
39794
40281
40762
41231
41674
42079
42444
42770
43050
43282
43476
43637
43767
43866
43934
43976
43993
43992
43974
43944
43907
43864
43813
43758
43707
43659
43609
43556
43499
43440
43379
43318
43256
43195
43133
43068
42999
42927
42851
42769
42679
42584
42491
42402
42318
42242
42178
42121
42074
42046
42038
42042
42051
42068
42096
42137
42181
42223
42266
42308
42345
42373
42394
42412
42424
42428
42422
42407
42385
42357
42317
42265
42207
42146
42083
42016
41945
41869
41794
41722
41648
41569
41486
41407
41327
41241
41151
41063
40979
40894
40809
40730
40655
40581
40507
40434
40363
40293
40219
40143
40068
39994
39922
39847
39775
39711
39649
39585
39522
39461
39399
39335
39275
39219
39164
39105
39043
38981
38921
38863
38803
38744
38693
38648
38601
38553
38502
38452
38399
38343
38281
38216
38147
38072
37993
37916
37847
37792
37759
37759
37800
37896
38062
38307
38627
39009
39443
39914
40403
40894
41372
41827
42249
42633
42978
43281
43540
43762
43948
44097
44212
44299
44356
44385
44394
44387
44370
44344
44313
44275
44230
44181
44132
44087
44040
43986
43925
43863
43803
43743
43683
43622
43562
43496
43420
43336
43246
43153
43062
42970
42880
42795
42717
42645
42583
42534
42502
42484
42473
42473
42488
42513
42542
42578
42619
42660
42697
42734
42771
42804
42829
42844
42853
42855
42849
42826
42791
42751
42706
42650
42585
42513
42436
42351
42258
42161
42065
41970
41869
41766
41666
41566
41461
41354
41253
41163
41077
40994
40910
40824
40738
40651
40567
40487
40413
40348
40286
40223
40158
40094
40033
39970
39904
39836
39765
39691
39612
39535
39464
39401
39342
39285
39228
39174
39123
39072
39020
38972
38928
38885
38841
38799
38760
38716
38664
38606
38546
38487
38427
38360
38281
38196
38109
38023
37948
37895
37876
37904
37993
38155
38395
38711
39095
39532
40004
40492
40982
41458
41907
42322
42700
43037
43332
43583
43793
43963
44096
44196
44265
44307
44325
44322
44306
44278
44241
44198
44147
44085
44019
43952
43883
43808
43733
43664
43598
43531
43469
43410
43347
43280
43206
43124
43035
42941
42843
42743
42645
42550
42459
42372
42296
42234
42182
42140
42108
42092
42088
42096
42118
42158
42208
42261
42314
42368
42421
42469
42508
42542
42568
42588
42601
42604
42593
42568
42532
42490
42443
42388
42325
42255
42178
42095
42009
41925
41841
41756
41672
41589
41505
41413
41314
41215
41116
41016
40917
40819
40719
40620
40527
40445
40365
40278
40188
40096
40002
39908
39818
39734
39656
39584
39515
39446
39381
39323
39268
39215
39162
39111
39058
39001
38940
38878
38817
38754
38688
38618
38546
38468
38386
38303
38225
38153
38091
38048
38042
38088
38197
38379
38640
38977
39373
39814
40282
40762
41241
41701
42131
42529
42888
43202
43468
43693
43883
44037
44151
44233
44290
44324
44341
44341
44323
44294
44258
44213
44159
44100
44033
43961
43888
43817
43750
43690
43634
43577
43514
43445
43370
43285
43185
43074
42957
42838
42715
42590
42473
42365
42264
42174
42098
42036
41993
41968
41957
41955
41966
41997
42043
42094
42148
42204
42258
42307
42352
42390
42424
42452
42469
42474
42467
42450
42421
42381
42336
42286
42229
42159
42078
41990
41901
41808
41713
41619
41528
41440
41351
41259
41164
41074
40991
40905
40813
40724
40640
40557
40473
40390
40312
40238
40168
40097
40026
39957
39890
39822
39755
39690
39628
39567
39505
39439
39373
39309
39246
39180
39111
39042
38976
38907
38831
38749
38670
38591
38510
38428
38353
38286
38222
38157
38094
38035
37979
37925
37875
37829
37791
37766
37753
37765
37823
37943
38137
38412
38765
39186
39661
40173
40700
41222
41727
42209
42658
43062
43417
43727
43993
44214
44393
44534
44644
44724
44781
44817
44832
44831
44814
44783
44740
44692
44644
44594
44542
44491
44441
44391
44340
44289
44237
44186
44139
44091
44037
43980
43915
43843
43765
43682
43596
43510
43425
43339
43255
43176
43106
43049
43004
42975
42960
42958
42963
42973
42993
43020
43051
43083
43122
43165
43199
43221
43236
43247
43251
43245
43231
43212
43188
43153
43110
43060
43006
42947
42882
42812
42737
42657
42573
42483
42387
42285
42182
42082
41984
41886
41792
41702
41613
41525
41440
41358
41274
41183
41089
40998
40911
40825
40741
40662
40590
40519
40448
40379
40312
40249
40186
40123
40058
39993
39928
39864
39799
39736
39674
39608
39538
39465
39393
39323
39253
39181
39105
39028
38950
38873
38795
38714
38633
38548
38460
38371
38286
38201
38109
38011
37916
37832
37767
37738
37761
37848
38010
38257
38589
38999
39475
40003
40555
41103
41634
42139
42602
43015
43382
43702
43976
44208
44400
44554
44670
44756
44815
44851
44865
44862
44846
44819
44779
44728
44668
44606
44541
44473
44406
44346
44290
44233
44172
44114
44060
44004
43941
43876
43804
43721
43627
43524
43418
43312
43207
43106
43011
42926
42856
42799
42753
42722
42708
42707
42718
42738
42763
42795
42833
42875
42916
42955
42996
43035
43064
43084
43098
43102
43095
43075
43048
43013
42967
42907
42842
42778
42712
42640
42562
42482
42402
42318
42224
42125
42027
41930
41831
41731
41630
41530
41433
41337
41238
41133
41028
40925
40823
40724
40626
40532
40441
40349
40257
40170
40087
40004
39921
39844
39773
39701
39630
39562
39497
39433
39371
39311
39251
39190
39132
39075
39015
38951
38883
38806
38723
38637
38549
38461
38376
38294
38212
38128
38043
37969
37913
37885
37893
37948
38063
38253
38523
38872
39292
39766
40268
40777
41283
41772
42226
42639
43018
43358
43651
43893
44093
44259
44388
44482
44549
44592
44610
44604
44581
44545
44499
44445
44384
44322
44259
44196
44131
44061
43985
43906
43826
43744
43660
43573
43479
43379
43272
43156
43027
42894
42768
42648
42532
42423
42320
42223
42136
42063
42005
41966
41949
41949
41962
41990
42032
42086
42149
42217
42286
42351
42409
42463
42514
42556
42584
42595
42593
42577
42549
42512
42466
42414
42355
42286
42205
42120
42036
41949
41851
41747
41647
41549
41447
41339
41232
41127
41025
40926
40828
40731
40641
40556
40467
40373
40279
40190
40102
40013
39925
39840
39759
39677
39595
39517
39444
39375
39307
39239
39170
39104
39040
38972
38901
38829
38758
38682
38606
38536
38468
38397
38323
38250
38179
38108
38039
37978
37932
37907
37916
37976
38096
38283
38544
38884
39298
39769
40277
40803
41329
41840
42326
42776
43182
43535
43839
44099
44315
44487
44622
44726
44802
44852
44876
44880
44869
44849
44818
44774
44721
44664
44602
44536
44470
44407
44343
44282
44220
44157
44092
44025
43950
43865
43774
43679
43581
43476
43367
43256
43148
43045
42951
42870
42804
42750
42708
42679
42666
42668
42681
42706
42747
42798
42852
42905
42959
43011
43053
43088
43114
43130
43133
43130
43122
43104
43075
43041
43000
42946
42882
42817
42751
42681
42607
42532
42455
42381
42311
42243
42172
42095
42014
41929
41838
41740
41639
41540
41442
41346
41253
41161
41071
40980
40884
40792
40708
40632
40559
40483
40405
40325
40242
40158
40074
39990
39910
39834
39763
39694
39621
39544
39468
39393
39322
39255
39186
39114
39040
38969
38901
38831
38759
38687
38613
38537
38463
38393
38331
38275
38228
38197
38195
38235
38332
38498
38742
39073
39485
39957
40465
40990
41513
42018
42497
42944
43353
43717
44033
44303
44528
44707
44843
44945
45019
45067
45093
45096
45078
45044
45000
44949
44891
44830
44773
44718
44664
44610
44549
44486
44424
44363
44304
44250
44200
44148
44087
44016
43936
43852
43763
43670
43577
43485
43395
43309
43232
43165
43110
43069
43037
43013
43004
43011
43026
43043
43067
43098
43134
43171
43209
43250
43289
43323
43347
43359
43359
43349
43328
43295
43251
43201
43143
43078
43006
42931
42855
42773
42683
42589
42494
42401
42307
42207
42105
42006
41908
41808
41710
41619
41537
41456
41370
41280
41186
41089
40994
40900
40810
40729
40654
40576
40489
40400
40309
40220
40134
40050
39970
39894
39821
39754
39692
39637
39585
39535
39485
39436
39388
39336
39282
39228
39175
39120
39065
39005
38938
38863
38782
38697
38612
38531
38454
38379
38311
38264
38249
38278
38368
38536
38783
39112
39518
39986
40494
41023
41555
42073
42561
43007
43406
43757
44062
44320
44530
44696
44825
44919
44982
45015
45024
45015
44991
44951
44900
44842
44780
44715
44647
44582
44524
44466
44402
44336
44271
44204
44133
44059
43980
43893
43796
43696
43591
43478
43357
43233
43109
42989
42877
42778
42693
42626
42578
42545
42528
42528
42545
42577
42619
42669
42726
42783
42835
42881
42928
42974
43014
43046
43073
43091
43094
43082
43063
43037
43002
42959
42906
42842
42769
42692
42610
42522
42432
42341
42250
42157
42060
41957
41851
41745
41643
41544
41446
41348
41251
41156
41066
40979
40893
40809
40728
40642
40550
40460
40376
40295
40215
40143
40079
40017
39952
39887
39820
39755
39692
39626
39554
39479
39403
39322
39236
39150
39066
38981
38895
38810
38726
38645
38571
38507
38463
38446
38465
38534
38670
38880
39165
39522
39939
40396
40881
41378
41871
42343
42786
43192
43554
43870
44140
44367
44552
44699
44809
44887
44940
44971
44982
44976
44958
44932
44898
44856
44805
44746
44680
44610
44541
44478
44419
44364
44307
44244
44176
44102
44020
43929
43832
43731
43624
43516
43410
43306
43207
43117
43039
42968
42904
42854
42819
42796
42786
42791
42809
42841
42886
42936
42986
43035
43080
43121
43159
43189
43212
43228
43239
43243
43240
43226
43196
43154
43107
43054
42993
42929
42867
42802
42736
42670
42601
42528
42449
42367
42288
42213
42136
42054
41973
41895
41813
41727
41645
41567
41492
41419
41347
41271
41197
41130
41064
40997
40929
40857
40776
40689
40602
40520
40442
40368
40298
40231
40172
40118
40062
40007
39956
39910
39862
39808
39753
39700
39646
39588
39530
39477
39422
39357
39281
39204
39132
39072
39031
39020
39053
39147
39310
39543
39843
40207
40626
41081
41549
42014
42467
42894
43288
43643
43958
44235
44476
44680
44849
44984
45088
45166
45219
45248
45260
45260
45252
45234
45204
45163
45118
45070
45020
44968
44920
44878
44838
44799
44760
44721
44676
44624
44565
44498
44428
44360
44290
44215
44135
44052
43972
43896
43826
43763
43709
43663
43625
43596
43584
43583
43587
43595
43607
43630
43661
43694
43724
43750
43771
43785
43793
43798
43801
43799
43790
43771
43745
43713
43673
43620
43552
43479
43405
43331
43253
43171
43087
42998
42905
42812
42718
42622
42527
42429
42329
42229
42131
42031
41930
41834
41746
41661
41577
41493
41410
41328
41250
41171
41090
41013
40942
40873
40804
40738
40679
40625
40569
40509
40452
40400
40348
40296
40247
40202
40154
40102
40044
39980
39920
39865
39810
39750
39690
39632
39572
39507
39436
39361
39281
39199
39117
39042
38982
38945
38945
38996
39111
39300
39567
39908
40317
40777
41266
41766
42257
42723
43155
43547
43892
44189
44439
44651
44827
44968
45079
45159
45212
45244
45257
45252
45232
45201
45163
45118
45070
45017
44960
44902
44848
44796
44739
44682
44627
44577
44524
44465
44403
44340
44271
44194
44109
44022
43937
43853
43768
43684
43605
43531
43468
43416
43375
43346
43333
43337
43351
43369
43395
43428
43463
43501
43545
43592
43638
43677
43706
43726
43739
43746
43745
43734
43712
43681
43642
43594
43536
43471
43403
43334
43261
43179
43094
43007
42919
42824
42724
42627
42533
42437
42339
42245
42157
42072
41986
41902
41821
41742
41666
41590
41512
41432
41353
41275
41200
41126
41053
40982
40914
40847
40780
40710
40638
40567
40493
40417
40341
40270
40205
40143
40084
40030
39976
39917
39855
39790
39725
39662
39599
39537
39479
39430
39393
39381
39411
39501
39657
39881
40172
40526
40928
41360
41808
42255
42688
43096
43470
43808
44109
44373
44600
44790
44946
45069
45162
45227
45266
45282
45279
45261
45230
45185
45130
45074
45020
44964
44908
44854
44801
44746
44688
44629
44567
44506
44449
44389
44323
44251
44170
44078
43978
43872
43766
43664
43570
43484
43409
43344
43291
43247
43215
43196
43193
43210
43240
43275
43313
43353
43397
43440
43481
43524
43570
43611
43639
43653
43656
43647
43622
43585
43543
43496
43445
43387
43328
43265
43199
43132
43065
42997
42928
42860
42786
42704
42619
42535
42452
42372
42295
42224
42155
42084
42010
41933
41854
41775
41698
41623
41551
41481
41410
41338
41269
41202
41137
41075
41012
40948
40885
40823
40761
40701
40646
40594
40544
40498
40451
40403
40352
40299
40243
40184
40124
40060
39989
39914
39843
39779
39722
39678
39650
39647
39677
39754
39891
40098
40379
40720
41107
41527
41964
42401
42828
43239
43628
43986
44310
44597
44847
45061
45237
45378
45493
45583
45645
45679
45693
45692
45679
45659
45633
45602
45565
45524
45482
45438
45394
45348
45299
45249
45201
45155
45108
45057
45005
44952
44898
44835
44761
44680
44596
44512
44432
44355
44287
44231
44185
44147
44117
44099
44093
44094
44101
44116
44139
44162
44184
44213
44249
44284
44315
44341
44361
44374
44379
44378
44371
44358
44339
44311
44276
44233
44180
44119
44053
43982
43908
43830
43752
43680
43614
43550
43483
43413
43341
43267
43191
43112
43032
42954
42874
42795
42717
42639
42558
42475
42392
42312
42232
42151
42071
41995
41921
41849
41778
41709
41641
41573
41500
41424
41355
41293
41233
41173
41111
41048
40981
40910
40840
40772
40703
40633
40566
40503
40437
40370
40306
40244
40178
40107
40035
39966
39898
39829
39762
39710
39685
39697
39754
39871
40056
40309
40627
41003
41423
41870
42330
42786
43223
43634
44011
44349
44647
44907
45132
45322
45474
45591
45682
45751
45797
45815
45813
45799
45777
45746
45705
45660
45613
45567
45518
45465
45411
45356
45297
45239
45188
45141
45088
45025
44958
44887
44808
44719
44627
44535
44442
44349
44259
44176
44104
44042
43989
43944
43912
43892
43881
43879
43890
43915
43948
43987
44032
44080
44127
44170
44210
44242
44261
44270
44272
44268
44256
44235
44206
44166
44111
44046
43972
43895
43815
43730
43638
43542
43447
43351
43253
43155
43060
42964
42866
42771
42680
42589
42495
42402
42315
42236
42161
42086
42013
41945
41883
41823
41760
41694
41629
41563
41494
41420
41344
41265
41182
41097
41014
40937
40863
40792
40726
40664
40604
40549
40497
40444
40391
40338
40285
40228
40166
40103
40042
39985
39927
39863
39797
39731
39677
39648
39655
39707
39814
39985
40228
40542
40914
41328
41767
42214
42658
43083
43479
43843
44171
44461
44714
44932
45115
45261
45372
45452
45506
45542
45564
45570
45558
45531
45494
45448
45391
45330
45266
45200
45136
45071
45002
44932
44861
44785
44704
44623
44546
44465
44377
44286
44190
44089
43985
43882
43781
43687
43602
43529
43472
43429
43399
43378
43369
43371
43383
43407
43444
43490
43539
43586
43632
43679
43724
43761
43790
43815
43831
43836
43830
43817
43797
43768
43726
43674
43616
43554
43485
43410
43334
43259
43183
43102
43016
42931
42845
42755
42663
42574
42489
42405
42321
42238
42156
42078
42006
41938
41871
41804
41737
41667
41591
41510
41427
41342
41255
41169
41087
41010
40937
40867
40801
40740
40682
40627
40572
40517
40460
40402
40342
40282
40221
40161
40100
40037
39974
39912
39849
39789
39739
39712
39720
39772
39877
40048
40287
40592
40949
41344
41767
42204
42640
43061
43460
43831
44165
44457
44708
44921
45102
45257
45381
45475
45543
45591
45620
45633
45631
45615
45584
45543
45495
45445
45394
45341
45284
45227
45169
45107
45040
44975
44911
44842
44765
44686
44608
44527
44439
44353
44272
44189
44100
44012
43933
43863
43802
43754
43721
43701
43693
43699
43714
43735
43761
43791
43824
43860
43895
43928
43959
43989
44014
44029
44036
44037
44031
44016
43993
43962
43926
43888
43843
43789
43728
43661
43587
43508
43427
43343
43257
43169
43083
43001
42921
42838
42754
42671
42589
42508
42426
42343
42261
42181
42103
42027
41955
41886
41816
41745
41672
41597
41522
41444
41362
41277
41193
41112
41034
40961
40890
40824
40762
40701
40638
40578
40523
40471
40419
40369
40328
40291
40250
40206
40160
40108
40048
39980
39906
39829
39748
39664
39580
39504
39448
39417
39427
39491
39617
39812
40083
40429
40837
41289
41767
42253
42731
43186
43615
44014
44376
44696
44975
45215
45416
45581
45713
45816
45889
45935
45959
45969
45962
45941
45909
45872
45831
45790
45748
45706
45660
45607
45550
45490
45430
45371
45310
45247
45187
45129
45067
44997
44920
44842
44763
44684
44606
44535
44469
44400
44329
44267
44220
44184
44156
44136
44126
44122
44126
44142
44166
44194
44223
44252
44278
44303
44326
44343
44353
44359
44359
44352
44331
44300
44264
44225
44181
44129
44074
44017
43953
43883
43808
43733
43656
43574
43489
43402
43314
43228
43139
43047
42958
42876
42794
42706
42619
42537
42454
42369
42285
42205
42128
42051
41971
41892
41813
41734
41649
41560
41471
41387
41309
41233
41159
41087
41016
40946
40876
40803
40730
40661
40592
40523
40456
40395
40338
40280
40224
40174
40124
40068
40006
39940
39874
39807
39739
39671
39603
39528
39453
39383
39317
39258
39215
39193
39205
39264
39381
39567
39834
40183
40605
41078
41580
42088
42586
43065
43510
43916
44279
44597
44872
45105
45299
45458
45583
45680
45751
45795
45817
45821
45807
45777
45734
45683
45629
45575
45516
45451
45383
45317
45252
45191
45132
45072
45008
44943
44878
44813
44745
44674
44600
44523
44441
44355
44268
44179
44090
44006
43929
43863
43810
43770
43742
43724
43723
43736
43760
43791
43828
43871
43915
43954
43986
44016
44049
44077
44095
44106
44107
44098
44081
44059
44031
43992
43941
43882
43818
43751
43681
43608
43533
43456
43375
43289
43193
43093
42991
42890
42790
42691
42599
42510
42418
42326
42237
42151
42067
41986
41909
41835
41760
41684
41610
41535
41459
41383
41310
41240
41172
41104
41038
40972
40901
40828
40762
40703
40647
40594
40542
40491
40437
40380
40318
40251
40179
40106
40037
39967
39890
39807
39721
39635
39549
39472
39410
39369
39355
39380
39459
39606
39830
40132
40502
40930
41397
41880
42362
42837
43295
43721
44103
44443
44744
45003
45217
45392
45534
45641
45717
45767
45795
45804
45796
45771
45736
45694
45647
45594
45535
45471
45404
45335
45266
45199
45136
45075
45015
44951
44879
44799
44715
44624
44523
44417
44313
44216
44125
44039
43962
43892
43825
43761
43707
43671
43645
43627
43624
43638
43668
43706
43748
43792
43838
43884
43929
43969
44001
44026
44041
44046
44044
44037
44020
43994
43960
43920
43874
43821
43763
43700
43632
43556
43473
43390
43310
43230
43148
43066
42984
42900
42811
42721
42633
42546
42459
42374
42290
42206
42123
42039
41953
41865
41775
41685
41599
41519
41444
41373
41300
41226
41155
41089
41025
40962
40903
40844
40782
40720
40662
40608
40554
40502
40451
40398
40340
40279
40217
40153
40091
40031
39972
39916
39866
39822
39779
39730
39676
39620
39562
39499
39431
39362
39292
39227
39176
39148
39152
39203
39318
39513
39795
40158
40588
41066
41576
42097
42607
43093
43550
43972
44353
44689
44979
45229
45437
45601
45727
45829
45913
45976
46016
46039
46046
46040
46024
46003
45978
45945
45904
45857
45806
45755
45706
45656
45606
45559
45514
45468
45420
45367
45311
45254
45197
45133
45063
44989
44914
44836
44754
44678
44611
44554
44504
44459
44425
44400
44382
44370
44369
44380
44396
44413
44436
44466
44496
44522
44543
44561
44573
44578
44577
44566
44544
44516
44484
44443
44393
44336
44275
44208
44135
44054
43968
43881
43791
43700
43608
43518
43431
43340
43247
43156
43068
42978
42886
42799
42717
42632
42541
42452
42370
42288
42204
42118
42034
41950
41865
41781
41697
41610
41521
41434
41353
41278
41211
41152
41099
41049
41001
40952
40898
40845
40792
40736
40675
40612
40551
40488
40422
40356
40291
40228
40164
40100
40039
39981
39921
39858
39797
39740
39686
39631
39574
39511
39441
39367
39292
39216
39140
39070
39017
38995
39024
39117
39290
39551
39904
40338
40831
41358
41898
42435
42951
43434
43876
44274
44624
44925
45180
45394
45569
45707
45809
45884
45936
45965
45973
45963
45937
45897
45847
45787
45723
45661
45603
45542
45480
45421
45366
45309
45252
45198
45145
45089
45029
44967
44900
44826
44746
44659
44564
44470
44383
44302
44221
44147
44089
44043
44001
43966
43945
43936
43936
43943
43960
43988
44025
44068
44119
44169
44210
44240
44263
44281
44290
44292
44287
44276
44257
44228
44185
44128
44067
44006
43943
43875
43798
43718
43638
43555
43468
43375
43282
43190
43095
42998
42901
42807
42717
42629
42541
42450
42353
42249
42143
42042
41946
41848
41749
41658
41578
41501
41423
41345
41267
41191
41116
41042
40968
40897
40832
40769
40702
40636
40575
40516
40458
40400
40342
40281
40219
40155
40089
40026
39966
39905
39841
39774
39707
39640
39570
39498
39427
39362
39312
39285
39294
39353
39476
39674
39950
40302
40720
41189
41687
42191
42685
43156
43598
44004
44363
44673
44938
45161
45344
45489
45598
45676
45730
45765
45779
45773
45752
45716
45668
45612
45556
45501
45444
45381
45314
45248
45181
45110
45040
44974
44909
44838
44756
44668
44573
44472
44365
44259
44156
44059
43966
43877
43793
43714
43645
43592
43557
43538
43533
43541
43560
43588
43624
43664
43707
43752
43799
43846
43891
43933
43969
43993
44006
44009
44005
43993
43971
43939
43901
43857
43807
43747
43678
43601
43517
43425
43330
43232
43130
43027
42926
42830
42740
42657
42580
42505
42432
42359
42285
42211
42134
42052
41967
41880
41792
41705
41616
41527
41441
41359
41280
41208
41140
41075
41013
40951
40887
40820
40748
40676
40605
40536
40473
40417
40364
40310
40253
40194
40135
40079
40026
39974
39921
39868
39818
39767
39714
39658
39600
39539
39474
39404
39333
39265
39199
39141
39099
39086
39118
39206
39358
39585
39895
40284
40731
41221
41739
42269
42788
43277
43727
44135
44498
44817
45091
45321
45513
45671
45796
45890
45957
46005
46035
46047
46039
46012
45971
45923
45873
45822
45773
45728
45686
45645
45605
45568
45532
45492
45448
45402
45353
45303
45248
45181
45104
45021
44935
44847
44759
44677
44604
44537
44475
44418
44367
44330
44310
44304
44306
44314
44328
44346
44366
44388
44415
44444
44472
44497
44516
44525
44525
44521
44513
44502
44484
44454
44415
44371
44322
44268
44207
44141
44070
43996
43922
43849
43773
43692
43605
43513
43419
43324
43235
43151
43066
42977
42889
42806
42721
42631
42541
42457
42375
42292
42209
42122
42034
41951
41874
41802
41733
41670
41614
41558
41500
41443
41391
41338
41281
41219
41156
41091
41026
40961
40898
40838
40781
40728
40678
40631
40585
40537
40489
40441
40386
40323
40252
40176
40100
40027
39957
39889
39821
39751
39683
39631
39611
39636
39720
39876
40110
40421
40797
41223
41685
42169
42657
43126
43563
43964
44327
44649
44927
45164
45365
45530
45657
45751
45818
45865
45892
45899
45893
45873
45836
45789
45740
45691
45643
45596
45547
45496
45443
45390
45334
45277
45224
45176
45129
45079
45023
44962
44893
44814
44726
44632
44537
44444
44354
44269
44194
44134
44091
44058
44037
44028
44030
44039
44055
44080
44111
44145
44181
44222
44264
44301
44331
44352
44366
44373
44374
44366
44346
44315
44276
44228
44168
44099
44026
43952
43874
43792
43705
43619
43532
43443
43349
43255
43163
43072
42979
42886
42794
42703
42613
42522
42429
42340
42253
42166
42078
41994
41912
41833
41760
41688
41613
41540
41471
41406
41347
41288
41224
41154
41080
41005
40930
40852
40777
40703
40630
40560
40496
40434
40372
40312
40251
40189
40123
40054
39985
39919
39854
39793
39742
39706
39690
39703
39760
39875
40055
40306
40627
41012
41449
41919
42404
42884
43343
43774
44170
44522
44827
45090
45314
45496
45638
45746
45825
45875
45900
45906
45894
45870
45835
45792
45744
45697
45654
45606
45550
45484
45410
45333
45259
45190
45120
45046
44968
44889
44810
44732
44649
44558
44464
44369
44273
44178
44091
44016
43949
43890
43843
43812
43794
43788
43796
43818
43848
43880
43917
43958
44000
44041
44080
44117
44148
44171
44188
44196
44195
44192
44185
44172
44149
44121
44083
44033
43971
43904
43837
43763
43683
43601
43516
43425
43328
43233
43141
43048
42953
42863
42778
42692
42605
42523
42449
42379
42316
42259
42204
42150
42093
42032
41965
41899
41838
41780
41720
41656
41590
41525
41458
41388
41318
41253
41192
41132
41072
41017
40965
40912
40856
40799
40743
40688
40628
40564
40504
40446
40386
40326
40268
40216
40169
40128
40103
40108
40161
40276
40457
40704
41020
41398
41821
42269
42726
43178
43611
44016
44391
44737
45045
45314
45543
45737
45897
46023
46119
46191
46238
46260
46261
46248
46225
46195
46161
46126
46089
46050
46010
45973
45933
45886
45838
45789
45741
45692
45638
45581
45523
45463
45398
45328
45251
45172
45093
45014
44937
44865
44803
44749
44701
44663
44633
44609
44593
44588
44598
44618
44639
44659
44684
44713
44744
44773
44803
44832
44856
44874
44885
44890
44888
44874
44849
44817
44777
44730
44679
44626
44567
44500
44429
44356
44283
44207
44128
44048
43968
43889
43809
43727
43645
43560
43474
43394
43319
43245
43173
43105
43035
42962
42887
42809
42729
42649
42571
42495
42417
42344
42275
42208
42141
42074
42009
41944
41879
41814
41748
41683
41625
41570
41514
41457
41395
41326
41254
41183
41116
41046
40975
40907
40841
40772
40697
40617
40534
40449
40363
40280
40205
40139
40090
40071
40097
40181
40334
40564
40873
41256
41699
42177
42669
43160
43633
44077
44485
44858
45191
45486
45738
45948
46120
46262
46373
46452
46503
46532
46544
46538
46513
46479
46443
46403
46357
46307
46257
46208
46161
46113
46070
46032
45996
45957
45915
45872
45826
45776
45719
45657
45588
45512
45428
45342
45259
45179
45102
45034
44975
44922
44878
44846
44828
44823
44829
44844
44867
44895
44927
44962
44997
45031
45060
45085
45101
45106
45102
45090
45076
45052
45015
44969
44916
44852
44780
44706
44632
44560
44487
44408
44323
44239
44158
44072
43979
43884
43792
43706
43624
43543
43460
43377
43299
43226
43153
43080
43009
42941
42869
42793
42721
42650
42578
42502
42425
42349
42271
42189
42108
42030
41951
41867
41782
41705
41634
41564
41496
41436
41383
41331
41274
41217
41164
41110
41051
40987
40920
40849
40775
40701
40628
40557
40493
40444
40414
40419
40472
40583
40763
41021
41359
41768
42231
42720
43211
43691
44147
44565
44940
45274
45566
45813
46018
46186
46320
46421
46492
46541
46572
46586
46585
46569
46540
46503
46457
46403
46345
46286
46224
46161
46102
46047
45995
45943
45887
45825
45759
45685
45603
45517
45431
45343
45250
45158
45070
44983
44895
44811
44737
44673
44618
44576
44551
44539
44535
44543
44565
44598
44638
44686
44737
44781
44818
44852
44881
44899
44909
44914
44911
44894
44863
44826
44787
44743
44695
44641
44581
44515
44444
44369
44292
44213
44133
44050
43964
43873
43777
43679
43582
43489
43397
43302
43205
43108
43016
42928
42839
42750
42666
42590
42517
42444
42377
42316
42255
42190
42128
42072
42017
41957
41888
41815
41735
41654
41578
41505
41433
41364
41294
41219
41142
41067
40992
40919
40848
40781
40719
40667
40628
40610
40617
40658
40746
40900
41129
41434
41807
42238
42706
43186
43660
44119
44557
44965
45334
45662
45949
46194
46401
46571
46707
46811
46888
46937
46960
46968
46966
46950
46922
46886
46845
46798
46748
46696
46644
46590
46533
46475
46424
46380
46335
46290
46242
46188
46125
46051
45970
45883
45787
45686
45587
45491
45401
45322
45258
45207
45162
45131
45117
45118
45130
45151
45176
45199
45228
45263
45302
45341
45376
45408
45438
45462
45477
45484
45485
45482
45470
45450
45423
45387
45339
45281
45218
45151
45079
45002
44922
44844
44764
44679
44595
44518
44447
44376
44298
44219
44142
44066
43987
43909
43836
43766
43700
43637
43577
43518
43456
43391
43322
43249
43171
43089
43011
42936
42862
42791
42726
42661
42594
42529
42466
42402
42338
42274
42213
42152
42090
42031
41976
41921
41861
41795
41729
41661
41593
41525
41458
41393
41331
41281
41254
41257
41298
41387
41541
41769
42072
42440
42856
43302
43761
44220
44670
45096
45492
45854
46179
46465
46713
46923
47099
47242
47349
47427
47486
47527
47550
47557
47551
47533
47506
47474
47439
47402
47367
47333
47298
47260
47222
47181
47138
47097
47058
47016
46965
46906
46842
46771
46693
46612
46532
46453
46374
46297
46224
46156
46093
46034
45984
45950
45927
45912
45908
45915
45933
45958
45985
46013
46045
46081
46114
46139
46156
46167
46174
46174
46169
46158
46140
46112
46076
46034
45984
45926
45858
45787
45713
45632
45546
45459
45369
45277
45187
45098
45007
44919
44836
44757
44678
44599
44523
44448
44372
44294
44215
44134
44053
43977
43903
43827
43750
43679
43617
43557
43495
43432
43368
43300
43229
43156
43080
42999
42919
42845
42781
42726
42680
42633
42584
42534
42484
42436
42388
42335
42277
42215
42150
42079
42005
41929
41852
41774
41698
41625
41559
41513
41499
41526
41605
41752
41979
42287
42663
43091
43558
44042
44523
44986
45427
45840
46213
46538
46820
47064
47267
47430
47560
47660
47732
47777
47798
47800
47787
47759
47723
47682
47636
47586
47533
47480
47427
47374
47321
47275
47234
47193
47154
47119
47084
47041
46986
46918
46837
46745
46645
46543
46441
46343
46251
46171
46103
46046
45996
45959
45938
45930
45931
45940
45961
45992
46029
46071
46116
46159
46198
46234
46266
46291
46306
46308
46298
46280
46253
46218
46178
46130
46073
46009
45938
45861
45778
45692
45610
45529
45449
45369
45287
45204
45126
45055
44987
44915
44840
44762
44680
44596
44514
44433
44353
44272
44192
44118
44046
43972
43895
43818
43742
43665
43590
43519
43453
43387
43323
43262
43200
43134
43070
43012
42959
42904
42845
42784
42721
42655
42587
42518
42445
42366
42285
42210
42142
42082
42039
42017
42025
42080
42197
42378
42626
42943
43320
43738
44179
44626
45063
45481
45875
46241
46571
46865
47123
47347
47537
47690
47810
47902
47968
48009
48028
48030
48020
47996
47958
47912
47864
47814
47759
47700
47640
47582
47524
47465
47413
47367
47323
47276
47225
47168
47106
47035
46951
46856
46760
46669
46582
46497
46420
46354
46297
46247
46206
46176
46159
46156
46163
46175
46197
46226
46262
46303
46350
46395
46430
46456
46477
46489
46492
46484
46467
46438
46400
46355
46302
46246
46188
46132
46073
46007
45935
45862
45789
45714
45635
45552
45468
45385
45301
45216
45132
45050
44971
44890
44810
44733
44656
44579
44505
44430
44356
44285
44220
44158
44094
44030
43967
43907
43850
43798
43753
43714
43670
43618
43564
43506
43443
43377
43312
43253
43194
43133
43077
43025
42977
42931
42888
42847
42804
42756
42702
42646
42591
42534
42471
42404
42337
42270
42213
42171
42149
42162
42226
42356
42555
42825
43163
43560
43998
44454
44912
45362
45796
46205
46585
46930
47239
47509
47740
47940
48110
48246
48350
48431
48492
48531
48549
48551
48541
48521
48498
48469
48431
48388
48348
48313
48283
48260
48240
48219
48192
48161
48129
48095
48057
48014
47969
47920
47861
47791
47717
47641
47564
47487
47418
47357
47303
47256
47218
47191
47174
47162
47157
47164
47183
47208
47235
47265
47295
47319
47334
47345
47355
47358
47351
47334
47314
47289
47255
47212
47164
47109
47045
46976
46912
46851
46784
46711
46637
46563
46488
46410
46330
46246
46161
46077
45993
45909
45823
45741
45663
45589
45516
45444
45373
45302
45232
45163
45094
45027
44963
44900
44838
44773
44705
44634
44565
44498
44433
44365
44297
44237
44185
44135
44084
44031
43979
43925
43870
43815
43761
43706
43652
43601
43547
43490
43433
43375
43313
43251
43191
43131
43066
43001
42938
42878
42818
42755
42687
42614
42541
42466
42389
42314
42248
42202
42185
42214
42305
42472
42716
43033
43417
43856
44326
44807
45281
45737
46167
46563
46920
47242
47529
47776
47983
48154
48290
48389
48451
48489
48512
48523
48525
48516
48500
48477
48449
48417
48382
48346
48313
48278
48242
48206
48172
48139
48106
48069
48030
47990
47946
47892
47826
47752
47672
47583
47484
47380
47280
47190
47105
47030
46972
46932
46904
46887
46877
46875
46885
46904
46931
46962
46997
47033
47069
47100
47122
47140
47150
47152
47147
47138
47121
47094
47056
47011
46960
46903
46840
46772
46700
46626
46550
46471
46387
46297
46204
46113
46021
45928
45837
45751
45666
45577
45485
45396
45311
45229
45153
45084
45021
44959
44901
44841
44776
44708
44643
44578
44511
44444
44383
44323
44261
44195
44128
44065
44007
43950
43891
43831
43772
43710
43646
43580
43512
43448
43388
43325
43259
43192
43130
43067
42998
42921
42843
42763
42685
42609
42540
42477
42418
42368
42334
42320
42334
42390
42509
42705
42978
43322
43724
44167
44631
45097
45549
45981
46383
46746
47068
47353
47604
47815
47987
48126
48234
48313
48363
48386
48387
48375
48351
48314
48270
48224
48178
48131
48081
48035
47989
47936
47877
47820
47764
47706
47640
47569
47493
47413
47330
47243
47149
47047
46939
46831
46730
46639
46559
46490
46433
46388
46355
46334
46326
46333
46351
46375
46404
46440
46482
46526
46565
46601
46634
46658
46670
46673
46670
46662
46649
46628
46599
46562
46515
46458
46395
46326
46251
46169
46084
46001
45918
45835
45753
45671
45584
45494
45403
45313
45226
45140
45053
44968
44888
44810
44728
44644
44566
44493
44423
44356
44292
44230
44167
44097
44022
43947
43874
43803
43736
43675
43616
43554
43491
43429
43371
43312
43251
43188
43126
43063
43000
42939
42880
42821
42767
42718
42674
42633
42594
42553
42510
42465
42417
42362
42302
42239
42176
42112
42042
41972
41905
41835
41757
41673
41591
41517
41451
41397
41372
41388
41457
41597
41831
42161
42568
43034
43544
44081
44622
45149
45651
46121
46549
46929
47261
47547
47788
47986
48142
48263
48355
48422
48466
48492
48505
48508
48500
48484
48462
48434
48399
48359
48319
48277
48235
48193
48152
48108
48059
48009
47960
47912
47862
47810
47757
47695
47623
47545
47461
47369
47274
47178
47088
47007
46935
46872
46820
46780
46754
46741
46738
46742
46748
46758
46774
46798
46826
46854
46878
46896
46911
46918
46917
46907
46891
46870
46840
46800
46750
46692
46627
46558
46487
46413
46329
46236
46144
46057
45970
45882
45796
45711
45622
45528
45433
45341
45253
45169
45087
45008
44929
44847
44764
44683
44607
44536
44465
44389
44311
44234
44156
44075
43993
43915
43839
43759
43673
43587
43502
43415
43329
43249
43172
43096
43021
42950
42886
42824
42764
42710
42657
42603
42543
42483
42426
42368
42305
42237
42164
42088
42008
41926
41847
41774
41704
41636
41572
41511
41451
41388
41320
41246
41165
41080
40993
40907
40822
40745
40691
40675
40708
40807
40994
41276
41651
42108
42633
43202
43791
44375
44931
45446
45916
46340
46715
47039
47312
47537
47721
47864
47969
48044
48094
48124
48136
48133
48119
48092
48051
48002
47945
47884
47821
47758
47695
47629
47559
47492
47428
47364
47300
47241
47183
47118
47041
46958
46869
46772
46670
46570
46475
46382
46289
46201
46124
46056
45998
45950
45915
45894
45886
45892
45908
45936
45972
46012
46051
46092
46133
46169
46200
46224
46241
46248
46241
46223
46197
46165
46121
46066
46001
45927
45842
45749
45652
45547
45432
45313
45195
45077
44955
44834
44719
44611
44508
44407
44308
44211
44117
44026
43942
43863
43786
43709
43632
43554
43477
43399
43321
43242
43163
43083
43005
42926
42845
42762
42680
42603
42529
42458
42389
42322
42258
42197
42141
42093
42048
42002
41954
41907
41862
41816
41768
41720
41668
41608
41542
41472
41396
41319
41240
41149
41048
40946
40845
40744
40645
40554
40483
40443
40448
40522
40680
40930
41270
41697
42196
42744
43316
43891
44449
44974
45453
45882
46257
46580
46855
47083
47259
47389
47486
47558
47603
47621
47620
47604
47573
47527
47472
47413
47348
47279
47206
47130
47052
46974
46897
46820
46742
46663
46582
46501
46418
46327
46230
46128
46020
45903
45782
45664
45552
45443
45340
45251
45177
45115
45067
45037
45026
45025
45031
45049
45083
45131
45185
45243
45302
45358
45408
45455
45500
45535
45558
45570
45570
45556
45528
45490
45448
45404
45353
45294
45226
45153
45076
44994
44908
44816
44713
44609
44509
44411
44312
44210
44111
44012
43912
43813
43721
43634
43550
43467
43388
43314
43237
43159
43081
43006
42931
42856
42780
42705
42627
42548
42471
42395
42316
42234
42154
42077
42003
41934
41869
41807
41745
41682
41622
41566
41509
41452
41395
41335
41269
41201
41135
41072
41010
40952
40897
40838
40772
40704
40635
40562
40481
40400
40322
40248
40176
40110
40060
40036
40054
40135
40294
40543
40890
41333
41859
42444
43059
43675
44270
44828
45336
45788
46186
46534
46832
47083
47288
47456
47588
47684
47750
47793
47814
47816
47805
47782
47749
47706
47658
47606
47547
47483
47421
47365
47313
47265
47217
47170
47122
47074
47024
46968
46905
46836
46757
46668
46573
46479
46386
46299
46216
46136
46060
45993
45939
45898
45867
45849
45843
45845
45853
45872
45902
45938
45976
46016
46055
46089
46117
46139
46150
46155
46153
46139
46111
46076
46037
45991
45936
45876
45813
45742
45662
45576
45488
45396
45302
45206
45107
45007
44907
44810
44716
44619
44522
44424
44326
44230
44136
44039
43936
43832
43728
43623
43515
43407
43303
43202
43099
42993
42887
42785
42686
42585
42485
42392
42303
42218
42141
42074
42008
41938
41865
41794
41723
41654
41585
41517
41450
41383
41316
41249
41185
41124
41063
41000
40936
40870
40803
40738
40676
40611
40537
40456
40370
40275
40178
40087
39999
39908
39817
39740
39690
39671
39701
39804
40001
40300
40703
41208
41797
42441
43107
43763
44386
44958
45470
45922
46313
46644
46916
47134
47307
47441
47543
47617
47667
47692
47693
47674
47643
47601
47550
47490
47425
47355
47282
47207
47132
47057
46984
46915
46847
46776
46707
46640
46569
46488
46397
46300
46198
46092
45984
45873
45761
45650
45544
45447
45358
45280
45220
45180
45157
45152
45161
45181
45208
45244
45289
45337
45382
45429
45476
45517
45550
45575
45588
45587
45575
45551
45514
45467
45409
45343
45270
45195
45119
45038
44951
44860
44765
44665
44564
44466
44371
44273
44171
44067
43963
43857
43753
43651
43548
43442
43335
43230
43130
43035
42944
42857
42777
42699
42621
42547
42480
42414
42345
42276
42208
42145
42081
42016
41950
41879
41803
41729
41656
41585
41516
41446
41378
41309
41238
41166
41089
41006
40922
40837
40751
40663
40576
40492
40411
40332
40260
40203
40172
40181
40241
40366
40567
40855
41237
41705
42240
42813
43400
43978
44529
45036
45493
45896
46246
46545
46793
46990
47140
47251
47330
47374
47389
47384
47365
47333
47289
47235
47172
47101
47022
46938
46852
46762
46669
46574
46481
46391
46303
46219
46132
46036
45928
45812
45692
45564
45431
45299
45167
45039
44923
44818
44721
44638
44573
44528
44500
44490
44495
44516
44554
44605
44661
44719
44782
44847
44910
44966
45016
45060
45090
45105
45109
45103
45084
45052
45007
44953
44893
44831
44769
44702
44631
44557
44480
44401
44317
44227
44137
44049
43958
43862
43768
43676
43585
43495
43408
43321
43234
43150
43072
42992
42906
42818
42728
42632
42535
42441
42350
42264
42182
42102
42022
41939
41851
41762
41671
41581
41496
41418
41347
41280
41216
41157
41103
41051
41000
40949
40891
40829
40769
40709
40644
40570
40493
40416
40336
40255
40179
40118
40080
40073
40112
40214
40397
40675
41055
41524
42062
42646
43252
43855
44431
44966
45452
45884
46259
46582
46857
47088
47274
47419
47530
47612
47670
47710
47733
47738
47724
47697
47658
47607
47550
47490
47429
47368
47309
47256
47209
47160
47107
47053
46997
46934
46864
46791
46714
46629
46537
46443
46352
46265
46183
46106
46034
45971
45921
45882
45857
45842
45835
45836
45848
45867
45893
45926
45963
45997
46031
46067
46100
46128
46152
46168
46176
46180
46184
46186
46178
46156
46125
46085
46033
45971
45907
45844
45774
45694
45612
45537
45461
45379
45296
45217
45143
45071
44999
44926
44853
44780
44705
44630
44558
44491
44427
44364
44301
44238
44174
44108
44043
43978
43908
43832
43756
43682
43606
43529
43455
43380
43303
43226
43153
43080
43004
42931
42861
42794
42726
42660
42599
42541
42483
42426
42371
42310
42242
42170
42095
42017
41936
41854
41771
41685
41600
41525
41469
41439
41444
41500
41622
41819
42096
42449
42861
43311
43781
44254
44719
45165
45588
45981
46333
46645
46921
47162
47362
47526
47659
47766
47848
47909
47953
47982
47994
47988
47964
47926
47881
47833
47784
47729
47671
47612
47554
47498
47444
47391
47338
47282
47224
47158
47086
47010
46930
46844
46754
46662
46572
46484
46401
46323
46254
46201
46162
46133
46113
46106
46113
46129
46147
46168
46195
46227
46259
46292
46326
46357
46382
46400
46411
46413
46407
46397
46383
46362
46332
46293
46246
46191
46127
46058
45987
45908
45822
45733
45643
45553
45457
45363
45275
45189
45100
45008
44916
44826
44740
44654
44569
44485
44403
44321
44240
44158
44072
43984
43895
43807
43723
43642
43562
43483
43404
43324
43245
43167
43092
43019
42946
42876
42810
42748
42690
42629
42569
42514
42457
42394
42326
42253
42171
42083
41991
41896
41800
41708
41619
41531
41448
41379
41332
41313
41332
41407
41555
41788
42107
42507
42972
43481
44007
44532
45041
45524
45974
46378
46731
47033
47288
47500
47674
47809
47907
47973
48010
48027
48027
48006
47967
47917
47858
47793
47722
47650
47579
47506
47436
47369
47298
47221
47144
47069
46992
46909
46824
46735
46638
46530
46419
46314
46213
46111
46012
45917
45827
45744
45672
45615
45571
45543
45533
45540
45559
45591
45636
45690
45744
45797
45852
45906
45957
46002
46040
46067
46082
46086
46080
46065
46042
46011
45972
45924
45867
45801
45727
45644
45553
45461
45370
45278
45185
45092
45001
44910
44821
44735
44651
44566
44480
44397
44315
44233
44153
44074
43996
43918
43838
43755
43675
43602
43529
43460
43398
43341
43287
43232
43176
43120
43060
42996
42931
42870
42808
42745
42684
42629
42575
42515
42451
42384
42314
42238
42156
42071
41981
41890
41809
41744
41702
41693
41732
41833
42010
42267
42602
43007
43465
43954
44457
44958
45438
45884
46291
46662
46994
47280
47522
47722
47883
48008
48100
48165
48210
48236
48244
48237
48215
48181
48138
48083
48021
47960
47902
47845
47787
47729
47672
47616
47561
47509
47455
47395
47327
47252
47171
47084
46993
46898
46799
46698
46601
46514
46442
46385
46340
46304
46283
46276
46277
46284
46302
46330
46363
46397
46434
46473
46510
46541
46565
46584
46597
46603
46604
46599
46589
46571
46547
46515
46472
46420
46362
46299
46229
46153
46076
45999
45919
45837
45762
45691
45617
45541
45472
45407
45341
45274
45204
45133
45061
44993
44926
44856
44785
44722
44663
44601
44534
44466
44400
44334
44265
44200
44140
44082
44024
43966
43909
43852
43796
43744
43697
43651
43607
43568
43528
43481
43431
43378
43324
43265
43203
43138
43070
42998
42929
42865
42800
42734
42674
42621
42577
42549
42549
42593
42691
42851
43083
43386
43743
44138
44562
45002
45441
45867
46272
46649
46993
47297
47565
47797
47996
48161
48297
48404
48485
48540
48571
48581
48578
48567
48546
48512
48470
48427
48383
48334
48282
48233
48188
48146
48108
48073
48038
48003
47964
47920
47871
47813
47745
47672
47596
47514
47427
47339
47257
47182
47114
47058
47014
46975
46943
46920
46906
46901
46906
46921
46942
46966
46989
47010
47032
47052
47073
47093
47108
47115
47112
47102
47084
47057
47022
46981
46932
46876
46813
46742
46660
46572
46484
46398
46312
46225
46138
46050
45964
45882
45804
45729
45657
45587
45515
45439
45358
45275
45191
45109
45031
44957
44881
44801
44722
44650
44583
44521
44460
44402
44346
44293
44243
44191
44135
44078
44023
43968
43914
43860
43804
43744
43680
43615
43552
43491
43432
43373
43314
43253
43189
43121
43050
42978
42906
42833
42755
42674
42595
42523
42466
42429
42422
42460
42553
42710
42938
43240
43606
44024
44476
44944
45411
45863
46290
46686
47047
47372
47657
47903
48111
48282
48416
48517
48588
48637
48662
48666
48657
48640
48612
48572
48529
48485
48436
48380
48322
48266
48211
48154
48096
48038
47979
47920
47859
47791
47716
47631
47539
47444
47344
47240
47134
47035
46945
46863
46789
46725
46673
46631
46598
46580
46580
46593
46614
46644
46686
46734
46785
46835
46885
46934
46977
47012
47035
47047
47045
47030
47002
46963
46913
46854
46790
46723
46655
46581
46501
46415
46329
46240
46146
46050
45953
45854
45754
45654
45554
45455
45360
45272
45190
45110
45028
44947
44869
44798
44729
44660
44592
44525
44461
44399
44337
44276
44219
44162
44103
44039
43976
43919
43863
43802
43734
43662
43587
43513
43441
43371
43302
43233
43162
43088
43015
42939
42862
42790
42724
42661
42604
42563
42546
42562
42623
42744
42935
43200
43534
43928
44368
44835
45310
45775
46221
46638
47017
47352
47640
47890
48107
48289
48432
48542
48621
48673
48704
48714
48703
48675
48636
48594
48547
48493
48434
48371
48305
48241
48181
48126
48069
48010
47949
47887
47823
47756
47682
47597
47504
47403
47298
47192
47088
46988
46893
46804
46726
46662
46612
46576
46554
46547
46553
46567
46591
46623
46661
46701
46745
46793
46840
46883
46920
46949
46964
46969
46964
46948
46924
46892
46850
46800
46746
46688
46622
46549
46472
46390
46304
46220
46137
46050
45957
45866
45781
45699
45619
45542
45471
45401
45329
45259
45187
45110
45030
44951
44876
44805
44738
44673
44610
44551
44493
44433
44375
44318
44261
44205
44148
44087
44023
43959
43894
43833
43780
43735
43687
43633
43578
43523
43468
43413
43357
43300
43237
43171
43106
43043
42979
42913
42847
42781
42716
42655
42609
42589
42608
42679
42811
43011
43284
43632
44039
44486
44957
45435
45905
46355
46778
47170
47523
47834
48107
48341
48534
48690
48811
48901
48965
49012
49044
49059
49057
49045
49030
49012
48987
48952
48909
48863
48817
48771
48723
48676
48628
48582
48540
48499
48450
48395
48338
48279
48216
48147
48072
47995
47918
47844
47775
47708
47643
47587
47546
47519
47501
47493
47492
47496
47502
47513
47523
47530
47541
47558
47580
47603
47620
47628
47629
47628
47621
47606
47586
47559
47523
47477
47426
47372
47317
47261
47200
47133
47064
46993
46920
46843
46762
46675
46585
46497
46411
46328
46250
46172
46093
46020
45949
45877
45806
45733
45656
45578
45500
45421
45342
45268
45200
45133
45063
44994
44932
44879
44831
44778
44715
44650
44585
44518
44449
44377
44304
44229
44156
44089
44029
43971
43912
43852
43791
43728
43664
43601
43536
43463
43386
43309
43231
43150
43070
42988
42908
42835
42774
42734
42727
42766
42859
43018
43250
43557
43928
44346
44796
45263
45730
46181
46605
46998
47357
47676
47957
48203
48415
48593
48736
48849
48936
48996
49033
49052
49057
49051
49036
49010
48976
48935
48886
48830
48771
48713
48657
48599
48538
48480
48426
48373
48320
48269
48219
48166
48104
48033
47956
47875
47788
47701
47620
47545
47474
47411
47357
47308
47267
47237
47217
47209
47212
47223
47243
47270
47297
47327
47361
47390
47413
47434
47450
47457
47455
47444
47423
47391
47353
47311
47261
47203
47141
47076
47005
46927
46845
46764
46684
46603
46519
46432
46344
46252
46158
46064
45973
45886
45802
45720
45640
45558
45471
45383
45302
45226
45149
45071
44993
44918
44848
44783
44724
44668
44614
44559
44504
44447
44386
44321
44255
44186
44116
44047
43979
43909
43837
43766
43697
43622
43541
43460
43382
43300
43211
43121
43031
42940
42849
42758
42670
42585
42503
42434
42391
42387
42439
42559
42755
43029
43377
43787
44244
44729
45218
45694
46149
46577
46969
47323
47636
47906
48132
48316
48460
48570
48648
48697
48724
48731
48721
48696
48660
48614
48558
48494
48427
48358
48285
48209
48129
48049
47972
47896
47821
47746
47667
47587
47509
47428
47342
47250
47154
47061
46968
46876
46789
46707
46632
46566
46511
46467
46437
46424
46425
46437
46458
46493
46539
46589
46640
46692
46744
46791
46830
46857
46878
46891
46894
46886
46870
46848
46813
46770
46722
46668
46604
46533
46454
46371
46289
46211
46139
46065
45989
45915
45841
45766
45687
45608
45525
45439
45355
45279
45205
45130
45054
44982
44911
44844
44781
44718
44653
44586
44519
44452
44388
44328
44270
44213
44154
44092
44030
43967
43908
43852
43795
43736
43673
43606
43536
43469
43403
43336
43269
43200
43131
43060
42987
42914
42840
42771
42707
42643
42582
42530
42496
42486
42513
42593
42735
42946
43224
43564
43957
44389
44843
45301
45747
46170
46567
46935
47271
47568
47826
48046
48232
48386
48508
48598
48660
48700
48717
48714
48696
48665
48624
48576
48521
48461
48403
48349
48296
48243
48191
48137
48081
48024
47967
47907
47847
47783
47713
47641
47566
47488
47407
47321
47233
47149
47072
47004
46944
46894
46853
46817
46791
46776
46775
46786
46810
46844
46882
46918
46955
46992
47029
47062
47086
47103
47113
47115
47108
47097
47079
47048
47004
46953
46900
46841
46775
46708
46640
46567
46489
46407
46324
46240
46152
46063
45976
45893
45811
45727
45642
45561
45484
45412
45345
45281
45218
45157
45095
45035
44976
44914
44849
44783
44718
44652
44588
44529
44474
44418
44360
44306
44253
44200
44150
44105
44062
44014
43965
43919
43871
43817
43764
43713
43661
43605
43547
43493
43440
43386
43334
43282
43226
43168
43106
43040
42970
42893
42809
42721
42635
42553
42478
42416
42377
42369
42408
42510
42685
42935
43259
43653
44096
44568
45050
45528
45987
46413
46801
47154
47475
47757
47997
48202
48377
48521
48634
48721
48786
48829
48849
48852
48842
48818
48783
48740
48694
48648
48602
48554
48504
48450
48398
48348
48299
48250
48201
48152
48103
48051
47996
47936
47873
47805
47730
47654
47582
47512
47443
47375
47312
47257
47208
47165
47132
47109
47101
47109
47127
47148
47170
47193
47215
47234
47250
47268
47287
47303
47313
47317
47317
47313
47298
47270
47234
47192
47147
47100
47049
46990
46925
46858
46792
46725
46654
46575
46489
46402
46317
46231
46143
46057
45972
45885
45797
45709
45622
45535
45448
45364
45286
45213
45143
45073
45001
44929
44857
44790
44727
44666
44610
44561
44519
44483
44447
44410
44370
44325
44277
44227
44173
44114
44048
43976
43902
43828
43756
43686
43616
43547
43484
43431
43379
43327
43282
43242
43205
43164
43119
43071
43016
42953
42882
42802
42716
42629
42543
42465
42407
42385
42414
42502
42660
42897
43214
43598
44030
44492
44966
45436
45888
46315
46706
47057
47368
47644
47881
48076
48233
48359
48457
48527
48569
48590
48594
48587
48568
48537
48499
48453
48402
48348
48294
48239
48184
48127
48071
48015
47955
47897
47841
47785
47727
47665
47597
47521
47437
47347
47254
47160
47065
46974
46888
46807
46731
46664
46608
46563
46529
46509
46505
46516
46540
46574
46611
46651
46692
46732
46767
46797
46824
46848
46865
46871
46870
46861
46841
46810
46772
46729
46678
46617
46545
46467
46385
46300
46213
46128
46046
45963
45879
45796
45714
45629
45543
45457
45370
45280
45193
45109
45022
44932
44845
44763
44686
44615
44548
44485
44426
44368
44309
44246
44182
44113
44044
43975
43909
43845
43781
43719
43658
43598
43537
43474
43411
43351
43295
43243
43194
43141
43082
43018
42954
42891
42828
42764
42703
42640
42573
42510
42456
42417
42397
42404
42452
42558
42728
42971
43288
43668
44090
44532
44983
45435
45875
46286
46663
47005
47309
47570
47792
47980
48135
48255
48347
48416
48461
48486
48492
48486
48470
48444
48406
48358
48308
48254
48194
48132
48069
48003
47937
47874
47818
47763
47704
47645
47583
47507
47420
47330
47239
47142
47038
46934
46832
46732
46637
46556
46491
46443
46409
46389
46383
46387
46400
46422
46450
46483
46522
46565
46611
46658
46700
46732
46754
46768
46777
46777
46767
46750
46727
46692
46643
46585
46521
46451
46379
46304
46223
46141
46060
45982
45901
45817
45734
45654
45575
45492
45412
45339
45269
45198
45128
45059
44991
44925
44860
44794
44729
44663
44595
44523
44453
44383
44310
44239
44169
44100
44035
43973
43912
43850
43789
43731
43674
43615
43555
43500
43453
43411
43366
43317
43264
43213
43161
43104
43042
42981
42926
42874
42822
42774
42726
42675
42619
42562
42505
42446
42382
42313
42242
42174
42107
42044
41996
41975
41992
42062
42202
42422
42724
43101
43541
44020
44516
45016
45505
45971
46404
46802
47164
47492
47779
48024
48228
48397
48536
48644
48723
48775
48808
48824
48823
48806
48780
48753
48725
48693
48655
48613
48572
48531
48489
48448
48407
48366
48327
48292
48257
48222
48183
48134
48073
48007
47936
47859
47779
47701
47627
47558
47495
47437
47389
47351
47322
47298
47283
47277
47279
47286
47298
47318
47346
47373
47393
47411
47433
47456
47476
47490
47495
47489
47472
47447
47417
47376
47323
47260
47191
47115
47033
46953
46875
46796
46713
46627
46540
46456
46376
46299
46220
46142
46065
45986
45905
45823
45746
45669
45595
45524
45456
45388
45316
45240
45163
45090
45020
44949
44877
44805
44729
44649
44571
44502
44439
44378
44319
44265
44213
44161
44111
44063
44012
43957
43901
43847
43793
43736
43679
43624
43568
43508
43449
43395
43346
43295
43239
43188
43142
43092
43033
42968
42898
42821
42732
42630
42518
42399
42280
42165
42055
41958
41885
41848
41857
41931
42086
42329
42659
43069
43543
44056
44590
45125
45646
46136
46583
46986
47341
47647
47905
48119
48296
48435
48539
48611
48654
48676
48685
48684
48670
48642
48608
48571
48527
48479
48426
48371
48316
48261
48207
48153
48101
48051
48001
47949
47893
47832
47769
47704
47630
47548
47462
47376
47286
47196
47114
47041
46972
46908
46855
46816
46789
46777
46781
46792
46811
46843
46887
46930
46969
47002
47033
47063
47085
47101
47114
47122
47120
47108
47081
47040
46991
46935
46870
46798
46717
46629
46535
46437
46339
46244
46151
46060
45971
45883
45799
45715
45631
45548
45468
45385
45298
45211
45128
45049
44973
44901
44832
44768
44710
44658
44609
44557
44503
44449
44393
44331
44263
44192
44121
44051
43980
43910
43841
43775
43715
43661
43612
43567
43529
43494
43460
43424
43391
43362
43331
43290
43242
43191
43135
43071
43005
42939
42869
42797
42722
42642
42559
42481
42416
42365
42339
42351
42414
42534
42723
42989
43325
43715
44141
44588
45044
45490
45913
46305
46664
46985
47265
47502
47699
47859
47986
48085
48157
48201
48223
48228
48220
48203
48179
48142
48089
48026
47960
47894
47826
47759
47695
47632
47569
47507
47443
47376
47307
47236
47157
47067
46972
46874
46777
46684
46592
46502
46415
46332
46258
46198
46155
46125
46105
46094
46096
46110
46133
46167
46209
46252
46291
46330
46368
46403
46435
46465
46491
46505
46505
46499
46488
46470
46445
46412
46367
46311
46248
46179
46108
46034
45958
45879
45796
45713
45631
45548
45463
45377
45292
45209
45127
45048
44971
44893
44818
44742
44664
44583
44500
44415
44329
44242
44162
44091
44030
43973
43916
43861
43809
43762
43714
43664
43610
43555
43505
43459
43412
43366
43325
43288
43249
43206
43166
43126
43085
43039
42990
42943
42889
42823
42748
42667
42582
42499
42419
42345
42280
42217
42157
42107
42072
42056
42064
42107
42195
42338
42548
42833
43185
43588
44028
44486
44945
45396
45828
46230
46593
46921
47213
47466
47680
47861
48012
48132
48221
48280
48314
48328
48326
48311
48284
48250
48211
48168
48119
48066
48012
47959
47905
47850
47796
47744
47694
47643
47594
47543
47484
47416
47341
47262
47175
47083
46994
46909
46826
46746
46672
46608
46553
46508
46474
46454
46442
46437
46440
46451
46466
46488
46514
46545
46581
46617
46642
46654
46658
46657
46652
46647
46641
46629
46606
46571
46525
46473
46414
46343
46266
46187
46105
46025
45945
45865
45782
45695
45611
45529
45449
45370
45291
45211
45130
45052
44977
44901
44822
44747
44678
44607
44533
44459
44392
44328
44261
44190
44117
44043
43974
43906
43837
43766
43694
43622
43549
43476
43404
43335
43264
43186
43104
43022
42942
42864
42790
42722
42659
42599
42543
42489
42433
42379
42333
42291
42245
42189
42123
42050
41969
41883
41793
41694
41594
41500
41411
41331
41272
41244
41263
41341
41490
41720
42040
42443
42917
43442
43992
44545
45081
45584
46045
46461
46828
47142
47403
47614
47780
47908
48006
48076
48120
48147
48157
48149
48124
48091
48054
48011
47961
47904
47840
47777
47717
47660
47604
47551
47501
47450
47396
47341
47284
47222
47151
47071
46988
46902
46811
46715
46615
46512
46412
46318
46236
46164
46102
46050
46010
45987
45982
45991
46013
46046
46084
46127
46175
46225
46270
46310
46341
46362
46374
46376
46363
46340
46314
46287
46253
46207
46152
46092
46023
45946
45859
45765
45667
45569
45473
45381
45289
45200
45115
45035
44956
44878
44800
44720
44645
44575
44505
44431
44356
44278
44201
44127
44056
43982
43904
43828
43755
43679
43602
43526
43450
43372
43289
43205
43126
43056
42997
42944
42894
42844
42794
42741
42686
42629
42570
42515
42462
42409
42355
42295
42228
42155
42073
41984
41894
41803
41709
41615
41523
41439
41367
41318
41305
41345
41451
41637
41911
42271
42702
43178
43686
44206
44714
45194
45635
46035
46394
46707
46970
47187
47362
47500
47606
47680
47726
47749
47752
47737
47709
47667
47616
47557
47487
47411
47332
47253
47177
47100
47021
46946
46876
46811
46748
46680
46606
46525
46436
46336
46225
46113
46004
45895
45786
45681
45584
45495
45414
45349
45300
45264
45240
45233
45245
45274
45314
45362
45417
45477
45535
45591
45645
45695
45737
45770
45793
45807
45809
45801
45782
45752
45709
45660
45605
45541
45464
45379
45293
45207
45121
45032
44940
44845
44748
44648
44546
44443
44342
44244
44152
44066
43979
43890
43802
43715
43634
43562
43495
43426
43353
43277
43198
43119
43041
42968
42903
42841
42782
42725
42672
42620
42571
42524
42476
42421
42362
42301
42240
42172
42101
42031
41960
41888
41819
41750
41682
41613
41547
41489
41448
41436
41467
41548
41687
41900
42195
42564
42993
43461
43947
44432
44903
45352
45769
46142
46468
46748
46986
47187
47352
47479
47576
47648
47690
47707
47710
47700
47678
47643
47604
47564
47519
47470
47420
47374
47329
47281
47230
47181
47131
47078
47019
46951
46872
46790
46705
46615
46520
46423
46328
46234
46144
46063
45989
45921
45858
45808
45774
45755
45747
45753
45772
45798
45828
45864
45906
45945
45980
46014
46045
46067
46081
46091
46100
46102
46092
46072
46044
46008
45966
45918
45866
45810
45751
45689
45625
45558
45493
45431
45368
45305
45244
45182
45116
45047
44977
44910
44847
44788
44729
44670
44610
44546
44479
44414
44350
44282
44211
44141
44077
44016
43953
43886
43817
43748
43684
43623
43561
43499
43438
43380
43326
43275
43226
43176
43122
43069
43020
42973
42926
42879
42829
42773
42712
42650
42584
42513
42438
42362
42290
42229
42180
42146
42141
42179
42273
42436
42678
42993
43366
43779
44216
44660
45101
45529
45930
46302
46643
46948
47215
47447
47644
47804
47927
48018
48082
48127
48154
48168
48171
48166
48151
48130
48105
48077
48047
48013
47975
47931
47883
47835
47789
47743
47695
47649
47601
47550
47495
47438
47376
47309
47238
47164
47085
47008
46941
46881
46823
46770
46725
46693
46667
46650
46647
46654
46667
46685
46712
46746
46779
46809
46837
46861
46883
46900
46914
46923
46923
46911
46889
46859
46822
46783
46739
46689
46637
46578
46518
46458
46396
46333
46272
46211
46148
46079
46009
45942
45874
45805
45735
45667
45601
45536
45467
45396
45326
45260
45199
45143
45090
45037
44986
44933
44875
44809
44740
44669
44602
44537
44468
44395
44322
44252
44185
44126
44074
44025
43978
43935
43894
43852
43810
43770
43729
43683
43637
43592
43541
43484
43424
43366
43306
43242
43179
43116
43052
42989
42935
42904
42906
42951
43050
43213
43444
43740
44093
44486
44900
45321
45738
46142
46522
46869
47183
47463
47709
47922
48105
48255
48373
48468
48543
48600
48639
48660
48660
48642
48614
48579
48537
48488
48432
48375
48321
48272
48226
48183
48141
48099
48055
48009
47958
47906
47853
47798
47737
47668
47591
47510
47429
47348
47267
47189
47119
47060
47017
46985
46961
46944
46933
46928
46928
46936
46953
46977
47008
47043
47075
47104
47133
47157
47172
47176
47174
47168
47151
47123
47089
47051
47007
46959
46909
46856
46799
46737
46669
46597
46522
46449
46375
46299
46223
46149
46077
46005
45935
45865
45793
45719
45647
45577
45506
45429
45348
45268
45190
45107
45022
44940
44863
44789
44722
44657
44591
44521
44452
44382
44312
44248
44187
44127
44064
44001
43940
43883
43829
43778
43729
43681
43634
43588
43542
43492
43439
43381
43318
43249
43180
43110
43037
42960
42887
42828
42789
42775
42798
42873
43008
43212
43492
43840
44239
44670
45121
45578
46021
46438
46823
47173
47480
47745
47969
48156
48307
48425
48516
48584
48630
48655
48664
48661
48646
48617
48576
48527
48473
48417
48359
48303
48246
48188
48131
48075
48020
47963
47906
47850
47787
47714
47632
47543
47450
47355
47259
47161
47063
46971
46889
46813
46745
46692
46653
46624
46606
46606
46623
46650
46681
46717
46759
46803
46845
46886
46927
46965
47001
47035
47062
47077
47077
47065
47045
47018
46984
46940
46890
46832
46766
46695
46622
46549
46475
46397
46318
46237
46150
46063
45977
45893
45811
45727
45640
45552
45467
45388
45308
45225
45138
45052
44966
44882
44801
44724
44648
44570
44495
44423
44357
44297
44237
44178
44121
44067
44016
43967
43925
43884
43837
43785
43732
43678
43625
43575
43527
43477
43425
43371
43316
43258
43205
43169
43162
43189
43261
43395
43604
43881
44213
44585
44984
45397
45808
46207
46588
46944
47272
47567
47828
48053
48244
48402
48527
48621
48685
48723
48741
48746
48735
48711
48679
48645
48605
48558
48506
48449
48386
48322
48260
48196
48130
48063
47993
47919
47845
47770
47687
47596
47501
47405
47307
47210
47117
47029
46948
46877
46820
46776
46743
46722
46712
46709
46714
46730
46758
46797
46841
46888
46939
46992
47039
47077
47111
47141
47160
47168
47166
47153
47129
47094
47051
46999
46943
46885
46825
46759
46688
46616
46549
46484
46421
46358
46291
46222
46153
46081
46007
45933
45861
45787
45710
45638
45570
45504
45440
45373
45304
45233
45161
45089
45018
44946
44870
44797
44727
44660
44591
44519
44450
44384
44323
44270
44221
44176
44140
44108
44075
44040
44004
43966
43920
43861
43797
43730
43659
43587
43515
43449
43388
43337
43312
43326
43383
43494
43672
43919
44230
44596
45000
45427
45862
46291
46708
47103
47468
47800
48098
48357
48584
48784
48957
49098
49209
49295
49356
49395
49415
49420
49409
49385
49350
49309
49263
49212
49160
49110
49061
49013
48969
48926
48883
48838
48789
48737
48681
48625
48568
48510
48447
48378
48304
48229
48155
48086
48025
47972
47927
47897
47881
47876
47878
47885
47899
47921
47949
47981
48009
48031
48053
48080
48105
48122
48133
48141
48145
48143
48135
48119
48098
48070
48034
47994
47950
47904
47853
47797
47739
47680
47619
47559
47497
47437
47377
47314
47246
47178
47113
47051
46989
46926
46864
46803
46740
46676
46610
46539
46464
46391
46320
46246
46173
46103
46040
45980
45916
45854
45799
45748
45697
45647
45597
45547
45494
45439
45386
45334
45282
45230
45177
45124
45070
45012
44951
44886
44818
44751
44689
44629
44569
44514
44468
44434
44417
44430
44484
44587
44743
44953
45221
45539
45898
46282
46674
47064
47446
47811
48150
48458
48736
48983
49200
49388
49545
49671
49769
49843
49896
49927
49940
49940
49928
49904
49870
49831
49790
49745
49697
49649
49602
49557
49516
49476
49433
49383
49327
49270
49213
49148
49076
49001
48924
48842
48755
48669
48587
48508
48433
48363
48302
48254
48218
48195
48182
48181
48189
48206
48230
48257
48284
48309
48328
48341
48351
48361
48368
48375
48379
48379
48374
48360
48337
48308
48279
48244
48203
48159
48114
48060
47996
47928
47863
47794
47716
47633
47548
47465
47385
47306
47225
47145
47065
46985
46908
46835
46767
46700
46629
46554
46478
46400
46323
46249
46178
46107
46032
45953
45873
45794
45717
45645
45577
45515
45459
45405
45353
45303
45257
45210
45165
45123
45084
45041
44992
44941
44887
44826
44762
44698
44633
44569
44508
44453
44406
44373
44365
44390
44458
44579
44757
44998
45300
45651
46037
46444
46857
47261
47645
48003
48331
48629
48895
49125
49320
49482
49607
49699
49764
49804
49820
49818
49802
49775
49741
49700
49650
49592
49535
49481
49425
49367
49311
49260
49207
49149
49089
49029
48966
48898
48824
48746
48660
48566
48467
48370
48279
48195
48115
48038
47965
47901
47854
47825
47813
47813
47819
47833
47859
47893
47930
47971
48016
48059
48097
48133
48164
48187
48200
48202
48197
48184
48164
48134
48091
48040
47984
47927
47871
47813
47749
47678
47600
47517
47436
47359
47283
47211
47138
47064
46987
46911
46836
46759
46677
46591
46504
46424
46351
46278
46205
46136
46071
46009
45950
45894
45842
45787
45729
45669
45606
45544
45483
45424
45366
45306
45239
45166
45089
45011
44934
44856
44778
44702
44629
44558
44496
44443
44408
44405
44441
44527
44671
44875
45138
45455
45812
46194
46587
46980
47365
47730
48073
48387
48662
48899
49103
49273
49411
49522
49605
49658
49683
49689
49681
49660
49629
49594
49555
49509
49451
49389
49328
49268
49207
49150
49097
49048
48997
48940
48873
48794
48701
48602
48499
48393
48286
48184
48088
48002
47924
47858
47803
47756
47712
47672
47644
47632
47631
47641
47664
47696
47733
47769
47809
47850
47885
47913
47936
47955
47967
47970
47963
47949
47926
47892
47850
47805
47757
47703
47645
47588
47531
47472
47411
47346
47280
47213
47145
47074
47006
46940
46872
46804
46736
46667
46599
46534
46469
46400
46327
46251
46176
46099
46022
45946
45875
45805
45735
45667
45600
45533
45469
45410
45354
45298
45243
45191
45137
45082
45027
44973
44919
44864
44805
44741
44676
44614
44558
44516
44495
44503
44551
44643
44784
44983
45244
45558
45910
46289
46684
47084
47472
47840
48183
48501
48788
49045
49273
49467
49623
49745
49844
49925
49983
50017
50032
50031
50014
49984
49949
49911
49869
49822
49774
49725
49678
49631
49584
49536
49489
49439
49387
49333
49278
49216
49144
49069
48996
48926
48851
48774
48700
48631
48568
48511
48461
48423
48395
48376
48364
48362
48368
48377
48387
48404
48430
48462
48496
48526
48552
48575
48593
48603
48604
48593
48573
48545
48509
48469
48428
48388
48346
48298
48247
48195
48140
48077
48007
47936
47864
47791
47721
47654
47585
47514
47443
47370
47296
47220
47149
47084
47024
46963
46903
46845
46789
46733
46673
46612
46551
46489
46423
46358
46297
46240
46187
46134
46079
46028
45979
45931
45885
45840
45794
45744
45690
45635
45578
45517
45451
45385
45318
45252
45189
45128
45071
45023
44987
44967
44969
45008
45092
45230
45426
45684
45992
46335
46703
47083
47464
47832
48177
48493
48779
49034
49259
49456
49626
49768
49884
49973
50034
50070
50090
50098
50094
50075
50044
50006
49966
49922
49874
49823
49769
49715
49668
49623
49577
49531
49484
49437
49388
49338
49285
49227
49161
49088
49009
48934
48861
48786
48710
48633
48564
48508
48463
48427
48402
48392
48392
48403
48425
48452
48481
48512
48542
48569
48594
48618
48639
48651
48651
48640
48621
48600
48575
48540
48495
48448
48399
48346
48291
48235
48176
48108
48033
47955
47876
47795
47714
47637
47562
47486
47404
47319
47236
47155
47075
47001
46933
46866
46795
46724
46655
46585
46509
46433
46360
46292
46227
46167
46113
46062
46009
45957
45906
45854
45801
45749
45702
45656
45608
45558
45509
45460
45404
45340
45274
45203
45123
45035
44947
44862
44780
44702
44633
44585
44566
44588
44665
44804
45006
45270
45592
45959
46355
46768
47183
47585
47966
48322
48645
48930
49170
49370
49537
49671
49774
49848
49898
49926
49937
49934
49918
49887
49843
49795
49744
49685
49622
49560
49503
49446
49386
49330
49277
49221
49158
49095
49032
48963
48882
48791
48696
48599
48502
48408
48319
48236
48162
48096
48039
47993
47960
47935
47921
47918
47923
47934
47952
47981
48017
48059
48102
48140
48174
48207
48240
48267
48283
48285
48279
48267
48246
48214
48174
48129
48080
48028
47972
47915
47854
47792
47725
47651
47574
47497
47418
47338
47256
47173
47087
46997
46908
46821
46735
46653
46576
46506
46437
46368
46302
46242
46183
46121
46058
46000
45941
45880
45819
45762
45706
45647
45583
45519
45459
45401
45342
45280
45215
45149
45082
45015
44955
44909
44881
44876
44900
44967
45086
45262
45499
45788
46121
46484
46862
47241
47612
47969
48307
48616
48893
49138
49352
49531
49674
49789
49880
49946
49987
50008
50012
49998
49966
49922
49873
49821
49765
49703
49641
49585
49533
49482
49431
49375
49315
49256
49196
49133
49063
48984
48897
48805
48706
48602
48499
48401
48313
48236
48170
48113
48066
48029
48006
47999
48003
48013
48031
48060
48094
48125
48154
48184
48216
48245
48270
48290
48306
48317
48321
48317
48307
48289
48263
48226
48178
48122
48064
48003
47936
47867
47797
47726
47655
47586
47521
47459
47398
47332
47259
47183
47108
47034
46964
46898
46835
46772
46708
46643
46577
46510
46447
46389
46329
46266
46205
46149
46094
46036
45976
45916
45855
45791
45729
45671
45615
45558
45500
45445
45392
45339
45286
45233
45183
45140
45106
45077
45053
45047
45068
45126
45234
45403
45636
45926
46259
46621
47003
47392
47778
48154
48513
48849
49150
49415
49649
49855
50031
50177
50298
50394
50465
50512
50541
50550
50540
50518
50488
50452
50412
50374
50336
50294
50244
50192
50143
50097
50055
50014
49971
49926
49876
49817
49751
49684
49615
49538
49458
49380
49306
49235
49168
49109
49063
49029
49005
48991
48982
48977
48980
48991
49006
49024
49046
49069
49089
49107
49124
49142
49155
49161
49161
49159
49150
49132
49106
49078
49047
49009
48965
48918
48868
48813
48757
48699
48639
48578
48517
48455
48393
48333
48273
48209
48143
48078
48014
47948
47880
47812
47746
47678
47608
47540
47474
47405
47333
47262
47195
47127
47063
47006
46952
46895
46832
46769
46712
46660
46612
46565
46514
46458
46396
46334
46272
46208
46141
46070
45998
45925
45854
45786
45719
45651
45582
45519
45467
45426
45399
45392
45416
45481
45596
45769
46000
46283
46608
46962
47328
47699
48069
48436
48784
49104
49392
49647
49869
50059
50226
50367
50477
50557
50613
50646
50656
50649
50628
50596
50555
50507
50457
50408
50357
50305
50255
50207
50155
50102
50051
50000
49948
49900
49855
49807
49753
49693
49626
49551
49468
49384
49305
49226
49148
49080
49026
48981
48944
48920
48908
48902
48903
48915
48936
48957
48976
48996
49018
49040
49059
49072
49084
49096
49103
49098
49084
49064
49037
49003
48961
48910
48853
48790
48724
48654
48582
48510
48438
48364
48294
48225
48155
48083
48012
47943
47874
47803
47730
47657
47582
47504
47428
47359
47290
47217
47143
47072
47002
46934
46869
46805
46745
46689
46631
46567
46501
46436
46373
46315
46261
46209
46155
46101
46045
45988
45927
45866
45805
45743
45679
45613
45544
45467
45382
45300
45229
45172
45133
45121
45147
45221
45353
45547
45807
46125
46486
46875
47278
47678
48066
48435
48781
49097
49379
49625
49834
50008
50150
50263
50348
50404
50431
50435
50423
50397
50357
50307
50250
50189
50128
50067
50005
49943
49885
49826
49766
49700
49634
49571
49505
49433
49357
49278
49192
49097
49002
48910
48815
48722
48633
48552
48480
48416
48358
48311
48278
48259
48253
48261
48281
48314
48357
48406
48452
48494
48531
48564
48593
48618
48638
48648
48646
48638
48623
48599
48568
48531
48486
48438
48385
48327
48264
48198
48129
48054
47975
47896
47821
47747
47675
47604
47534
47463
47392
47319
47243
47161
47077
46995
46916
46840
46767
46696
46627
46556
46488
46426
46365
46302
46239
46178
46116
46055
45998
45942
45882
45819
45755
45692
45628
45560
45486
45413
45346
45288
