10287
10403
8762.7
8430.6
9979.7
10243
8931.9
8990.1
10133
9826.7
9114.3
10117
10944
9711.1
9050.2
10630
11204
9594.4
9323
10760
10651
9601.1
10233
11049
9890.5
8903.9
10068
10827
9399.2
8649.9
10061
10791
9861.7
9971.3
11322
11003
9465.1
9826.4
11008
10085
8900.5
10126
11425
10390
9515.7
10666
11023
9477.8
9274.1
10684
10319
8884.9
9667.1
11168
10451
9565.4
10782
11458
9866.6
9139.1
10527
10671
8992.6
9102.9
10964
10973
9601.7
10007
11236
10697
9838.1
10660
11067
9717.4
9539.2
11453
12063
10724
10726
12186
11856
10324
10792
11841
10627
9512.5
10954
12195
11182
10469
11452
11725
10739
10951
11906
11147
10045
10956
12052
11292
10509
11252
11827
11291
11149
11680
11386
10606
11267
12679
12244
10839
11431
12780
12021
10910
11674
12023
10727
10722
12389
12382
10783
10887
12282
11987
10799
11278
12041
11046
10435
11821
12471
11031
10427
11838
12376
11242
11070
11865
11371
10623
11598
12485
11339
10278
11160
11773
10755
10518
11658
11678
10696
11077
12022
11234
10077
10886
11889
10968
10191
11147
11604
10687
10794
12051
11642
10003
10320
11785
11226
9824.5
10419
11575
11093
10672
11559
11456
9904.1
9914.6
11543
11458
10007
10381
11603
11043
10430
11641
12257
10883
10230
11439
11740
10325
10093
11500
11667
10625
11121
12440
11701
10240
10971
11938
10622
9655.2
10932
11612
10608
10753
12251
12001
10367
10632
11912
11170
9991.7
11098
12458
11732
11081
12224
12706
11500
11338
12462
11951
10371
10851
12407
11984
10857
11622
12553
11608
10995
12042
12052
10483
10617
12513
12742
11538
11862
12898
12168
11156
11938
12371
11040
10906
12819
13244
11610
11392
12837
12699
11300
11574
12331
11111
10134
11408
12194
10953
10490
11813
12041
10661
10597
11702
11203
10033
10880
12321
11741
10628
11263
12062
11309
10693
11204
11126
10394
10994
12236
11599
10112
10547
11730
11162
10304
11066
11570
10537
10358
11686
11565
9837
9947.6
11709
11477
9799.9
10061
11152
10464
9857.9
11042
11504
10097
9548.2
10793
11270
10351
10307
11107
10669
9826.4
10616
11563
10563
9551
10583
11313
10134
9789.8
11027
10856
9387.7
9759.5
11280
10762
9344.4
10156
11513
10597
9610.4
10757
11550
10641
10653
12033
11847
10238
10321
11605
11186
9980.6
10433
11213
10563
10233
11167
11229
10086
10063
11055
10632
9178.2
9369.6
10784
10729
9754.9
10233
11053
10156
9389.1
10471
10828
9393.3
9414.4
11234
11281
9817.8
10316
11898
11142
9520.4
10323
11442
10109
9184
10696
11392
9972.3
9703.1
11169
11145
9776.6
10224
11396
10264
8919.5
10331
11935
10960
9846.6
10752
11328
10211
9814.3
10813
10738
9552.4
9932.4
11549
11550
10421
10704
11472
10753
10166
11026
11012
9464.2
9481
11373
11618
10063
10089
11341
10753
9549.2
10460
11304
9943.2
9382.5
11019
11452
9908.3
9680.7
11101
11166
10044
10424
11419
10617
9719.8
10905
11940
10779
9835.1
10936
11628
10597
10292
11092
10641
9678.4
10644
12009
11115
9751.4
10624
11863
11085
10180
10835
11105
10184
10296
11553
11290
9740.5
9773.9
11017
10937
10217
10705
11136
10284
10138
11441
11463
9694.7
9373.2
10914
11110
9948.7
10173
10960
10285
9892.3
11025
11254
9844.4
9503.9
10887
11388
10424
10318
11288
11302
10766
11490
12310
11298
10236
11171
11837
10491
9897.7
11272
11728
10666
10831
12053
11506
10050
10708
12012
11148
10192
11415
12369
11491
11311
12521
12350
10834
10978
12236
11668
10389
11177
12499
11893
11202
12251
12747
11418
10951
12155
12148
10626
10697
12218
12085
10899
11524
12779
12019
10899
11749
12432
11219
10860
12502
13058
11798
11614
12698
12381
11201
11751
12692
11584
10594
12031
13349
12322
11352
12224
12641
11694
11785
12637
11725
10456
11514
12985
12221
11202
12176
12968
11975
11605
12554
12212
10893
11422
12845
12373
11243
11801
12584
11819
11188
11945
12116
10819
10522
11948
12282
10990
10958
12261
12080
10977
11514
12321
11338
10801
12286
12926
11391
10672
11912
12240
10923
10580
11181
10511
9631.4
10478
11218
10024
9239.4
10643
11545
10418
10031
11096
10971
9950.7
10469
11428
10572
9512.4
10381
11237
10218
9446
10281
10486
9377.2
9487.8
10969
10822
9212.6
9417.5
11067
11040
9924.6
10130
10682
10168
10207
11331
11269
9993.3
10156
11490
11197
9694.2
9710.5
10690
10414
9905.5
10734
11084
9779.3
9355.1
10729
10786
9054.3
9053.6
10704
10545
9289.5
9957.9
11122
9993.7
8574.7
9599.3
10734
9653.6
8991.4
10302
10880
10023
10279
11443
10931
9583.3
10093
11191
10330
9182.4
10063
11099
10356
9811.6
10784
10894
9432.6
9194.7
10330
9933.9
8577.7
9257.8
10927
10608
9570.7
10284
10944
9623.9
8815.9
10049
10450
9071.5
9058.6
10751
10982
9852.8
10106
11061
10425
9521.5
10268
10673
9289.2
8865.3
10536
11181
9900.7
9688.4
10934
10723
9461.5
9934.1
10734
9588.8
9052.5
10765
11519
10116
9596.4
10682
10813
9944.9
10279
10939
9856.8
8830.8
10116
11447
10376
9178.7
10150
10988
9926.9
9386.7
10388
10395
9189.1
9431.7
10733
10353
9056.4
9467.5
10634
10255
9364.2
9688.9
9988.6
9178.6
9078.1
10342
10532
9230.2
9225.1
10617
10501
9168.6
9393.1
10345
9639.5
8822.2
9879.6
10529
9017.3
8209.2
9723.1
10357
8942.1
8699.4
9908.6
9615.3
8639
9622.3
10885
9875.8
8691.1
9697.3
10494
9189.4
8563.7
9865.4
10213
9079.4
9238.8
10448
9930.6
8643.2
9438.8
10669
9569.9
8317.8
9308.3
10197
9321.2
9142.7
10454
10422
8972.8
9241.8
10607
9866.7
8368.6
9153
10441
9805
9389.9
10680
10944
9349.4
9103.1
10683
10837
9624.9
10163
11617
11083
10027
10900
11701
10443
9550.6
10664
11055
9585.2
9284.7
10746
10918
9817.1
10238
11494
10905
9714.2
10450
11261
9928.3
8953.7
10223
11053
10064
9902.7
11249
11237
9811.7
10007
11153
10405
9303.2
10402
11599
10694
9901.1
10825
11113
9884.8
9709.1
10737
10247
8850.9
9535.4
11283
10972
9669.8
10068
10878
10099
9506.3
10450
10639
9269.2
9149.1
10710
10911
9600.3
9681.4
10865
10520
9506.4
10029
10483
9322.7
9032.4
10602
11065
9729.1
9362.3
10407
10537
9755.7
10046
10729
9930.3
9046.1
10047
11100
10095
9139.9
10279
11113
10087
9772.9
10664
10230
9194.2
9952.1
10971
10096
9187
10088
10786
9817.1
9260.1
10151
10336
9197.1
9106.3
10304
10031
8534.6
8964
10552
10123
8937.9
9519.6
9988.9
8847
8784.7
10504
10691
9001
8900.9
10501
10509
9143.4
9307.1
10267
9846.4
9482.9
10498
10694
9230.6
8690.1
9878.5
10294
9283.9
9208.1
10350
10383
9469.8
9872.4
10792
9841.5
8568.6
9543
10567
9333.2
8595.9
9997.4
10590
9518.7
9699.2
11140
10725
9042.6
9386.1
10689
9978.6
8932.5
9933.6
10872
10089
9886.4
11011
10696
8918.6
8890.1
10116
9404.4
8010.3
8966.9
10441
9739.3
8951.4
10023
10590
9391.6
9018
10152
10104
8777.3
8982.5
10330
10210
9521.6
10372
11191
10182
9377
10291
10523
9073.3
8902.2
10643
11087
9820.2
9722.8
10792
10484
9412.9
9941.2
10799
9820.3
8936.4
10169
11314
10548
10098
11199
11297
9991.4
10256
11463
10567
9257
10434
11848
10989
10210
11355
11882
10669
10471
11619
11244
9871.6
10381
11656
11130
10316
11184
11907
10971
10312
11174
11587
10437
9969.3
11294
11817
10523
10184
11371
11383
10461
10899
11293
9968.3
9453.1
10924
11371
10030
9781.3
11011
11060
9960.4
10146
10981
10338
9609.1
10624
11395
10220
9356.2
10430
11130
10156
9784.1
10608
10472
9658.2
10300
11381
10566
9203.3
9815.3
11004
10479
9632.3
10178
10715
10286
10514
11628
11419
10053
10168
11481
11462
10569
10783
11211
10474
10303
11736
12102
10444
10076
11760
11975
10499
10733
12116
11739
11001
12178
13157
12075
11352
12468
12799
11449
11350
12806
12880
11941
12633
13805
12865
11637
12773
13887
12442
11276
12612
13649
12755
12536
13833
13944
12752
12998
13868
12808
11712
13067
14451
13535
12733
13781
14092
12766
12749
14118
13714
12280
12977
14510
13992
12949
13561
14107
13215
12842
13677
13472
11999
11982
13447
13509
12433
12980
14318
13798
12733
13484
14055
12509
11745
13640
14929
13716
12894
13846
13996
13069
13605
14546
13450
12507
13776
14562
13278
12640
13865
14421
13441
13232
14108
13941
13058
13649
14966
14647
13611
14132
14938
14231
13774
14774
15075
13978
13942
15283
15248
13931
14203
15462
15103
14406
15329
15815
14579
14368
15853
15901
14378
14559
16130
15872
14493
14809
15432
14326
13897
15544
16113
14443
13704
14995
15496
14450
14395
15469
15333
14487
14897
15438
14307
13105
13822
14848
14255
13455
13768
13827
13040
13072
13941
13454
12154
12715
13907
13031
11909
12712
13334
12447
12268
13216
12856
11497
11784
12942
12352
11181
11919
13073
12353
11761
13287
14082
12300
11446
13041
13399
11843
12045
13644
13306
12226
13037
13899
12814
12051
13257
13896
12712
12437
13741
13817
12668
13011
14277
13773
12504
13065
13992
13033
12293
13682
14689
13607
12996
14121
14268
12924
13035
14065
13123
11865
12995
14275
13423
12766
13916
14401
13239
13006
14103
13912
12595
12934
14450
14242
12984
13345
14322
13763
13121
13814
13853
12575
12659
14309
14445
13103
13251
14436
14015
13067
13758
14143
12800
12604
14269
14492
13021
12846
13998
14061
13176
13242
13746
13121
12518
13471
14303
13256
12265
13195
13973
13074
12663
13461
13305
12336
12726
13707
13040
11953
12757
13828
13129
12581
13462
13543
12379
12528
13834
13473
12019
12368
13669
13223
12140
12618
13216
12394
12142
13422
13726
12362
11984
13204
13555
12492
12263
13173
13182
12536
13098
13696
12448
11494
12855
13737
12438
12013
13319
13356
12207
12564
13619
12953
12011
13092
14151
13039
12204
13369
14074
13293
13465
14666
14014
12325
13088
14728
13709
12242
13303
14397
13571
13422
14781
14703
13128
13231
14555
13993
12565
13186
14496
14058
13513
14482
14864
13683
13378
14504
14535
13363
13607
14872
14568
13521
14006
14796
14054
13403
14330
14692
13207
12542
13956
14710
13785
13676
14772
14555
13415
13895
14682
13471
12639
14293
15534
14306
13329
14242
14522
13417
13547
14529
13693
12480
13585
14987
14076
13054
14161
14917
13710
13368
14711
14693
13318
13647
15004
14490
13309
14047
15148
14398
13498
14235
14844
14045
13893
15097
15109
13652
13651
15003
14796
13751
14486
15386
14374
13820
15083
15459
14265
14049
15064
15043
14135
14448
15348
14792
13961
14811
15660
14480
13334
14371
15325
14268
13557
14460
14679
13795
14195
15514
14954
13462
14233
15773
15014
13889
14761
15407
14447
14394
15769
15639
14011
13994
15284
15114
14330
15176
16156
15431
15058
16276
16352
14519
14118
15711
15862
14384
14551
15912
15566
14683
15624
16422
15099
14225
15465
15779
14133
13998
15616
15506
14254
14934
16259
15411
14029
14767
15808
14870
14046
15067
15662
14665
14495
15712
15543
14007
14215
15503
14834
13566
14455
15670
14794
13937
15080
15694
14342
13887
14999
14774
13562
14181
15507
14997
14131
14796
15410
14789
14460
15014
14825
13604
13504
14922
15343
14392
14574
15657
15106
13929
14612
15382
14155
13435
14815
15443
14249
14078
15525
15691
14398
14345
14984
14040
13121
14221
15103
13941
13256
14590
15100
13720
13483
14555
14051
12898
13753
14997
14275
13437
14331
14844
13819
13700
14868
14591
13218
13762
15416
14964
13406
13760
14889
14344
13557
14274
14676
13675
13579
14856
14751
13323
13624
15174
14801
13256
13556
14606
13967
13354
14543
15133
13793
13350
14864
15261
13945
14055
15421
15088
14102
15027
16106
14976
13756
14707
15626
14675
14172
15206
15277
14015
14267
15849
15444
13832
14580
15943
14638
13491
15091
15981
14540
14337
15998
15970
14380
14620
16052
15624
14475
15349
16653
15831
14816
15693
16114
14669
14259
15637
15512
13798
14020
15650
15386
14317
15083
15933
14776
13845
14835
15110
13564
13398
15214
15601
14354
14496
15712
15294
14077
14537
15279
14186
13403
14791
15896
15020
14428
15266
15294
14280
14718
15755
14745
13443
14481
15835
15287
14739
15589
15769
14684
14680
15667
15107
13697
14238
15817
15564
14468
15026
16015
15456
14783
15186
14978
13969
14510
16114
15895
14494
14680
15820
15690
14980
15325
15635
14739
14467
15795
16203
14736
14303
15873
16363
15071
14968
16034
15603
14667
15635
16806
15800
14704
15804
16702
15643
15277
16252
15922
14880
15650
16797
15918
14717
15397
16226
15505
15038
15933
16265
15414
15407
16421
16244
15124
15402
16605
16587
15968
16413
17018
16541
16429
17504
17537
15964
15695
17143
17243
15979
16152
17010
16328
15759
16858
17227
15784
15341
16814
17214
15878
15839
17238
17174
16167
16772
17773
16735
15496
16543
17585
16376
15620
17000
17703
16627
16455
17620
17421
16133
16535
17498
16469
15468
16709
17684
16627
16072
17116
17143
15776
15751
16910
16572
15393
16016
17413
16909
15891
16830
17801
16691
15949
17097
17341
15941
15982
17436
17234
16074
16666
17632
16712
15989
17182
17324
15433
15281
17069
16975
15617
16193
17525
17033
16073
16673
17202
15936
15028
16310
17462
16550
15872
17100
17683
16399
15968
16809
16402
15373
16149
17347
16482
15343
16386
17439
16426
15755
16610
16423
15154
15618
17081
16578
15216
15765
16998
16576
15760
16295
16760
15933
15598
16498
16506
15343
15349
16433
16217
15074
15248
15958
15282
14659
15713
16384
15182
14429
15522
16057
15011
14842
15898
15712
14719
15355
16517
15580
14120
15015
16429
15683
14720
15405
15805
15101
15380
16559
16064
14472
14782
16084
15558
14476
15051
15638
14703
14352
15613
15818
14397
14356
15672
15343
14101
14585
15484
14885
14836
16417
16602
14623
14084
15616
15657
14149
14494
15973
15627
14874
15864
16479
15091
14113
14969
15295
14193
14201
15636
15844
14942
15246
16174
15684
14778
15317
15870
14868
14268
15341
15903
14960
14749
15880
15937
14816
15044
15923
15150
14347
15455
16192
14957
14345
15654
16124
14897
14737
15853
15495
14122
14543
15956
15707
14846
15501
16174
15272
14714
15609
15701
14343
14265
15828
16038
14719
14671
15681
15333
14455
15201
16009
14928
14154
15431
16303
15348
14930
15921
15955
14981
15410
16204
14970
13782
14974
16103
15066
14350
15595
16084
14787
14672
15881
15583
14671
15623
16697
15656
14643
15696
16542
15552
14999
15937
16124
15132
15329
16618
16346
15063
15530
16769
16279
15566
16581
17265
16262
16162
17642
17574
15726
15537
17088
17105
15795
16030
17016
16533
16096
17128
17456
16155
15612
16743
17391
16666
16375
17019
16924
16248
16768
17555
16448
15288
16672
17917
16505
15703
17311
17975
16775
16805
18049
17461
15862
16373
17384
16153
15157
16497
17236
16124
16116
17509
17300
15875
16104
17158
16504
15420
16146
17096
16383
15918
16997
17267
15904
15514
16586
16491
15064
15131
16647
16692
15588
16047
17016
15936
14703
15699
16285
14741
14377
16047
16235
14880
15101
16297
15723
14550
15320
16271
15045
14049
15496
16703
15550
14637
15756
16372
15377
15259
15988
15266
14422
15722
17064
16160
15241
16282
16908
15813
15579
16606
16088
14538
15063
16743
16484
15385
15986
16820
16025
15553
16661
16968
15737
15742
17158
16927
15387
15708
17265
17083
15994
16555
17441
16574
15954
17228
17813
16507
16367
18159
18337
16731
17114
18745
18067
16785
17850
18981
17818
16863
18069
18876
17800
17412
18427
18362
17347
17841
19077
18493
17251
17904
18846
17908
17161
18159
18537
17423
17300
18458
18358
17213
17506
18702
18547
17722
18063
18680
18119
17702
18459
18526
17298
17118
18188
17935
16598
16908
18188
17838
17014
17856
18459
16986
15982
17120
17441
15899
15960
17922
18125
16838
17245
18448
17625
16300
17173
18221
17065
16217
17470
18192
17282
17278
18524
18340
16990
17297
18336
17445
16245
17171
18334
17711
17131
17872
17849
16590
16581
17709
17354
16158
16705
17961
17477
16595
17325
17921
16881
16323
17277
17366
15996
15934
17456
17622
16439
16621
17654
17162
16289
17079
17588
16194
15751
17675
18731
17604
17103
18066
17992
16781
16886
17602
16619
15552
16632
17800
16876
16000
17067
17744
16676
16370
17211
16787
15832
16649
17791
17023
16018
16795
17554
16860
16653
17512
17335
16430
17082
18336
17739
16667
17500
18583
17798
16939
17627
17891
16666
16374
17674
17835
16537
16538
17810
17754
16718
17089
18065
17553
16959
18018
18631
17276
16541
17816
18196
16750
16529
17658
17376
16560
17412
18305
17309
16193
16830
17705
17112
16350
16777
17263
16913
17027
17845
17358
16097
16878
18375
17646
16654
17682
18323
17226
17134
18572
18361
16603
16798
18402
18013
16647
17180
18163
17581
17532
19103
19378
17695
17320
18641
18541
17177
17614
19086
18748
17872
18639
19177
17963
17432
18779
19102
17543
17431
19194
19306
17785
18012
19545
19111
17563
18081
19380
18642
17698
18824
19789
18749
18231
19537
19629
18075
18467
20002
19127
17910
19295
20436
19271
18716
19937
20273
19359
19488
20440
20100
19038
19622
21247
21112
19808
20063
20949
20370
20003
21109
21115
19422
19408
21299
21535
20201
20451
21730
21320
20191
20752
21593
20823
20447
21726
22138
20873
20551
21702
21800
20830
21249
22281
21564
20656
21638
22485
21307
20306
21223
21810
20799
20482
21136
20505
19322
19878
20887
20092
19008
19739
20493
19578
18969
19678
19660
18695
18998
20103
19402
17875
18406
19710
19070
18049
18784
19331
18209
17930
19375
19528
17855
17507
18784
18777
17530
17659
18538
17853
16923
17733
18362
17103
16245
17306
17832
16821
16793
17848
17565
16835
17771
18720
17654
16589
17519
18234
16980
16259
17516
18203
17211
17023
18109
17705
16256
16964
18247
16912
15614
17099
18258
17184
16924
18269
18079
16421
16517
17794
17164
15643
16208
17626
17169
16318
17163
17641
16275
15748
17094
17275
15679
15585
17147
17034
15645
16142
17387
16410
15111
16180
16934
15327
14768
16539
17048
15756
15825
17040
16595
15440
16147
16945
15602
14796
16400
17265
15794
15104
16386
16614
15299
15478
16661
15946
14810
15900
17138
16204
15294
16265
16898
15944
15558
16286
15996
14855
15314
16841
16579
15258
15721
16800
16079
15409
16385
16405
14857
15047
16837
16786
15337
15258
15985
15685
15101
15515
15877
15116
14794
15963
16524
15380
14914
16093
16315
15098
15094
15957
15324
14557
15616
16407
15133
14188
15355
16256
15470
15230
15971
15566
14665
15454
16569
15655
14400
15201
16171
15319
14751
15677
15763
14625
14821
16088
15673
14296
14760
16124
15728
14545
14901
15785
15279
14857
16052
16617
15206
14608
15863
16058
14779
14926
16138
15753
14920
15861
16567
15133
14271
15662
16029
14276
14110
15841
15873
14776
15519
16666
15593
14279
15263
16318
15177
14208
15026
15377
14573
14827
15921
15368
13970
14479
15632
14784
13675
14737
15961
15170
14400
15366
15863
14855
14722
15610
14956
13518
14241
16032
15789
14661
15237
15890
14695
14038
15238
15409
14021
14272
15861
15669
14582
15122
15942
15178
14482
15263
15518
14271
14132
15833
16333
14969
14684
15922
15944
14816
15142
16183
15562
14752
15831
16815
15807
15076
16194
16510
15152
15196
16432
15677
14239
15170
16561
15737
14743
15725
16570
15723
15276
16091
15990
14743
14873
16273
16030
14614
15149
16701
16275
15280
16045
16642
15632
15391
16430
16242
15064
15270
16201
15738
14685
14917
15445
14761
14415
15661
16265
15008
14492
15855
16290
15081
15052
16097
15627
14694
15514
16379
15315
14364
15357
16060
14942
14358
15194
15249
14482
14901
15748
14950
13678
14191
15290
14899
14121
14548
15049
14531
14417
15335
15208
13894
14065
15281
14595
12992
13359
14449
13922
13428
14457
14574
12876
12564
14216
14258
12520
12708
14502
14413
13261
13971
15069
14099
13114
14188
14780
13473
13246
14715
14877
13923
14405
15347
14509
13459
14219
14662
13060
12299
14039
15112
13891
13410
14798
14878
13305
13483
14700
13755
12546
13862
15074
13928
13221
14486
14824
13557
13744
15232
14788
13258
13990
15755
15351
14247
15098
16121
15256
14524
15328
15360
13818
13642
15416
15791
14285
14168
15490
15274
14194
14721
15212
14016
13748
15162
15135
13592
13578
14916
14953
14041
14363
15073
14253
13376
14268
15158
14265
13406
14110
14441
13448
13234
13800
13180
12457
13355
14052
13073
12363
13123
13625
12995
12573
12914
12942
12456
12798
13875
13529
12048
12235
13480
12992
12017
12814
13442
12341
11966
13101
13055
11623
11479
12670
12826
11920
11987
12783
12429
11807
12853
13723
12199
11042
12725
13969
12699
12182
13307
13201
12414
13357
14430
13421
12420
13427
14030
12736
12400
13793
13822
12372
12449
13630
13158
11890
12392
13425
12613
11466
12242
13305
12565
12012
13427
13967
12279
11952
13584
13400
11894
12560
13939
13169
12353
13446
13862
12409
12017
13369
13350
11688
11736
13451
13465
12205
12722
13852
12803
11558
12712
13577
12089
11465
13016
13469
12362
12632
13910
13444
12321
13180
14210
12932
11825
13093
14073
13064
12770
14157
14162
12575
12818
14182
13256
11781
13078
14935
14337
13307
14043
14515
13486
13214
14149
13792
12365
12736
14397
14241
12918
13310
14379
13729
12925
13614
13620
12107
11993
13583
13627
12139
12221
13592
13508
12511
12882
13551
12685
12109
13399
14185
13018
12363
13450
13873
12957
13052
13968
13385
12355
13184
14302
13445
12569
13727
14404
12969
12394
13541
13538
12558
13103
14099
13310
12221
12826
13492
12724
12328
13232
13411
12399
12425
13587
13418
12244
12665
13876
13348
12322
12935
13620
12978
12944
14054
14005
12790
12816
13983
14063
13009
12829
13555
13328
12578
13224
14055
13010
12130
13426
14096
12639
12331
13840
13980
13038
13715
14784
13751
12536
13576
14444
13087
12492
14068
14595
13328
13392
14846
14551
12957
13173
14233
13385
12274
13321
14481
13692
13143
14332
14708
13311
12928
13956
13734
12679
13364
14675
14066
13118
14072
14838
13641
13123
14412
14410
12757
12958
14745
14699
13544
14043
14949
14156
13400
14346
14803
13632
13608
15397
15848
14569
14532
15734
15443
14315
14934
15833
14735
13957
15362
16340
15443
14960
15759
15864
14978
14927
15415
14748
13843
14562
15668
15044
13979
14572
15373
14717
14220
14759
14512
13482
13982
15486
15030
13342
13654
14977
14380
13386
14124
14423
13165
13139
14583
14507
13216
13391
14380
13959
13003
13348
13811
13049
12787
13897
14148
12951
12703
13890
14139
13120
13065
13949
13838
13346
14057
14714
13731
12731
13392
13995
13190
12880
13831
14015
13162
13296
14173
13652
12570
13280
14285
13361
12563
13553
13994
13061
13203
14415
14063
12666
12901
14070
13719
12689
13232
14391
14057
13457
14363
14864
13528
12963
14191
14296
12998
13278
14494
13918
13076
14239
15102
13650
12651
14042
14861
13510
13039
14426
14838
14060
14392
15267
14670
13737
14352
14926
13856
13269
14493
15212
14391
14206
15105
14802
13490
13744
14821
14192
13144
13968
14936
13905
12841
13586
13837
12408
12089
13246
12798
11273
11804
13281
12840
11878
12538
13012
11808
11124
11913
11739
10242
10236
11695
11693
10530
10825
11819
11296
10487
10942
10613
8700.6
8424
10401
10943
9421.1
9073.7
10125
9755.2
8411.1
8722.2
9521.3
8435.4
7403.6
8571.8
9577.5
8432.6
7511.9
8474.8
8996
8131.1
8222.3
9114.1
8491.3
7596.4
8559.9
9452.4
8431.6
7553.9
8318
8919.8
8375.6
8202.9
8783.1
8593.9
7706.1
7968.3
9146.4
9042.2
8037.5
8417.3
9415.3
8921.1
8186.4
8795.3
9005.4
7985.1
8027
9305.8
9129.8
7742.9
7997.3
9444.1
9343.6
8309.8
8670.6
9358.8
8559.6
8009.8
9112.1
9510.9
8086.6
7658.4
9203.4
9648.5
8286.5
8074
9048
8664.3
7886.6
8930.7
9968.2
8784
7611.3
8657.3
9525.3
8374.1
7752.8
8825.6
9129.9
8344.2
8679.1
9537.4
8723.8
7481.8
8258.7
9658.3
9216.9
8196.3
8656
9347.4
8748.8
8402
9299.1
9285.7
7943.9
8111.2
9662.2
9426.7
8019.3
8348.4
9384.8
8988.3
8750
9934.6
10187
8677.7
8269.5
9551.3
9533.2
8054.2
8092.7
9307.5
9049.4
8213.7
8921.9
9686.1
8780.5
8106.1
9063.5
9379.7
8050.7
7694.4
8954
9279.9
8508.9
8771.8
9548.8
8931.5
8111.9
8948.2
9673.4
8595.2
8036.7
9457.1
10285
9307
9026.9
10143
10034
8638.5
8821.9
9994.6
9329
8083.7
8889.4
10131
9553.4
8853.2
9724.7
10306
9513.8
9352.2
10198
9874.8
8699.8
9133.5
10505
10209
9093.9
9555.7
10496
9941.7
9314.2
9962.7
10049
8893
8922.5
10392
10491
9172.5
9208.1
10313
9937.3
8836.6
9254.3
9864.7
8948.7
8579.8
10046
10695
9404.4
8866.5
9977.7
10220
9325.9
9642.7
10443
9504.5
8557
9790.4
11055
10218
9332.5
10244
11058
10454
10216
10814
10498
9690.7
10298
11309
10600
9499.7
10174
10991
10176
9756.5
10808
10902
9646.4
9726.9
11021
10744
9428.3
9837.4
11152
10791
9763.5
10246
11032
10458
10137
11200
11449
10135
9949.6
11366
11594
10602
10836
11482
10669
10205
11496
12039
10653
10047
11284
11718
10688
10727
11792
11611
10992
11736
12448
11625
10835
11406
11869
11147
10694
11344
11662
11125
11439
12599
12166
10811
11621
13024
11906
10760
12132
13076
12027
11935
13227
12839
11141
11315
12614
12014
10603
11152
12407
12148
11849
12849
13135
11880
11404
12268
12187
10992
11142
12509
12519
11506
11831
12742
12180
11425
12233
12753
11682
11361
12549
12738
11710
11778
12655
12225
11303
11850
12429
11297
10588
11831
12523
11317
10823
12116
12453
11153
10962
11839
11294
10295
11096
12097
11290
10608
11751
12435
11371
11062
12137
11947
10600
10857
12232
12184
11348
11611
12114
11680
11472
12065
11894
10746
10673
11762
11783
10831
11039
11995
11772
11129
11682
12161
11405
11350
12728
13042
11718
11386
12613
12905
11876
11818
12676
12375
11538
12064
12921
12330
11630
12458
13123
12291
11918
12739
12787
11992
12231
13024
12586
11889
12691
13516
12739
12126
12848
13016
12194
12505
13753
13379
11849
11907
12992
12657
11767
12293
12932
12069
11394
12121
12248
11028
10758
11781
11682
10510
10597
11391
10936
10456
11479
12104
11011
10447
11610
12059
10881
10596
11646
11707
11010
11503
12201
11250
10223
11068
11853
10759
10058
11283
11987
10874
10359
11322
11273
10020
10208
11139
10354
9526.3
10698
11622
10833
10675
11841
11840
10639
10855
11995
11420
10055
10510
11670
11219
10547
11437
12031
11056
10820
12071
12173
10954
11345
13042
13157
12353
13005
13933
13277
12769
13922
14397
12995
12667
14465
15336
14424
14272
15179
14986
14186
14815
15482
14139
13051
14477
15843
14727
13645
14751
15410
14223
14065
15209
14797
13719
14586
15739
14895
13972
14794
15281
14276
14038
14858
14261
12807
13226
14464
13686
12148
12444
13305
12744
12138
12743
12962
12283
12721
14076
13806
12421
12656
13923
13661
12521
12693
13275
12677
12275
13055
13269
12449
12479
13483
13451
12524
12749
13650
13327
12644
13130
13550
12703
12189
13072
13509
12645
12427
13186
12967
12052
12447
13285
12275
10715
11246
12320
11379
10143
10694
11275
10587
10586
11770
11575
9976.8
10057
11648
11638
10382
10632
11785
11600
11090
11796
11959
10622
10417
11959
12220
11137
11745
13276
12903
12035
12922
13501
11995
11018
12132
12446
10925
10644
11871
11668
10546
10929
11614
10591
9573
10352
10899
9782.9
9382.9
10636
11049
10208
10484
11641
11237
10058
10653
11709
10788
9727.4
10776
11898
11186
10597
11388
11500
10358
10261
11340
11183
9995.6
10368
11926
11895
10884
11548
12618
11747
11011
12135
12312
10703
10718
12466
12471
11114
11420
12629
12283
11463
12132
12709
11648
11151
12508
13182
12090
11682
12658
12697
11796
12188
12975
12151
11563
12921
13895
13004
12538
13554
13731
12536
12358
13033
12390
11504
12390
13414
12723
11998
12731
13290
12728
12616
13216
12819
11729
12089
13384
12969
11454
11675
12871
12574
11970
12703
12936
11918
12075
13370
13131
11917
12318
13661
13626
12695
12840
13637
13480
13033
13526
13804
13014
12979
14338
14655
13572
13645
14484
13719
12719
13672
14642
13491
12238
12960
13800
13111
12616
13072
12792
11982
12516
13569
12972
11825
12404
13333
12602
11862
12575
12891
12009
12000
13081
12842
11521
11738
12847
12337
11329
12038
12967
12305
11883
12868
12993
11696
11683
13041
12883
11704
12440
13903
13291
12388
13633
14739
13459
12127
12793
13314
12281
11946
12994
13014
11897
11978
12873
12385
11486
12221
12880
11703
11162
12671
13447
12409
12218
13373
13206
11962
12526
13854
13070
11910
12999
14233
13391
12599
13497
13929
12966
12827
13724
13418
12421
13071
14351
13828
12814
13520
14299
13349
12691
13620
13722
12155
11798
13287
13699
12623
12615
13634
13533
12881
13342
13589
12520
12372
13870
14206
12737
12138
13033
13219
12429
12482
12982
12354
11788
12794
13749
13125
12653
13666
14232
13387
13188
13867
13399
12432
13089
14203
13549
12513
13272
14204
13415
12664
13243
13368
12593
12874
13931
13431
12107
12521
13663
13077
11989
12393
12787
11791
11415
12523
12618
11182
10956
12132
12069
11120
11685
12605
11781
11140
12454
13283
12076
11348
12383
12730
11763
11939
12996
12572
11779
12665
13596
12813
12167
13195
13950
13187
12897
13774
13860
13121
13650
14918
14491
13292
14018
15318
14592
13550
14391
15333
14838
14662
15466
15178
13898
14127
15336
14970
13921
14470
15342
14691
14373
15781
16347
14813
14065
15226
15525
14295
14298
15642
15657
14768
15338
16321
15650
14923
15905
16415
15151
14871
16389
16739
15559
15544
16562
16203
15214
15780
16341
15033
14341
15867
16781
15730
15377
16579
16738
15641
15940
17035
16369
15335
16330
17518
16736
15978
17041
17729
16781
16520
17510
17269
15848
15956
17314
17233
16316
16911
17790
17014
16489
17639
17900
16279
15859
17303
17530
16263
16224
17213
16896
15922
16372
17126
16425
15860
16734
17085
16043
15654
16393
16138
14910
14960
15764
15212
14439
15205
15730
14385
13558
14940
15721
14558
14417
15510
14965
13867
14785
15738
14486
13275
14087
14881
14103
13485
14112
14434
13788
13868
14921
14743
13493
13789
15042
14614
13569
14230
15084
14251
13778
15068
15472
13923
13513
15054
15486
14565
14970
15909
15250
14739
15832
16222
14981
14499
15601
16054
14957
14327
15066
15501
15142
15382
15989
15421
14606
15298
15949
14920
14297
15275
15622
14722
14817
15885
15448
14089
14599
15851
15086
13874
14566
15401
14711
14463
15584
15582
14087
13979
15091
14553
13242
13887
15119
14574
13973
14984
15417
14161
13710
14753
14714
13382
13531
14935
14749
13640
14284
15434
14626
13651
14660
15199
13594
12969
14569
15131
13925
13929
15266
15104
13904
14333
15245
14354
13593
14757
15509
14562
14356
15533
15389
13940
14193
15358
14377
12850
13837
15384
14587
13323
13992
14686
13788
13395
14278
14134
12989
13384
14702
14103
12584
13096
14474
14018
12988
13410
13733
12699
12442
13709
14018
12949
12980
14235
14410
13590
13685
14174
13712
13503
14403
14545
13381
13154
14186
14067
13076
13691
14676
13645
12747
14062
14995
13803
13165
14466
14938
13616
13319
14372
14249
13476
14244
15273
14484
13488
14217
14911
14192
14013
14982
14926
13974
14401
15500
14971
13916
14471
15340
14717
14022
14709
15255
14524
14274
15245
15297
14030
13901
15094
15145
14154
14351
15137
14748
14339
15040
15263
14392
14149
14920
14982
14042
13899
14776
14798
13970
14274
15255
14621
13454
14162
14805
13379
12749
14225
14719
13725
13937
15038
14636
13499
13807
14558
13924
13205
14059
15029
14529
14017
14712
14823
13755
13751
14775
14388
13300
13972
15219
14725
14023
14961
15510
14242
13637
14839
15145
13719
13504
15063
15392
14258
14436
15497
14897
13880
14728
15364
14125
13759
15083
15207
14128
14344
15333
15049
14312
14773
15146
13991
13189
14214
15121
14492
13935
14489
14707
14047
13940
14342
13933
13399
14107
14947
14357
13587
14255
14948
14377
14119
14861
14801
13778
13872
14999
14904
13912
14219
15126
14746
14243
14938
15130
14098
14109
15411
15467
14333
14424
15428
15218
14350
14715
15394
14783
14290
15251
15885
15055
14608
15493
15893
15251
15301
15921
15542
15072
15865
16453
15533
14902
15860
16360
15337
15008
15846
15827
15301
16041
16980
16360
15421
15851
16485
16036
15676
16335
16760
16197
16153
17182
17155
15873
16038
17353
17009
15922
16475
17189
16414
16195
17375
17399
15953
15828
17123
17269
16476
16921
17659
16860
16337
17655
18330
16974
16403
17859
18235
16512
15983
17353
17696
16940
17362
18268
17652
16713
17337
17964
17018
16513
17639
18249
17551
17572
18432
17906
16584
17101
18225
17250
15993
17066
18426
17661
16653
17258
17543
16471
16217
17037
16570
15275
15741
17121
16682
15481
16008
16924
16264
15745
16662
16753
15177
14815
16353
16733
15503
15483
16526
16100
15149
15941
16628
15350
14717
16073
16549
15379
15256
16445
16410
15356
15629
16338
15418
14629
15788
16654
15537
14740
15807
16532
15757
15565
16313
16006
15129
15770
16992
16594
15725
16501
17396
16628
16016
16704
16829
16159
16640
17742
17365
16475
17069
17943
17375
16620
16972
17056
16034
15932
17396
17631
16112
16205
18080
18083
16560
16966
18122
17245
16391
17517
18058
16725
16097
17144
17491
16523
16464
17395
17237
16513
17019
17738
17043
16273
16929
17411
16571
16316
17178
17065
15993
16168
17200
16783
15660
16183
17077
16196
15298
16102
16671
15930
15894
16933
16720
15475
15769
16908
16314
15067
15604
16623
16017
15481
16643
17163
15785
15335
16534
16316
14758
15177
16766
16337
15243
16077
16984
15879
14824
15539
15884
14748
14654
16183
16534
15494
15642
16673
16123
14886
15370
16081
14952
14287
15813
16784
15650
15093
16245
16409
15134
15299
16505
15873
14579
15365
16689
16146
15408
16359
17040
16264
16266
17275
16718
15230
15744
17284
16938
15773
16167
16914
16354
15913
16585
16638
15591
15704
17166
17309
16106
16223
17381
17146
16274
16806
17271
16279
16052
17267
17360
16212
16217
17330
17537
16847
16754
17050
16835
17001
18063
18334
17089
16371
17254
17743
16835
16435
17075
17077
16542
17055
17901
17262
16274
17030
18001
17180
16377
17177
17681
16895
16762
17704
17592
16454
16522
17484
17303
16593
17053
17727
17138
16497
16931
17068
16354
16386
17286
17291
16416
16368
16847
16416
16034
16944
17368
16106
15641
17103
17308
15372
14944
16577
16921
16038
16479
17313
16381
15313
16214
17030
15951
15373
16433
16640
15660
15997
17186
16406
14663
15166
16607
15949
14817
15673
16679
16047
15617
16364
16248
15089
15228
16317
15927
14764
15125
16042
15474
14813
15700
16153
14960
14613
15727
15394
13697
14061
15918
15694
14248
14752
15906
15029
13934
14951
15722
14354
13719
15244
15969
14984
14849
15784
15468
14400
14840
15564
14438
13469
14746
15930
15007
14278
15336
15712
14487
14378
15384
14827
13742
14690
15944
15038
13967
14957
15778
14777
14451
15671
15731
14593
15103
16664
16327
14984
15364
16491
16163
15434
15821
15982
14954
14696
15904
16161
14954
14835
16021
16082
15223
15593
16311
15601
15079
16113
16557
15339
14773
15734
15903
14879
15000
15984
15655
14996
15774
16498
15702
15119
15966
16326
15426
15375
16198
15800
14996
15801
16774
15851
14690
15427
16518
16095
15484
15988
16282
15562
15467
16490
16447
15211
15398
16688
16404
15357
15895
16776
16191
15839
16848
17032
15815
15722
16888
16637
15270
15624
17031
16790
15960
16753
17501
16364
15479
16427
16690
15200
14991
16695
17145
16104
16305
17346
16675
15374
16020
16969
15988
15265
16306
16787
15983
15886
16527
16300
15634
15862
16244
15659
15135
15931
16810
16141
15438
16480
17064
15752
15461
16780
16410
14841
15414
16922
16421
15487
16277
16979
16138
15606
16271
16237
15109
15283
16961
17228
15866
15814
17006
16796
15862
16448
17020
15934
15559
16934
17353
16284
16176
17149
17123
16540
17172
17705
16544
15889
17206
17979
16893
16335
17367
17764
16847
16649
17134
16587
16002
17043
18103
17360
16507
17326
18129
17471
16978
17633
17826
17008
16997
18071
18032
17005
17454
18650
18062
16987
17602
18216
17376
17194
18328
18408
17276
17131
17911
17794
16952
17022
17650
17301
16826
17787
18594
17482
16553
17635
18299
17235
17043
18065
17828
17022
17719
18479
17500
16706
17818
18555
17305
16555
17575
18041
17314
17579
18591
17758
16105
16850
18382
17555
16487
17588
18445
17638
17561
18562
18117
16613
16717
17935
17932
17249
17634
18202
17620
17377
18474
18743
17379
16977
18148
18164
16705
16625
17994
18202
17474
17736
18222
17595
17142
17949
18270
17261
17121
18450
18818
17888
17960
18966
18635
17576
18079
18902
18055
17483
18604
19109
18078
17860
18930
18911
17840
18159
19111
18329
17268
18258
19563
18991
18256
19103
19575
18589
18389
19286
18878
17709
18500
20287
20081
18840
19093
19577
18564
18044
19138
19186
17480
17243
18913
19154
17705
17484
18491
18471
17827
18230
18573
17638
17355
18643
19072
17898
17531
18523
18628
17726
17989
18902
18456
17801
18510
18993
18036
17545
18562
18927
17853
17663
18576
18386
17521
17935
18781
18415
17840
18350
18752
18041
17487
17970
18321
17818
17791
18736
18665
17395
17518
18847
18667
17578
17911
18627
17992
17596
18585
18918
17935
17931
19113
19047
17878
18037
18943
18507
17876
18613
19070
18079
17459
18247
18668
17936
17860
18812
18906
18211
18528
19237
18448
17487
18426
19191
17875
17168
18382
18824
17976
18112
18905
18331
17328
17933
18845
18149
17327
18078
18863
18245
17907
18939
19205
18066
17987
19009
18620
17509
18181
19413
18748
17842
18879
19692
18445
17722
18844
18986
17558
17648
19151
19105
18100
18450
19230
18838
18342
18978
19504
18736
18216
19172
19804
19003
18734
19713
19638
18511
18894
19846
19004
18320
19670
20659
19816
19295
20025
20068
19132
19232
20010
19443
18404
18871
19795
19363
18618
19066
19580
19231
19230
19733
19243
18154
18433
19604
19363
18286
18639
19518
19004
18501
19343
19580
18452
18389
19592
19428
18107
18160
19256
19233
18360
18368
18789
18299
17951
18831
19170
17934
17380
18575
19018
17978
18033
19158
18828
17839
18397
19167
18205
17243
18160
18969
18057
17605
18565
18677
17687
18014
19380
19059
17716
18254
19415
18562
17537
18328
18816
17943
17940
18987
18652
17346
17600
18802
18654
17874
18265
18831
18180
17793
18690
18942
17856
17571
18449
18301
17085
17181
18399
18337
17483
17967
18710
17818
16993
17993
18554
17297
16911
18220
18563
17828
18312
19354
18701
17586
18233
18880
17785
17417
18807
19132
17954
17980
19100
18742
17508
17900
18808
18087
17398
18418
19091
18185
17995
19299
19455
18125
18110
19256
18885
17772
18502
19850
19327
18506
19509
20367
19415
18942
20079
20281
18930
18956
20622
20869
19613
19457
20138
19752
19178
19809
19990
18836
18819
20372
20565
19260
19187
20246
20031
19041
19465
20197
19231
18349
19362
20199
19225
18577
19678
20304
19428
19266
19951
19454
18636
19328
20055
19203
18466
19276
19909
19259
18924
19626
19811
19007
18919
19876
19811
18747
19014
20045
19574
18755
19372
19738
18746
18637
19838
19721
18397
18616
19919
19670
18590
19058
19876
19123
18634
19802
20280
19072
18654
19869
20285
19273
19162
20119
19992
19232
19724
20440
19581
18705
19709
20603
19607
18968
19925
20328
19624
19705
20393
19816
18792
19364
20177
19372
18755
19709
20167
19299
19306
20470
20312
19054
19302
20313
19567
18374
19150
20361
19946
19551
20435
20627
19477
19124
19953
19949
18928
19003
20200
20329
19634
20130
20985
20308
19476
20256
20745
19574
19243
20682
21136
20067
19962
20911
20660
19799
20513
21390
20412
19745
21012
21766
20811
20502
21537
21580
20573
20913
21743
20650
19347
20424
21982
21462
20564
21280
21713
20776
20792
21849
21220
19726
20534
22397
21862
20285
20913
22302
21765
20862
21482
21795
20693
20547
21902
22081
20837
20615
21486
21539
20889
21033
21435
20889
20564
21474
21882
20855
20367
21376
21860
21058
20873
21442
21096
20532
21152
21666
20765
20122
21125
21839
21000
20614
21281
21139
20457
21087
22119
21464
20298
20868
21815
21206
20573
21203
21392
20518
20613
21819
21549
20038
20254
21633
21342
20339
20799
21276
20441
20338
21446
21228
19763
19742
20856
20553
19240
19369
20388
20086
19388
20080
20630
19563
18931
20054
20428
19040
18667
19786
19794
18967
19450
20336
19664
18598
19030
19731
19155
18779
19616
20045
19470
19487
20255
20029
19069
19285
19907
19180
18437
19205
19918
19333
19030
19779
19766
18807
19004
20011
19604
18558
19132
20349
20015
19296
19975
20498
19628
19387
20495
20520
19140
19194
20740
20907
19903
20199
21179
20819
20060
20463
20532
19199
18819
20313
20958
19906
19566
20469
20493
19713
20111
20741
19743
18963
20131
21094
20270
19671
20579
21036
20180
19989
20684
20436
19722
20248
21091
20544
19660
20026
20443
19835
19641
20281
20116
19318
19651
20530
20043
19041
19403
20279
20134
19719
20021
20151
19436
19259
20209
20438
19489
19437
20386
20239
19426
19915
20533
19669
19204
20238
20488
19312
19004
20076
20377
19452
19239
19925
19835
19329
19847
20415
19514
18690
19636
20335
19374
19128
20119
19867
18775
19253
20302
19614
18542
19310
20255
19428
18682
19482
19946
19180
19096
20000
19731
18612
19023
20043
19303
18243
18967
19705
18845
18490
19583
19735
18605
18716
19917
19688
18574
19083
20273
19961
19479
20335
20807
19949
19499
20074
20014
19086
19214
20412
20509
19635
19884
20756
20118
19137
20050
20906
19724
19154
20465
20811
19770
20070
21469
21263
19965
20150
21046
20429
19463
20233
21358
20762
19980
20925
21612
20612
20279
21136
20635
19323
19947
21409
21052
20092
20520
21073
20628
20563
21249
20976
19724
19765
21101
21189
20008
19855
20539
20252
19626
20079
20354
19445
19304
20557
20789
19627
19479
20602
20767
19969
20067
20315
19266
18784
20183
21019
19867
19105
20100
20627
19711
19551
20434
20286
19505
20036
20948
20238
19194
19922
20857
20206
19694
20347
20314
19467
19911
21185
20902
19799
20181
21132
20695
19937
20355
20673
19777
19441
20538
20857
19726
19505
20600
20768
19925
20014
20501
19912
19682
20899
21306
19919
19367
20745
21340
20149
19758
20646
20506
19670
20170
21028
20241
19189
19873
20588
19716
19348
20365
20570
19848
20332
21361
20580
19159
19785
20966
20153
19113
19981
20878
20194
19837
20748
20671
19332
19347
20465
19998
18728
19380
20864
20428
19409
20261
21205
20174
19325
20208
20543
19528
19507
20416
20190
19764
20674
21248
20275
19692
20629
21060
20028
19804
21104
21454
20346
20102
20966
20812
19967
20483
21214
20252
19518
20642
21449
20633
20284
21317
21647
20812
20937
21793
21325
20404
21031
21969
21268
20398
21232
21994
21206
20857
21642
21415
20333
20660
21726
21306
20362
20813
21625
21269
20551
20543
20626
20180
20248
21214
21383
20473
20533
21513
21332
20622
21284
21788
20560
19941
21114
21481
20357
20173
21257
21351
20503
20841
21670
20951
20032
20763
21528
20698
19935
20684
21266
20536
20183
20764
20680
20041
20523
21463
20822
19679
20398
21399
20489
19702
20650
21099
20218
20214
21135
20722
19546
19894
20948
20566
19582
19928
20785
20345
19672
20338
20835
19984
19747
20769
20800
19785
20155
21300
20872
20105
20976
21645
20441
19615
20683
21114
19804
19539
20841
21081
20439
20941
21643
20827
20036
20884
21355
20191
19981
21435
21668
20407
20573
22043
21830
20496
21048
22179
21163
20123
21464
22749
22004
21499
22481
22680
21661
21744
22700
22222
21036
21498
22690
22317
21505
22121
22610
21705
21472
22607
22546
20950
20882
22552
22890
21855
21984
22768
22233
21602
22415
22607
21293
21372
23064
23313
22352
22343
22693
22220
21819
22224
22355
21575
21256
22109
22549
21622
21123
22205
22816
21884
21498
22053
21713
20989
21575
22397
21792
21044
21746
22446
21836
21385
21931
22008
21262
21495
22729
22437
20910
21230
22708
22328
21370
22171
22791
21788
21611
22752
22670
21563
21629
22419
22300
21763
22115
22674
22191
21728
22470
22890
21914
21440
22485
22846
21767
21641
22674
22448
21418
21900
23005
22448
21512
22346
23052
21926
21483
22571
22610
21700
22113
22957
22211
21220
21910
22719
22018
21437
22178
22604
21918
21854
22665
22067
20509
21026
22717
22281
20882
21357
22236
21516
21233
22548
22888
21561
21229
22311
22329
21084
21080
22335
22423
21658
22116
22812
21958
21227
22308
23006
22033
21953
23266
23276
22244
22593
23485
22684
21476
22077
22842
21876
21349
22671
23423
22527
22231
23150
23105
22172
22642
23513
22504
21406
22392
23430
22675
22055
22881
23259
22548
22573
23256
22682
21453
21928
23482
23321
22043
22347
23208
22365
21487
22189
22324
21180
21433
22941
22771
21566
21983
23126
22869
22185
22635
22825
21705
21418
22761
23183
22033
21677
22677
22982
22218
22145
22652
22206
21613
22311
23052
22322
21609
22432
23024
22183
21926
22710
22565
21871
22476
23300
22407
21350
22282
23293
22429
21778
22632
22841
21939
22156
23283
22881
21647
22062
23156
22743
21995
22470
22670
21686
21637
22943
22999
21578
21287
22396
22717
21913
21756
22280
21943
21341
21992
22727
22089
21606
22556
22903
21597
21124
22266
22552
21704
21882
22693
22018
21001
21902
22818
21673
20998
22212
22679
21821
22142
23402
22919
21428
21805
22939
22312
21503
22429
23203
22546
22522
23661
23395
21862
22142
23695
23380
22109
22743
24055
23599
22926
23766
24134
22834
22081
22894
23319
22648
22781
23868
23791
22919
23450
24467
23833
22888
23522
23782
22331
22024
23853
24532
23231
22843
23900
23951
23043
23369
24005
22996
22269
23616
24698
23729
22794
23448
23904
23207
23116
23734
23359
22649
23265
24092
23449
22679
23520
24444
23938
23455
23810
23555
22665
22892
23991
24046
23366
23494
23850
23388
23071
23740
24168
23387
22888
23653
23898
22911
22777
23794
23756
22831
23080
23629
22848
22403
23402
23665
22545
22345
23397
23326
22230
22538
23443
22639
21721
22689
23587
22686
21934
22773
23235
22275
21929
22593
22363
21623
22248
23269
22571
21364
21934
22875
22139
21309
22011
22689
22229
22045
22613
22367
21419
21492
22119
21652
20784
21058
21758
21516
21276
21989
22113
21049
20841
21728
21455
20285
20721
22041
21773
20964
21545
22008
20987
20464
21538
21815
20578
20550
21900
21989
21316
21995
22929
22244
21233
21610
22012
21154
20858
22084
22733
21897
21587
22439
22359
21180
21207
22024
21529
20824
21725
22643
21906
21246
22048
22320
21222
21059
22130
21982
20795
21070
22345
22099
21077
21544
22392
21812
21282
21955
21920
20621
20548
21927
22139
21200
21300
22027
21653
20883
21195
21560
20778
20401
21389
21742
20736
20541
21577
21419
20096
20276
21372
20817
19851
20676
21667
20891
20049
20742
21139
20254
20193
21032
20554
19561
20312
21481
20707
19415
19947
20893
20388
19853
20342
20344
19621
19920
20955
20689
19652
19844
20665
20472
19912
20236
20667
20199
20079
21115
21369
20179
20019
21332
21393
20081
20127
21184
20930
20247
20778
21162
20352
19970
20859
21271
20495
20299
21060
21170
20798
21208
21532
20528
19817
20904
21569
20355
19872
21027
21334
20623
20901
21509
20699
19797
20645
21515
20606
19804
20709
21505
20935
20821
21918
21913
20444
20207
21302
21145
20033
20238
21109
20751
20167
20692
20965
20183
19948
20694
20709
19772
19817
20890
20903
20023
20207
20842
20190
19400
20041
20452
19580
19602
20849
20932
20083
20292
20889
20324
19764
20686
21415
20283
19208
19896
20697
20239
19933
20562
20498
19556
19694
20421
19800
19022
19930
20947
20274
19526
20237
20650
19844
19792
20602
20043
18740
19274
20771
20528
19508
20049
20910
20208
19450
20085
20465
19628
19554
20689
20667
19373
19290
20356
20326
19485
19721
20217
19404
18749
19575
19998
18937
18371
19199
19503
18874
19082
19582
18829
18436
19661
20269
19093
18450
19500
20080
19227
18956
19725
19760
19187
19572
20223
19522
18547
19102
19917
19365
18803
19453
19864
19168
19130
20314
20229
18644
18675
20170
20068
19146
19727
20290
19511
19617
20927
20777
19414
19482
20717
20920
20202
20302
20912
20597
20240
21129
21658
20501
19733
20720
21111
19915
19733
20957
21068
20367
20952
21814
20992
20005
20760
21265
19994
19570
20993
21430
20359
20376
21447
21112
19952
20504
21692
21007
19766
20223
21064
20516
20058
20959
21235
20053
19721
20572
20283
19160
19614
20973
20710
19716
20225
20944
20180
19724
20592
20541
19291
19563
21004
20689
19428
19911
20979
20374
19565
20285
20526
19219
19100
20670
20833
19495
19498
20689
20651
19847
20188
20499
19347
18874
20216
20779
19613
19298
20503
20641
19404
19383
20291
19727
18650
19367
20519
19820
18808
19587
20274
19317
19003
20062
19913
18637
18901
20076
19618
18508
18941
19889
19650
19086
19379
19691
19180
19121
20155
20397
19330
19227
20349
20316
19221
19405
20302
19898
19329
20085
20451
19354
18924
20080
20441
19371
19268
20096
19808
19410
20443
21123
20032
19225
20222
21034
20289
19907
20791
21252
20906
21115
21647
21180
20469
20985
21556
20840
20312
21040
21439
20755
20640
21477
21304
20233
20543
21658
21259
20336
20966
21836
21196
20645
21384
21521
20427
20226
21159
21036
19918
20103
21282
21292
20694
21082
21415
20599
20066
20731
20887
19849
19652
20709
20866
20059
20230
20954
20335
19414
20236
21150
20130
19373
20611
21458
20461
19882
20714
20659
19431
19634
20792
20246
19096
19870
21153
20666
19984
20879
21196
19778
19403
20619
20415
18982
19384
20949
20769
19786
20318
21106
20458
19884
20511
20580
19423
19343
20822
21211
20117
19994
20830
20488
19553
19970
20558
19762
19366
20371
20645
19706
19628
20554
20467
19465
19512
20138
19563
18951
20032
21123
20223
19124
19987
21033
20409
19927
20627
20712
19943
20094
20867
20465
19626
20271
21223
20596
19711
20114
20553
20098
20166
21129
21044
19973
20221
21328
21021
20147
20576
21064
20259
20051
21341
21540
20121
20198
21851
21742
20390
20970
22156
21504
21123
22304
22339
20843
20631
21771
21620
20310
20421
21610
21480
20791
21574
22396
21194
20081
21383
22488
21143
20212
21272
21765
21101
21281
21931
21345
20494
21056
21819
21317
20784
21279
21559
21000
21018
21859
21682
20559
20566
21352
20917
19956
20432
21462
21080
20425
21231
21904
20989
20420
21255
21351
20098
20036
21455
21585
20417
20608
21703
21300
20375
20946
21329
20181
19990
21403
21562
20345
20286
21140
20820
20033
20601
21162
20051
19320
20459
21266
20471
20002
20787
21094
20310
20057
20553
20358
19682
20020
20915
20654
19882
20310
20744
19892
19616
20587
20519
19376
19609
20834
20584
19490
19729
20520
20127
19427
19770
20261
19894
19841
20684
20758
19839
19958
20979
20739
19746
20118
20835
20111
19557
20451
20739
19580
19200
20344
20831
20077
20027
20616
20108
19441
20285
21194
20385
19439
20171
20923
20253
19964
20685
20673
20132
20590
21196
20557
19910
20674
21396
20774
20262
20916
21392
20944
20910
21658
21497
20420
20400
21239
21116
20483
20819
21283
20526
20005
21066
21616
20446
20123
21346
21233
19797
20033
21151
20573
19905
21008
21635
20480
20004
21168
21326
19843
19687
21250
21545
20523
20783
21810
21137
19883
20514
21362
20343
19721
20842
21178
20117
20140
21263
21038
19899
20301
21313
20517
19221
19858
21090
20596
19711
20398
20945
19987
19634
20457
20087
18745
19131
20693
20605
19619
20166
20945
20066
19490
20450
20421
18934
19172
21030
21027
19488
19474
20425
20034
19330
20017
20270
18801
18326
20004
20841
19782
19343
20195
20249
19475
19740
20238
19303
18642
19759
20564
19683
19184
20145
20450
19550
19631
20310
19476
18499
19495
20613
19804
18997
19977
20658
19727
19355
20187
20052
19075
19572
20922
20589
19415
19807
20855
20559
19826
20115
20423
19785
19679
20738
20989
20068
20216
21518
21656
20745
20943
21725
21301
20739
21340
21619
20810
20700
21752
21840
20690
20587
21454
21260
20734
21443
22046
21151
20438
21359
22061
21090
20327
20903
21160
20515
20612
21494
21234
20318
20959
21935
21066
20215
21244
22008
21100
20734
21808
21913
20710
20693
21596
21076
20105
20832
21777
21029
20417
21329
21624
20477
20241
21320
21268
19936
19926
21188
21193
20337
20800
21533
20624
19732
20543
20827
19474
19329
20866
21080
20037
20195
20925
20236
19315
20005
20631
19534
18910
20149
20887
20003
19767
20823
20724
19384
19511
20515
19840
18844
19834
21019
20311
19479
20146
20475
19625
19654
20609
20198
18995
19512
20944
20739
19792
20213
20903
20431
20237
21112
21165
19949
19849
21129
21231
20193
20482
21681
21519
20681
21105
21596
20659
20245
21526
21960
20572
20113
21493
21960
20915
20875
21609
21021
20432
21519
22255
21192
20681
22097
22904
21937
21691
22573
22317
21434
21996
22828
21918
20787
21466
22296
21687
21396
22232
22247
21343
21706
22948
22565
21205
21401
22431
22118
21284
21704
22418
21920
21552
22486
22811
21645
21370
22668
23086
22182
22180
22890
22406
21747
22489
22876
21608
21026
22407
22961
21548
21109
22275
22420
21741
22296
23172
22563
21747
22418
23040
22216
21822
22729
22921
22012
22036
23020
22836
21749
21971
22873
22479
21776
22302
22790
22087
21739
22623
22814
21738
21453
22101
21720
20706
21074
22120
21689
20829
21559
22212
21110
20619
21860
21914
20336
20439
22011
21860
20709
21084
21895
21393
20929
21777
22145
20876
20247
21482
22169
21225
20881
21770
21698
20844
21395
22044
20836
20190
21614
22289
21167
20846
21907
22046
21198
21456
22098
21226
20318
21194
22061
21233
20529
21402
21953
21138
20790
21403
21376
20911
21530
22397
21755
20852
21531
22419
21956
21557
22296
22602
21765
21747
23015
23298
22351
22410
23380
23186
22261
22520
23085
22362
21841
22748
23145
22149
21845
22977
23380
22392
22120
22842
22625
21897
22509
23437
22644
21585
22503
23556
22653
21932
22803
23123
22270
22294
23167
22794
21699
22153
23204
22646
21648
22069
22671
22085
21816
22752
22719
21377
21524
22893
22438
21027
21556
22818
22448
21922
22686
22848
21708
21477
22427
22346
21374
21670
22537
22067
21544
22371
22763
21747
21267
22076
22153
21020
20970
22210
22314
21331
21413
22241
21875
20919
21206
21769
20969
20276
21140
21830
21004
20563
21625
21900
20708
20686
21698
21216
20283
21102
22103
21466
20841
21497
21626
20671
20676
21534
21061
19953
20556
21902
21561
20530
20829
21375
20847
20558
21118
20887
19775
19977
21312
21239
20059
20189
21178
21041
20475
20972
21251
20270
20051
21325
21647
20504
20268
21254
21225
20236
20416
21139
20568
20039
20932
21466
20590
20248
21301
21713
20835
20706
21482
21274
20503
21049
22021
21309
20179
20969
21960
21101
20526
21542
21851
21118
21590
22668
22037
20808
21221
22217
21949
21222
21402
21771
21273
21090
22141
22523
21348
20975
22076
22251
21336
21579
22359
21789
21256
22127
22483
21393
20938
21789
21879
21163
21782
22846
22189
21418
22211
22619
21530
21056
22040
22333
21281
21006
21801
21810
21247
21774
22634
22025
21065
21655
22214
21107
20462
21661
22370
21451
21206
22389
22525
21298
21236
22158
21717
20667
21170
22143
21696
21149
21782
21967
21003
20716
21507
21556
20610
20695
21918
21954
20907
21128
21946
21064
19921
20855
21752
20542
19822
21067
21602
20686
20699
21702
21389
20247
20630
21504
20645
19768
20921
22105
21339
20427
20977
21247
20369
20349
21158
20747
19931
20544
21322
20731
20151
20831
21416
21012
20723
20921
20609
19920
20302
21510
21418
20304
20579
21631
21195
20368
20897
21250
20399
20398
21590
21562
20425
20596
21656
21436
20623
21043
21526
20802
20729
21975
22229
21208
21099
22056
22164
21331
21273
21939
21832
21401
21952
22480
21543
20787
21877
22567
21484
21310
22433
22145
21159
21905
22862
21836
20703
21574
22537
21752
20972
21615
22060
21345
21247
22393
22512
21284
21236
22259
21959
20992
21414
22203
21836
21685
22479
22355
21149
21008
21822
21552
20666
21170
22111
21590
20988
21790
22197
21119
20572
21544
21960
20996
20796
21845
22040
21391
21785
22601
21842
20697
21405
22352
21490
20855
21845
22261
21383
21419
22518
22314
21082
21369
22452
21923
20917
21537
22416
21817
21387
22495
22902
21629
21286
22259
21928
20690
21054
22082
21565
20918
21794
22282
21177
20650
21518
21540
20325
20415
21872
22002
20974
21191
22129
21810
21100
21554
21744
20576
20237
21535
21942
20879
20643
21641
21902
21262
21335
21694
21073
20816
22080
22899
21880
21120
22145
22855
22044
21834
22612
22339
21498
22146
23276
22739
21876
22904
24079
23408
22828
23630
23788
22817
22848
23828
23618
22767
23237
24050
23585
23106
23722
23844
22829
22906
24397
24436
22838
22685
23993
23857
22588
22824
23665
22889
22171
23328
24064
22855
22237
23519
24058
23037
23050
23980
23537
22951
24003
24601
23175
22275
23490
24059
22615
22059
23151
23276
22524
23058
23938
23139
22057
22761
23671
22916
22111
22815
23517
22973
22591
23183
23165
22290
22365
23170
22871
21983
22195
22833
22418
21969
22634
22921
22076
21995
22997
22936
21860
22019
22908
22500
21827
22411
22648
21527
21138
22256
22325
20754
20541
22111
22460
21462
21572
22282
21427
20358
21317
22114
20485
19388
21076
22587
21829
21209
22159
22496
21616
21773
22601
21799
20601
21551
23146
22673
21547
22183
22873
21937
21547
22473
22336
21362
21886
22874
22168
21377
22297
23012
22174
21742
22537
22555
21501
21753
23225
23296
22229
22392
23359
23253
22640
23003
23439
22804
22554
23560
23896
22881
22588
23579
23728
22808
22965
23830
23378
22656
23353
23993
23128
22519
23476
23943
22918
22733
23683
23428
22407
22901
24120
23908
23075
23506
24277
23853
23129
23261
23508
23234
23452
24298
23858
22369
22555
23926
23645
22598
23244
24270
23706
23135
23759
23863
23001
22954
23813
23863
23013
22969
23774
23805
23381
23907
24316
23241
22445
23502
24237
23160
22622
23613
23891
23158
23290
23859
23091
22188
23031
23676
22492
22099
23406
23641
22704
23101
24236
23769
22630
23011
23730
22919
22073
22947
23941
23296
22660
23569
23915
22651
22324
23293
22865
21470
21862
23201
22908
22092
22734
23345
22575
22226
23092
23107
21859
21885
23391
23590
22487
22679
23604
22944
21989
22845
23427
22108
21718
23291
23872
22963
22848
23511
23256
22555
22888
23391
22707
22179
23022
23737
23198
22826
23478
23672
23047
23346
24253
23840
22916
23621
25007
24730
23764
24341
25034
24185
23830
24787
24612
23344
23559
24695
24376
23545
24140
25077
24856
24356
24688
25082
24546
24201
24996
25202
24022
23732
24888
25082
24214
24508
25238
24606
24204
25268
25660
24606
24318
25368
25523
24343
24084
24928
24843
24194
24708
25497
24863
24119
24919
25436
24451
24306
25288
25025
24252
24980
25676
24595
23527
24187
25101
24781
24189
24539
25049
24496
24065
25078
25381
23900
23661
25072
24812
23329
23674
24767
24235
23784
24875
25106
23652
23339
24549
24425
23157
23658
25017
24417
23377
24228
24936
23721
22947
24089
24496
23041
22679
24096
24337
23325
23671
24684
23779
22421
23378
24500
23184
22193
23533
24361
23401
23196
24259
24166
22999
23212
24185
23590
22500
23182
24423
24069
23415
24211
24615
23532
23408
24555
24131
22583
23007
24659
24525
23539
24116
24940
24228
23658
24509
24837
23711
23479
24787
25048
23996
24166
25293
25016
24168
24877
25544
24449
23936
25239
25860
25150
25169
26032
25969
25251
25516
25994
25133
24399
25416
26371
25461
24596
25532
26126
25092
24910
25988
25788
24765
25354
26481
25660
24345
25123
26232
25523
25024
25985
26120
25015
25038
26020
25665
24718
25234
25969
25269
24758
25541
25623
24424
24445
25836
25852
24601
24543
25385
25227
24568
24954
25482
24869
24528
25411
25641
24525
24099
25085
25522
24747
24547
25170
24977
24408
25024
25757
24834
23882
24876
25588
24264
23738
25175
25633
24564
24599
25543
24813
23350
23995
25182
24244
23237
24270
25043
24135
23881
24974
24902
23667
23876
24926
24219
22797
23270
24552
24287
23648
24276
24607
23614
23196
24108
24440
23599
23544
24537
24478
23539
23829
24618
23924
23069
23841
24228
22944
22723
24256
24549
23401
23370
24276
24029
23250
23740
24255
23230
22635
23809
24556
23733
23393
24321
24435
23331
23173
23843
23418
22673
23367
24357
23934
23301
23843
24005
23047
23033
24069
23763
22492
22776
23963
23594
22732
23650
24913
24454
23746
24363
24743
23796
23601
24934
25159
23736
23572
24896
24887
23775
24070
24759
23890
23363
24527
24986
23937
23764
24921
25026
23884
23816
24542
24020
23297
24078
24814
23937
23185
24110
24919
24210
23738
24325
24413
23891
24283
25103
24540
23550
24226
25046
24076
23309
24185
24574
23775
23983
25136
24682
23273
23736
25096
24616
23488
24081
24997
24274
23690
24720
25167
23994
23577
24574
24747
23908
24188
25113
24728
24168
24974
25370
24176
23567
24663
25088
23966
23861
25151
25252
24338
24651
25472
24716
23642
24406
25259
24231
23486
24404
24828
24113
24282
25338
25161
24150
24472
25206
24493
23792
24541
25038
24369
24441
25668
25696
24528
24663
25550
24820
23739
24663
25932
25195
24318
25219
25751
24614
24272
25508
25644
24252
24267
25809
25894
24673
24718
25461
25013
24617
25665
26003
24636
24458
25975
26190
25219
25616
26772
26476
25623
26169
26769
25676
24869
26000
26980
26291
25832
26702
26880
25787
25742
26730
26393
25277
25759
26958
26384
25195
25902
26816
25857
25265
26418
26709
25421
25358
26813
26868
25670
25962
26992
26394
25531
26178
26474
25349
25219
26476
26457
25263
25336
26259
26115
25609
26217
26637
25688
25346
26464
26658
25425
25196
26332
26468
25426
25433
26136
25531
24753
25634
26540
25588
24601
25460
26172
25261
24974
25976
26016
25204
25579
26367
25586
24534
25319
26210
25288
24512
25331
25757
24929
24959
26145
25896
24490
24891
26232
25623
24541
25300
25882
24837
24715
25967
25713
24246
24501
26013
26060
24817
24694
25637
25673
25234
25771
26075
25030
24549
25698
25998
24529
24193
25612
25853
24803
25119
26297
25675
24378
25105
26043
24931
24398
25899
26437
25254
25206
26449
26246
24936
25210
26190
25483
24517
25414
26500
25908
25364
26251
26466
25414
25683
26998
26425
24951
25645
27247
26888
25934
26517
27069
26265
25867
26571
26521
25520
25697
26773
26451
25403
25767
26605
26190
25631
26234
26423
25282
25026
26316
26732
25883
25806
26658
26743
26133
26270
26651
26086
25726
26554
27012
26107
25574
26391
26618
25652
25702
26598
26118
25196
25953
27106
26651
25833
26313
26721
25963
25626
26335
26400
25531
25660
26888
26801
25539
25768
27000
26723
25772
26136
26623
25875
25678
26788
26858
25575
25573
26862
26811
25599
25687
26459
25841
25135
26001
26610
25670
25181
26204
26624
25745
25737
26566
26068
25074
25593
26401
25672
24883
25726
26366
25345
24783
25534
25577
24834
25170
25992
25334
24221
24797
25699
24999
24353
25340
26117
25353
25031
26118
26119
24668
24818
26320
25965
24588
25118
26290
25720
25182
26310
26732
25414
25095
26326
26262
24824
24994
26378
26245
25550
26356
27001
25891
25084
26124
26787
25681
25217
26447
26962
26256
26521
27700
27540
26517
26906
27697
26924
26302
27296
27935
27256
27238
28247
27992
26665
26975
28107
27403
26296
27195
28392
27809
27204
28151
28563
27483
27237
28017
27462
26252
26933
28396
28016
27114
27904
28784
27971
27118
27648
28026
27156
26913
28102
28296
26993
26982
28240
27932
26823
27521
28230
26945
26445
27954
28324
27056
26936
28032
27977
27032
27290
27970
27230
26617
27729
28549
27479
26627
27629
28367
27350
26645
27212
27293
26662
26968
27861
27492
26613
27219
27967
27135
26564
27310
27309
26333
26628
27788
27302
26049
26579
27703
27110
26187
26839
27524
26733
26321
27279
27335
26011
25874
27027
26970
25998
26355
27041
26273
25866
27002
27317
26095
25691
26635
26755
25825
26076
27283
27032
25935
26386
27572
27130
26128
26882
27921
27269
26774
27543
27606
26733
26961
27939
27456
26219
26651
27754
27379
26766
27451
27957
27285
27151
28135
28122
27036
27242
28248
27739
26789
27519
28487
27826
27380
28551
29081
28008
27713
28660
28577
27628
28177
29387
28929
28240
29246
29945
28766
27942
28938
29419
28174
27831
29266
29665
28520
28474
29632
29429
28329
28912
29945
29024
28105
29041
29649
28719
28483
29648
29772
28539
28506
29326
28724
27851
28713
29716
29061
28428
29259
29641
28776
28792
29654
29038
27665
28128
29510
29142
28069
28555
29252
28523
28050
28810
28812
27614
27692
29083
29070
27942
28189
29127
28727
28103
28887
29276
28042
27719
29110
29434
28371
28372
29369
29169
28166
28426
29123
28395
27713
28685
29409
28369
27821
29261
30004
28805
28565
29624
29226
28058
28618
29636
28872
27815
28415
29003
28263
28052
28903
28766
27752
28162
29507
29118
27710
27952
28938
28397
27470
27931
28510
27972
27889
28775
28622
27502
27712
28945
28957
28063
28258
28924
28408
27927
28736
29038
27872
27286
28247
28671
27775
27627
28428
28189
27502
28224
29138
28193
26936
27753
28997
28355
27508
28082
28501
27977
28202
29253
28905
27620
28136
29366
28667
27770
28891
29959
29200
28695
29623
29697
28519
28629
29669
29055
27820
28463
29637
29155
28669
29651
30006
28888
28652
29734
29775
28591
28579
29545
29195
28393
29270
30223
29236
28391
29503
29974
28546
28336
29784
29702
28550
29108
30306
29641
28506
29253
30136
29031
28153
29271
30106
29262
28888
29883
29943
28763
28901
29822
29124
28154
28961
29858
29324
29122
30124
30195
29032
28999
29946
29562
28425
28821
30039
29864
29124
29497
29777
28992
28808
29558
29188
27876
28177
29584
29435
28450
28759
29457
29083
28582
29036
29270
28302
27830
28972
29681
28746
28169
29039
29358
28509
28457
28924
28168
27550
28530
29131
28010
27427
28757
29524
28473
28084
28896
28741
27998
28551
29346
28579
27716
28589
29386
28600
28188
28889
28679
27659
28043
29209
28711
27542
28148
29358
29012
28218
28555
28953
28488
28647
29710
29591
28424
28600
29782
29685
28798
29185
29947
29428
29187
30372
30771
29528
29046
30170
30553
29632
29714
30703
30408
29691
30412
31147
30140
29171
30075
30807
29687
29042
30090
30650
30048
30083
30749
30273
29323
29961
30947
30225
29345
30073
30830
30264
30013
30934
30933
29713
29784
30985
30782
29748
30187
31182
30643
29972
30905
31460
30194
29412
30346
30841
30060
29973
30667
30411
30008
30846
31395
30502
29932
30795
31179
30109
29816
31055
31386
30446
30684
31936
31439
29991
30570
31520
30279
29565
31149
31941
30845
30569
31541
31445
30483
30806
31481
30568
29656
30711
31930
31263
30525
31486
31817
30342
29966
31236
31144
29891
30403
31873
31375
30105
30646
31543
30874
30310
30961
30825
29436
29473
31078
31233
29932
29811
30558
30199
29539
30201
30721
29726
29326
30506
30775
29549
29219
30247
30472
29584
29538
30168
29620
28809
29652
30729
29817
28726
29910
31076
29999
29292
30216
30305
29440
29819
30768
30262
29494
30357
31072
30229
30096
31246
31067
29827
30399
32016
31615
30213
30628
31683
31197
30563
31182
31356
30371
30458
31752
31707
30509
30427
31186
31161
30617
30870
31438
30951
30390
31291
32056
31007
30167
31234
31801
30635
30503
31791
31698
30691
31147
32018
31213
30189
31006
31877
30971
30329
31061
31201
30517
30909
31867
31209
29945
30633
31819
31130
30363
31269
31847
30957
30645
31531
31491
30619
31082
32094
31457
30337
30915
32004
31601
31125
32056
32353
30963
30406
31458
31610
30525
30612
31525
31232
30852
31721
32004
30891
30535
31673
31952
30561
30048
31225
31725
31100
31226
31936
31382
30305
30771
31571
30798
30169
31060
31648
31099
31115
31912
31598
30570
31033
31796
30694
29669
30783
31828
30913
30248
31376
31799
30576
30431
31546
31231
30109
30790
32129
31615
30731
31502
32175
31398
31061
31818
31591
30216
30369
32045
32265
31129
31272
32239
31858
30889
31240
31775
30978
30656
31986
32608
31583
31331
32498
32605
31630
32058
32836
31730
31031
32532
33367
32059
31472
32849
33424
32348
32335
33407
32934
31639
32153
33465
32935
31738
32382
33232
32356
31858
32815
32950
32094
32422
33334
32786
31973
32650
33449
33049
32622
32970
32960
32016
31850
33134
33646
32632
32325
33205
33224
32257
32207
32723
32322
32088
32963
33134
32000
31670
32683
32785
31722
31901
32973
32591
31769
32381
33060
32277
31482
32103
32754
32299
32135
32666
32412
31537
31771
32742
32409
31379
31874
32661
31751
30997
31971
32584
31740
31527
32509
32318
30934
30910
31848
31456
30614
31226
32013
31348
30852
31642
31826
30923
30966
31873
31556
30407
30621
31519
31196
30809
31616
31889
30864
30472
31348
31430
30134
29860
31236
31758
30884
30755
31454
30902
29751
30301
31148
30096
29348
30720
31672
30628
30057
31123
31217
29983
30367
31523
30574
29480
30633
31570
30602
30157
31120
31169
30326
30812
31807
31035
29721
30405
31962
31716
30824
31541
32174
31009
30357
31489
31808
30547
30607
32212
32464
31603
31983
32878
32575
32161
32939
33253
32023
31624
33022
33544
32425
32082
33042
33085
32046
32032
32610
31978
31526
32785
33706
32604
31660
32680
33447
32516
32178
32904
32545
31659
32287
33314
32727
31770
32327
32974
32389
32136
32701
32348
31349
31802
33123
32784
31423
31444
32157
31819
31419
32100
32458
31531
31247
32410
32671
31513
31451
32649
32683
31732
32056
32838
32049
31276
32241
32839
31674
31013
32166
32811
31858
31531
32227
32047
31591
32279
32751
31702
30894
31834
32639
31822
31278
31940
32142
31647
31963
32686
32047
30959
31603
32603
31933
31295
32086
32514
31938
32110
32838
32044
30642
31076
32187
31624
30654
31344
32310
31604
30869
31710
32097
30918
30538
31666
31819
30512
30354
31557
31623
30875
31450
32216
31327
30632
31793
32210
30653
30381
31997
32241
31278
31693
32660
32022
31004
31618
32316
31350
30742
31821
32387
31456
31275
32540
32819
31804
32032
32946
32174
31122
31983
33064
32503
32046
33052
33367
32237
32182
33468
33545
32544
32915
34242
34079
33196
33715
34331
33542
33257
34270
34094
32488
32580
34258
34281
33099
33423
34349
33806
33127
33999
34456
33097
32583
34039
34652
33635
33232
33983
34226
33723
33748
33945
33305
33077
34205
34938
34105
33538
34470
34832
33657
33296
34042
33754
32998
33680
34643
33927
32834
33369
34157
33676
33320
33787
33616
32875
33280
34358
33985
32882
33243
34241
33956
33150
33318
33770
33362
33197
34071
34219
33122
32957
33920
33824
32911
33305
34101
33497
33148
34246
34480
33119
32704
33881
34032
32714
32609
33655
33357
32482
33054
33932
33394
32567
32969
33510
33042
32775
33199
33050
32410
32775
33631
32881
31401
31945
33286
32849
32155
32861
33174
32400
32532
33544
33135
31944
32425
33551
32970
31852
32305
33192
32716
32303
33214
33427
32229
32142
33324
32994
31540
31939
33316
33098
32660
33541
33816
32797
32537
33400
33323
32162
32277
33682
33839
32922
33232
34183
33502
32468
33543
34681
33586
32961
34332
34813
33671
33666
34904
34628
33255
33673
34860
34098
32916
33750
34888
34153
33303
34177
34772
33947
33917
34885
34437
33082
33385
34614
34315
33557
34312
35031
34239
33768
34646
34936
33947
33809
34758
34676
33950
34473
35281
34689
33837
34263
34544
33393
32895
34271
35084
34208
33837
34756
34821
33847
33999
34509
33430
32675
33895
34777
33900
33382
34319
34682
33831
33802
34412
33766
32865
33620
34653
33925
32977
33813
34448
33476
33345
34433
33940
32450
32948
34377
33847
32689
33238
34029
33466
32999
33547
33597
32608
32589
33824
33736
32271
32261
33566
33509
32420
32662
33411
32793
32396
33480
33699
32225
31805
33178
33394
31990
31981
33153
32718
31770
32599
33498
32451
31513
32584
33312
32269
32135
33309
33115
32127
32698
33572
32710
31762
32693
33662
32980
32410
33157
33536
32743
32571
33572
33568
32327
32301
33578
33951
33355
33339
33678
33283
33030
33690
33794
32882
32737
33565
33661
33152
33730
34669
34264
33699
34299
34575
33798
33624
34526
34575
33384
33170
34165
34194
33507
34030
34939
34190
33157
34094
34996
33807
33164
34444
34879
33795
33814
34988
34599
33117
33414
34380
33587
32946
34288
35133
34053
33688
35046
35226
33720
33499
34648
34429
33160
33427
34712
34468
33539
34133
34873
34083
33626
34485
34430
33155
33330
34668
34542
33712
34123
34632
34020
33507
34008
34215
33401
33241
34292
34552
33670
33648
34654
34672
33950
34394
34774
33379
32588
33948
34823
33868
33368
34248
34383
33412
33603
34588
34063
32947
33646
35055
34588
33428
34161
35163
34282
33482
34080
34058
33130
33439
34574
34163
33046
33407
34045
33344
32965
33940
34145
32816
32482
33575
33524
32405
32570
33618
33533
32630
32550
32810
32263
32190
33512
34056
32777
32162
33345
33734
32678
32804
33758
33206
32605
33586
34075
32973
32526
33591
33899
32964
33184
34344
34081
33115
33570
34456
33912
33222
34149
35016
34373
33991
34690
34728
33986
34431
35719
35316
33872
34226
35641
35561
34766
35153
35707
35041
34702
35576
35601
34362
34213
35360
35546
34592
34641
35526
35123
34216
34914
35887
35189
34494
35444
35793
34428
34227
35641
35703
34696
35091
36015
35337
34432
35282
35872
34560
34020
35189
35392
34552
34973
35923
35127
33669
33955
34860
34319
33502
34109
34915
34365
33874
34858
35262
34089
33877
34951
34658
33364
33647
34761
34342
33625
34523
35252
34408
34053
34850
34577
33384
33912
35269
34656
33583
34562
35608
34642
33814
34838
35279
33965
33866
35543
35763
34504
34622
35742
35341
34244
34784
35511
34427
33828
35289
36169
35116
34623
35709
35927
34877
35112
35991
35074
33970
34992
36203
35529
34839
35714
36053
35049
35068
36109
35610
34107
34310
35657
35612
34910
35409
35885
35235
35179
36180
36021
34492
34380
35830
35992
34965
35192
36247
36176
35518
35842
36261
35607
35385
36345
36556
35680
35647
36671
36871
36094
36146
36750
36145
35288
35972
36906
36124
35172
36194
37272
36493
36016
36767
36744
36188
36940
37961
37301
36388
37302
38212
37321
36676
37461
37562
36418
36309
37471
37417
36407
36887
37948
37339
36442
37129
37721
36745
36407
37729
37997
36563
36221
37214
37061
36120
36770
37869
37201
36501
37351
37668
36586
36151
37003
37298
36583
36646
37478
37162
36269
36777
37669
36762
35691
36782
37478
35831
35367
37156
37590
36495
36683
37400
36525
35539
36408
37294
36451
35758
36754
37601
36761
36201
37356
37587
35874
35436
36709
36568
35450
36096
37356
36897
36308
37098
37313
36171
35707
36419
36557
35729
35726
36752
36886
36204
36313
36486
35577
35231
36547
36987
35544
35347
36935
37083
35844
35911
36865
36528
35692
36268
36856
35721
35014
36264
37100
36113
35599
36734
37076
35837
35673
36663
36328
35346
36040
37325
36889
36016
36848
37550
36538
36137
37107
36934
35753
36336
38051
37784
36442
36905
37884
37160
36543
37534
37886
36730
36800
38251
38100
36868
37416
38836
38581
37525
37863
38486
37655
37189
38494
39202
38166
37787
38994
39368
38527
38878
39760
39069
38608
39789
40315
39362
39180
40232
40339
39331
39432
40335
40024
39213
39656
40450
40027
39449
40169
40696
39811
39169
39687
39820
38927
38665
39655
39913
39119
39324
40231
39990
39415
39812
39961
39147
39173
40127
39813
38738
39166
40254
39889
38877
39188
39850
39196
38761
39829
40281
39091
38528
39585
39972
38966
38871
39678
39259
38590
39441
40235
39239
38194
38981
39870
39146
38591
39223
39356
38632
38745
39533
38948
37609
38050
39132
38482
37621
38285
38849
38388
38650
39744
39223
37560
37698
38890
38340
37091
37666
38847
38347
37819
39058
39671
38264
37662
38824
38849
37314
37293
38608
38384
37498
38202
38970
38094
37319
38205
38820
37629
36854
37907
38498
37682
37655
38820
38758
37674
38087
38795
37625
36955
38291
38878
37861
37771
38876
38746
37589
37862
38707
37862
36774
37623
38815
38267
37616
38628
39074
37754
37437
38673
38623
37436
37894
39411
39222
38213
38666
39419
39078
39098
39847
39336
37850
38332
40275
40136
38487
38739
40094
39710
38769
39556
40064
38625
38225
39978
40580
39438
39234
40089
39884
39118
39757
40529
39527
38761
39800
40377
39239
38679
39807
40294
39327
39290
40222
39887
38938
39406
40282
39624
38594
39092
39751
39132
38699
39227
39191
38369
38574
39769
39531
38149
38324
39517
39257
38296
38565
39046
38239
37764
38756
39079
37989
37779
38763
38742
37772
37979
38750
38209
37714
38667
38993
37662
37084
38269
38706
37677
37683
38579
38059
37345
38285
38912
37504
36420
37559
38369
37124
36593
37814
38264
37595
37664
38098
37461
36687
37215
37801
37156
36544
37111
37757
37363
37017
37649
37569
36447
36664
37891
37497
36340
36771
37568
36863
36412
37431
37665
36523
36477
37591
37298
35794
35935
37393
37378
36608
37414
38330
37378
36534
37544
37926
36501
36347
37873
37842
36687
37249
38423
37602
36504
37697
38728
37263
36511
38187
38929
37672
37533
38981
38954
37482
37702
38981
38511
