46992
46965
46985
47049
47067
46941
46944
47008
46993
47019
47036
47051
47081
47037
47080
47104
47050
47072
47075
47075
47137
47129
47147
47134
47101
47153
47134
47094
47132
47101
47114
47123
47103
47147
47129
47096
47112
47037
47023
47034
47000
46989
46917
46875
46897
46797
46738
46713
46668
46676
46627
46578
46589
46516
46495
46473
46424
46462
46445
46392
46412
46393
46412
46381
46325
46386
46404
46383
46414
46380
46397
46404
46376
46410
46390
46390
46481
46474
46480
46489
46482
46526
46507
46523
46623
46605
46612
46633
46631
46692
46698
46701
46784
46784
46782
46763
46750
46805
46785
46787
46865
46825
46834
46867
46838
46851
46852
46883
46947
46916
46964
47002
46947
46960
46960
46948
46991
46981
47009
47009
46997
47063
47045
47029
47111
47112
47136
47154
47148
47209
47205
47185
47226
47185
47195
47212
47185
47199
47165
47174
47266
47236
47213
47208
47197
47243
47237
47259
47331
47274
47273
47308
47300
47343
47344
47337
47391
47375
47402
47414
47388
47414
47384
47385
47456
47404
47392
47395
47339
47330
47297
47283
47302
47219
47204
47198
47129
47117
47069
47012
47009
46943
46939
46932
46875
46861
46796
46762
46798
46722
46692
46679
46620
46619
46603
46614
46657
46598
46624
46665
46631
46662
46673
46667
46707
46691
46726
46741
46722
46765
46746
46745
46806
46743
46727
46765
46787
46836
46829
46854
46913
46849
46884
46971
46972
47000
47015
47033
47062
47012
47063
47122
47101
47118
47112
47135
47197
47145
47148
47158
47113
47138
47144
47151
47189
47156
47216
47253
47190
47212
47225
47210
47258
47270
47304
47290
47267
47318
47281
47257
47314
47252
47237
47275
47278
47287
47228
47207
47266
47225
47236
47259
47230
47252
47240
47242
47293
47248
47253
47257
47225
47265
47253
47230
47283
47277
47311
47334
47314
47321
47279
47297
47365
47277
47274
47337
47306
47265
47201
47169
47179
47120
47161
47192
47115
47078
47024
46992
47023
46969
46940
46892
46843
46895
46883
46837
46842
46773
46770
46774
46746
46802
46807
46771
46776
46724
46747
46775
46750
46756
46724
46756
46840
46767
46750
46796
46800
46840
46850
46867
46900
46849
46905
46956
46907
46936
46957
46938
46966
46960
46990
46987
46996
47088
47085
47087
47166
47125
47129
47175
47192
47257
47264
47256
47300
47267
47273
47272
47243
47279
47267
47276
47338
47282
47285
47321
47300
47309
47295
47327
47407
47364
47387
47436
47419
47439
47440
47470
47539
47499
47526
47549
47487
47473
47459
47480
47537
47473
47472
47506
47504
47528
47479
47443
47491
47466
47502
47520
47471
47504
47524
47526
47544
47483
47513
47548
47523
47560
47562
47561
47604
47561
47584
47614
47598
47631
47605
47577
47614
47565
47565
47560
47507
47518
47479
47439
47467
47409
47387
47378
47358
47376
47324
47316
47378
47297
47261
47246
47180
47200
47212
47191
47187
47122
47123
47119
47097
47142
47105
47066
47112
47077
47088
47107
47083
47109
47105
47133
47200
47158
47201
47258
47222
47239
47269
47306
47348
47306
47364
47417
47385
47412
47427
47441
47478
47438
47496
47536
47476
47490
47516
47543
47594
47572
47631
47667
47614
47626
47628
47649
47705
47657
47685
47730
47703
47701
47667
47682
47757
47711
47715
47735
47709
47738
47727
47717
47767
47746
47787
47830
47819
47832
47797
47810
47866
47783
47790
47846
47808
47802
47799
47815
47851
47791
47802
47816
47779
47801
47783
47773
47808
47745
47762
47807
47809
47867
47858
47826
47873
47860
47866
47856
47857
47928
47893
47852
47892
47836
47838
47868
47853
47880
47850
47810
47831
47791
47809
47785
47697
47713
47708
47662
47664
47612
47602
47569
47525
47556
47515
47480
47511
47444
47448
47454
47377
47374
47372
47350
47353
47300
47321
47334
47307
47333
47294
47273
47327
47282
47288
47307
47277
47309
47308
47311
47375
47363
47404
47433
47403
47404
47359
47368
47461
47432
47436
47452
47429
47470
47485
47507
47572
47532
47539
47556
47534
47557
47529
47524
47570
47525
47583
47645
47581
47560
47567
47605
47669
47619
47608
47614
47627
47699
47665
47627
47696
47680
47673
47653
47622
47672
47655
47627
47675
47653
47684
47710
47687
47716
47698
47685
47709
47641
47681
47739
47702
47719
47727
47718
47738
47687
47701
47717
47716
47773
47744
47713
47758
47711
47722
47758
47743
47757
47729
47741
47811
47762
47765
47770
47716
47747
47761
47737
47732
47666
47678
47694
47667
47673
47620
47615
47675
47600
47587
47602
47542
47537
47503
47438
47433
47396
47400
47372
47332
47356
47305
47283
47314
47207
47179
47199
47137
47134
47147
47156
47166
47101
47123
47132
47082
47116
47124
47123
47159
47111
47124
47139
47107
47135
47126
47139
47211
47174
47176
47184
47159
47207
47219
47231
47292
47267
47296
47315
47282
47322
47337
47357
47416
47362
47356
47381
47390
47436
47400
47379
47434
47388
47397
47426
47408
47443
47437
47426
47454
47409
47461
47529
47523
47548
47527
47507
47524
47463
47513
47585
47577
47615
47602
47560
47582
47557
47569
47550
47524
47582
47566
47550
47598
47531
47521
47569
47594
47635
47587
47546
47595
47575
47618
47664
47635
47617
47568
47587
47664
47605
47610
47639
47597
47626
47651
47648
47657
47612
47655
47653
47563
47574
47585
47577
47588
47506
47483
47466
47414
47409
47330
47266
47291
47232
47222
47227
47186
47164
47077
47036
47092
47044
47019
46988
46919
46928
46904
46884
46934
46898
46874
46848
46829
46865
46810
46781
46861
46830
46818
46845
46860
46884
46839
46867
46982
46933
46890
46903
46920
46981
46970
46953
46987
46949
46991
47024
46973
46993
47014
47029
47051
46989
47018
47060
47042
47077
47078
47086
47130
47075
47089
47102
47051
47079
47096
47100
47125
47059
47057
47074
47062
47086
47056
47065
47124
47057
47073
47123
47084
47095
47124
47152
47168
47093
47126
47168
47122
47130
47117
47103
47129
47076
47085
47103
47086
47120
47104
47113
47174
47118
47127
47160
47122
47128
47112
47117
47194
47186
47193
47191
47179
47215
47170
47164
47255
47217
47193
47209
47211
47231
47174
47144
47180
47102
47078
47082
47035
47033
46988
46941
46960
46916
46919
46906
46854
46855
46797
46763
46813
46776
46780
46757
46663
46652
46621
46570
46590
46582
46614
46582
46506
46537
46562
46601
46653
46574
46586
46634
46610
46648
46669
46660
46689
46668
46693
46696
46679
46711
46673
46688
46783
46731
46715
46748
46748
46792
46787
46767
46786
46753
46811
46842
46782
46799
46819
46838
46880
46830
46848
46892
46918
46989
46959
46907
46941
46919
46952
46992
46989
47010
46970
46971
47030
46961
46956
46992
46977
47012
47021
47020
47048
47008
47059
47109
47095
47137
47138
47129
47152
47088
47096
47110
47075
47108
47104
47088
47110
47071
47121
47136
47062
47103
47143
47119
47122
47106
47150
47149
47126
47186
47164
47136
47186
47148
47153
47146
47088
47128
47154
47145
47170
47144
47177
47173
47115
47127
47109
47096
47097
47000
47023
47032
46889
46832
46846
46835
46808
46742
46761
46726
46630
46643
46641
46629
46643
46561
46555
46557
46481
46454
46419
46421
46465
46408
46427
46469
46438
46430
46397
46413
46495
46455
46446
46459
46458
46517
46517
46521
46592
46578
46608
46629
46606
46657
46665
46652
46670
46618
46657
46698
46669
46704
46702
46677
46709
46699
46756
46795
46777
46795
46761
46771
46853
46807
46798
46817
46791
46809
46818
46859
46902
46829
46882
46946
46867
46847
46897
46956
46983
46930
46995
47049
47016
47059
47079
47067
47089
47059
47100
47114
47077
47118
47108
47082
47120
47105
47160
47184
47130
47148
47133
47111
47174
47188
47221
47211
47167
47185
47154
47177
47280
47246
47247
47289
47278
47265
47203
47205
47285
47255
47282
47310
47272
47310
47329
47307
47300
47255
47296
47282
47182
47188
47182
47132
47108
47047
47072
47048
46946
46954
46947
46898
46897
46855
46861
46824
46753
46774
46742
46705
46735
46685
46690
46688
46638
46673
46677
46661
46699
46662
46658
46675
46707
46767
46708
46689
46778
46738
46729
46783
46813
46851
46822
46821
46875
46822
46846
46909
46910
46933
46913
46916
46978
46954
46990
47023
46999
47034
47020
47002
47065
47077
47128
47136
47093
47128
47122
47117
47157
47105
47122
47151
47132
47186
47206
47213
47279
47262
47251
47220
47197
47263
47247
47227
47290
47267
47282
47285
47240
47283
47312
47323
47336
47254
47263
47298
47274
47290
47277
47291
47334
47276
47320
47373
47320
47331
47334
47307
47327
47324
47372
47359
47317
47387
47379
47317
47330
47307
47337
47342
47314
47367
47356
47321
47351
47323
47352
47354
47283
47281
47249
47222
47267
47216
47157
47088
47048
47094
47034
46957
46991
46947
46908
46876
46842
46850
46795
46798
46870
46779
46723
46720
46679
46680
46659
46661
46707
46655
46653
46650
46611
46650
46663
46680
46727
46663
46663
46699
46704
46744
46724
46725
46790
46755
46774
46796
46768
46816
46846
46872
46939
46922
46939
46934
46913
46997
47017
46983
47008
47005
47066
47065
46993
47040
47079
47071
47078
47035
47088
47125
47093
47129
47130
47130
47196
47180
47188
47187
47186
47278
47291
47263
47296
47265
47287
47299
47267
47303
47299
47294
47330
47270
47281
47310
47275
47279
47265
47291
47351
47275
47263
47301
47307
47353
47339
47319
47351
47304
47331
47382
47388
47412
47366
47358
47431
47405
47438
47464
47421
47462
47488
47468
47468
47423
47453
47452
47394
47393
47331
47282
47318
47280
47288
47268
47174
47171
47170
47163
47177
47106
47103
47100
47030
46994
46911
46872
46925
46885
46876
46851
46780
46801
46809
46814
46854
46804
46818
46844
46827
46846
46806
46793
46857
46830
46863
46915
46908
46925
46908
46940
47035
47011
47031
47068
47046
47065
47065
47106
47181
47123
47135
47194
47200
47228
47225
47264
47350
47314
47337
47381
47356
47357
47331
47347
47418
47376
47385
47404
47373
47399
47405
47435
47499
47439
47440
47473
47467
47509
47488
47456
47495
47465
47477
47475
47449
47498
47491
47493
47565
47528
47518
47519
47503
47545
47511
47466
47501
47471
47493
47501
47466
47510
47501
47468
47504
47475
47479
47475
47461
47494
47439
47404
47455
47392
47374
47389
47362
47374
47349
47336
47347
47244
47222
47232
47186
47192
47150
47084
47080
47026
47026
47020
46988
46991
46914
46885
46954
46901
46880
46887
46851
46854
46811
46782
46830
46797
46799
46807
46803
46843
46810
46807
46885
46852
46857
46860
46812
46852
46883
46887
46902
46858
46914
46958
46926
46967
46980
46989
47065
47063
47073
47076
47092
47164
47129
47108
47192
47166
47157
47184
47207
47270
47254
47251
47324
47294
47301
47335
47341
47368
47317
47295
47354
47309
47319
47373
47401
47453
47422
47405
47490
47488
47493
47492
47486
47539
47520
47517
47568
47500
47511
47565
47544
47544
47522
47529
47572
47504
47503
47536
47534
47573
47556
47558
47619
47579
47606
47650
47639
47678
47680
47685
47734
47700
47738
47766
47721
47737
47723
47708
47740
47683
47676
47677
47647
47654
47589
47557
47600
47513
47456
47436
47393
47394
47336
47294
47322
47253
47229
47229
47201
47204
47129
47083
47141
47095
47057
47059
47073
47096
47022
47020
47105
47036
47029
47086
47091
47147
47174
47163
47181
47162
47210
47213
47168
47218
47236
47259
47327
47297
47332
47382
47382
47439
47440
47419
47470
47463
47492
47513
47524
47579
47556
47574
47658
47595
47597
47661
47650
47636
47616
47675
47781
47724
47702
47737
47763
47813
47771
47728
47757
47717
47763
47821
47795
47786
47745
47749
47813
47771
47797
47842
47832
47884
47899
47899
47941
47896
47892
47891
47887
47955
47938
47912
47961
47927
47942
47948
47912
47964
47969
47934
47970
47977
48024
48022
47990
48051
48048
48025
48049
47980
47980
47997
47956
47969
47939
47901
47917
47864
47876
47872
47810
47819
47802
47793
47834
47778
47778
47785
47733
47719
47657
47609
47611
47514
47497
47511
47471
47477
47444
47425
47467
47419
47409
47369
47280
47294
47292
47276
47302
47257
47269
47265
47220
47260
47268
47275
47332
47298
47322
47352
47333
47369
47368
47375
47434
47397
47416
47431
47388
47409
47400
47382
47396
47323
47330
47332
47272
47294
47298
47280
47302
47267
47296
47289
47217
47230
47223
47217
47251
47191
47198
47221
47203
47247
47249
47248
47288
47240
47272
47336
47346
47370
47350
47379
47454
47399
47435
47506
47481
47488
47492
47506
47545
47497
47519
47534
47501
47539
47527
47499
47512
47448
47475
47522
47506
47536
47533
47545
47599
47554
47579
47596
47547
47589
47611
47586
47595
47562
47589
47583
47542
47569
47517
47471
47528
47508
47505
47470
47398
47416
47387
47330
47337
47287
47278
47259
47213
47226
47185
47179
47228
47131
47082
47088
47062
47066
47026
47013
47052
46989
46992
47009
46972
46990
46943
46870
46900
46908
46931
46899
46865
46920
46885
46854
46947
46962
46979
46985
46972
47017
47008
47031
47123
47090
47091
47121
47112
47135
47124
47152
47217
47153
47162
47204
47178
47197
47205
47230
47293
47255
47262
47263
47235
47285
47280
47259
47300
47265
47275
47290
47282
47324
47291
47273
47343
47321
47338
47367
47357
47387
47364
47361
47422
47375
47375
47400
47385
47403
47373
47383
47460
47417
47415
47419
47371
47398
47416
47439
47490
47436
47440
47461
47449
47475
47435
47426
47500
47474
47494
47513
47485
47543
47561
47544
47593
47583
47569
47512
47484
47564
47536
47470
47493
47443
47432
47407
47328
47310
47258
47218
47231
47147
47104
47059
46987
47008
46997
46975
47000
46938
46909
46858
46780
46806
46798
46769
46788
46729
46721
46732
46714
46714
46667
46703
46792
46723
46756
46842
46790
46758
46766
46793
46833
46795
46816
46830
46835
46914
46908
46898
46976
46969
46999
47044
47054
47088
47063
47084
47164
47108
47112
47160
47147
47163
47157
47186
47261
47219
47220
47248
47252
47286
47250
47247
47327
47293
47291
47320
47320
47342
47309
47324
47396
47327
47313
47348
47328
47335
47320
47345
47394
47314
47319
47358
47332
47364
47374
47375
47422
47400
47417
47399
47349
47388
47388
47391
47439
47374
47374
47406
47394
47426
47421
47434
47477
47414
47449
47513
47499
47532
47532
47514
47539
47491
47487
47476
47446
47465
47396
47347
47388
47313
47265
47229
47158
47144
47085
47034
47048
46970
46930
46921
46897
46883
46790
46773
46844
46766
46736
46752
46713
46732
46734
46715
46717
46655
46672
46695
46686
46726
46691
46674
46748
46725
46728
46752
46760
46798
46754
46740
46819
46799
46813
46838
46827
46871
46868
46869
46933
46910
46926
46944
46931
46968
46950
46956
47028
46983
46981
47016
47016
47037
47004
47018
47097
47044
47030
47047
47045
47116
47118
47072
47101
47095
47117
47112
47109
47170
47143
47147
47241
47210
47213
47247
47238
47277
47280
47279
47318
47271
47282
47296
47268
47295
47290
47303
47333
47255
47303
47379
47315
47271
47274
47334
47389
47311
47320
47365
47356
47391
47369
47349
47415
47413
47426
47415
47404
47481
47479
47460
47499
47449
47463
47472
47407
47408
47389
47358
47373
47307
47287
47288
47282
47294
47203
47159
47213
47132
47090
47084
47038
47054
47029
46968
46956
46906
46919
46909
46867
46889
46849
46825
46875
46818
46808
46835
46830
46860
46839
46849
46926
46895
46906
46942
46940
46969
46959
46985
47025
46928
46948
47030
47012
47026
47053
47083
47107
47043
47081
47138
47135
47176
47161
47154
47222
47212
47246
47270
47247
47272
47258
47276
47338
47281
47297
47334
47299
47332
47362
47385
47436
47404
47415
47406
47370
47414
47410
47410
47460
47406
47434
47502
47497
47493
47459
47496
47588
47535
47533
47555
47524
47562
47587
47597
47628
47572
47574
47572
47544
47602
47604
47598
47665
47652
47661
47650
47615
47653
47640
47642
47714
47685
47694
47690
47632
47663
47684
47689
47705
47636
47661
47680
47623
47653
47668
47641
47627
47563
47588
47570
47471
47470
47456
47409
47384
47280
47251
47254
47233
47231
47158
47146
47209
47117
47078
47108
47086
47063
46990
46957
46996
46950
46963
46957
46880
46890
46900
46911
46962
46925
46925
46933
46935
46987
46947
46931
47014
46997
47011
47039
47036
47094
47096
47082
47123
47096
47132
47169
47156
47189
47178
47197
47270
47222
47229
47269
47266
47302
47271
47239
47305
47313
47326
47305
47286
47349
47341
47339
47393
47331
47348
47410
47401
47413
47409
47438
47491
47432
47467
47539
47537
47565
47556
47547
47574
47522
47556
47582
47532
47553
47556
47550
47572
47516
47540
47560
47527
47576
47572
47539
47583
47581
47605
47584
47548
47601
47576
47548
47627
47630
47641
47622
47574
47607
47602
47607
47659
47593
47582
47619
47616
47609
47552
47572
47643
47546
47508
47514
47449
47444
47416
47343
47308
47246
47235
47193
47137
47145
47073
47033
47081
47001
46961
46962
46920
46916
46886
46888
46933
46868
46862
46869
46821
46829
46803
46789
46846
46830
46851
46850
46824
46895
46919
46914
46951
46907
46927
46959
46956
47011
47010
47012
47080
47059
47088
47141
47158
47195
47175
47214
47314
47264
47261
47309
47311
47338
47318
47307
47344
47291
47303
47344
47347
47368
47324
47327
47407
47354
47335
47359
47363
47409
47400
47401
47443
47399
47457
47513
47464
47482
47507
47514
47546
47527
47579
47592
47559
47628
47629
47570
47575
47550
47584
47580
47545
47611
47605
47553
47594
47601
47637
47643
47636
47695
47667
47649
47717
47679
47683
47712
47712
47769
47774
47767
47802
47758
47792
47837
47818
47828
47788
47763
47791
47721
47721
47726
47651
47626
47576
47533
47543
47465
47429
47398
47351
47356
47291
47255
47300
47245
47248
47265
47206
47182
47129
47102
47156
47127
47116
47105
47087
47109
47063
47073
47142
47060
47061
47135
47139
47168
47159
47131
47151
47139
47202
47228
47189
47217
47231
47285
47366
47299
47311
47377
47374
47396
47394
47411
47466
47426
47463
47513
47511
47566
47581
47595
47648
47607
47636
47676
47664
47708
47709
47711
47767
47740
47769
47785
47742
47766
47760
47761
47813
47767
47767
47775
47754
47801
47795
47791
47854
47823
47835
47859
47839
47844
47804
47816
47873
47774
47752
47791
47751
47723
47695
47729
47803
47738
47714
47714
47691
47729
47728
47743
47799
47736
47742
47778
47752
47758
47737
47762
47840
47781
47760
47788
47805
47836
47763
47714
47776
47740
47711
47691
47666
47683
47609
47542
47553
47479
47467
47442
47339
47331
47333
47305
47280
47211
47245
47224
47097
47096
47117
47087
47063
46998
47018
47019
46973
46995
46977
46980
47022
46934
46923
46954
46924
46950
46957
46955
46988
46957
46996
47026
47012
47065
47087
47130
47203
47146
47161
47214
47210
47259
47282
47301
47358
47334
47366
47401
47399
47445
47453
47502
47579
47504
47524
47609
47601
47594
47589
47635
47695
47630
47657
47705
47670
47698
47730
47756
47794
47735
47750
47786
47792
47843
47830
47836
47894
47838
47859
47911
47894
47922
47914
47904
47959
47953
47988
48002
47975
47988
47928
47906
47979
47942
47947
47974
47952
47976
47976
48011
48098
48061
48066
48098
48098
48128
48096
48098
48168
48124
48130
48148
48113
48144
48148
48136
48150
48087
48113
48152
48126
48132
48091
48084
48142
48090
48079
48051
47961
47959
47932
47875
47874
47827
47818
47765
47692
47723
47703
47681
47725
47675
47665
47635
47555
47585
47594
47562
47578
47539
47538
47528
47527
47586
47550
47548
47642
47592
47557
47574
47579
47617
47604
47615
47650
47564
47591
47652
47615
47648
47701
47735
47790
47762
47755
47755
47796
47875
47820
47813
47918
47867
47852
47907
47913
47925
47906
47936
48015
47972
47983
48007
47986
48035
48042
48031
48062
48038
48096
48122
48064
48089
48098
48104
48179
48171
48162
48128
48114
48192
48186
48182
48246
48188
48177
48206
48198
48228
48187
48139
48171
48148
48173
48171
48135
48198
48212
48185
48200
48154
48173
48162
48098
48143
48175
48171
48174
48104
48140
48184
48162
48206
48207
48178
48194
48159
48203
48229
48187
48204
48184
48179
48227
48182
48207
48227
48173
48191
48189
48165
48174
48116
48119
48081
47972
47949
47910
47872
47879
47792
47757
47722
47647
47649
47625
47614
47652
47585
47577
47575
47515
47512
47492
47501
47553
47486
47472
47489
47472
47495
47459
47436
47472
47411
47414
47428
47392
47422
47423
47424
47473
47434
47449
47471
47461
47500
47482
47485
47551
47514
47543
47575
47532
47557
47564
47557
47594
47573
47611
47616
47578
47629
47626
47611
47681
47674
47675
47663
47660
47731
47712
47696
47769
47745
47754
47773
47766
47831
47836
47813
47850
47829
47867
47897
47895
47956
47949
47926
47948
47890
47933
47989
47958
47980
47977
47968
48030
48038
48061
48031
47980
48025
48031
48056
48119
48055
48079
48123
48062
48066
48105
48150
48199
48151
48159
48146
48098
48142
48144
48148
48231
48235
48262
48265
48237
48277
48257
48245
48298
48258
48280
48298
48235
48224
48182
48138
48145
48069
48029
47967
47884
47905
47890
47868
47900
47824
47774
47741
47716
47767
47732
47673
47688
47615
47583
47578
47575
47623
47586
47559
47608
47555
47560
47592
47580
47607
47582
47572
47634
47607
47622
47635
47619
47668
47664
47666
47736
47705
47711
47734
47734
47779
47759
47768
47864
47851
47862
47884
47873
47904
47885
47904
47998
47978
47995
48011
47971
47996
48007
48022
48052
47990
48031
48077
48031
48059
48092
48112
48143
48109
48172
48211
48166
48197
48200
48176
48195
48162
48208
48242
48202
48190
48140
48158
48244
48172
48140
48174
48184
48206
48154
48136
48210
48185
48197
48233
48247
48279
48219
48195
48271
48253
48279
48296
48250
48281
48288
48268
48280
48240
48287
48307
48253
48282
48291
48289
48316
48248
48244
48252
48212
48207
48153
48135
48162
48045
47988
47981
47932
47942
47922
47897
47911
47838
47826
47823
47791
47814
47767
47728
47775
47730
47712
47692
47644
47666
47647
47643
47691
47634
47645
47664
47617
47644
47658
47670
47734
47725
47756
47761
47731
47772
47752
47748
47840
47835
47847
47877
47900
47943
47897
47899
47972
47901
47895
47950
47944
47965
47978
48032
48108
48055
48061
48075
48030
48047
48049
48069
48132
48102
48140
48176
48157
48210
48219
48210
48254
48221
48232
48240
48237
48306
48294
48266
48299
48258
48301
48335
48278
48296
48320
48334
48364
48303
48312
48343
48350
48393
48350
48325
48386
48345
48356
48393
48384
48407
48375
48362
48420
48398
48444
48489
48457
48461
48436
48446
48517
48493
48532
48562
48521
48554
48561
48539
48553
48507
48534
48556
48525
48541
48509
48519
48590
48513
48467
48461
48422
48412
48344
48305
48343
48294
48306
48303
48219
48204
48187
48177
48204
48136
48128
48131
48106
48135
48092
48059
48118
48094
48106
48106
48072
48123
48136
48139
48192
48166
48201
48224
48206
48282
48310
48294
48324
48309
48362
48389
48368
48425
48423
48405
48461
48447
48478
48503
48499
48549
48516
48486
48555
48540
48543
48542
48542
48625
48631
48611
48640
48589
48619
48662
48655
48717
48724
48691
48720
48712
48756
48754
48712
48774
48786
48769
48819
48799
48821
48841
48834
48878
48852
48848
48911
48859
48873
48911
48878
48893
48899
48925
48975
48919
48943
48963
48909
48935
48949
48944
48957
48885
48907
48964
48981
49016
48966
48943
49008
48960
48951
48957
48918
48930
48901
48888
48942
48910
48935
48960
48930
48941
48904
48892
48935
48860
48846
48852
48799
48795
48748
48697
48692
48618
48630
48645
48594
48607
48591
48569
48570
48476
48475
48503
48471
48483
48452
48423
48432
48354
48366
48384
48326
48346
48365
48371
48382
48305
48329
48368
48331
48332
48308
48322
48401
48370
48391
48433
48433
48475
48466
48482
48546
48487
48493
48543
48553
48591
48552
48518
48584
48587
48611
48596
48556
48622
48637
48625
48667
48625
48625
48632
48624
48676
48661
48658
48720
48660
48638
48650
48639
48669
48645
48639
48679
48615
48640
48688
48653
48663
48663
48671
48702
48637
48653
48682
48650
48665
48634
48625
48692
48657
48650
48660
48651
48668
48618
48633
48733
48678
48657
48708
48738
48766
48715
48698
48750
48697
48713
48738
48697
48742
48774
48775
48807
48775
48789
48776
48742
48785
48749
48710
48751
48689
48655
48639
48604
48610
48550
48511
48530
48433
48407
48404
48335
48333
48310
48267
48257
48190
48207
48225
48195
48204
48145
48112
48165
48113
48101
48114
48102
48148
48143
48151
48225
48190
48192
48217
48227
48279
48260
48260
48314
48264
48305
48360
48320
48339
48334
48288
48292
48276
48315
48305
48274
48337
48319
48290
48362
48344
48333
48328
48330
48391
48360
48341
48414
48385
48393
48408
48394
48462
48475
48446
48475
48457
48495
48526
48530
48577
48561
48597
48695
48632
48623
48689
48700
48696
48647
48664
48728
48642
48613
48633
48610
48633
48632
48644
48662
48557
48553
48593
48580
48639
48674
48682
48721
48707
48765
48775
48722
48785
48828
48836
48890
48872
48891
48895
48883
48928
48886
48861
48923
48865
48837
48824
48782
48810
48783
48733
48736
48661
48623
48566
48493
48516
48481
48432
48451
48387
48369
48360
48335
48377
48348
48320
48380
48336
48286
48230
48195
48256
48224
48163
48202
48187
48205
48210
48189
48229
48216
48239
48329
48280
48273
48316
48337
48404
48410
48415
48471
48433
48446
48461
48443
48501
48489
48450
48506
48517
48539
48513
48467
48501
48479
48488
48567
48499
48464
48493
48507
48540
48520
48545
48603
48526
48557
48622
48568
48561
48570
48585
48657
48675
48699
48656
48615
48682
48663
48632
48683
48637
48634
48653
48632
48641
48604
48617
48690
48628
48617
48642
48622
48653
48644
48636
48680
48657
48708
48725
48665
48710
48742
48731
48754
48737
48786
48794
48744
48762
48748
48768
48835
48756
48723
48726
48681
48686
48656
48622
48619
48530
48522
48512
48429
48417
48378
48319
48302
48234
48257
48267
48198
48185
48165
48176
48188
48051
48024
48079
48059
48039
48002
48021
48068
47982
47990
48051
48045
48060
48031
48016
48062
48032
48064
48079
48043
48089
48104
48124
48210
48216
48257
48271
48244
48298
48302
48300
48368
48368
48423
48459
48432
48464
48440
48421
48493
48496
48514
48503
48480
48546
48534
48495
48531
48500
48523
48543
48532
48596
48584
48537
48570
48568
48622
48644
48618
48660
48652
48653
48712
48672
48688
48694
48655
48734
48789
48776
48791
48770
48798
48773
48742
48855
48895
48854
48870
48870
48956
48980
48908
48937
48966
48983
49040
49029
49087
49126
49110
49171
49180
49167
49203
49154
49158
49147
49089
49112
49079
49016
49022
48966
48948
48908
48837
48823
48741
48684
48702
48590
48511
48469
48414
48427
48386
48335
48348
48286
48276
48256
48207
48246
48234
48196
48214
48154
48144
48140
48111
48135
48096
48079
48138
48098
48114
48129
48073
48089
48111
48148
48205
48156
48175
48192
48148
48171
48161
48155
48208
48177
48194
48212
48204
48256
48237
48219
48275
48258
48309
48346
48303
48323
48324
48322
48368
48338
48361
48372
48339
48365
48340
48333
48392
48347
48358
48390
48378
48421
48428
48444
48497
48432
48422
48448
48459
48527
48531
48522
48539
48466
48504
48560
48518
48531
48523
48494
48527
48516
48536
48520
48497
48544
48497
48466
48528
48494
48522
48568
48545
48571
48564
48541
48556
48525
48594
48623
48542
48548
48578
48605
48617
48528
48547
48569
48501
48508
48483
48415
48411
48372
48351
48293
48249
48275
48186
48112
48139
48039
47976
47981
47972
47980
47924
47905
47944
47859
47847
47867
47820
47824
47794
47758
47794
47785
47809
47785
47737
47797
47806
47800
47859
47834
47859
47883
47865
47914
47921
47924
47960
47914
47976
48036
47982
47990
48009
48020
48051
48022
48077
48110
48083
48129
48125
48115
48175
48166
48205
48222
48184
48211
48179
48150
48216
48209
48216
48209
48205
48274
48235
48178
48241
48270
48334
48349
48304
48346
48376
48405
48443
48371
48398
48443
48390
48385
48379
48379
48400
48334
48354
48378
48355
48414
48416
48374
48387
48356
48387
48404
48399
48468
48435
48365
48393
48388
48440
48462
48422
48445
48425
48419
48483
48435
48410
48406
48396
48430
48388
48369
48419
48329
48269
48254
48206
48162
48064
48032
48065
47962
47932
47925
47822
47782
47765
47760
47787
47730
47719
47706
47676
47689
47615
47584
47654
47610
47600
47586
47508
47514
47533
47551
47577
47515
47552
47597
47553
47539
47520
47563
47644
47583
47589
47624
47604
47657
47687
47686
47713
47688
47741
47770
47747
47801
47811
47815
47866
47813
47816
47848
47856
47913
47908
47916
48002
47993
48020
48045
48025
48056
48058
48091
48147
48080
48134
48240
48231
48233
48241
48286
48361
48320
48328
48349
48346
48402
48394
48382
48412
48337
48345
48382
48355
48380
48383
48391
48439
48386
48383
48407
48412
48440
48396
48409
48501
48449
48446
48488
48471
48487
48484
48504
48554
48494
48506
48529
48485
48489
48479
48495
48533
48445
48442
48475
48428
48397
48319
48260
48271
48196
48164
48126
48050
48036
47979
47942
47962
47887
47901
47933
47877
47868
47866
47888
47913
47809
47785
47784
47738
47790
47818
47790
47780
47732
47779
47805
47762
47776
47756
47759
47818
47774
47802
47833
47785
47805
47822
47841
47889
47851
47889
47938
47945
47998
47978
47959
48022
48003
48019
48037
48029
48077
48065
48076
48155
48114
48111
48141
48139
48162
48140
48164
48232
48169
48194
48255
48218
48218
48226
48255
48307
48260
48281
48315
48312
48365
48354
48356
48446
48447
48469
48474
48440
48458
48427
48428
48482
48420
48439
48475
48426
48439
48438
48422
48464
48461
48490
48474
48448
48517
48501
48482
48577
48596
48622
48631
48611
48630
48561
48523
48603
48592
48595
48596
48568
48590
48561
48550
48564
48453
48440
48454
48368
48338
48309
48260
48241
48160
48126
48077
48025
48052
47987
47923
47960
47921
47920
47903
47840
47868
47863
47820
47807
47750
47798
47826
47764
47776
47792
47830
47900
47860
47870
47872
47836
47908
47956
47962
47993
47954
47987
48027
48035
48087
48061
48049
48123
48103
48128
48160
48161
48247
48279
48264
48297
48287
48344
48370
48346
48406
48419
48417
48467
48440
48488
48539
48526
48563
48554
48549
48610
48588
48609
48611
48557
48565
48572
48635
48715
48634
48632
48663
48621
48675
48739
48742
48738
48702
48763
48787
48754
48807
48808
48796
48841
48794
48799
48811
48789
48826
48801
48773
48816
48787
48820
48855
48843
48886
48872
48862
48925
48903
48918
48917
48878
48918
48924
48925
48962
48919
48979
49027
48954
48953
48975
48993
49024
48966
48964
48936
48856
48855
48827
48814
48829
48728
48715
48721
48628
48580
48532
48504
48518
48455
48455
48420
48315
48307
48292
48276
48300
48228
48204
48186
48156
48207
48180
48126
48151
48125
48156
48165
48127
48170
48174
48170
48220
48192
48228
48254
48224
48263
48265
48262
48311
48285
48336
48388
48368
48382
48367
48396
48475
48423
48423
48446
48421
48471
48519
48567
48599
48518
48559
48622
48579
48602
48641
48670
48695
48630
48648
48659
48626
48691
48704
48677
48727
48722
48736
48741
48750
48791
48728
48730
48836
48776
48756
48818
48834
48851
48824
48843
48917
48856
48832
48835
48815
48845
48822
48827
48904
48858
48840
48835
48804
48835
48812
48803
48866
48827
48824
48839
48838
48891
48876
48874
48930
48864
48861
48904
48912
48953
48929
48907
48947
48897
48912
48949
48942
48957
48899
48863
48895
48802
48750
48737
48698
48689
48625
48598
48625
48515
48464
48468
48432
48417
48358
48339
48365
48258
48219
48230
48200
48216
48187
48158
48172
48095
48093
48114
48096
48118
48078
48062
48129
48093
48081
48073
48050
48103
48108
48120
48186
48161
48211
48265
48230
48234
48230
48260
48313
48243
48259
48314
48305
48331
48319
48322
48377
48342
48367
48387
48364
48425
48452
48458
48495
48446
48462
48463
48420
48495
48534
48505
48515
48495
48537
48557
48545
48578
48539
48551
48646
48601
48604
48646
48637
48684
48689
48663
48681
48655
48694
48686
48626
48674
48688
48677
48723
48693
48696
48688
48672
48733
48703
48655
48707
48701
48730
48733
48689
48722
48706
48686
48731
48697
48724
48761
48750
48774
48743
48747
48818
48774
48777
48788
48741
48753
48736
48715
48725
48637
48606
48574
48504
48513
48481
48433
48424
48340
48336
48318
48223
48215
48192
48154
48167
48115
48112
48112
48094
48113
48051
48037
48088
47974
47917
47948
47956
47991
47966
47946
47993
47962
47973
47980
47957
47999
47988
47985
48020
47946
47971
48040
48043
48090
48096
48089
48139
48135
48181
48185
48155
48238
48272
48252
48269
48241
48309
48366
48332
48333
48308
48320
48383
48332
48351
48403
48407
48454
48441
48420
48467
48436
48446
48461
48468
48531
48512
48495
48537
48484
48518
48563
48509
48508
48520
48552
48606
48560
48579
48610
48597
48623
48579
48557
48618
48580
48579
48588
48570
48625
48627
48620
48670
48635
48648
48653
48627
48686
48694
48683
48736
48714
48732
48736
48703
48723
48685
48675
48740
48691
48685
48713
48708
48733
48695
48680
48732
48678
48665
48643
48560
48546
48496
48434
48432
48359
48323
48278
48222
48241
48180
48113
48130
48064
48049
48051
48012
48012
47960
47932
47947
47845
47836
47872
47842
47856
47832
47802
47841
47825
47852
47852
47839
47914
47889
47826
47876
47887
47909
47893
47877
47956
47951
47935
48013
48007
48020
48036
48034
48081
48058
48062
48149
48120
48121
48147
48142
48171
48155
48182
48248
48183
48212
48274
48246
48270
48270
48237
48261
48259
48300
48297
48276
48327
48289
48282
48379
48340
48298
48296
48310
48365
48331
48320
48401
48376
48382
48403
48394
48443
48441
48436
48478
48434
48465
48495
48454
48476
48485
48492
48507
48433
48475
48520
48462
48485
48512
48504
48510
48461
48491
48508
48504
48589
48591
48554
48593
48593
48657
48658
48579
48635
48672
48634
48653
48668
48706
48666
48624
48687
48649
48596
48647
48606
48577
48544
48489
48500
48451
48397
48410
48330
48279
48224
48150
48166
48141
48105
48108
48025
48025
48034
47968
47952
47915
47897
47937
47895
47911
47908
47849
47880
47888
47879
47901
47844
47867
47893
47868
47912
47910
47898
47950
47912
47905
47925
47952
48002
47954
47954
48035
47974
47986
48048
48035
48067
48096
48120
48171
48148
48185
48211
48214
48287
48278
48246
48272
48231
48280
48322
48275
48300
48309
48299
48335
48312
48331
48314
48276
48336
48341
48340
48411
48387
48395
48401
48375
48411
48387
48379
48465
48463
48477
48482
48469
48522
48510
48499
48535
48473
48504
48568
48547
48559
48543
48533
48562
48507
48521
48528
48491
48539
48558
48559
48577
48511
48553
48605
48571
48596
48587
48557
48592
48583
48615
48613
48580
48607
48570
48572
48657
48631
48664
48685
48616
48652
48707
48702
48689
48635
48665
48662
48605
48608
48548
48500
48513
48417
48394
48401
48343
48331
48286
48240
48238
48151
48136
48144
48118
48131
48063
48012
48069
48039
48026
48013
47982
47988
47915
47885
47966
47926
47897
47905
47919
47969
47929
47913
47989
47976
48014
48052
48013
48013
48008
48054
48133
48078
48092
48138
48128
48162
48146
48124
48177
48178
48222
48229
48208
48283
48285
48236
48253
48241
48308
48334
48273
48282
48265
48250
48301
48290
48336
48352
48301
48328
48347
48380
48430
48373
48422
48490
48443
48429
48425
48456
48522
48481
48498
48529
48520
48557
48525
48499
48547
48496
48484
48508
48520
48552
48501
48499
48578
48530
48534
48547
48485
48509
48546
48553
48547
48468
48500
48541
48520
48553
48537
48522
48561
48503
48497
48519
48531
48600
48583
48563
48636
48627
48638
48640
48612
48630
48573
48546
48624
48585
48537
48501
48463
48458
48362
48302
48339
48262
48226
48209
48150
48153
48106
48048
48074
48044
48028
47978
47934
47982
47945
47885
47891
47817
47831
47878
47856
47862
47829
47815
47859
47814
47831
47863
47856
47896
47869
47847
47900
47878
47914
47937
47902
47936
47929
47917
47978
47969
47994
48008
48017
48100
48097
48080
48138
48126
48170
48182
48124
48181
48222
48209
48240
48238
48273
48261
48237
48302
48269
48235
48333
48346
48329
48295
48289
48360
48324
48293
48385
48387
48383
48374
48364
48421
48405
48398
48463
48428
48437
48439
48387
48430
48442
48408
48414
48374
48394
48394
48374
48432
48413
48389
48445
48417
48437
48458
48425
48438
48409
48410
48490
48470
48483
48500
48479
48501
48479
48497
48561
48501
48531
48596
48559
48546
48528
48525
48548
48467
48445
48443
48413
48414
48338
48284
48296
48186
48138
48151
48120
48086
48001
47990
48060
47981
47932
47929
47903
47915
47871
47844
47875
47799
47780
47784
47747
47758
47717
47695
47752
47711
47689
47676
47662
47709
47692
47704
47778
47714
47696
47722
47714
47754
47745
47740
47802
47780
47784
47767
47732
47789
47777
47731
47755
47721
47738
47752
47726
47733
47685
47691
47771
47725
47742
47787
47751
47756
47761
47783
47821
47749
47749
47775
47769
47821
47814
47803
47852
47812
47815
47814
47800
47888
47907
47868
47899
47893
47920
47914
47896
47952
47931
47917
47968
47911
47924
47961
47928
47957
47970
47962
47978
47928
47958
47976
47934
47948
47937
47958
48022
47962
47980
48042
48044
48070
48053
48052
48109
48085
48127
48154
48113
48143
48146
48137
48165
48117
48143
48166
48129
48138
48094
48053
48065
47994
47999
48004
47934
47925
47888
47844
47842
47762
47745
47724
47661
47671
47646
47623
47633
47552
47567
47588
47514
47503
47491
47472
47489
47428
47428
47446
47462
47517
47468
47423
47456
47402
47439
47502
47476
47484
47477
47473
47502
47463
47519
47569
47536
47551
47556
47594
47667
47618
47640
47686
47668
47695
47691
47701
47759
47713
47716
47746
47754
47786
47752
47771
47854
47787
47771
47800
47790
47842
47859
47847
47865
47836
47897
47922
47867
47895
47902
47897
47935
47887
47882
47872
47849
47914
47921
47914
47954
47899
47906
47917
47875
47909
47923
47928
47968
47928
47957
47966
47918
47965
47977
47945
47963
47947
47990
47984
47924
47966
47987
48004
48057
48007
48019
48043
48020
48061
48057
48043
48088
48075
48131
48141
48068
48099
48130
48143
48187
48153
48165
48169
48156
48208
48157
48079
48101
48064
48053
48023
47954
47927
47848
47806
47825
47735
47736
47739
47627
47603
47623
47605
47573
47493
47513
47519
47474
47490
47452
47427
47457
47378
47374
47391
47341
47352
47346
47336
47368
47332
47370
47406
47386
47409
47381
47387
47472
47443
47446
47476
47476
47500
47467
47475
47535
47467
47480
47533
47509
47519
47517
47533
47595
47577
47618
47645
47632
47702
47707
47679
47731
47726
47739
47722
47702
47763
47757
47761
47824
47771
47787
47823
47788
47822
47844
47855
47921
47909
47901
47874
47875
47939
47891
47867
47942
47900
47906
47934
47894
47907
47899
47884
47913
47880
47906
47909
47876
47928
47925
47903
47934
47888
47908
47935
47916
47952
47954
47966
47994
47901
47912
47965
47938
47968
47989
47993
48018
47969
47995
48021
48003
48033
48008
48003
48051
47973
47956
47972
47927
47906
47833
47782
47809
47740
47686
47638
47602
47637
47579
47510
47522
47462
47463
47450
47375
47405
47429
47411
47418
47357
47340
47313
47285
47335
47315
47301
47334
47260
47288
47352
47321
47342
47365
47376
47411
47381
47412
47422
47393
47430
47415
47431
47538
47526
47525
47546
47562
47615
47593
47613
47720
47706
47728
47757
47729
47762
47769
47781
47856
47856
47887
47911
47910
47940
47901
47926
48021
47966
47976
48026
47992
48008
48034
48049
48058
47991
48034
48073
48038
48081
48095
48083
48115
48076
48092
48110
48112
48176
48166
48169
48232
48173
48174
48213
48205
48233
48197
48163
48229
48237
48257
48247
48228
48267
48207
48160
48223
48202
48225
48251
48220
48238
48232
48254
48312
48245
48246
48286
48276
48298
48283
48301
48367
48309
48301
48304
48249
48251
48210
48162
48167
48092
48060
48020
47945
47917
47812
47727
47757
47712
47688
47656
47601
47605
47548
47513
47564
47526
47534
47537
47484
47488
47456
47423
47440
47382
47400
47425
47398
47439
47440
47440
47494
47472
47519
47562
47546
47583
47568
47555
47618
47591
47590
47609
47636
47697
47647
47625
47717
47696
47693
47727
47755
47817
47810
47831
47900
47839
47857
47918
47902
47913
47897
47888
47912
47854
47881
47912
47891
47949
47974
47979
48020
47985
48016
48031
47995
48049
48069
48065
48093
48059
48119
48165
48135
48196
48228
48217
48253
48240
48268
48272
48258
48303
48269
48269
48355
48299
48266
48276
48270
48319
48311
48308
48372
48345
48347
48353
48347
48411
48416
48428
48483
48432
48476
48537
48498
48512
48527
48548
48619
48622
48662
48656
48600
48611
48569
48554
48628
48585
48554
48548
48527
48520
48429
48391
48438
48362
48355
48367
48275
48219
48172
48144
48141
48054
48043
48021
47946
47967
47958
47918
47924
47877
47900
47907
47850
47837
47791
47794
47855
47782
47775
47807
47771
47773
47749
47743
47798
47764
47762
47753
47726
47766
47762
47797
47882
47831
47849
47895
47876
47923
47943
47932
47978
47997
48065
48071
48034
48084
48057
48022
48105
48112
48094
48055
48050
48125
48092
48059
48123
48094
48118
48163
48150
48174
48162
48162
48204
48165
48222
48279
48250
48289
48310
48311
48344
48297
48301
48318
48337
48409
48365
48322
48400
48392
48391
48407
48423
48468
48413
48394
48473
48440
48458
48510
48508
48533
48504
48492
48552
48535
48566
48560
48503
48558
48577
48544
48569
48566
48617
48636
48634
48707
48675
48624
48695
48707
48716
48685
48640
48685
48679
48677
48716
48630
48611
48622
48575
48585
48540
48457
48441
48389
48376
48322
48254
48280
48233
48179
48218
48145
48072
48051
48061
48069
47953
47922
48016
47945
47898
47908
47880
47904
47908
47919
47972
47934
47933
47926
47908
47957
47926
47895
47946
47926
47967
47993
47950
47997
48032
48037
48069
48045
48106
48143
48116
48173
48204
48225
48274
48232
48266
48299
48262
48292
48294
48304
48373
48349
48349
48352
48371
48474
48479
48453
48499
48469
48497
48534
48534
48590
48572
48530
48565
48554
48601
48620
48579
48603
48601
48632
48709
48665
48682
48715
48679
48700
48701
48702
48734
48691
48734
48755
48683
48688
48697
48712
48754
48695
48693
48698
48671
48709
48695
48693
48757
48712
48714
48753
48771
48821
48787
48769
48824
48778
48794
48833
48824
48873
48875
48861
48891
48835
48830
48822
48783
48808
48777
48756
48789
48695
48636
48607
48559
48561
48496
48442
48467
48402
48374
48338
48258
48246
48200
48174
48222
48168
48135
48095
48046
48093
48089
48067
48095
48030
48016
48025
48020
48073
48048
48017
48067
48052
48094
48103
48038
48064
48084
48084
48113
48087
48151
48174
48111
48144
48171
48177
48226
48221
48268
48265
48212
48267
48295
48311
48384
48372
48390
48390
48362
48414
48413
48409
48469
48441
48470
48496
48461
48479
48469
48486
48555
48515
48530
48555
48533
48577
48585
48593
48636
48586
48603
48618
48586
48648
48679
48667
48679
48633
48672
48694
48650
48679
48684
48692
48726
48658
48682
48716
48666
48689
48715
48733
48771
48711
48706
48715
48706
48746
48729
48749
48812
48733
48745
48802
48762
48765
48779
48793
48814
48756
48790
48810
48752
48760
48736
48700
48701
48608
48578
48569
48514
48485
48391
48342
48370
48277
48239
48242
48196
48184
48151
48165
48208
48112
48098
48122
48071
48061
48048
48054
48069
47976
47985
48009
47972
48033
48058
48014
48025
48021
48044
48004
47973
48063
48064
48030
48060
48014
48059
48123
48109
48140
48140
48135
48179
48150
48182
48208
48198
48248
48230
48216
48289
48276
48285
48274
48247
48324
48330
48286
48324
48326
48358
48360
48351
48403
48361
48336
48412
48392
48417
48450
48425
48463
48484
48515
48577
48529
48540
48589
48613
48654
48605
48599
48699
48692
48704
48706
48671
48734
48757
48731
48743
48698
48718
48752
48777
48835
48781
48747
48820
48792
48798
48818
48801
48851
48863
48864
48899
48836
48841
48866
48848
48866
48832
48833
48896
48847
48878
48923
48872
48867
48848
48823
48838
48776
48765
48745
48687
48668
48578
48532
48573
48482
48422
48387
48310
48283
48232
48220
48268
48204
48187
48185
48135
48129
48077
48062
48132
48099
48092
48088
48058
48089
48069
48065
48120
48068
48076
48113
48117
48175
48158
48119
48173
48179
48203
48191
48171
48233
48231
48251
48338
48301
48318
48362
48354
48408
48424
48413
48442
48408
48438
48463
48454
48499
48479
48478
48536
48486
48521
48581
48558
48574
48576
48593
48650
48617
48641
48648
48606
48654
48669
48669
48720
48689
48702
48710
48691
48740
48725
48725
48812
48806
48825
48826
48792
48843
48821
48754
48787
48803
48846
48851
48835
48861
48804
48811
48915
48843
48793
48835
48869
48896
48830
48807
48889
48863
48864
48890
48903
48955
48939
48950
49010
48945
48961
48994
48944
48972
49012
49030
49062
49018
49031
49028
49005
49059
49031
48984
49008
48936
48901
48867
48789
48752
48672
48640
48683
48602
48567
48569
48530
48512
48439
48413
48476
48425
48396
48374
48328
48345
48299
48258
48302
48266
48261
48255
48230
48268
48239
48229
48310
48290
48294
48296
48269
48307
48304
48316
48383
48346
48372
48417
48399
48416
48402
48427
48514
48486
48502
48530
48513
48540
48523
48543
48646
48645
48663
48662
48624
48669
48678
48678
48719
48681
48724
48746
48689
48736
48779
48775
48780
48720
48732
48753
48767
48842
48819
48786
48824
48771
48778
48788
48732
48759
48797
48831
48844
48746
48776
48840
48807
48817
48801
48772
48787
48738
48748
48753
48741
48793
48755
48719
48785
48770
48780
48777
48742
48780
48760
48732
48776
48754
48794
48826
48803
48837
48831
48838
48889
48836
48853
48851
48769
48802
48840
48827
48849
48833
48854
48834
48807
48852
48784
48716
48762
48698
48626
48568
48521
48547
48497
48452
48496
48435
48388
48377
48379
48407
48334
48308
48382
48316
48271
48267
48241
48264
48246
48246
48283
48199
48186
48220
48211
48217
48180
48202
48283
48227
48240
48307
48317
48342
48320
48324
48389
48359
48386
48417
48393
48425
48427
48453
48525
48493
48533
48565
48521
48560
48591
48593
48616
48602
48694
48731
48654
48681
48713
48711
48744
48723
48754
48758
48734
48775
48749
48751
48824
48770
48773
48812
48785
48782
48746
48748
48815
48778
48786
48803
48789
48845
48840
48817
48852
48811
48824
48838
48821
48870
48853
48830
48875
48836
48843
48832
48772
48804
48812
48798
48809
48738
48757
48789
48758
48788
48796
48819
48873
48800
48790
48821
48817
48841
48807
48811
48887
48835
48821
48833
48815
48845
48807
48767
48813
48786
48778
48735
48671
48711
48693
48626
48591
48475
48425
48385
48307
48289
48238
48206
48209
48096
48082
48124
48096
48086
48047
48038
48072
48003
48009
48020
47957
47959
47953
47946
47961
47894
47925
47960
47918
47939
47944
47953
48006
47980
48015
48033
47997
48042
48043
48021
48054
48022
48049
48073
48067
48122
48121
48136
48207
48168
48192
48220
48163
48166
48178
48208
48252
48194
48232
48293
48281
48299
48271
48258
48312
48287
48320
48336
48294
48330
48344
48357
48405
48363
48394
48407
48340
48357
48343
48301
48344
48349
48351
48305
48288
48366
48339
48319
48394
48345
48329
48352
48342
48373
48378
48410
48442
48341
48369
48444
48404
48406
48417
48421
48458
48438
48473
48489
48491
48562
48544
48524
48580
48528
48520
48540
48522
48546
48533
48548
48595
48522
48536
48568
48493
48456
48433
48443
48468
48370
48329
48292
48210
48204
48161
48113
48129
48061
48026
48003
47983
48009
47943
47900
47945
47894
47916
47936
47856
47852
47869
47879
47896
47830
47830
47823
47794
47859
47852
47807
47836
47811
47824
47821
47803
47865
47856
47847
47918
47892
47896
47907
47896
47944
47920
47901
47981
47997
48037
48053
48020
48034
48018
48065
48151
48089
48112
48160
48106
48141
48207
48219
48216
48168
48197
48205
48178
48190
48140
48164
48253
48167
48160
48245
48257
48267
48244
48244
48292
48260
48298
48335
48322
48361
48347
48346
48416
48384
48395
48431
48434
48449
48391
48396
48488
48441
48438
48480
48475
48497
48459
48428
48479
48486
48566
48609
48554
48546
48532
48570
48653
48604
48617
48658
48649
48700
48712
48712
48756
48732
48778
48799
48738
48725
48676
48639
48647
48552
48523
48512
48451
48438
48390
48355
48352
48238
48212
48222
48171
48170
48139
48104
48109
48043
48069
48098
48048
48039
48000
47994
48043
47977
47963
47972
47949
47989
47982
47980
48031
47986
48000
48043
48056
48091
48031
47998
48087
48082
48065
48034
48026
48120
48118
48072
48108
48079
48073
48067
48074
48158
48153
48140
48198
48169
48211
48266
48261
48311
48313
48289
48326
48330
48406
48430
48386
48445
48473
48468
48518
48515
48557
48557
48514
48571
48606
48655
48746
48714
48731
48753
48730
48791
48817
48809
48840
48820
48869
48880
48820
48842
48842
48852
48914
48859
48831
48813
48778
48801
48778
48790
48846
48763
48759
48810
48801
48834
48835
48829
48871
48845
48876
48874
48811
48826
48815
48825
48879
48806
48792
48831
48844
48879
48837
48825
48892
48827
48768
48719
48647
48624
48566
48555
48583
48468
48428
48414
48322
48319
48327
48294
48269
48198
48211
48202
48144
48149
48110
48104
48150
48064
48047
48067
48031
48063
48075
48066
48087
48056
48115
48146
48105
48150
48153
48123
48151
48137
48188
48201
48159
48198
48197
48198
48266
48247
48274
48303
48298
48343
48323
48315
48384
48374
48425
48456
48418
48474
48512
48503
48518
48491
48544
48558
48521
48601
48653
48658
48686
48647
48682
48692
48633
48661
48679
48701
48762
48721
48736
48764
48751
48778
48750
48764
48862
48831
48813
48811
48792
48840
48832
48828
48876
48820
48826
48846
48812
48825
48802
48806
48874
48824
48809
48825
48835
48893
48873
48878
48965
48935
48940
48955
48927
48960
48952
48945
48999
48962
48963
48963
48944
49003
48996
48972
49005
48960
48984
48993
48915
48896
48863
48832
48826
48723
48698
48678
48594
48575
48521
48458
48441
48359
48366
48377
48338
48382
48372
48327
48354
48337
48353
48344
48335
48415
48403
48366
48403
48365
48394
48429
48402
48427
48427
48442
48482
48426
48480
48546
48508
48532
48547
48535
48553
48523
48558
48555
48515
48575
48588
48584
48633
48605
48644
48670
48621
48638
48642
48668
48742
48709
48711
48706
48674
48723
48712
48689
48744
48736
48766
48760
48712
48773
48799
48795
48835
48788
48781
48776
48769
48844
48839
48831
48931
48934
48914
48893
48906
48980
48944
48931
49017
48967
48936
48948
48938
48962
48929
48928
49004
48963
48954
48965
48956
49004
48990
48978
49017
48956
48978
49031
49028
49070
49059
49049
49106
49093
49133
49153
49125
49169
49168
49158
49188
49119
49131
49165
49128
49103
49015
48955
48985
48925
48904
48887
48833
48827
48767
48743
48792
48723
48696
48681
48629
48657
48644
48604
48616
48554
48525
48491
48462
48508
48471
48445
48506
48474
48504
48547
48529
48580
48621
48658
48697
48630
48659
48709
48681
48696
48686
48699
48766
48740
48774
48799
48765
48799
48799
48805
48874
48851
48865
48865
48852
48947
48958
48910
48976
49024
49059
49021
49020
49159
49168
49093
49113
49101
49131
49134
49118
49203
49223
49204
49240
49213
49255
49286
49268
49327
49340
49338
49381
49322
49308
49310
49297
49334
49295
49269
49327
49301
49349
49393
49349
49375
49402
49427
49463
49398
49423
49473
49464
49487
49469
49497
49584
49533
49532
49560
49541
49573
49567
49566
49601
49536
49547
49573
49540
49556
49526
49499
49513
49420
49386
49353
49263
49235
49162
49082
49071
49004
49018
49029
48974
48956
48891
48857
48884
48798
48793
48829
48800
48792
48749
48737
48772
48706
48727
48770
48734
48740
48721
48714
48749
48707
48762
48813
48789
48835
48826
48769
48799
48819
48867
48853
48831
48902
48884
48865
48947
48943
48990
49040
49027
49065
49068
49072
49123
49087
49124
49162
49130
49142
49131
49165
49250
49200
49202
49223
49195
49231
49221
49207
49273
49267
49280
49282
49283
49334
49295
49302
49404
49367
49378
49434
49441
49489
49486
49477
49530
49505
49512
49498
49472
49527
49493
49441
49481
49468
49514
49530
49487
49539
49558
49539
49562
49535
49592
49625
49601
49669
49677
49638
49679
49678
49701
49703
49705
49750
49683
49655
49725
49660
49647
49673
49629
49633
49599
49535
49520
49446
49405
49336
49270
49306
49259
49193
49201
49118
49097
49111
49093
49106
49045
49010
49065
49020
49015
49010
48964
48988
48970
48947
48986
48955
48982
48975
48905
48936
48965
48982
49011
48947
48988
49040
49000
49003
48991
49009
49091
49068
49081
49099
49097
49151
49132
49122
49185
49152
49191
49247
49227
49240
49208
49199
49273
49255
49256
49250
49247
49313
49263
49192
49258
49283
49303
49268
49221
49282
49286
49285
49359
49335
49347
49369
49358
49395
49390
49426
49514
49454
49444
49473
49457
49480
49468
49480
49536
49482
49505
49544
49515
49530
49511
49505
49549
49495
49502
49510
49481
49536
49544
49527
49565
49536
49575
49622
49627
49661
49606
49584
49684
49684
49679
49667
49654
49719
49700
49666
49709
49675
49696
49709
49672
49705
49664
49582
49582
49534
49509
49462
49412
49415
49333
49298
49342
49242
49213
49232
49165
49144
49129
49119
49138
49073
49064
49034
48980
49041
49052
49016
49020
48958
48975
48988
48953
49001
48992
48950
48977
48955
48995
49029
49024
49067
49046
49067
49183
49159
49135
49132
49126
49178
49153
49147
49249
49259
49269
49253
49218
49260
49239
49230
49302
49266
49261
49292
49311
49344
49283
49272
49356
49329
49372
49427
49394
49429
49454
49451
49487
49476
49520
49522
49501
49575
49559
49510
49569
49591
49645
49649
49613
49675
49684
49665
49706
49685
49736
49761
49702
49719
49733
49764
49825
49768
49777
49810
49792
49810
49781
49791
49874
49841
49861
49907
49899
49915
49881
49899
49993
49947
49924
49936
49942
49994
49963
49940
49996
49949
49933
49910
49845
49849
49806
49750
49731
49626
49615
49613
49535
49520
49483
49436
49425
49334
49326
49336
49299
49294
49228
49207
49274
49224
49226
49261
49239
49223
49152
49142
49222
49175
49161
49185
49196
49248
49230
49225
49282
49243
49284
49329
49282
49291
49298
49323
49382
49343
49372
49403
49384
49431
49432
49436
49499
49453
49444
49459
49473
49538
49509
49484
49541
49502
49518
49556
49550
49595
49596
49604
49645
49587
49618
49640
49576
49619
49659
49647
49678
49675
49705
49678
49662
49771
49787
49764
49807
49765
49786
49817
49795
49835
49828
49809
49842
49786
49778
49784
49791
49876
49871
49834
49862
49824
49872
49916
49882
49899
49878
49868
49950
49967
50006
50006
49980
50041
50045
50044
50085
50017
50042
50109
50104
50126
50089
50050
50086
50049
50041
50015
49964
49958
49863
49793
49814
49723
49678
49666
49614
49611
49566
49534
49537
49448
49454
49445
49340
49356
49403
49377
49312
49215
49271
49300
49218
49221
49223
49207
49219
49170
49219
49240
49165
49172
49195
49230
49278
49227
49281
49333
49274
49277
49302
49359
49443
49408
49418
49429
49406
49455
49459
49468
49514
49457
49505
49575
49548
49565
49561
49559
49619
49617
49657
49649
49598
49646
49642
49630
49694
49680
49699
49694
49647
49683
49694
49733
49829
49793
49793
49812
49812
49892
49901
49871
49913
49888
49885
49879
49880
49924
49869
49875
49995
49951
49905
49920
49933
49969
49934
49927
49959
49876
49915
49982
49919
49909
49923
49929
49961
49942
49994
50012
49978
50007
49983
49995
50075
50030
50042
50069
50023
50034
50018
49990
50006
49956
49970
49936
49830
49825
49788
49717
49702
49629
49610
49576
49518
49529
49457
49389
49434
49393
49360
49319
49266
49274
49210
49172
49226
49156
49112
49124
49147
49191
49128
49093
49159
49114
49103
49117
49100
49143
49154
49173
49202
49108
49127
49198
49186
49205
49193
49196
49276
49279
49305
49321
49332
49389
49344
49327
49405
49373
49397
49426
49364
49358
49365
49384
49402
49319
49350
49404
49378
49407
49412
49419
49476
49444
49459
49482
49485
49530
49493
49484
49552
49506
49522
49542
49479
49503
49547
49579
49612
49544
49550
49594
49618
49655
49609
49627
49709
49616
49590
49645
49643
49659
49638
49633
49685
49646
49644
49629
49593
49640
49638
49650
49728
49692
49696
49707
49684
49740
49748
49740
49785
49750
49762
49762
49738
49805
49807
49773
49796
49754
49773
49774
49713
49715
49678
49653
49679
49603
49593
49575
49481
49462
49433
49396
49390
49304
49297
49297
49244
49238
49182
49148
49163
49074
49091
49139
49100
49121
49136
49139
49163
49105
49120
49138
49121
49163
49149
49154
49212
49153
49169
49209
49179
49206
49226
49256
49315
49282
49323
49350
49316
49378
49416
49421
49461
49439
49482
49488
49438
49493
49536
49572
49625
49567
49587
49618
49586
49624
49640
49662
49731
49702
49713
49709
49673
49726
49743
49759
49816
49752
49743
49776
49787
49830
49802
49811
49894
49849
49858
49904
49905
49943
49933
49944
50021
49990
50003
50034
50028
50055
50014
50011
50090
50047
50045
50070
50064
50111
50109
50113
50162
50119
50160
50188
50125
50155
50201
50228
50252
50191
50233
50295
50289
50299
50261
50290
50396
50339
50302
50312
50317
50380
50373
50354
50384
50322
50332
50342
50293
50316
50300
50256
50241
50140
50117
50109
50063
50075
50017
49953
49960
49887
49881
49897
49869
49863
49794
49780
49853
49792
49769
49775
49741
49759
49729
49712
49773
49747
49746
49723
49676
49726
49745
49769
49824
49760
49785
49850
49829
49813
49772
49805
49914
49886
49892
49916
49906
49958
49964
49987
50087
50070
50044
50013
50003
50081
50069
50053
50133
50114
50117
50139
50133
50150
50124
50181
50274
50171
50152
50218
50188
50162
50151
50189
50223
50148
50204
50257
50168
50148
50169
50183
50189
50119
50156
50194
50178
50236
50212
50145
50168
50163
50196
50171
50104
50136
50130
50128
50169
50107
50130
50154
50087
50106
50150
50184
50213
50150
50181
50215
50192
50248
50268
50270
50305
50248
50263
50284
50249
50275
50269
50283
50346
50288
50282
50301
50277
50289
50240
50198
50193
50073
50039
50040
49971
49940
49883
49842
49843
49745
49733
49746
49698
49689
49631
49589
49610
49528
49500
49500
49476
49501
49451
49407
49447
49401
49408
49425
49396
49406
49371
49375
49433
49353
49339
49385
49396
49432
49395
49370
49436
49426
49454
49468
49435
49451
49440
49488
49575
49495
49490
49549
49537
49551
49556
49601
49673
49612
49608
49631
49630
49702
49713
49696
49729
49695
49739
49773
49743
49775
49766
49763
49815
49771
49790
49826
49812
49835
49818
49854
49956
49932
49962
49985
49934
49981
50026
50027
50035
49982
50009
50019
49982
50012
49982
49966
50034
49999
49997
49994
49957
49995
49991
49990
50043
50012
50052
50075
50009
50018
50026
50048
50116
50093
50122
50130
50082
50113
50131
50173
50232
50155
50161
50186
50122
50116
50101
50073
50074
50005
50006
49977
49884
49875
49834
49794
49815
49746
49726
49701
49632
49625
49571
49538
49582
49521
49499
49487
49446
49467
49427
49398
49453
49415
49409
49405
49388
49441
49411
49373
49428
49410
49424
49433
49423
49475
49450
49425
49479
49458
49512
49563
49523
49523
49509
49531
49606
49572
49597
49643
49648
49688
49650
49636
49730
49732
49738
49732
49720
49784
49781
49781
49833
49774
49788
49819
49780
49811
49844
49877
49911
49842
49877
49928
49900
49928
49929
49926
49958
49923
49987
50023
49957
49983
50013
50017
50035
49971
49978
49980
49953
50007
49994
49966
50010
49981
50008
50013
49959
49992
49999
49989
50014
49965
50013
50064
50038
50066
50059
50061
50119
50081
50092
50119
50113
50139
50110
50141
50227
50136
50087
50089
50045
50049
50005
49937
49919
49847
49835
49788
49694
49699
49674
49640
49648
49565
49560
49559
49493
49498
49477
49454
49480
49425
49428
49401
49311
49315
49308
49301
49342
49299
49327
49353
49321
49351
49332
49317
49376
49345
49349
49353
49333
49378
49373
49392
49460
49404
49429
49495
49481
49488
49483
49526
49595
49534
49559
49595
49551
49594
49641
49661
49696
49660
49687
49682
49655
49750
49767
49710
49735
49749
49807
49805
49770
49834
49827
49801
49852
49832
49873
49899
49857
49899
49928
49953
50000
49947
49982
50038
50029
50048
50011
49993
50041
50003
50043
50085
50044
50054
50051
50069
50115
50042
50050
50094
50079
50094
50043
50017
50088
50063
50046
50042
50057
50127
50090
50075
50160
50124
50110
50101
50053
50082
50082
50076
50112
50064
50079
50074
49999
49992
49958
49934
49958
49867
49815
49782
49732
49731
49636
49542
49547
49483
49469
49451
49378
49344
49264
49228
49273
49213
49216
49229
49177
49194
49185
49162
49189
49140
49144
49150
49135
49168
49143
49165
49238
49150
49129
49153
49110
49141
49176
49194
49230
49203
49261
49303
49287
49335
49334
49346
49429
49404
49415
49446
49457
49518
49511
49517
49571
49502
49512
49568
49561
49580
49570
49590
49646
49580
49591
49625
49601
49646
49657
49650
49683
49632
49636
49646
49642
49695
49651
49615
49697
49705
49727
49712
49664
49717
49728
49724
49787
49767
49774
49770
49757
49818
49788
49742
49775
49725
49739
49786
49790
49811
49764
49759
49829
49772
49773
49812
49791
49799
49788
49824
49893
49822
49831
49877
49855
49881
49898
49925
49957
49881
49915
49974
49941
49946
49926
49894
49872
49772
49793
49815
49719
49666
49619
49595
49588
49473
49455
49457
49394
49401
49379
49335
49331
49267
49281
49279
49219
49230
49198
49161
49170
49097
49122
49158
49109
49115
49117
49133
49171
49105
49130
49170
49130
49143
49152
49194
49261
49203
49227
49278
49264
49299
49304
49328
49416
49402
49411
49414
49394
49422
49400
49431
49507
49433
49456
49521
49482
49503
49540
49555
49588
49566
49609
49624
49611
49668
49651
49658
49754
49726
49719
49724
49703
49746
49732
49722
49804
49813
49842
49838
49802
49850
49845
49846
49914
49877
49886
49898
49867
49904
49903
49901
49943
49902
49948
49985
49936
49973
50016
50041
50051
49963
49994
50057
50048
50087
50099
50123
50175
50116
50138
50171
50138
50177
50188
50174
50184
50133
50184
50211
50137
50136
50134
50133
50152
50057
50027
50034
50017
50026
49942
49886
49928
49856
49817
49802
49752
49735
49668
49648
49706
49627
49578
49573
49553
49552
49472
49439
49492
49437
49465
49521
49482
49459
49401
49383
49465
49459
49449
49426
49428
49500
49466
49447
49531
49513
49550
49603
49587
49617
49620
49630
49672
49619
49649
49687
49663
49707
49713
49709
49766
49735
49736
49753
49764
49791
49730
49753
49862
49782
49760
49851
49891
49897
49846
49866
49956
49897
49866
49872
49872
49935
49933
49933
49996
49958
49965
49980
49976
50049
50047
50022
50077
50068
50084
50053
49998
50064
50063
50003
50018
50022
50095
50097
50024
50066
50076
50040
50063
50049
50096
50116
50089
50116
50083
50079
50136
50080
50119
50177
50122
50114
50109
50096
50110
50069
50120
50139
50079
50093
50059
50004
50024
49966
49918
49853
49798
49822
49759
49707
49726
49622
49579
49566
49491
49479
49456
49436
49458
49392
49380
49372
49338
49359
49307
49274
49330
49290
49300
49320
49289
49307
49273
49253
49314
49303
49346
49364
49326
49373
49376
49352
49383
49363
49414
49429
49379
49420
49438
49457
49539
49531
49550
49550
49524
49584
49596
49604
49656
49613
49657
49700
49647
49661
49670
49673
49706
49660
49685
49716
49717
49773
49738
49693
49740
49711
49719
49717
49696
49768
49787
49786
49837
49800
49816
49840
49839
49902
49880
49827
49843
49805
49845
49870
49828
49857
49838
49802
49838
49814
49833
49822
49783
49843
49841
49817
49858
49812
49805
49810
49806
49853
49812
49787
49850
49811
49821
49835
49795
49833
49841
49828
49858
49817
49832
49824
49769
49785
49739
49669
49633
49513
49502
49512
49420
49356
49296
49284
49297
49187
49171
49165
49068
49064
49070
49038
49017
48950
48969
48951
48870
48878
48856
48840
48875
48815
48832
48851
48798
48819
48814
48795
48835
48809
48824
48829
48823
48870
48824
48809
48911
48900
48889
48874
48853
48931
48938
48892
48908
48893
48951
48975
48936
48978
48989
49009
49077
49029
49029
49050
49040
49085
49085
49098
49153
49081
49074
49114
49122
49158
49123
49107
49177
49153
49170
49195
49181
49199
49166
49189
49280
49247
49288
49337
49277
49276
49308
49354
49395
49318
49314
49328
49299
49331
49334
49366
49425
49332
49303
49324
49305
49335
49323
49316
49354
49309
49354
49398
49362
49388
49382
49373
49437
49430
49457
49481
49487
49518
49462
49456
49511
49403
49377
49430
49393
49343
49271
49232
49216
49100
49085
49063
48948
48931
48913
48847
48820
48769
48771
48725
48669
48724
48702
48654
48677
48618
48615
48606
48531
48528
48515
48518
48559
48499
48504
48512
48466
48490
48467
48428
48458
48434
48465
48489
48465
48466
48415
48443
48549
48494
48496
48559
48556
48565
48544
48569
48673
48669
48662
48626
48587
48650
48661
48668
48739
48723
48768
48809
48791
48846
48868
48875
48933
48923
48974
49000
48952
48955
48930
48963
49069
49029
49004
49008
49001
49044
49027
49038
49116
49097
49158
49221
49201
49253
49285
49276
49296
49274
49330
49352
49314
49344
49318
49295
49344
49296
49305
49350
49356
49365
49295
49281
49353
49300
49319
49383
49365
49352
49321
49349
49416
49353
49380
49448
49438
49451
49421
49414
49482
49464
49480
49482
49449
49468
49424
49392
49393
49263
49227
49245
49185
49148
49089
49057
49069
48983
48963
48954
48903
48922
48901
48875
48890
48814
48822
48840
48797
48829
48828
48806
48834
48798
48819
48828
48805
48854
48844
48834
48883
48833
48849
48870
48829
48862
48870
48875
48938
48923
48948
48962
48967
49049
49039
49010
49075
49075
49113
49124
49092
49149
49169
49176
49229
49195
49235
49286
49269
49274
49239
49249
49307
49238
49265
49334
49312
49325
49333
49355
49397
49346
49389
49448
49447
49494
49485
49477
49538
49509
49526
49547
49537
49577
49549
49543
49611
49565
49561
49564
49524
49558
49554
49547
49605
49588
49612
49606
49564
49626
49640
49626
49675
49643
49646
49654
49663
49736
49708
49684
49760
49736
49737
49755
49752
49783
49743
49744
49829
49791
49789
49792
49733
49734
49735
49757
49782
49673
49654
49662
49585
49552
49502
49451
49426
49321
49318
49318
49246
49255
49250
49220
49198
49099
49117
49137
49056
49027
48993
48979
48997
48917
48927
48956
48921
48933
48904
48892
48945
48903
48912
48921
48898
48955
48946
48906
48948
48938
48963
48971
48962
49001
48954
48944
49031
48994
48997
49026
49001
49021
49011
49016
49058
49003
49038
49087
49063
49087
49074
49074
49148
49134
49142
49133
49123
49208
49219
49200
49233
49169
49170
49205
49212
49258
49217
49175
49224
49205
49238
49270
49267
49320
49312
49310
49373
49341
49365
49377
49329
49370
49375
49346
49386
49381
49405
49391
49367
49430
49425
49431
49493
49422
49425
49497
49513
49529
49487
49494
49581
49559
49577
49595
49565
49602
49601
49601
49649
49607
49624
49623
49564
49601
49606
49558
49522
49422
49419
49419
49351
49325
49251
49213
49270
49230
49213
49157
49059
49089
49101
49070
49092
49059
49056
49026
48980
48987
48933
48955
49041
48950
48937
48979
48921
48916
48942
48970
49011
48977
49003
49000
48970
49033
49024
48994
49048
49041
49082
49087
49029
49063
49086
49120
49199
49163
49165
49184
49185
49234
49195
49167
49243
49234
49248
49242
49205
49261
49258
49234
49306
49327
49362
49366
49364
49431
49396
49355
49392
49332
49348
49408
49413
49438
49407
49405
49488
49476
49494
49501
49481
49543
49554
49556
49598
49525
49514
49557
49577
49596
49509
49468
49549
49546
49592
49627
49576
49571
49555
49574
49634
49589
49625
49670
49645
49679
49669
49642
49685
49675
49709
49720
49706
49759
49731
49709
49770
49724
49714
49704
49655
49682
49646
49572
49562
49492
49451
49385
49318
49339
49276
49201
49214
49156
49169
49182
49116
49096
49057
49043
49070
49004
49035
49070
49014
49023
49016
49000
49047
49029
49040
49026
49006
49057
49032
49037
49121
49069
49064
49094
49064
49077
49080
49125
49209
49151
49137
49166
49183
49236
49205
49199
49284
49253
49236
49234
49225
49269
49249
49259
49342
49299
49301
49325
49311
49365
49370
49357
49411
49397
49410
49406
49405
49486
49473
49439
49475
49446
49508
49546
49477
49506
49549
49543
49554
49534
49601
49622
49585
49636
49630
49609
49658
49632
49658
49662
49605
49627
49634
49657
49723
49670
49665
49667
49640
49705
49739
49755
49794
49730
49744
49790
49793
49830
49812
49831
49914
49859
49851
49891
49899
49933
49909
49925
50014
49965
49940
49950
49937
49946
49875
49840
49895
49825
49779
49746
49682
49678
49627
49585
49600
49510
49473
49455
49409
49422
49380
49347
49370
49290
49275
49273
49216
49227
49220
49224
49261
49193
49203
49234
49214
49250
49240
49236
49310
49301
49320
49324
49314
49398
49423
49428
49477
49422
49431
49471
49475
49521
49507
49523
49622
49601
49594
49601
49599
49659
49655
49664
49723
49666
49686
49740
49727
49755
49755
49764
49797
49736
49781
49830
49793
49840
49875
49877
49904
49856
49858
49862
49872
49946
49910
49888
49987
49982
49981
49987
49989
50057
50041
50011
50054
50024
50059
50067
50004
50042
50070
50068
50103
50064
50069
50067
50058
50104
50059
50046
50127
50092
50113
50146
50103
50122
50116
50099
50157
50164
50201
50216
50235
50311
50269
50242
50323
50296
50301
50308
50255
50269
50258
50243
50276
50213
50189
50180
50160
50170
50080
50019
50044
49951
49920
49903
49815
49813
49803
49754
49734
49679
49699
49655
49556
49592
49597
49551
49563
49528
49530
49488
49432
49497
49497
49451
49458
49397
49419
49460
49454
49497
49485
49487
49569
49554
49569
49570
49532
49570
49567
49568
49632
49606
49638
49674
49669
49732
49721
49682
49724
49711
49747
49787
49799
49831
49780
49799
49902
49845
49852
49924
49929
49956
49939
49929
49994
49986
50001
49988
49972
50045
50036
50030
50118
50106
50121
50143
50133
50164
50134
50147
50243
50213
50216
50244
50231
50256
50228
50220
50263
50193
50203
50243
50214
50221
50194
50191
50251
50209
50221
50251
50248
50287
50251
50234
50289
50237
50241
50270
50263
50317
50309
50290
50340
50314
50327
50319
50288
50358
50367
50332
50334
50267
50290
50315
50257
50236
50171
50124
50140
50057
50029
50006
49934
49920
49857
49806
49831
49760
49722
49688
49642
49672
49642
49612
49644
49584
49598
49622
49563
49540
49501
49504
49542
49458
49468
49519
49487
49480
49454
49474
49551
49513
49532
49567
49551
49582
49569
49569
49607
49537
49563
49623
49606
49617
49605
49631
49704
49665
49693
49722
49688
49734
49762
49770
49798
49751
49792
49808
49749
49795
49831
49827
49835
49782
49824
49846
49810
49876
49899
49874
49916
49921
49967
49972
49951
50019
50033
50056
50120
50059
50089
50147
50105
50114
50128
50148
50192
50147
50157
50141
50086
50137
50151
50149
50200
50167
50184
50180
50134
50180
50185
50171
50212
50176
50204
50244
50238
50255
50216
50239
50328
50270
50278
50310
50248
50239
50227
50213
50253
50230
50235
50203
50161
50205
50173
50127
50099
49950
49927
49945
49836
49781
49750
49715
49714
49654
49645
49620
49583
49599
49519
49486
49565
49518
49500
49489
49425
49454
49480
49477
49481
49413
49438
49460
49427
49471
49471
49461
49499
49453
49480
49505
49472
49514
49519
49509
49544
49511
49565
49612
49598
49657
49674
49666
49699
49654
49677
49702
49696
49763
49754
49719
49771
49760
49776
49767
49751
49831
49831
49801
49846
49822
49846
49859
49834
49892
49898
49886
49934
49900
49921
49943
49928
49980
49976
49987
50069
50039
50040
50050
50043
50109
50097
50067
50115
50082
50081
50097
50117
50181
50135
50106
50194
50177
50163
50147
50108
50134
50139
50194
50268
50171
50159
50198
50169
50229
50292
50306
50323
50285
50321
50343
50338
50387
50342
50313
50371
50315
50309
50313
50260
50274
50234
50162
50175
50131
50072
49973
49910
49937
49866
49819
49853
49753
49729
49743
49664
49644
49627
49596
49610
49577
49591
49566
49513
49532
49492
49495
49565
49479
49444
49475
49482
49537
49533
49520
49571
49559
49603
49609
49549
49577
49596
49630
49687
49627
49655
49703
49673
49702
49732
49777
49826
49755
49781
49839
49825
49849
49831
49827
49897
49894
49943
49973
49948
49986
49975
49975
50037
50009
50051
50085
50046
50087
50100
50092
50153
50162
50200
50206
50191
50234
50195
50190
50270
50226
50244
50293
50264
50280
50299
50344
50401
50329
50332
50361
50338
50370
50367
50377
50417
50342
50352
50382
50351
50400
50421
50412
50428
50376
50403
50404
50346
50387
50387
50366
50432
50442
50468
50456
50430
50476
50459
50489
50591
50525
50495
50528
50528
50547
50516
50512
50536
50425
50397
50396
50321
50317
50301
50270
50271
50207
50211
50182
50095
50089
50041
49996
50027
49966
49940
49920
49882
49911
49882
49867
49911
49841
49848
49885
49853
49863
49847
49844
49877
49814
49838
49877
49852
49891
49899
49915
50001
49988
49991
49992
49994
50054
50032
50045
50138
50087
50084
50137
50150
50182
50154
50162
50258
50238
50224
50229
50244
50305
50281
50299
50394
50341
50340
50386
50371
50382
50366
50381
50429
50362
50388
50440
50415
50439
50445
50461
50503
50435
50451
50493
50480
50509
50500
50522
50585
50519
50534
50585
50562
50571
50555
50566
50614
50542
50552
50603
50604
50626
50578
50557
50630
50608
50624
50636
50607
50641
50644
50669
50716
50626
50644
50729
50730
50729
50692
50704
50777
50733
50748
50774
50751
50798
50801
50792
50830
50781
50788
50762
50676
50690
50654
50572
50573
50533
50509
50441
50378
50407
50329
50259
50335
50310
50244
50183
50168
50223
50178
50142
50157
50047
50061
50153
50128
50101
50087
50111
50124
50017
50046
50121
50098
50101
50080
50069
50108
50079
50132
50168
50126
50149
50152
50173
50232
50188
50234
50295
50272
50299
50312
50339
50393
50340
50365
50395
50360
50396
50406
50409
50442
50397
50457
50509
50465
50489
50504
50519
50571
50527
50545
50558
50536
50591
50574
50543
50614
50623
50654
50668
50673
50742
50711
50696
50789
50774
50775
50775
50754
50811
50797
50764
50819
50800
50797
50777
50766
50847
50835
50797
50835
50783
50782
50785
50749
50786
50762
50725
50781
50777
50800
50795
50759
50777
50723
50714
50797
50752
50757
50786
50761
50801
50809
50790
50801
50742
50768
50768
50684
50667
50635
50614
50616
50491
50449
50452
50398
50372
50292
50241
50269
50205
50193
50181
50111
50099
50068
50076
50113
49998
49958
49985
49974
49995
49953
49920
49969
49941
49960
49972
49953
50003
50000
50004
50061
50020
50064
50129
50112
50134
50131
50141
50190
50138
50168
50225
50226
50259
50239
50249
50314
50256
50257
50279
50254
50300
50314
50314
50341
50283
50306
50318
50269
50312
50323
50301
50326
50293
50324
50338
50313
50350
50330
50338
50422
50382
50381
50394
50368
50421
50436
50439
50487
50437
50430
50424
50403
50459
50445
50430
50485
50447
50476
50517
50497
50520
50498
50498
50566
50540
50583
50624
50590
50612
50606
50618
50689
50660
50673
50674
50640
50694
50697
50696
50776
50772
50789
50787
50769
50821
50776
50714
50738
50669
50627
50587
50539
50575
50521
50423
50411
50349
50338
50319
50260
50233
50149
50125
50164
50064
50069
50116
50039
49999
49970
49943
49962
49929
49946
49924
49885
49938
49903
49853
49895
49857
49867
49887
49881
49941
49917
49878
49939
49940
49964
49973
49967
50014
49974
49965
50054
50023
50026
50059
50060
50105
50102
50121
50181
50130
50165
50203
50145
50156
50173
50188
50226
50189
50237
50262
50212
50241
50244
50245
50294
50256
50286
50314
50292
50343
50342
50327
50376
50342
50355
50366
50354
50405
50399
50410
50463
50382
50382
50414
50365
50366
50362
50373
50415
50361
50376
50387
50348
50385
50378
50361
50395
50346
50373
50393
50353
50404
50436
50449
50485
50417
50417
50442
50428
50447
50425
50464
50537
50426
50398
50470
50480
50464
50374
50323
50352
50266
50207
50168
50130
50149
50072
50000
50028
49967
49932
49899
49855
49891
49859
49805
49812
49748
49758
49754
49687
49719
49733
49705
49694
49625
49657
49680
49633
49659
49668
49692
49759
49712
49724
49747
49719
49748
49734
49727
49763
49711
49756
49807
49761
49768
49762
49766
49820
49796
49828
49838
49799
49845
49850
49842
49883
49850
49901
49938
