18995
18924
18854
18788
18724
18658
18587
18514
18440
18357
18267
18177
18086
17991
17893
17796
17697
17596
17493
17390
17287
17182
17071
16957
16842
16725
16605
16487
16378
16285
16218
16193
16223
16314
16478
16736
17097
17562
18124
18777
19508
20293
21109
21929
22729
23487
24189
24821
25376
25848
26242
26560
26805
26987
27119
27213
27277
27315
27336
27343
27344
27343
27344
27342
27341
27341
27341
27342
27344
27349
27355
27353
27343
27320
27282
27221
27134
27022
26891
26742
26583
26421
26263
26114
25977
25861
25769
25693
25633
25586
25551
25527
25516
25511
25503
25489
25469
25438
25399
25354
25300
25233
25155
25067
24971
24872
24769
24660
24543
24419
24294
24160
24015
23865
23713
23560
23406
23255
23108
22962
22816
22672
22534
22401
22273
22148
22024
21899
21774
21654
21543
21439
21344
21259
21179
21101
21025
20952
20879
20802
20725
20646
20564
20479
20397
20315
20229
20138
20046
19951
19851
19751
19653
19551
19447
19347
19243
19127
19008
18894
18782
18672
18565
18460
18357
18257
18158
18058
17967
17894
17849
17848
17908
18040
18254
18557
18961
19470
20074
20757
21501
22286
23086
23881
24648
25364
26013
26586
27083
27502
27842
28110
28311
28453
28549
28609
28641
28651
28643
28628
28612
28596
28584
28576
28567
28556
28549
28547
28546
28546
28542
28528
28497
28446
28376
28285
28172
28035
27876
27706
27530
27349
27171
27012
26878
26768
26681
26622
26586
26566
26559
26562
26569
26576
26579
26574
26552
26512
26455
26387
26305
26214
26115
26007
25893
25779
25666
25550
25425
25293
25160
25028
24895
24757
24615
24469
24319
24165
24015
23873
23736
23604
23476
23351
23227
23104
22987
22874
22769
22672
22578
22486
22399
22320
22249
22179
22109
22042
21976
21917
21867
21816
21753
21681
21603
21518
21425
21329
21233
21138
21037
20928
20813
20702
20596
20490
20377
20261
20145
20027
19905
19782
19661
19538
19415
19294
19175
19053
18937
18829
18733
18654
18606
18604
18661
18790
19006
19320
19732
20243
20843
21515
22246
23019
23809
24590
25335
26021
26638
27172
27618
27982
28270
28487
28638
28730
28778
28794
28787
28763
28728
28689
28650
28617
28587
28553
28520
28497
28478
28456
28430
28404
28370
28325
28268
28193
28089
27953
27788
27602
27403
27198
26992
26794
26613
26453
26318
26208
26125
26067
26029
26011
26009
26016
26020
26017
26006
25988
25959
25913
25852
25778
25695
25602
25495
25380
25258
25121
24974
24825
24675
24522
24363
24200
24033
23866
23704
23550
23394
23234
23071
22908
22749
22595
22446
22303
22166
22032
21898
21766
21639
21517
21401
21290
21181
21077
20977
20876
20774
20679
20588
20496
20404
20313
20222
20135
20048
19952
19850
19748
19642
19530
19410
19286
19163
19035
18904
18773
18645
18524
18401
18272
18140
18008
17877
17747
17618
17488
17363
17249
17150
17076
17043
17061
17140
17294
17533
17865
18292
18815
19427
20113
20853
21620
22392
23150
23872
24538
25134
25653
26096
26457
26738
26951
27108
27215
27278
27304
27298
27265
27214
27155
27089
27021
26958
26904
26863
26835
26815
26799
26778
26746
26695
26623
26528
26414
26284
26132
25955
25760
25557
25355
25167
25003
24864
24751
24666
24611
24583
24574
24580
24597
24614
24626
24635
24637
24626
24606
24577
24537
24482
24411
24323
24221
24106
23984
23855
23719
23578
23428
23270
23108
22947
22784
22619
22454
22287
22116
21944
21779
21621
21466
21316
21171
21029
20892
20770
20665
20567
20475
20393
20316
20235
20151
20068
19983
19898
19814
19732
19652
19572
19491
19408
19324
19244
19167
19093
19020
18943
18860
18774
18684
18586
18481
18370
18254
18136
18017
17900
17786
17673
17560
17447
17341
17248
17177
17143
17162
17242
17395
17633
17960
18378
18888
19487
20161
20894
21665
22449
23220
23956
24641
25256
25787
26228
26583
26855
27057
27200
27297
27354
27378
27378
27361
27330
27284
27229
27175
27127
27084
27046
27018
26999
26982
26962
26933
26892
26833
26751
26646
26519
26373
26214
26044
25864
25685
25520
25376
25251
25150
25077
25031
25009
25007
25019
25041
25066
25085
25101
25112
25117
25110
25082
25035
24974
24904
24831
24750
24655
24549
24434
24310
24181
24054
23930
23799
23660
23521
23380
23233
23080
22927
22773
22618
22460
22301
22144
21995
21849
21709
21580
21460
21345
21238
21143
21056
20971
20888
20804
20721
20642
20570
20505
20441
20378
20318
20258
20196
20132
20063
19985
19897
19804
19711
19622
19532
19439
19346
19251
19150
19043
18936
18833
18727
18617
18506
18394
18279
18165
18053
17948
17850
17757
17681
17638
17642
17705
17844
18068
18390
18817
19348
19977
20693
21476
22301
23142
23975
24776
25519
26185
26766
27259
27666
27990
28233
28404
28517
28581
28612
28622
28615
28596
28568
28538
28510
28484
28457
28433
28414
28402
28395
28391
28386
28370
28342
28302
28246
28170
28072
27947
27794
27624
27449
27271
27091
26918
26766
26639
26537
26462
26417
26395
26390
26396
26405
26411
26415
26413
26402
26382
26354
26315
26260
26189
26105
26015
25920
25819
25717
25614
25510
25399
25278
25148
25014
24875
24732
24588
24444
24303
24163
24024
23887
23752
23615
23484
23360
23234
23106
22981
22861
22741
22624
22515
22422
22347
22288
22243
22203
22164
22124
22085
22046
22005
21960
21915
21873
21829
21781
21730
21677
21621
21563
21500
21433
21368
21309
21255
21203
21149
21096
21042
20987
20938
20897
20862
20836
20820
20808
20801
20799
20802
20813
20837
20883
20963
21093
21288
21564
21939
22429
23039
23764
24588
25497
26473
27492
28519
29526
30487
31379
32193
32921
33554
34092
34547
34925
35232
35476
35678
35845
35984
36105
36218
36325
36429
36533
36639
36749
36865
36991
37131
37288
37464
37658
37864
38075
38290
38507
38725
38943
39153
39354
39552
39752
39966
40202
40467
40765
41103
41482
41909
42392
42940
43566
44285
45093
45983
46955
48009
49136
50327
51581
52903
54289
55695
57050
58350
58383
55240
49303
42361
35676
29952
25352
21734
18789
17015
17657
19841
21572
23218
26127
30619
36212
42150
47830
52890
57145
60543
63117
64956
641
1366
1716
1797
1698
1493
1235
965
709
481
291
140
26
65481
65427
65396
65381
65379
65384
65393
65405
65417
65429
65439
65448
65454
65459
65463
65465
65467
65467
65467
65467
65467
65466
65466
65465
65465
65464
65464
65464
65464
65463
65463
65463
65463
65463
65463
65463
65464
65464
65464
65464
65464
65464
65418
64936
62957
59331
55142
50383
45700
42890
41613
40480
38975
37064
34860
32465
29942
27362
24834
22446
20251
18280
16549
15051
13771
12688
11776
10999
10326
9731
9195
8708
8261
7851
7476
7137
6830
6549
6290
6048
5821
5607
5405
5209
5013
4815
4615
4419
4231
4055
3899
3769
3666
3590
3542
3520
3515
3526
3548
3579
3610
3637
3661
3687
3716
3750
3788
3836
3895
3961
4035
4115
4198
4284
4367
4443
4506
4556
4593
4615
4618
4607
4585
4556
4526
4493
4455
4414
4372
4327
4271
4202
4126
4049
3969
3887
3802
3714
3619
3518
3412
3305
3198
3090
2982
2873
2766
2665
2573
2487
2403
2319
2237
2160
2089
2025
1966
1906
1840
1768
1692
1612
1528
1444
1356
1264
1175
1090
1000
901
796
688
588
493
1714
4993
8017
9329
9445
8802
7749
6550
5390
4392
3622
3109
2850
2829
3012
3352
3803
4327
4889
5452
5991
6488
6932
7315
7630
7878
8063
8193
8278
8326
8352
8367
8377
8386
8392
8390
8387
8389
8392
8393
8397
8402
8402
8396
8383
8360
8322
8265
8190
8104
8009
7902
7789
7674
7566
7471
7391
7326
7280
7258
7261
7287
7335
7396
7455
7512
7569
7621
7661
7685
7694
7693
7683
7663
7629
7579
7518
7447
7367
7284
7196
7104
7011
6923
6837
6749
6661
6575
6488
6396
6295
6184
6070
5964
5866
5780
5709
5652
5600
5544
5484
5423
5363
5304
5249
5198
5154
5116
5076
5037
5003
4976
4951
4931
4912
4891
4864
4831
4796
4762
4723
4680
4639
4601
4566
4529
4491
4449
4403
4352
4297
4242
4188
4132
4079
4029
3978
3922
3867
3819
3791
3790
3822
3900
4035
4238
4513
4862
5280
5768
6316
6909
7528
8161
8796
9424
10025
10584
11087
11526
11902
12218
12476
12679
12838
12960
13051
13123
13179
13221
13255
13286
13314
13340
13369
13402
13437
13464
13482
13499
13522
13546
13561
13558
13538
13502
13450
13385
13309
13221
13122
13017
12913
12818
12735
12663
12608
12573
12556
12550
12554
12572
12603
12638
12671
12700
12721
12730
12724
12700
12659
12606
12545
12477
12400
12318
12235
12149
12052
11954
11865
11782
11701
11615
11527
11442
11352
11252
11143
11028
10915
10813
10719
10632
10550
10470
10386
10298
10206
10114
10024
9935
9851
9773
9703
9642
9589
9545
9503
9462
9423
9386
9352
9315
9272
9226
9177
9126
9074
9018
8956
8895
8833
8766
8694
8617
8541
8471
8402
8332
8263
8192
8113
8025
7935
7848
7765
7681
7591
7498
7412
7342
7289
7257
7254
7285
7355
7479
7680
7960
8316
8741
9231
9772
10353
10966
11601
12240
12861
13443
13976
14450
14857
15195
15470
15696
15879
16021
16124
16194
16245
16285
16319
16351
16380
16404
16423
16437
16450
16470
16499
16532
16563
16589
16611
16632
16647
16648
16629
16594
16538
16457
16357
16248
16132
16007
15875
15748
15631
15529
15451
15402
15375
15363
15357
15356
15367
15386
15403
15406
15393
15360
15312
15255
15191
15121
15050
14979
14896
14799
14697
14592
14485
14374
14257
14141
14028
13919
13819
13723
13622
13509
13386
13265
13154
13041
12923
12805
12687
12570
12456
12352
12258
12168
12083
12010
11945
11880
11822
11775
11728
11674
11615
11553
11485
11413
11345
11287
11234
11173
11104
11031
10960
10889
10815
10747
10684
10620
10551
10471
10380
10286
10190
10091
9989
9887
9786
9688
9590
9488
9390
9296
9207
9121
9034
8945
8858
8781
8721
8688
8689
8736
8840
9009
9244
9546
9915
10346
10830
11361
11924
12492
13056
13608
14138
14631
15072
15450
15764
16021
16226
16387
16513
16607
16671
16703
16712
16712
16712
16718
16728
16739
16745
16747
16745
16744
16743
16739
16735
16732
16726
16712
16680
16628
16556
16462
16345
16209
16063
15916
15776
15654
15547
15448
15362
15294
15239
15196
15167
15153
15150
15147
15139
15127
15112
15094
15069
15027
14975
14913
14838
14750
14648
14539
14430
14317
14196
14070
13945
13818
13685
13551
13422
13304
13193
13085
12977
12873
12770
12660
12547
12437
12326
12210
12084
11954
11826
11698
11567
11442
11329
11228
11138
11059
10990
10927
10863
10792
10716
10643
10579
10514
10436
10346
10254
10167
10080
9991
9903
9812
9712
9614
9522
9429
9336
9239
9140
9044
8946
8840
8723
8593
8453
8315
8188
8078
7981
7895
7816
7740
7675
7641
7654
7726
7858
8061
8340
8683
9074
9506
9976
10476
10986
11485
11965
12423
12851
13235
13575
13873
14127
14331
14487
14599
14674
14725
14761
14777
14779
14777
14777
14781
14790
14792
14785
14779
14777
14781
14791
14806
14820
14821
14801
14755
14687
14592
14468
14322
14170
14025
13890
13768
13661
13567
13482
13409
13356
13323
13306
13298
13295
13302
13316
13336
13355
13357
13342
13318
13289
13256
13213
13149
13062
12961
12851
12738
12629
12527
12439
12360
12277
12189
12106
12024
11937
11849
11761
11667
11567
11465
11362
11252
11132
11009
10890
10768
10643
10521
10413
10325
10249
10171
10091
10008
9929
9861
9798
9726
9648
9574
9505
9435
9369
9311
9249
9175
9097
9022
8952
8883
8820
8756
8687
8618
8549
8476
8396
8311
8222
8127
8032
7942
7854
7770
7703
7668
7670
7717
7813
7962
8172
8444
8768
9137
9548
9995
10466
10949
11427
11891
12329
12731
13092
13414
13693
13931
14134
14304
14439
14543
14623
14681
14728
14765
14799
14828
14847
14856
14865
14875
14888
14905
14921
14932
14937
14930
14909
14877
14832
14769
14691
14598
14493
14381
14267
14158
14059
13970
13896
13839
13799
13771
13753
13745
13747
13756
13767
13775
13774
13767
13759
13750
13731
13702
13669
13625
13567
13500
13425
13350
13270
13178
13081
12987
12897
12809
12719
12624
12525
12426
12331
12234
12133
12027
11924
11820
11714
11612
11515
11419
11325
11233
11141
11055
10974
10894
10821
10757
10702
10659
10617
10567
10514
10459
10403
10347
10288
10230
10174
10115
10053
9995
9940
9889
9838
9779
9706
9624
9540
9459
9378
9303
9232
9160
9091
9018
8938
8850
8755
8661
8574
8501
8451
8433
8453
8522
8650
8838
9080
9374
9716
10102
10532
11001
11498
12013
12534
13044
13529
13974
14373
14719
15009
15247
15448
15623
15768
15888
15989
16077
16155
16218
16264
16298
16324
16342
16357
16371
16393
16426
16459
16487
16514
16536
16551
16563
16565
16541
16495
16432
16348
16247
16141
16038
15937
15841
15755
15677
15607
15558
15535
15521
15504
15488
15473
15460
15455
15458
15453
15429
15393
15358
15321
15278
15229
15176
15121
15054
14980
14901
14814
14723
14636
14551
14458
14352
14235
14116
14011
13924
13850
13775
13691
13603
13510
13410
13300
13190
13091
13006
12928
12844
12753
12661
12573
12497
12432
12370
12308
12250
12191
12124
12051
11983
11930
11885
11831
11768
11708
11653
11594
11527
11465
11403
11333
11257
11185
11118
11046
10967
10889
10815
10736
10647
10557
10473
10393
10314
10234
10154
10076
9998
9922
9851
9795
9766
9769
9807
9890
10033
10242
10518
10857
11248
11687
12167
12678
13201
13716
14211
14682
15119
15515
15870
16181
16448
16677
16872
17040
17190
17321
17430
17514
17575
17618
17651
17686
17731
17779
17826
17881
17942
18001
18052
18091
18118
18134
18147
18152
18148
18134
18104
18057
17996
17922
17831
17733
17636
17541
17446
17355
17275
17214
17172
17146
17135
17130
17130
17131
17129
17120
17107
17088
17061
17024
16974
16913
16848
16780
16713
16648
16589
16531
16462
16379
16291
16197
16098
15997
15897
15794
15687
15577
15467
15360
15257
15156
15057
14958
14860
14770
14689
14615
14539
14457
14374
14296
14224
14156
14087
14016
13951
13893
13833
13773
13715
13656
13597
13540
13484
13425
13363
13299
13235
13169
13100
13029
12957
12881
12798
12711
12625
12538
12449
12360
12268
12172
12076
11986
11895
11805
11716
11625
11538
11453
11367
11287
11214
11152
11113
11111
11158
11265
11434
11661
11944
12287
12688
13129
13588
14056
14533
15011
15475
15909
16306
16665
16985
17263
17497
17693
17856
17988
18091
18171
18237
18295
18345
18384
18414
18444
18477
18510
18535
18551
18563
18569
18567
18560
18549
18532
18511
18486
18446
18386
18314
18234
18138
18031
17921
17803
17677
17553
17446
17366
17310
17264
17222
17183
17146
17120
17108
17109
17112
17105
17080
17044
17002
16951
16893
16832
16770
16708
16634
16541
16434
16316
16197
16086
15989
15903
15818
15729
15626
15514
15400
15285
15168
15050
14932
14813
14696
14585
14487
14400
14313
14217
14119
14028
13946
13863
13779
13700
13624
13545
13459
13370
13277
13182
13095
13020
12959
12903
12844
12784
12721
12650
12576
12506
12438
12359
12262
12157
12056
11966
11886
11806
11713
11610
11506
11396
11276
11154
11040
10930
10818
10704
10596
10501
10424
10357
10299
10262
10250
10264
10306
10384
10512
10699
10948
11261
11642
12087
12578
13099
13632
14158
14654
15111
15533
15924
16284
16611
16896
17130
17307
17432
17521
17589
17645
17693
17732
17768
17806
17844
17885
17924
17955
17970
17967
17954
17944
17941
17941
17931
17907
17871
17820
17758
17682
17588
17489
17382
17262
17132
17008
16900
16813
16755
16726
16724
16746
16777
16799
16816
16838
16865
16895
16920
16932
16931
16912
16868
16808
16746
16684
16616
16536
16447
16363
16283
16207
16136
16073
16005
15920
15824
15728
15622
15506
15383
15251
15113
14977
14846
14730
14634
14559
14495
14431
14356
14275
14198
14125
14058
14002
13955
13908
13847
13780
13719
13660
13590
13524
13471
13414
13343
13266
13193
13134
13085
13041
12998
12952
12896
12823
12739
12655
12571
12487
12406
12322
12229
12125
12022
11927
11843
11773
11714
11669
11648
11654
11694
11774
11895
12068
12307
12608
12964
13371
13820
14293
14779
15267
15746
16206
16640
17043
17405
17729
18017
18263
18465
18624
18751
18861
18953
19019
19068
19104
19125
19136
19150
19169
19193
19216
19233
19244
19248
19248
19245
19235
19221
19205
19177
19132
19072
18994
18897
18792
18687
18584
18490
18407
18339
18283
18237
18206
18197
18210
18238
18272
18300
18321
18332
18334
18331
18323
18312
18295
18270
18235
18184
18115
18034
17945
17853
17762
17683
17611
17534
17446
17356
17273
17197
17123
17044
16958
16864
16763
16654
16534
16412
16299
16198
16101
16008
15922
15836
15750
15669
15590
15509
15432
15363
15303
15247
15189
15132
15074
15019
14967
14913
14860
14808
14757
14700
14634
14568
14510
14456
14396
14322
14238
14151
14076
14008
13940
13866
13783
13695
13607
13511
13411
13308
13208
13122
13055
13002
12951
12901
12867
12858
12882
12951
13075
13261
13510
13820
14197
14645
15150
15690
16247
16818
17396
17951
18466
18937
19362
19742
20079
20373
20617
20814
20970
21097
21207
21306
21397
21481
21556
21615
21650
21665
21670
21673
21681
21705
21741
21777
21810
21831
21837
21830
21813
21783
21744
21703
21657
21602
21532
21441
21328
21199
21069
20953
20867
20812
20773
20750
20744
20747
20758
20773
20783
20785
20784
20783
20776
20750
20710
20666
20626
20588
20545
20482
20395
20296
20202
20113
20016
19912
19805
19694
19583
19480
19387
19292
19190
19084
18976
18861
18736
18606
18481
18364
18257
18162
18085
18028
17984
17945
17909
17872
17827
17767
17695
17621
17549
17481
17414
17344
17266
17189
17126
17071
17010
16946
16884
16816
16743
16675
16614
16554
16499
16442
16372
16295
16225
16159
16083
15996
15905
15816
15727
15635
15535
15423
15309
15200
15103
15019
14946
14876
14804
14745
14703
14680
14694
14768
14913
15123
15398
15739
16143
16604
17113
17662
18228
18790
19335
19860
20366
20849
21296
21697
22044
22333
22569
22757
22896
22995
23073
23135
23185
23236
23282
23312
23328
23339
23346
23355
23376
23407
23439
23472
23504
23527
23534
23521
23490
23441
23379
23310
23222
23115
22999
22876
22748
22619
22494
22384
22303
22242
22189
22141
22104
22086
22086
22089
22074
22044
22014
21991
21973
21952
21927
21888
21826
21750
21667
21572
21466
21360
21253
21142
21036
20932
20830
20737
20647
20549
20441
20327
20205
20076
19940
19795
19652
19518
19382
19242
19109
18986
18869
18756
18655
18568
18484
18394
18303
18210
18106
18000
17903
17824
17752
17680
17613
17547
17477
17409
17351
17297
17230
17153
17081
17012
16936
16847
16756
16671
16588
16500
16400
16291
16182
16078
15973
15860
15738
15615
15496
15378
15261
15146
15031
14922
14828
14746
14663
14579
14504
14447
14417
14427
14493
14631
14843
15122
15462
15870
16342
16859
17395
17936
18480
19022
19555
20063
20535
20959
21324
21624
21869
22066
22217
22327
22404
22450
22469
22469
22455
22433
22412
22395
22383
22376
22371
22378
22395
22412
22415
22402
22382
22354
22311
22259
22198
22118
22020
21913
21795
21661
21520
21383
21254
21135
21032
20949
20887
20848
20835
20837
20844
20853
20867
20894
20929
20957
20965
20945
20905
20855
20793
20723
20651
20582
20513
20433
20338
20230
20111
19986
19861
19731
19600
19483
19380
19284
19183
19070
18947
18817
18684
18550
18414
18283
18154
18026
17902
17784
17675
17570
17465
17362
17270
17188
17111
17040
16981
16930
16883
16832
16777
16721
16663
16600
16536
16471
16404
16339
16278
16218
16152
16079
16004
15924
15839
15754
15672
15590
15509
15428
15340
15242
15146
15050
14946
14846
14758
14671
14580
14496
14433
14397
14393
14434
14536
14703
14933
15228
15597
16036
16529
17059
17613
18177
18737
19282
19802
20282
20716
21096
21416
21682
21899
22070
22207
22319
22406
22472
22519
22543
22547
22543
22536
22532
22535
22541
22546
22553
22557
22557
22555
22548
22535
22510
22466
22403
22323
22225
22105
21972
21842
21721
21609
21508
21425
21361
21320
21299
21293
21306
21337
21378
21413
21435
21451
21458
21455
21444
21419
21376
21329
21283
21231
21165
21091
21024
20961
20896
20820
20727
20621
20503
20375
20245
20113
19982
19848
19705
19562
19434
19322
19215
19104
18992
18883
18784
18702
18631
18559
18491
18431
18375
18322
18265
18197
18124
18048
17968
17892
17829
17777
17734
17696
17665
17633
17584
17523
17464
17408
17347
17282
17211
17131
17039
16939
16842
16754
16678
16603
16526
16449
16370
16288
16204
16123
16048
15977
15916
15875
15852
15856
15903
16010
16177
16405
16697
17054
17475
17956
18482
19044
19631
20223
20802
21355
21872
22347
22772
23148
23479
23759
23987
24171
24325
24453
24556
24635
24689
24723
24749
24772
24784
24794
24817
24850
24887
24915
24935
24950
24953
24940
24909
24860
24794
24718
24633
24537
24429
24310
24192
24075
23958
23847
23754
23677
23613
23573
23564
23575
23595
23626
23658
23671
23665
23645
23624
23605
23575
23531
23490
23458
23421
23372
23311
23236
23141
23037
22938
22847
22764
22678
22572
22445
22315
22201
22101
22000
21887
21764
21640
21517
21398
21284
21181
21096
21027
20963
20895
20823
20755
20694
20637
20583
20525
20457
20380
20299
20225
20167
20119
20066
20008
19950
19890
19824
19757
19687
19611
19530
19452
19386
19321
19243
19155
19062
18968
18874
18778
18690
18618
18559
18499
18431
18361
18290
18219
18150
18080
18016
17962
17930
17931
17971
18058
18201
18407
18677
19014
19425
19912
20457
21038
21631
22221
22803
23373
23925
24444
24918
25341
25711
26024
26282
26488
26654
26780
26869
26937
26990
27030
27056
27077
27099
27119
27141
27175
27214
27245
27272
27296
27317
27340
27356
27354
27339
27312
27272
27213
27132
27032
26908
26764
26615
26479
26367
26290
26245
26226
26212
26190
26166
26148
26133
26124
26128
26141
26155
26166
26167
26153
26127
26087
26035
25976
25905
25817
25719
25618
25522
25427
25323
25216
25103
24980
24860
24751
24641
24524
24397
24257
24118
23993
23882
23778
23682
23594
23506
23415
23327
23240
23158
23081
23004
22927
22851
22779
22714
22656
22598
22538
22479
22418
22353
22285
22223
22173
22130
22087
22037
21985
21933
21868
21786
21699
21616
21531
21432
21317
21198
21089
20986
20884
20781
20677
20580
20497
20422
20340
20248
20158
20083
20024
19976
19951
19958
20015
20140
20340
20618
20976
21400
21870
22380
22933
23520
24122
24712
25266
25765
26210
26615
26986
27318
27598
27821
27994
28123
28206
28250
28273
28292
28303
28304
28300
28303
28308
28313
28323
28336
28346
28349
28350
28349
28346
28339
28325
28290
28225
28136
28043
27951
27850
27740
27624
27503
27379
27251
27130
27033
26967
26929
26910
26897
26888
26881
26871
26857
26839
26812
26777
26743
26712
26675
26627
26569
26503
26428
26342
26244
26134
26018
25896
25772
25650
25536
25430
25327
25222
25118
25011
24898
24780
24654
24526
24402
24278
24154
24035
23920
23805
23693
23589
23491
23400
23322
23249
23168
23086
23010
22935
22857
22779
22703
22628
22557
22487
22411
22333
22258
22183
22108
22031
21949
21865
21787
21708
21621
21525
21429
21335
21239
21144
21054
20964
20872
20782
20698
20610
20517
20435
20375
20338
20332
20371
20461
20611
20832
21131
21500
21933
22421
22946
23495
24062
24636
25188
25694
26154
26578
26957
27284
27562
27788
27961
28089
28186
28264
28325
28357
28366
28370
28372
28368
28356
28331
28298
28259
28215
28173
28137
28106
28073
28038
27999
27946
27880
27809
27730
27633
27513
27378
27244
27117
27005
26918
26858
26823
26809
26806
26800
26791
26785
26782
26783
26798
26820
26835
26846
26854
26845
26815
26778
26742
26704
26660
26594
26505
26404
26302
26200
26089
25974
25859
25747
25637
25527
25409
25284
25160
25034
24906
24792
24683
24568
24458
24364
24281
24206
24139
24064
23981
23895
23803
23708
23622
23554
23502
23460
23424
23395
23361
23315
23268
23220
23156
23071
22982
22906
22833
22753
22674
22593
22501
22404
22315
22232
22155
22083
22010
21926
21824
21709
21591
21485
21407
21368
21371
21414
21510
21664
21869
22130
22464
22874
23346
23870
24434
25018
25598
26162
26694
27179
27615
28003
28344
28639
28881
29061
29190
29291
29368
29410
29420
29408
29383
29360
29347
29345
29351
29361
29370
29371
29370
29369
29363
29356
29347
29335
29314
29273
29208
29125
29030
28930
28815
28679
28541
28416
28306
28215
28150
28114
28098
28090
28093
28104
28114
28131
28151
28157
28152
28146
28142
28132
28106
28061
27995
27913
27829
27753
27680
27602
27514
27424
27333
27236
27134
27027
26911
26793
26680
26570
26466
26371
26282
26193
26097
26000
25910
25824
25736
25648
25553
25444
25328
25209
25097
25005
24938
24882
24828
24774
24715
24651
24595
24552
24506
24450
24384
24314
24246
24187
24131
24077
24032
23992
23941
23870
23785
23694
23600
23503
23406
23318
23246
23189
23140
23091
23028
22948
22864
22788
22728
22702
22734
22836
23003
23231
23527
23894
24333
24846
25420
26026
26632
27223
27785
28305
28775
29197
29573
29906
30191
30422
30598
30736
30852
30951
31023
31062
31076
31073
31067
31074
31094
31108
31119
31137
31161
31187
31208
31222
31224
31210
31189
31160
31115
31059
30992
30901
30787
30662
30528
30389
30258
30149
30071
30016
29972
29941
29926
29922
29922
29934
29951
29954
29937
29913
29893
29878
29858
29818
29756
29679
29602
29535
29468
29387
29296
29201
29106
29015
28919
28812
28698
28591
28495
28398
28292
28185
28075
27952
27826
27706
27589
27473
27368
27272
27173
27074
26985
26904
26829
26763
26696
26618
26538
26473
26414
26357
26308
26260
26203
26140
26072
26002
25937
25883
25831
25773
25699
25610
25513
25415
25322
25239
25164
25088
25004
24916
24835
24765
24700
24632
24558
24469
24363
24254
24154
24058
23968
23900
23856
23839
23867
23962
24138
24399
24736
25140
25612
26140
26698
27275
27866
28457
29030
29569
30062
30506
30894
31218
31488
31716
31897
32029
32122
32193
32245
32283
32315
32339
32359
32378
32390
32401
32418
32436
32448
32454
32462
32475
32481
32473
32456
32444
32432
32399
32333
32238
32126
32008
31892
31783
31676
31576
31490
31412
31342
31280
31230
31197
31179
31168
31168
31181
31195
31206
31212
31203
31180
31142
31079
30997
30902
30803
30707
30612
30524
30440
30351
30251
30145
30038
29936
29840
29743
29648
29552
29445
29334
29221
29114
29015
28916
28813
28703
28594
28491
28393
28293
28192
28101
28025
27954
27881
27800
27710
27618
27534
27461
27395
27326
27252
27177
27103
27028
26957
26888
26819
26751
26688
26626
26556
26480
26401
26317
26232
26160
26099
26034
25957
25873
25791
25713
25635
25553
25463
25358
25242
25125
25018
24923
24855
24840
24883
24979
25133
25353
25648
26020
26457
26942
27463
28003
28553
29103
29644
30167
30656
31099
31490
31818
32090
32314
32492
32632
32739
32810
32862
32906
32931
32939
32945
32955
32960
32955
32953
32960
32967
32963
32946
32930
32920
32903
32872
32831
32783
32720
32639
32538
32423
32305
32187
32070
31956
31840
31726
31627
31551
31491
31445
31422
31415
31418
31425
31428
31421
31415
31407
31380
31334
31286
31239
31182
31107
31023
30934
30839
30743
30659
30578
30484
30375
30252
30121
29998
29878
29748
29614
29483
29353
29227
29099
28969
28844
28728
28625
28529
28425
28313
28207
28109
28017
27938
27871
27810
27747
27673
27593
27508
27421
27341
27266
27193
27125
27054
26973
26885
26793
26700
26613
26529
26447
26363
26274
26193
26119
26038
25952
25864
25770
25671
25568
25467
25367
25260
25140
25006
24876
24767
24681
24609
24544
24490
24465
24482
24547
24668
24860
25130
25477
25895
26370
26885
27419
27964
28514
29051
29555
30018
30442
30828
31171
31459
31689
31867
31997
32083
32128
32137
32127
32102
32053
31985
31907
31831
31762
31706
31666
31638
31618
31608
31596
31570
31527
31471
31404
31321
31225
31124
31021
30905
30772
30638
30510
30390
30287
30201
30129
30074
30041
30020
30009
30015
30035
30054
30060
30061
30065
30064
30040
29999
29952
29902
29839
29764
29685
29598
29497
29392
29283
29164
29037
28911
28791
28675
28566
28462
28352
28229
28095
27953
27809
27668
27528
27393
27271
27164
27066
26969
26875
26790
26719
26654
26589
26513
26419
26306
26181
26056
25949
25869
25801
25729
25648
25565
25490
25424
25361
25294
25220
25141
25067
24998
24920
24824
24723
24623
24522
24415
24308
24200
24083
23949
23809
23676
23550
23433
23337
23274
23255
23291
23397
23582
23837
24156
24540
24989
25489
26020
26571
27132
27688
28228
28741
29213
29627
29974
30265
30507
30697
30845
30956
31031
31077
31099
31110
31114
31106
31088
31070
31056
31036
31010
30981
30951
30918
30883
30854
30832
30802
30748
30664
30550
30416
30277
30144
30014
29889
29779
29683
29601
29534
29481
29444
29421
29412
29411
29414
29429
29458
29485
29502
29517
29526
29520
29502
29472
29429
29374
29305
29228
29151
29076
28999
28918
28829
28727
28609
28481
28342
28189
28033
27887
27752
27615
27475
27344
27233
27132
27029
26923
26822
26724
26627
26532
26447
26367
26292
26221
26159
26109
26059
26002
25942
25885
25825
25753
25668
25581
25500
25421
25340
25265
25204
25146
25088
25038
24997
24955
24899
24832
24755
24670
24583
24499
24411
24313
24220
24153
24129
24152
24218
24323
24481
24702
24993
25356
25784
26266
26787
27340
27916
28491
29037
29539
30000
30427
30824
31180
31485
31727
31908
32042
32138
32195
32225
32247
32265
32279
32286
32284
32279
32280
32287
32288
32279
32272
32264
32246
32219
32181
32130
32065
31983
31886
31786
31687
31583
31475
31368
31261
31151
31040
30940
30870
30829
30808
30800
30812
30836
30853
30860
30864
30865
30858
30841
30820
30796
30769
30734
30687
30621
30539
30445
30345
30253
30172
30092
30006
29922
29839
29753
29666
29572
29462
29343
29226
29104
28978
28858
28748
28640
28534
28433
28348
28283
28226
28166
28086
27989
27886
27788
27707
27650
27610
27574
27528
27479
27435
27389
27326
27255
27188
27119
27040
26954
26868
26792
26733
26676
26614
26553
26491
26421
26347
26268
26188
26115
26048
25976
25899
25829
25772
25734
25725
25761
25856
26024
26270
26592
26976
27414
27910
28462
29052
29664
30278
30875
31439
31963
32439
32854
33203
33485
33707
33886
34026
34114
34160
34189
34214
34239
34259
34277
34294
34311
34331
34351
34365
34375
34387
34401
34412
34422
34438
34454
34454
34430
34390
34339
34269
34175
34066
33956
33853
33761
33681
33613
33550
33492
33453
33437
33438
33444
33440
33427
33416
33399
33372
33342
33311
33281
33252
33216
33178
33129
33056
32971
32889
32811
32733
32646
32541
32419
32290
32160
32042
31931
31816
31699
31588
31483
31386
31295
31206
31120
31044
30971
30887
30793
30699
30609
30516
30432
30365
30309
30258
30214
30179
30146
30110
30071
30021
29953
29864
29760
29650
29552
29470
29400
29329
29254
29177
29101
29024
28941
28856
28779
28718
28665
28613
28557
28496
28418
28318
28202
28086
27992
27928
27894
27890
27922
28002
28140
28351
28645
29014
29443
29928
30466
31035
31609
32175
32724
33246
33733
34180
34573
34899
35156
35352
35509
35644
35757
35844
35910
35970
36014
36040
36061
36084
36104
36123
36143
36168
36205
36248
36292
36333
36372
36407
36427
36430
36406
36357
36288
36193
36073
35945
35820
35693
35564
35437
35322
35232
35170
35127
35091
35053
35016
34982
34950
34919
34893
34873
34856
34840
34821
34783
34723
34648
34566
34477
34384
34293
34207
34130
34065
34009
33951
33876
33777
33663
33542
33412
33270
33126
32995
32879
32768
32661
32557
32459
32362
32261
32165
32071
31973
31875
31779
31689
31605
31523
31440
31359
31291
31233
31179
31131
31097
31063
31014
30955
30899
30846
30790
30733
30674
30609
30531
30435
30329
30228
30136
30051
29961
29859
29746
29620
29484
29348
29225
29112
28996
28872
28752
28641
28538
28458
28416
28421
28475
28576
28722
28926
29198
29543
29957
30429
30952
31518
32114
32714
33289
33817
34295
34724
35104
35435
35707
35912
36064
36184
36274
36334
36375
36409
36439
36453
36454
36455
36463
36476
36491
36514
36546
36576
36588
36578
36559
36543
36527
36505
36468
36401
36300
36180
36055
35928
35797
35659
35515
35379
35261
35163
35087
35021
34963
34930
34920
34914
34904
34897
34897
34899
34884
34844
34789
34726
34654
34574
34487
34395
34297
34182
34053
33913
33765
33622
33494
33376
33260
33145
33030
32910
32787
32661
32539
32426
32315
32202
32094
31999
31910
31817
31714
31605
31493
31382
31276
31173
31071
30975
30884
30799
30720
30645
30573
30499
30423
30348
30268
30184
30102
30024
29950
29874
29794
29708
29613
29511
29406
29305
29211
29115
29019
28923
28826
28730
28643
28554
28453
28343
28233
28132
28032
27929
27824
27716
27604
27496
27395
27302
27223
27174
27173
27228
27341
27515
27742
28024
28372
28791
29278
29822
30403
30995
31579
32147
32695
33204
33654
34038
34366
34640
34858
35027
35149
35235
35301
35346
35371
35395
35419
35433
35440
35452
35471
35495
35522
35548
35566
35568
35559
35537
35498
35445
35383
35309
35220
35117
34999
34865
34722
34578
34440
34313
34205
34116
34047
33996
33961
33942
33940
33950
33953
33941
33929
33917
33895
33865
33839
33809
33763
33704
33639
33570
33497
33428
33356
33268
33163
33048
32929
32805
32679
32555
32433
32310
32181
32048
31915
31784
31664
31554
31443
31330
31222
31122
31034
30958
30885
30813
30735
30653
30576
30506
30438
30373
30320
30281
30243
30187
30109
30023
29939
29858
29780
29706
29635
29566
29498
29433
29368
29296
29218
29145
29074
28992
28898
28794
28688
28582
28481
28388
28301
28213
28124
28040
27959
27887
27842
27827
27840
27893
28007
28183
28421
28729
29111
29561
30068
30607
31157
31705
32241
32765
33270
33743
34169
34540
34858
35126
35354
35542
35685
35786
35855
35905
35941
35962
35969
35970
35970
35973
35979
35989
36004
36017
36021
36016
35999
35975
35953
35927
35889
35836
35765
35678
35577
35464
35343
35221
35100
34980
34874
34785
34712
34663
34636
34617
34606
34610
34621
34635
34653
34668
34670
34652
34619
34578
34529
34474
34414
34341
34254
34158
34056
33949
33839
33727
33610
33495
33381
33263
33146
33032
32919
32806
32694
32579
32468
32362
32261
32164
32069
31973
31878
31783
31687
31587
31490
31401
31324
31259
31202
31147
31089
31027
30969
30918
30861
30798
30734
30669
30600
30533
30469
30399
30323
30252
30189
30129
30063
29990
29915
29835
29748
29655
29558
29457
29357
29261
29167
29072
28980
28891
28801
28712
28632
28565
28518
28503
28531
28609
28741
28940
29213
29557
29972
30455
30997
31576
32176
32787
33385
33956
34498
34994
35433
35821
36163
36452
36677
36840
36952
37021
37061
37088
37108
37128
37149
37166
37177
37187
37198
37223
37267
37325
37385
37445
37493
37520
37530
37519
37485
37429
37352
37266
37167
37047
36910
36762
36616
36487
36381
36286
36196
36115
36050
36001
35965
35943
35938
35947
35961
35970
35965
35946
35920
35888
35847
35786
35707
35619
35534
35449
35349
35242
35146
35056
34956
34840
34715
34590
34470
34360
34247
34118
33978
33839
33708
33584
33464
33347
33233
33120
33012
32920
32842
32763
32683
32607
32536
32462
32393
32335
32285
32244
32212
32175
32122
32051
31965
31867
31766
31665
31568
31486
31424
31377
31332
31287
31239
31182
31112
31031
30942
30849
30754
30652
30537
30413
30286
30159
30037
29924
29827
29743
29668
29599
29530
29465
29409
29368
29357
29390
29465
29587
29776
30043
30380
30782
31251
31779
32349
32940
33539
34140
34730
35295
35825
36307
36718
37051
37320
37533
37698
37824
37907
37957
37987
38008
38029
38054
38082
38112
38136
38154
38171
38191
38210
38220
38234
38251
38261
38271
38287
38297
38285
38237
38158
38064
37955
37827
37689
37544
37395
37255
37128
37028
36961
36906
36861
36836
36827
36816
36804
36788
36767
36742
36714
36675
36628
36578
36518
36452
36386
36312
36231
36142
36052
35961
35865
35766
35661
35550
35439
35330
35221
35111
34992
34862
34728
34588
34442
34300
34167
34038
33910
33784
33669
33571
33490
33419
33348
33266
33183
33105
33020
32924
32825
32731
32646
32573
32508
32447
32386
32319
32248
32171
32084
31996
31915
31837
31753
31663
31569
31472
31379
31287
31187
31082
30976
30869
30764
30659
30554
30451
30351
30247
30139
30029
29917
29808
29702
29598
29508
29442
29401
29396
29433
29509
29639
29840
30114
30465
30895
31381
31909
32467
33043
33623
34197
34749
35268
35752
36197
36589
36908
37157
37346
37479
37566
37622
37665
37698
37727
37752
37771
37782
37780
37768
37759
37759
37762
37772
37781
37775
37751
37720
37687
37647
37602
37542
37454
37334
37193
37042
36882
36715
36559
36433
36329
36240
36168
36114
36079
36058
36043
36034
36022
36008
36005
36013
36022
36020
35995
35952
35896
35828
35748
35661
35558
35439
35309
35177
35042
34898
34751
34611
34480
34358
34241
34122
34006
33899
33796
33686
33571
33455
33331
33198
33069
32945
32819
32691
32563
32442
32336
32239
32141
32042
31950
31876
31822
31778
31730
31677
31617
31541
31448
31347
31253
31173
31100
31027
30950
30864
30767
30662
30564
30478
30394
30310
30233
30149
30049
29944
29834
29717
29600
29485
29372
29259
29145
29032
28928
28840
28785
28768
28784
28839
28941
29100
29326
29627
30008
30467
30993
31570
32176
32784
33371
33928
34442
34903
35305
35650
35942
36190
36402
36576
36717
36828
36899
36944
36970
36968
36942
36908
36869
36837
36825
36823
36821
36815
36805
36794
36775
36744
36705
36667
36622
36556
36463
36349
36224
36100
35972
35838
35714
35606
35505
35418
35361
35328
35311
35317
35348
35391
35437
35485
35520
35532
35525
35506
35475
35438
35396
35345
35280
35198
35105
35005
34898
34793
34691
34590
34491
34386
34276
34166
34050
33930
33812
33704
33597
33483
33363
33239
33119
33004
32890
32780
32681
32594
32514
32441
32382
32333
32280
32208
32115
32008
31908
31827
31765
31713
31664
31613
31551
31480
31407
31332
31256
31185
31126
31077
31026
30955
30869
30780
30701
30628
30544
30452
30355
30263
30174
30076
29965
29849
29740
29649
29576
29522
29490
29493
29546
29654
29825
30068
30381
30755
31183
31659
32168
32710
33284
33867
34429
34966
35482
35964
36397
36773
37086
37338
37539
37697
37815
37895
37949
37984
38003
38011
38012
38014
38020
38024
38028
38035
38047
38060
38069
38078
38089
38094
38084
38055
38003
37932
37840
37727
37600
37466
37329
37197
37077
36976
36896
36836
36786
36742
36711
36699
36703
36721
36746
36771
36790
36800
36802
36798
36786
36767
36734
36691
36640
36576
36494
36392
36276
36159
36047
35931
35811
35686
35557
35424
35286
35142
35004
34889
34800
34723
34644
34556
34461
34356
34250
34155
34066
33973
33881
33795
33706
33611
33521
33441
33366
33295
33227
33156
33086
33022
32966
32916
32867
32817
32759
32691
32619
32549
32486
32422
32352
32279
32203
32120
32033
31937
31833
31725
31614
31502
31399
31308
31227
31148
31066
30983
30900
30814
30726
30650
30597
30573
30587
30646
30763
30947
31202
31531
31931
32400
32936
33522
34139
34772
35404
36010
36579
37109
37595
38018
38374
38670
38916
39116
39274
39401
39506
39583
39635
39671
39699
39720
39737
39750
39763
39785
39810
39830
39849
39868
39888
39917
39945
39956
39950
39936
39909
39860
39785
39685
39571
39453
39328
39192
39066
38961
38869
38786
38715
38664
38637
38631
38636
38648
38660
38668
38666
38656
38642
38619
38577
38517
38450
38385
38319
38245
38162
38079
37998
37910
37810
37696
37575
37460
37352
37239
37117
36989
36856
36718
36584
36462
36341
36216
36098
35981
35864
35756
35664
35582
35505
35439
35380
35320
35257
35192
35132
35080
35030
34975
34913
34845
34776
34709
34639
34564
34492
34423
34359
34305
34261
34215
34161
34101
34038
33966
33889
33806
33720
33628
33531
33429
33323
33218
33111
33005
32908
32821
32734
32637
32532
32432
32330
32224
32127
32046
31977
31915
31876
31883
31948
32075
32267
32526
32847
33226
33663
34168
34737
35349
35987
36631
37263
37863
38416
38923
39385
39787
40118
40391
40608
40765
40873
40948
41005
41046
41072
41094
41119
41147
41182
41217
41241
41253
41265
41290
41327
41366
41413
41464
41503
41510
41487
41452
41409
41349
41266
41167
41048
40912
40769
40632
40512
40401
40305
40230
40175
40138
40116
40107
40119
40149
40180
40202
40208
40197
40174
40142
40092
40022
39940
39848
39757
39670
39582
39493
39408
39328
39246
39147
39037
38927
38818
38711
38601
38484
38370
38258
38148
38033
37913
37791
37673
37561
37450
37340
37236
37138
37045
36956
36873
36791
36708
36622
36533
36439
36350
36271
36203
36146
36095
36047
36004
35964
35920
35865
35804
35739
35673
35607
35538
35466
35391
35315
35236
35153
35063
34962
34860
34762
34659
34550
34439
34320
34187
34050
33921
33801
33693
33598
33509
33417
33333
33277
33256
33261
33293
33367
33495
33685
33946
34275
34669
35134
35669
36250
36843
37433
38017
38592
39136
39628
40057
40428
40743
40996
41194
41346
41458
41538
41592
41623
41636
41646
41655
41652
41642
41636
41647
41667
41681
41694
41711
41724
41727
41724
41715
41693
41652
41590
41510
41415
41306
41189
41069
40943
40806
40662
40531
40427
40348
40285
40233
40196
40174
40166
40167
40175
40188
40199
40194
40171
40132
40085
40028
39952
39863
39776
39687
39586
39477
39363
39248
39135
39023
38904
38775
38646
38526
38415
38303
38179
38045
37913
37785
37652
37515
37383
37260
37148
37046
36949
36852
36745
36624
36498
36381
36270
36163
36063
35970
35881
35796
35720
35651
35589
35533
35476
35415
35348
35272
35186
35099
35020
34948
34873
34791
34704
34614
34525
34436
34349
34265
34176
34078
33976
33878
33782
33684
33585
33487
33392
33288
33166
33035
32918
32823
32739
32671
32641
32662
32736
32869
33057
33310
33633
34018
34461
34959
35499
36070
36656
37243
37819
38364
38861
39300
39676
39987
40234
40427
40577
40695
40785
40848
40888
40914
40927
40923
40909
40888
40862
40833
40807
40794
40793
40798
40803
40807
40798
40772
40732
40680
40613
40532
40434
40319
40188
40048
39906
39767
39639
39538
39460
39397
39352
39329
39322
39327
39341
39360
39377
39391
39401
39403
39396
39385
39367
39340
39298
39238
39157
39061
38959
38856
38748
38640
38538
38439
38337
38230
38117
38006
37893
37775
37654
37530
37404
37275
37143
37017
36907
36811
36721
36634
36548
36469
36394
36317
36239
36161
36080
35994
35901
35808
35719
35633
35552
35483
35425
35368
35310
35251
35187
35125
35073
35021
34961
34892
34816
34734
34646
34554
34456
34356
34260
34169
34090
34010
33926
33842
33762
33696
33644
33600
33570
33569
33608
33696
33840
34049
34327
34671
35077
35539
36050
36601
37175
37748
38299
38821
39304
39747
40149
40506
40812
41067
41271
41425
41540
41627
41689
41729
41745
41738
41719
41705
41708
41725
41752
41784
41823
41865
41899
41916
41915
41899
41865
41814
41750
41675
41588
41492
41381
41254
41121
40982
40846
40726
40618
40523
40454
40410
40386
40384
40407
40440
40475
40512
40547
40573
40592
40600
40593
40564
40513
40444
40357
40264
40178
40095
40004
39902
39791
39676
39556
39433
39307
39181
39057
38935
38819
38719
38627
38526
38410
38282
38150
38022
37905
37798
37705
37632
37571
37505
37437
37367
37292
37221
37161
37113
37064
36999
36928
36873
36830
36778
36710
36633
36553
36466
36374
36288
36215
36155
36102
36054
36006
35952
35889
35808
35711
35611
35521
35432
35339
35253
35177
35110
35051
35001
34961
34940
34961
35036
35167
35357
35618
35953
36359
36829
37346
37904
38496
39102
39704
40288
40829
41311
41733
42106
42437
42722
42960
43153
43298
43396
43457
43493
43516
43530
43541
43555
43574
43600
43633
43667
43695
43720
43749
43781
43807
43828
43851
43868
43861
43825
43773
43708
43627
43532
43429
43318
43195
43063
42931
42816
42733
42680
42654
42647
42653
42669
42690
42703
42703
42690
42667
42637
42601
42563
42530
42498
42457
42401
42336
42264
42175
42066
41943
41814
41680
41539
41403
41287
41181
41078
40977
40879
40785
40697
40602
40488
40365
40233
40099
39972
39852
39745
39654
39575
39503
39427
39350
39281
39216
39156
39103
39047
38982
38914
38851
38787
38713
38636
38565
38497
38428
38356
38281
38209
38139
38070
38003
37932
37859
37787
37715
37639
37557
37472
37386
37296
37206
37125
37053
36985
36922
36866
36822
36797
36805
36867
36998
37204
37486
37840
38267
38765
39320
39906
40499
41090
41666
42209
42703
43138
43518
43852
44137
44370
44559
44710
44824
44913
44990
45059
45118
45169
45212
45248
45281
45317
45355
45391
45422
45451
45484
45518
45541
45545
45534
45512
45472
45411
45334
45243
45140
45029
44910
44780
44649
44527
44418
44326
44251
44183
44123
44075
44041
44021
44015
44018
44024
44032
44037
44028
44005
43973
43930
43875
43812
43744
43671
43582
43471
43345
43215
43080
42949
42834
42733
42639
42548
42455
42357
42253
42143
42031
41917
41800
41688
41578
41458
41331
41211
41095
40983
40880
40783
40688
40597
40512
40434
40359
40291
40235
40185
40123
40047
39972
39896
39814
39728
39645
39568
39497
39431
39373
39317
39257
39193
39127
39055
38976
38888
38789
38679
38560
38434
38302
38170
38050
37942
37838
37740
37654
37588
37547
37524
37524
37557
37641
37790
38010
38301
38673
39119
39611
40137
40693
41268
41843
42394
42911
43397
43844
44235
44565
44837
45056
45228
45359
45455
45518
45556
45580
45599
45611
45613
45612
45613
45625
45655
45698
45737
45762
45777
45792
45810
45826
45832
45820
45788
45729
45636
45512
45366
45201
45029
44867
44711
44555
44410
44281
44174
44094
44040
44015
44013
44014
44011
44008
43997
43979
43960
43935
43900
43851
43793
43727
43649
43565
43478
43381
43268
43138
42996
42848
42700
42551
42406
42274
42157
42055
41963
41870
41761
41639
41519
41405
41289
41160
41026
40905
40798
40696
40596
40501
40409
40315
40216
40117
40029
39958
39898
39832
39750
39662
39579
39499
39422
39346
39271
39196
39121
39042
38952
38846
38730
38611
38494
38378
38264
38149
38035
37927
37816
37700
37586
37483
37391
37298
37202
37121
37067
37034
37028
37074
37194
37385
37641
37966
38361
38804
39283
39799
40333
40864
41381
41883
42360
42796
43190
43535
43818
44042
44218
44361
44482
44572
44628
44658
44666
44656
44633
44608
44594
44587
44578
44570
44566
44572
44593
44624
44649
44662
44659
44632
44587
44521
44427
44302
44144
43969
43792
43623
43473
43345
43227
43119
43034
42986
42970
42970
42980
43000
43024
43041
43036
43009
42971
42933
42893
42851
42808
42762
42707
42639
42557
42463
42367
42278
42191
42097
41997
41894
41787
41675
41557
41440
41323
41210
41095
40968
40832
40694
40556
40417
40284
40165
40054
39945
39847
39756
39668
39588
39516
39444
39374
39311
39256
39204
39154
39104
39046
38979
38909
38840
38766
38686
38600
38514
38430
38348
38267
38183
38096
38011
37934
37864
37792
37711
37622
37536
37466
37415
37389
37391
37427
37513
37660
37873
38155
38507
38926
39402
39911
40436
40966
41497
42022
42530
43008
43443
43832
44177
44472
44709
44887
45020
45120
45188
45227
45244
45254
45270
45281
45279
45273
45278
45295
45315
45329
45335
45331
45321
45309
45292
45261
45214
45153
45073
44970
44850
44723
44599
44482
44366
44248
44131
44024
43935
43865
43816
43799
43802
43807
43820
43838
43849
43846
43826
43793
43749
43703
43666
43637
43601
43550
43486
43414
43337
43250
43151
43042
42925
42801
42673
42543
42416
42290
42165
42044
41931
41819
41695
41566
41446
41337
41234
41136
41040
40947
40861
40786
40717
40642
40561
40481
40405
40335
40275
40224
40178
40125
40051
39965
39887
39815
39737
39649
39557
39466
39396
39345
39295
39224
39133
39042
38959
38879
38800
38725
38647
38556
38449
38343
38259
38197
38154
38133
38142
38202
38320
38496
38734
39039
39400
39808
40260
40759
41296
41856
42421
42976
43511
44012
44463
44855
45193
45477
45715
45920
46095
46232
46330
46411
46484
46535
46564
46579
46585
46593
46611
46641
46679
46718
46764
46812
46853
46882
46902
46915
46921
46914
46886
46826
46733
46608
46462
46309
46164
46032
45910
45795
45691
45611
45556
45518
45492
45480
45480
45485
45488
45478
45452
45418
45384
45345
45303
45261
45212
45148
45061
44963
44867
44769
44660
44545
44429
44313
44202
44094
43980
43861
43744
43620
43493
43375
43264
43153
43049
42953
42849
42738
42618
42491
42367
42257
42161
42074
41982
41887
41795
41711
41630
41551
41476
41402
41325
41245
41160
41075
40999
40938
40881
40815
40740
40667
40599
40531
40462
40393
40318
40238
40156
40074
39996
39921
39844
39764
39681
39592
39496
39406
39334
39285
39264
39286
39368
39510
39710
39977
40314
40718
41182
41695
42245
42813
43386
43955
44504
45014
45477
45893
46249
46535
46762
46946
47093
47209
47300
47368
47420
47463
47506
47548
47585
47622
47661
47698
47736
47774
47804
47832
47861
47883
47896
47897
47881
47851
47805
47743
47660
47559
47443
47314
47178
47041
46907
46780
46668
46573
46498
46440
46393
46355
46332
46317
46299
46279
46259
46233
46197
46150
46095
46039
45977
45905
45827
45741
45643
45536
45426
45318
45205
45082
44952
44820
44690
44563
44439
44313
44183
44054
43929
43808
43693
43584
43471
43353
43236
43125
43025
42929
42829
42727
42637
42560
42491
42416
42338
42269
42204
42125
42028
41923
41821
41724
41629
41533
41434
41336
41251
41178
41102
41016
40926
40832
40733
40629
40517
40398
40281
40166
40051
39937
39825
39711
39594
39480
39370
39272
39194
39140
39119
39150
39247
39409
39632
39921
40279
40703
41188
41712
42250
42789
43321
43834
44318
44767
45176
45542
45857
46119
46328
46494
46620
46707
46766
46803
46823
46829
46827
46827
46823
46819
46826
46842
46852
46852
46843
46823
46795
46769
46746
46723
46697
46663
46611
46528
46417
46289
46147
46000
45847
45691
45554
45441
45347
45277
45229
45188
45154
45139
45136
45137
45137
45124
45102
45078
45041
44991
44936
44871
44799
44725
44648
44565
44473
44373
44261
44139
44015
43892
43760
43616
43469
43323
43183
43053
42930
42812
42698
42587
42474
42352
42229
42104
41977
41849
41723
41598
41474
41355
41250
41156
41067
40976
40876
40767
40660
40556
40449
40343
40244
40158
40084
40009
39921
39829
39745
39667
39591
39512
39415
39299
39182
39075
38982
38895
38802
38707
38613
38513
38409
38309
38219
38149
38110
38109
38154
38257
38432
38689
39027
39433
39892
40397
40938
41503
42078
42650
43197
43700
44146
44533
44867
45152
45388
45576
45723
45841
45936
46004
46045
46067
46077
46083
46091
46098
46104
46114
46132
46154
46170
46177
46183
46190
46194
46184
46147
46081
45998
45896
45765
45616
45472
45335
45207
45097
45002
44912
44826
44751
44691
44652
44637
44647
44670
44693
44712
44722
44717
44698
44660
44608
44552
44494
44433
44373
44308
44232
44151
44063
43964
43856
43743
43630
43521
43408
43284
43146
43007
42872
42738
42605
42475
42347
42229
42117
42000
41874
41750
41644
41559
41478
41394
41316
41250
41189
41128
41062
40988
40918
40851
40770
40680
40594
40516
40441
40359
40272
40192
40118
40042
39962
39883
39806
39734
39667
39596
39517
39431
39341
39250
39162
39080
39002
38930
38862
38794
38736
38705
38715
38781
38919
39126
39393
39715
40094
40543
41057
41605
42162
42724
43281
43809
44284
44705
45085
45422
45707
45935
46109
46245
46345
46410
46451
46477
46500
46527
46556
46585
46611
46632
46657
46688
46717
46738
46744
46741
46740
46742
46735
46713
46675
46614
46525
46417
46293
46149
45993
45840
45703
45585
45485
45405
45336
45284
45253
45234
45219
45206
45197
45200
45213
45228
45235
45224
45194
45142
45074
45001
44932
44865
44803
44740
44667
44593
44525
44451
44353
44237
44122
44010
43893
43767
43640
43506
43366
43238
43125
43012
42899
42790
42683
42577
42476
42382
42296
42212
42125
42036
41951
41866
41781
41701
41618
41524
41422
41325
41241
41169
41095
41019
40948
40874
40796
40714
40630
40545
40461
40378
40291
40195
40094
39992
39886
39773
39665
39562
39454
39341
39232
39125
39023
38935
38867
38822
38813
38857
38965
39139
39378
39693
40088
40547
41053
41591
42149
42717
43279
43824
44342
44816
45231
45587
45885
46128
46325
46487
46620
46729
46819
46891
46944
46977
46996
47009
47021
47029
47035
47045
47063
47084
47107
47121
47127
47131
47132
47130
47116
47074
47009
46927
46828
46712
46581
46443
46301
46155
46019
45908
45817
45739
45674
45628
45598
45572
45552
45550
45558
45563
45560
45538
45493
45433
45367
45299
45225
45135
45028
44914
44800
44690
44586
44486
44384
44276
44167
44062
43958
43855
43748
43632
43505
43377
43258
43144
43028
42907
42780
42653
42533
42424
42316
42208
42105
42005
41901
41796
41691
41581
41470
41363
41264
41171
41078
40988
40908
40830
40743
40653
40566
40473
40375
40271
40161
40045
39927
39807
39684
39559
39435
39310
39191
39086
38990
38892
38799
38712
38622
38527
38442
38370
38303
38242
38205
38213
38277
38406
38606
38877
39219
39620
40076
40577
41109
41657
42201
42721
43201
43636
44027
44375
44671
44917
45121
45287
45423
45530
45611
45670
45703
45721
45738
45753
45758
45753
45742
45730
45714
45704
45705
45711
45713
45707
45685
45646
45593
45530
45453
45359
45250
45130
45003
44860
44707
44564
44437
44315
44195
44093
44023
43975
43948
43944
43950
43953
43950
43938
43914
43883
43850
43817
43775
43723
43658
43582
43497
43395
43280
43166
43048
42921
42792
42665
42545
42431
42316
42189
42050
41905
41762
41625
41493
41372
41254
41132
41007
40889
40783
40686
40583
40476
40374
40279
40195
40119
40040
39950
39850
39746
39643
39541
39436
39332
39234
39144
39061
38984
38913
38839
38754
38664
38579
38495
38417
38335
38240
38136
38020
37896
37777
37659
37527
37389
37252
37127
37026
36956
36917
36927
36999
37132
37327
37585
37908
38298
38744
39233
39751
40281
40808
41319
41808
42268
42692
43070
43403
43690
43930
44125
44274
44377
44441
44480
44501
44511
44522
44540
44561
44582
44594
44595
44593
44591
44590
44591
44593
44600
44602
44593
44561
44492
44387
44255
44103
43935
43761
43595
43449
43327
43231
43162
43119
43090
43067
43048
43035
43024
43016
43014
43015
43011
43003
42991
42972
42943
42905
42864
42817
42756
42682
42598
42504
42399
42291
42181
42067
41950
41835
41716
41587
41452
41317
41183
41048
40912
40778
40654
40550
40458
40366
40270
40170
40071
39982
39900
39819
39738
39658
39576
39488
39397
39310
39232
39157
39081
39008
38931
38850
38774
38705
38638
38567
38490
38413
38335
38252
38165
38080
37998
37919
37842
37767
37693
37615
37535
37460
37401
37365
37361
37400
37488
37631
37840
38120
38465
38867
39320
39822
40360
40917
41474
42014
42524
42992
43409
43780
44107
44384
44615
44808
44963
45082
45170
45237
45286
45320
45345
45364
45379
45390
45403
45419
45436
45451
45463
45472
45478
45482
45476
45452
45406
45342
45261
45162
45045
44919
44788
44649
44507
44373
44252
44148
44067
44009
43969
43946
43940
43940
43945
43953
43960
43957
43950
43943
43931
43904
43867
43823
43771
43707
43631
43548
43460
43366
43262
43144
43023
42914
42819
42727
42627
42521
42413
42304
42191
42070
41945
41824
41710
41600
41491
41386
41289
41195
41101
41011
40928
40846
40762
40680
40612
40553
40494
40434
40373
40308
40243
40177
40110
40039
39964
39891
39825
39761
39693
39617
39536
39455
39370
39278
39182
39086
38987
38890
38800
38714
38629
38546
38467
38394
38334
38294
38285
38314
38393
38536
38753
39041
39392
39800
40267
40784
41337
41910
42487
43051
43588
44087
44544
44957
45319
45626
45880
46083
46237
46352
46434
46494
46539
46576
46611
46648
46688
46729
46769
46810
46853
46894
46927
46952
46977
47003
47028
47044
47044
47020
46972
46902
46811
46697
46562
46414
46264
46122
45993
45880
45789
45722
45677
45652
45640
45635
45632
45629
45626
45620
45614
45600
45569
45526
45480
45432
45383
45332
45276
45207
45128
45045
44950
44839
44719
44600
44481
44356
44231
44106
43980
43851
43722
43590
43460
43339
43231
43130
43032
42941
42856
42776
42700
42624
42543
42456
42372
42296
42224
42155
42085
42012
41935
41856
41782
41709
41636
41558
41474
41385
41294
41205
41122
41041
40954
40866
40782
40699
40618
40537
40455
40372
40289
40208
40124
40034
39936
39837
39745
39667
39611
39584
39596
39662
39793
39992
40264
40610
41022
41491
42006
42548
43107
43669
44215
44733
45213
45649
46041
46384
46665
46880
47039
47161
47259
47342
47413
47475
47526
47565
47595
47624
47657
47686
47713
47741
47771
47806
47843
47876
47896
47900
47893
47875
47845
47793
47704
47583
47443
47297
47149
47005
46867
46733
46602
46483
46388
46321
46273
46242
46226
46224
46223
46210
46187
46157
46117
46074
46026
45969
45900
45824
45743
45662
45578
45487
45390
45288
45180
45062
44935
44804
44677
44556
44435
44309
44183
44060
43939
43817
43690
43556
43424
43301
43184
43065
42947
42836
42732
42633
42540
42444
42340
42235
42131
42023
41916
41817
41729
41645
41562
41481
41399
41319
41240
41155
41065
40977
40893
40809
40718
40616
40509
40404
40301
40198
40095
39993
39888
39783
39675
39561
39446
39336
39236
39160
39118
39114
39159
39266
39439
39675
39981
40352
40778
41254
41775
42328
42889
43437
43950
44422
44857
45251
45600
45897
46148
46361
46541
46685
46796
46876
46929
46959
46975
46988
47003
47015
47025
47036
47054
47071
47087
47103
47114
47113
47101
47078
47041
46988
46918
46834
46732
46609
46468
46322
46175
46025
45880
45755
45657
45580
45526
45491
45470
45459
45444
45430
45416
45395
45362
45320
45271
45213
45150
45093
45035
44965
44889
44814
44736
44652
44568
44486
44396
44295
44181
44055
43922
43787
43653
43516
43371
43214
43050
42886
42734
42596
42467
42349
42234
42116
41991
41859
41728
41615
41514
41408
41296
41183
41072
40965
40864
40772
40699
40635
40570
40499
40429
40357
40281
40206
40134
40062
39985
39896
39788
39670
39548
39427
39310
39198
39095
38997
38900
38818
38759
38730
38747
38811
38924
39099
39332
39619
39965
40366
40818
41316
41857
42421
42987
43531
44040
44511
44942
45326
45653
45926
46149
46319
46446
46549
46626
46686
46738
46778
46807
46827
46844
46861
46876
46885
46892
46905
46926
46951
46972
46983
46977
46951
46900
46825
46731
46620
46488
46339
46179
46011
45844
45691
45567
45475
45410
45370
45358
45367
45388
45413
45429
45436
45441
45443
45444
45440
45421
45385
45337
45283
45217
45131
45027
44914
44801
44688
44569
44442
44313
44191
44069
43946
43832
43720
43613
43517
43423
43323
43214
43101
42985
42864
42748
42639
42528
42424
42333
42249
42164
42073
41974
41868
41764
41671
41593
41525
41454
41380
41297
41203
41107
41020
40942
40867
40787
40696
40598
40495
40394
40303
40219
40132
40040
39945
39849
39756
39662
39565
39477
39405
39347
39312
39311
39349
39430
39569
39781
40064
40417
40836
41312
41827
42372
42938
43502
44039
44538
45004
45443
45843
46187
46480
46742
46973
47165
47323
47455
47559
47638
47697
47753
47811
47861
47898
47929
47962
47997
48032
48070
48114
48156
48195
48224
48229
48203
48149
48072
47973
47858
47728
47591
47452
47313
47177
47051
46934
46837
46772
46731
46703
46684
46676
46678
46681
46682
46681
46679
46667
46638
46593
46532
46458
46377
46298
46222
46143
46066
45992
45907
45805
45691
45576
45465
45362
45265
45166
45053
44929
44800
44665
44531
44404
44286
44173
44068
43973
43883
43781
43663
43542
43429
43326
43224
43121
43018
42919
42826
42731
42637
42554
42475
42396
42321
42252
42187
42124
42063
42007
41947
41871
41784
41697
41615
41537
41457
41372
41277
41170
41059
40960
40874
40787
40696
40614
40542
40486
40466
40488
40547
40644
40798
41030
41337
41718
42172
42676
43212
43770
44341
44915
45476
46004
46485
46919
47314
47662
47950
48173
48351
48499
48619
48725
48823
48908
48976
49033
49086
49130
49159
49169
49168
49174
49190
49206
49214
49214
49212
49203
49184
49145
49078
48988
48879
48748
48598
48439
48270
48097
47931
47780
47642
47518
47416
47342
47296
47266
47239
47210
47180
47146
47113
47083
47052
47016
46972
46919
46864
46806
46740
46669
46592
46500
46390
46270
46141
46007
45882
45768
45663
45555
45436
45312
45188
45060
44928
44793
44650
44505
44363
44220
44083
43959
43843
43735
43637
43546
43463
43381
43298
43222
43148
43073
43002
42932
42853
42766
42672
42573
42474
42367
42255
42154
42058
41958
41865
41778
41676
41564
41462
41369
41273
41175
41080
40994
40906
40803
40696
40587
40472
40353
40235
40128
40037
39956
39893
39876
39922
40040
40225
40471
40788
41177
41623
42120
42671
43258
43853
44430
44983
45512
46002
46439
46820
47147
47429
47662
47848
47991
48095
48165
48211
48239
48265
48303
48354
48412
48465
48502
48523
48541
48560
48577
48600
48619
48623
48613
48585
48535
48474
48397
48286
48147
47993
47831
47671
47521
47379
47250
47131
47019
46922
46846
46796
46768
46753
46743
46734
46723
46707
46680
46639
46588
46536
46480
46412
46339
46264
46172
46058
45931
45803
45686
45572
45445
45309
45181
45068
44961
44856
44759
44666
44565
44455
44345
44244
44147
44049
43948
43850
43758
43663
43556
43447
43350
43264
43190
43125
43057
42973
42880
42793
42711
42626
42535
42441
42348
42264
42194
42122
42032
41928
41826
41737
41659
41582
41498
41414
41333
41247
41145
41037
40929
40818
40712
40625
40567
40541
40552
40614
40740
40936
41207
41553
41962
42424
42920
43443
43981
44513
45027
45525
46005
46458
46877
47253
47573
47838
48063
48248
48381
48476
48550
48608
48657
48699
48716
48712
48700
48683
48666
48647
48621
48598
48596
48613
48633
48643
48632
48600
48548
48471
48365
48238
48089
47918
47738
47567
47412
47275
47157
47060
46985
46926
46888
46869
46856
46843
46831
46830
46831
46813
46782
46757
46730
46691
46643
46583
46513
46431
46336
46227
46098
45955
45809
45663
45526
45409
45302
45188
45065
44944
44826
44715
44605
44486
44357
44228
44120
44034
43952
43861
43764
43670
43585
43504
43423
43350
43287
43225
43149
43062
42970
42878
42799
42731
42653
42561
42464
42373
42295
42238
42189
42139
42094
42057
42017
41969
41902
41817
41732
41653
41568
41467
41368
41283
41203
41122
41039
40962
40891
40823
40766
40736
40746
40810
40942
41159
41464
41839
42280
42784
43342
43941
44555
45163
45756
46326
46868
47371
47822
48219
48570
48874
49127
49336
49510
49648
49747
49817
49865
49896
49921
49940
49954
49971
49995
50031
50074
50105
50126
50147
50168
50176
50165
50133
50075
49995
49895
49773
49633
49475
49308
49149
48998
48864
48750
48649
48562
48488
48434
48403
48388
48376
48363
48351
48344
48339
48325
48302
48262
48211
48159
48102
48039
47974
47909
47848
47786
47713
47616
47497
47364
47227
47096
46968
46842
46714
46585
46455
46328
46215
46105
45981
45847
45719
45598
45476
45356
45252
45169
45089
44996
44899
44802
44701
44604
44514
44431
44358
44289
44213
44130
44048
43961
43873
43791
43712
43631
43550
43471
43387
43292
43196
43107
43018
42928
42833
42727
42623
42527
42436
42342
42245
42160
42089
42023
41960
41897
41831
41780
41755
41765
41825
41950
42144
42405
42736
43137
43601
44113
44668
45267
45883
46486
47066
47613
48120
48584
49002
49363
49657
49893
50081
50224
50339
50438
50518
50580
50625
50650
50661
50670
50688
50713
50739
50762
50781
50801
50815
50812
50795
50771
50744
50701
50628
50530
50424
50311
50180
50027
49864
49701
49550
49428
49333
49251
49184
49134
49101
49081
49066
49047
49024
49009
49006
49000
48981
48949
48906
48842
48761
48679
48597
48510
48406
48282
48153
48021
47885
47752
47630
47519
47408
47288
47161
47031
46896
46757
46617
46467
46309
46152
46002
45869
45747
45631
45526
45425
45318
45210
45110
45014
44923
44835
44740
44642
44549
44460
44378
44301
44216
44126
44033
43936
43834
43727
43618
43511
43409
43316
43225
43127
43031
42930
42820
42718
42624
42531
42440
42347
42240
42120
41997
41883
41787
41715
41663
41637
41654
41727
41863
42064
42338
42687
43105
43584
44110
44670
45241
45810
46371
46907
47410
47867
48265
48610
48914
49170
49367
49500
49583
49638
49680
49711
49722
49716
49701
49677
49648
49621
49605
49599
49588
49570
49551
49532
49520
49502
49454
49379
49278
49151
49009
48866
48719
48561
48397
48228
48055
47893
47756
47653
47578
47526
47489
47453
47418
47396
47382
47367
47348
47329
47310
47287
47252
47198
47129
47051
46970
46892
46812
46723
46625
46512
46385
46249
46102
45947
45791
45642
45490
45339
45196
45056
44915
44780
44641
44504
44381
44269
44161
44061
43969
43885
43804
43714
43617
43516
43418
43319
43206
43081
42955
42836
42734
42643
42545
42444
42348
42255
42162
42072
41984
41890
41789
41686
41589
41490
41391
41300
41208
41111
41014
40906
40791
40688
40598
40528
40477
40439
40430
40476
40587
40760
40998
41306
41688
42137
42639
43183
43757
44336
44899
45443
45953
46408
46805
47148
47440
47676
47858
47996
48104
48194
48259
48291
48299
48290
48278
48272
48265
48249
48223
48197
48179
48163
48133
48090
48046
48004
47951
47869
47755
47621
47467
47300
47124
46940
46763
46601
46460
46339
46231
46136
46066
46025
46003
45985
45968
45966
45985
46009
46027
46028
46007
45965
45910
45846
45777
45702
45621
45542
45465
45387
45304
45215
45108
44983
44847
44697
44537
44381
44227
44070
43914
43769
43635
43503
43362
43214
43071
42942
42830
42731
42634
42540
42446
42351
42253
42155
42060
41965
41867
41769
41672
41569
41461
41355
41258
41171
41090
41010
40925
40842
40756
40662
40574
40495
40414
40329
40243
40160
40077
40002
39940
39880
39827
39795
39798
39848
39954
40114
40322
40583
40911
41313
41780
42304
42866
43441
44014
44576
45109
45594
46025
46411
46748
47022
47234
47395
47518
47611
47678
47719
47738
47737
47726
47711
47693
47678
47667
47657
47656
47662
47667
47663
47638
47593
47540
47469
47377
47279
47168
47040
46898
46738
46574
46417
46266
46133
46018
45910
45815
45748
45712
45700
45702
45700
45697
45704
45715
45715
45702
45686
45670
45649
45626
45598
45562
45509
45444
45361
45264
45164
45055
44921
44774
44635
44506
44380
44246
44105
43963
43813
43656
43497
43338
43181
43036
42911
42804
42712
42633
42556
42471
42374
42269
42173
42082
41983
41880
41774
41676
41597
41529
41457
41375
41282
41183
41088
41000
40923
40859
40801
40739
40667
40589
40513
40438
40358
40270
40176
40076
39974
39876
39780
39690
39618
39584
39599
39655
39758
39924
40159
40465
40848
41310
41836
42401
42995
43610
44222
44810
45368
45889
46364
46785
47151
47460
47715
47911
48045
48128
48182
48231
48280
48317
48336
48351
48368
48388
48410
48432
48455
48481
48507
48527
48538
48544
48546
48534
48499
48440
48354
48250
48140
48019
47883
47743
47598
47455
47335
47237
47151
47077
47011
46951
46904
46867
46844
46848
46875
46907
46922
46914
46894
46872
46848
46821
46791
46747
46683
46608
46518
46402
46269
46144
46028
45902
45757
45602
45452
45314
45177
45045
44929
44826
44721
44607
44483
44358
44244
44139
44038
43943
43861
43785
43698
43603
43515
43438
43370
43295
43215
43136
43060
42983
42906
42835
42768
42703
42638
42575
42505
42428
42351
42268
42167
42054
41938
41832
41736
41639
41544
41449
41354
41269
41196
41130
41068
41023
41006
41032
41115
41265
41481
41764
42115
42533
43017
43559
44131
44706
45277
45841
46391
46907
47373
47787
48147
48464
48746
48990
49190
49349
49478
49577
49645
49700
49744
49778
49813
49849
49878
49892
49901
49916
49933
49944
49941
49921
49889
49842
49782
49708
49614
49505
49382
49248
49111
48979
48858
48743
48630
48525
48427
48343
48282
48241
48221
48211
48191
48159
48124
48100
48090
48085
48071
48049
48018
47968
47906
47846
47785
47709
47613
47500
47367
47219
47077
46951
46829
46703
46578
46446
46306
46167
46027
45881
45731
45579
45438
45320
45215
45105
44986
44859
44735
44631
44539
44446
44355
44263
44164
44063
43965
43871
43784
43707
43633
43558
43469
43372
43287
43210
43122
43030
42942
42850
42745
42628
42506
42387
42268
42141
42015
41907
41815
41725
41641
41562
41477
41391
41325
41290
41291
41347
41467
41646
41894
42218
42613
43068
43573
44112
44663
45209
45742
46255
46740
47189
47592
47934
48217
48459
48665
48836
48974
49086
49172
49244
49316
49383
49429
49453
49466
49475
49482
49494
49515
49542
49568
49588
49589
49561
49508
49440
49364
49270
49160
49045
48920
48774
48606
48434
48284
48162
48062
47984
47923
47870
47826
47803
47796
47790
47782
47776
47772
47759
47731
47692
47653
47612
47561
47505
47440
47347
47236
47128
47021
46911
46804
46692
46570
46450
46319
46174
46031
45902
45786
45686
45587
45475
45360
45243
45124
45009
44895
44767
44626
44480
44341
44216
44106
44005
43910
43825
43751
43679
43599
43516
43441
43369
43291
43212
43138
43068
43001
42930
42851
42773
42699
42621
42535
42443
42338
42226
42120
42006
41884
41769
41667
41585
41531
41511
41533
41607
41731
41912
42161
42469
42830
43242
43702
44211
44750
45286
45804
46304
46781
47225
47634
48001
48314
48571
48787
48972
49125
49241
49332
49418
49497
49561
49614
49649
49666
49672
49670
49668
49676
49691
49709
49727
49739
49740
49716
49661
49577
49469
49341
49195
49038
48885
48745
48623
48512
48416
48335
48268
48220
48186
48158
48132
48115
48110
48107
48103
48097
48095
48094
48077
48036
47983
47931
47873
47802
47725
47644
47564
47489
47417
47335
47232
47119
47016
46926
46834
46729
46613
46498
46388
46283
46182
46079
45976
45872
45764
45654
45540
45430
45331
45231
45127
45028
44939
44861
44789
44724
44663
44601
44548
44494
44435
44372
44304
44239
44173
44106
44038
43965
43893
43826
43759
43688
43618
43550
43483
43419
43362
43298
43227
43161
43108
43077
43076
43123
43230
43403
43648
43970
44363
44816
45322
45867
46421
46967
47508
48037
48528
48969
49368
49733
50058
50343
50595
50810
50989
51136
51254
51358
51457
51551
51632
51700
51759
51808
51849
51891
51925
51937
51942
51954
51962
51949
51915
51865
51808
51741
51651
51535
51401
51253
51096
50938
50795
50676
50571
50476
50400
50343
50294
50256
50229
50215
50216
50228
50241
50247
50243
50231
50215
50191
50154
50103
50040
49962
49876
49785
49687
49588
49492
49393
49296
49205
49109
49007
48903
48797
48691
48583
48462
48323
48179
48046
47925
47811
47707
47615
47529
47448
47360
47263
47170
47083
46996
46913
46831
46754
46688
46631
46572
46498
46410
46312
46212
46115
46016
45921
45844
45777
45707
45632
45545
45444
45333
45226
45130
45033
44929
44824
44737
44672
44611
44553
44514
44494
44500
44560
44683
44873
45126
45443
45831
46285
46778
47296
47836
48391
48940
49461
49952
50417
50853
51246
51598
51909
52169
52393
52587
52740
52852
52941
53014
53072
53121
53167
53209
53244
53266
53279
53294
53314
53332
53345
53349
53349
53346
53335
53307
53254
53178
53085
52975
52843
52690
52530
52377
52237
52118
52029
51967
51916
51876
51846
51830
51825
51823
51820
51814
51800
51769
51727
51682
51629
51562
51487
51406
51318
51228
51140
51059
50986
50912
50823
50720
50599
50461
50321
50187
50056
49919
49775
49629
49486
49355
49236
49131
49035
48943
48850
48753
48649
48541
48435
48324
48200
48075
47955
47844
47747
47658
47568
47478
47392
47309
47221
47135
47057
46983
46909
46836
46756
46658
46547
46436
46325
46215
46107
45997
45888
45784
45686
45586
45481
45370
45256
45144
45040
44945
44856
44773
44707
44669
44668
44714
44819
44991
45236
45555
45944
46403
46920
47472
48035
48593
49138
49671
50176
50631
51034
51381
51671
51917
52124
52287
52406
52487
52542
52589
52632
52666
52689
52702
52718
52739
52763
52787
52812
52828
52824
52808
52797
52784
52764
52728
52657
52547
52411
52253
52080
51903
51731
51563
51402
51261
51147
51050
50966
50900
50850
50810
50776
50750
50735
50729
50728
50725
50718
50706
50683
50640
50581
50515
50438
50342
50233
50114
49990
49870
49751
49632
49515
49394
49267
49132
48989
48843
48704
48566
48425
48288
48157
48026
47890
47757
47630
47505
47382
47264
47152
47042
46935
46829
46719
46609
46500
46394
46299
46221
46157
46096
46035
45978
45917
45847
45767
45674
45575
45473
45369
45263
45153
45044
44936
44819
44693
44563
44431
44300
44170
44048
43939
43836
43743
43676
43641
43633
43656
43727
43853
44035
44278
44585
44945
45358
45823
46322
46847
47393
47937
48465
48971
49445
49870
50238
50545
50802
51032
51229
51389
51515
51621
51709
51774
51826
51871
51899
51916
51938
51963
51976
51984
52003
52027
52038
52035
52021
51989
51932
51850
51754
51646
51518
51364
51195
51031
50871
50709
50560
50441
50344
50264
50208
50170
50140
50116
50094
50073
50051
50028
50001
49964
49926
49895
49870
49842
49808
49766
49713
49645
49556
49444
49317
49173
49021
48879
48749
48627
48502
48375
48255
48131
47995
47855
47718
47595
47493
47404
47312
47213
47110
47004
46894
46790
46700
46620
46548
46482
46418
46343
46254
46165
46079
45992
45900
45801
45705
45624
45550
45474
45399
45331
45268
45205
45141
45077
45005
44915
44806
44692
44586
44490
44390
44281
44170
44062
43969
43906
43876
43887
43945
44058
44246
44520
44870
45277
45737
46255
46819
47411
48008
48595
49155
49676
50152
50579
50953
51282
51570
51815
52017
52175
52289
52361
52402
52432
52466
52503
52538
52566
52579
52571
52557
52551
52550
52546
52536
52526
52514
52493
52452
52389
52310
52214
52099
51970
51840
51706
51559
51405
51260
51134
51033
50953
50892
50859
50854
50867
50892
50914
50924
50921
50896
50847
50780
50707
50634
50565
50499
50441
50392
50337
50266
50185
50099
50007
49908
49804
49697
49584
49450
49304
49162
49027
48891
48756
48610
48456
48309
48167
48021
47875
47739
47616
47499
47382
47266
47148
47030
46915
46808
46710
46624
46550
46485
46428
46366
46295
46222
46141
46056
45972
45884
45784
45673
45560
45454
45362
45278
45193
45102
45000
44883
44757
44632
44520
44427
44347
44265
44181
44098
44015
43933
43856
43794
43758
43758
43805
43912
44082
44322
44641
45033
45491
46004
46562
47153
47763
48375
48963
49514
50020
50476
50879
51227
51525
51773
51972
52136
52272
52377
52455
52518
52572
52617
52655
52683
52711
52741
52768
52789
52809
52837
52863
52868
52853
52818
52772
52725
52669
52592
52495
52385
52260
52120
51976
51833
51688
51551
51433
51333
51246
51166
51086
51021
50977
50948
50938
50942
50951
50955
50939
50906
50854
50784
50717
50656
50595
50528
50449
50361
50264
50147
50011
49862
49702
49540
49383
49228
49079
48941
48813
48692
48574
48452
48331
48211
48083
47950
47824
47706
47590
47471
47352
47247
47153
47059
46947
46827
46713
46597
46481
46384
46307
46233
46148
46056
45961
45852
45727
45602
45480
45367
45272
45193
45114
45022
44927
44842
44760
44663
44541
44410
44281
44149
44011
43879
43767
43666
43557
43446
43345
43245
43135
43022
42919
42841
42792
42773
42801
42892
43053
43283
43583
43945
44371
44863
45409
45991
46591
47187
47764
48317
48838
49313
49733
50091
50383
50616
50793
50916
50997
51049
51084
51107
51128
51152
51169
51183
51197
51204
51202
51194
51176
51148
51121
51100
51069
51023
50972
50919
50861
50790
50698
50577
50427
50260
50086
49908
49739
49580
49424
49281
49157
49047
48949
48869
48807
48759
48720
48683
48651
48627
48603
48569
48523
48468
48400
48313
48217
48120
48028
47942
47845
47730
47599
47458
47304
47144
46985
46831
46691
46561
46423
46278
46144
46017
45892
45768
45644
45507
45355
45194
45038
44900
44777
44663
44556
44449
44336
44222
44120
44035
43955
43871
43776
43669
43552
43430
43316
43220
43126
43025
42919
42818
42715
