42555
42513
42475
42434
42394
42359
42329
42305
42283
42259
42231
42199
42168
42136
42100
42059
42015
41967
41915
41862
41811
41762
41719
41680
41642
41605
41573
41543
41514
41490
41471
41461
41464
41488
41536
41614
41733
41901
42127
42422
42786
43216
43703
44230
44771
45307
45824
46308
46751
47150
47502
47810
48076
48297
48477
48618
48718
48783
48822
48842
48843
48826
48793
48749
48692
48625
48557
48483
48398
48303
48203
48098
47987
47868
47743
47614
47478
47329
47168
46995
46820
46653
46501
46363
46241
46142
46063
46003
45961
45935
45926
45934
45962
46008
46071
46145
46224
46312
46408
46507
46604
46702
46797
46887
46966
47030
47076
47104
47117
47113
47093
47057
47008
46945
46869
46775
46669
46557
46440
46319
46196
46073
45944
45809
45672
45539
45416
45303
45200
45099
45001
44904
44809
44722
44642
44567
44496
44426
44355
44287
44221
44149
44075
44004
43941
43882
43828
43781
43743
43707
43674
43643
43611
43576
43545
43517
43495
43476
43456
43433
43407
43380
43352
43325
43299
43272
43242
43212
43182
43156
43130
43101
43067
43032
43002
42976
42951
42925
42899
42875
42855
42838
42820
42800
42774
42744
42708
42668
42626
42584
42544
42506
42468
42428
42390
42351
42311
42271
42230
42193
42158
42123
42088
42053
42013
41968
41922
41877
41830
41779
41728
41681
41640
41606
41581
41572
41579
41608
41668
41768
41921
42138
42426
42786
43214
43695
44220
44776
45348
45917
46463
46973
47439
47860
48232
48552
48817
49034
49211
49351
49452
49520
49564
49586
49587
49570
49536
49492
49439
49380
49315
49248
49181
49116
49049
48975
48893
48807
48721
48631
48534
48430
48317
48197
48075
47955
47833
47710
47589
47474
47367
47275
47205
47159
47135
47128
47132
47150
47186
47234
47296
47373
47463
47553
47643
47732
47818
47896
47963
48018
48052
48066
48071
48068
48050
48018
47979
47934
47881
47820
47750
47666
47571
47467
47362
47258
47151
47037
46919
46797
46671
46542
46413
46288
46170
46055
45942
45835
45732
45632
45536
45445
45357
45268
45180
45091
45008
44934
44868
44806
44747
44692
44643
44601
44562
44524
44484
44442
44401
44360
44315
44269
44220
44171
44124
44079
44036
43995
43953
43907
43859
43813
43769
43723
43673
43624
43574
43525
43476
43431
43389
43348
43305
43264
43225
43187
43149
43112
43072
43030
42988
42947
42900
42848
42792
42730
42665
42600
42539
42481
42425
42370
42321
42273
42221
42165
42108
42049
41985
41923
41870
41818
41761
41703
41649
41600
41553
41507
41465
41429
41410
41414
41446
41514
41626
41789
42009
42292
42643
43068
43553
44079
44631
45190
45735
46249
46724
47158
47545
47876
48151
48377
48557
48693
48787
48849
48886
48902
48899
48876
48833
48773
48699
48614
48520
48417
48311
48204
48098
47986
47867
47739
47605
47463
47315
47164
47011
46852
46692
46537
46387
46245
46113
45995
45890
45800
45731
45686
45667
45674
45701
45741
45795
45859
45933
46014
46095
46174
46255
46336
46414
46489
46556
46612
46652
46674
46680
46675
46656
46624
46583
46533
46473
46402
46322
46235
46137
46029
45916
45801
45684
45563
45436
45303
45168
45037
44916
44802
44695
44594
44498
44405
44319
44239
44162
44091
44025
43964
43904
43845
43788
43734
43683
43633
43585
43540
43498
43460
43428
43401
43372
43337
43296
43255
43219
43191
43168
43146
43122
43099
43084
43074
43062
43044
43024
43005
42984
42965
42951
42937
42921
42903
42882
42857
42828
42797
42765
42735
42705
42678
42656
42634
42607
42578
42550
42522
42493
42460
42423
42384
42340
42299
42265
42232
42191
42142
42097
42061
42029
41996
41964
41943
41943
41970
42032
42133
42284
42495
42774
43121
43537
44016
44539
45086
45633
46168
46683
47166
47611
48010
48358
48652
48894
49089
49240
49349
49422
49462
49475
49468
49443
49404
49359
49309
49255
49200
49142
49079
49016
48950
48874
48785
48682
48564
48433
48290
48134
47970
47797
47616
47436
47263
47098
46945
46811
46700
46614
46560
46536
46539
46561
46602
46667
46751
46846
46951
47064
47181
47297
47414
47528
47636
47732
47813
47878
47925
47958
47981
47990
47978
47941
47886
47819
47740
47654
47568
47481
47388
47285
47174
47057
46933
46801
46661
46519
46379
46246
46121
46002
45893
45789
45691
45604
45524
45447
45373
45300
45226
45152
45084
45018
44954
44893
44839
44790
44740
44685
44633
44586
44547
44515
44489
44462
44430
44393
44358
44324
44290
44259
44235
44212
44187
44161
44138
44118
44098
44076
44051
44024
44001
43980
43955
43926
43890
43851
43818
43789
43760
43727
43690
43651
43609
43567
43521
43466
43407
43349
43294
43240
43179
43118
43065
43016
42967
42921
42881
42850
42834
42834
42862
42933
43057
43244
43501
43832
44235
44705
45227
45780
46349
46916
47459
47962
48422
48836
49199
49508
49769
49982
50152
50288
50392
50463
50507
50534
50541
50531
50507
50470
50425
50378
50329
50277
50218
50153
50085
50011
49932
49851
49764
49670
49569
49459
49342
49221
49095
48964
48832
48706
48587
48476
48376
48292
48225
48175
48142
48131
48141
48167
48206
48265
48339
48421
48512
48612
48715
48813
48902
48979
49044
49105
49159
49200
49221
49220
49196
49153
49098
49036
48968
48895
48815
48731
48639
48535
48419
48292
48161
48031
47905
47780
47659
47545
47435
47330
47231
47133
47030
46928
46829
46734
46642
46552
46463
46374
46287
46204
46131
46066
46003
45938
45874
45812
45749
45689
45633
45578
45523
45469
45419
45376
45339
45306
45278
45253
45227
45198
45166
45132
45099
45071
45047
45024
44999
44972
44944
44915
44886
44855
44823
44793
44762
44728
44692
44651
44603
44552
44500
44448
44396
44342
44289
44232
44166
44095
44025
43957
43892
43831
43775
43722
43673
43626
43581
43541
43505
43482
43479
43505
43572
43693
43876
44130
44458
44859
45321
45833
46375
46927
47476
48009
48515
48980
49396
49758
50069
50330
50546
50721
50862
50972
51050
51099
51126
51134
51128
51110
51080
51037
50986
50927
50864
50796
50722
50638
50545
50450
50361
50277
50194
50105
50007
49898
49780
49656
49529
49402
49276
49151
49028
48914
48816
48738
48685
48654
48642
48647
48669
48712
48768
48830
48898
48976
49057
49135
49205
49269
49328
49380
49421
49447
49461
49462
49453
49434
49408
49374
49330
49273
49200
49112
49012
48904
48788
48668
48553
48441
48326
48208
48088
47967
47843
47717
47592
47471
47353
47236
47117
46997
46881
46774
46676
46578
46473
46369
46269
46173
46080
45992
45909
45831
45755
45685
45624
45577
45537
45499
45460
45420
45376
45327
45277
45229
45185
45148
45119
45096
45074
45050
45026
45000
44964
44919
44867
44812
44756
44702
44653
44606
44558
44507
44455
44403
44351
44301
44257
44212
44166
44125
44085
44044
44005
43971
43939
43903
43866
43833
43805
43779
43750
43719
43687
43656
43626
43593
43556
43519
43484
43449
43410
43372
43337
43308
43285
43267
43257
43260
43287
43351
43464
43636
43871
44176
44553
44998
45503
46055
46639
47236
47823
48383
48903
49377
49801
50169
50481
50746
50967
51145
51281
51380
51445
51478
51486
51476
51456
51431
51407
51377
51339
51295
51242
51178
51103
51016
50916
50807
50687
50551
50399
50234
50056
49872
49684
49498
49318
49152
49004
48875
48768
48679
48606
48557
48538
48544
48570
48616
48681
48765
48863
48970
49083
49201
49319
49434
49548
49655
49748
49822
49880
49923
49952
49969
49971
49958
49927
49876
49812
49737
49650
49556
49462
49368
49271
49169
49064
48955
48846
48740
48633
48522
48404
48283
48164
48052
47947
47851
47761
47674
47588
47508
47437
47371
47309
47253
47201
47150
47103
47062
47026
46989
46948
46909
46872
46832
46785
46738
46696
46660
46627
46597
46568
46543
46517
46495
46477
46463
46452
46447
46447
46449
46451
46458
46470
46490
46516
46546
46581
46616
46647
46675
46698
46714
46719
46717
46707
46688
46661
46629
46592
46546
46490
46426
46354
46274
46189
46106
46030
45959
45898
45853
45830
45837
45886
45985
46144
46371
46666
47025
47433
47876
48338
48800
49248
49671
50063
50421
50743
51033
51290
51510
51695
51847
51970
52063
52128
52167
52186
52185
52163
52124
52071
52002
51919
51827
51729
51627
51524
51417
51307
51192
51072
50950
50823
50692
50557
50417
50278
50136
49989
49842
49699
49561
49431
49317
49223
49144
49087
49054
49039
49036
49047
49069
49101
49140
49189
49244
49300
49354
49406
49452
49491
49520
49543
49558
49559
49543
49515
49479
49439
49393
49335
49263
49178
49081
48979
48874
48768
48657
48539
48416
48292
48163
48033
47906
47778
47652
47528
47407
47287
47169
47057
46953
46856
46762
46671
46587
46512
46444
46382
46325
46271
46223
46179
46133
46081
46029
45979
45927
45874
45823
45776
45734
45696
45661
45629
45603
45580
45556
45534
45512
45486
45457
45425
45391
45360
45336
45315
45293
45271
45249
45227
45202
45174
45146
45115
45082
45045
45002
44952
44899
44842
44783
44723
44664
44605
44542
44475
44407
44340
44283
44242
44217
44210
44225
44268
44349
44480
44671
44927
45251
45640
46082
46561
47062
47570
48064
48532
48972
49375
49734
50047
50313
50538
50722
50867
50979
51065
51125
51162
51179
51177
51160
51124
51073
51012
50944
50874
50800
50721
50638
50552
50466
50377
50279
50166
50041
49908
49771
49632
49492
49351
49211
49074
48940
48813
48700
48609
48538
48485
48452
48438
48443
48469
48516
48580
48659
48751
48851
48955
49061
49164
49260
49351
49435
49509
49566
49611
49647
49670
49680
49679
49667
49644
49603
49545
49477
49395
49296
49184
49068
48945
48815
48680
48536
48385
48232
48087
47948
47814
47685
47567
47459
47355
47249
47139
47027
46920
46821
46725
46630
46538
46448
46362
46280
46204
46132
46062
45996
45933
45872
45816
45770
45732
45698
45669
45640
45612
45584
45557
45530
45501
45471
45444
45419
45392
45364
45333
45303
45275
45248
45221
45192
45159
45125
45090
45053
45011
44968
44923
44879
44840
44804
44768
44729
44688
44645
44600
44554
44508
44462
44416
44375
44337
44303
44277
44261
44265
44297
44364
44474
44641
44868
45157
45509
45926
46401
46911
47437
47967
48485
48978
49436
49851
50219
50543
50826
51074
51286
51460
51595
51698
51776
51832
51870
51893
51904
51903
51891
51868
51833
51788
51738
51684
51629
51568
51500
51423
51333
51228
51109
50980
50842
50699
50552
50406
50264
50133
50018
49923
49847
49791
49756
49741
49745
49774
49827
49900
49986
50079
50173
50264
50355
50447
50536
50615
50683
50744
50797
50837
50863
50879
50882
50870
50842
50800
50748
50684
50607
50519
50425
50326
50224
50121
50019
49920
49820
49720
49619
49516
49409
49301
49195
49091
48984
48876
48772
48673
48582
48499
48416
48332
48249
48171
48096
48024
47960
47903
47849
47794
47743
47698
47658
47620
47584
47550
47513
47477
47447
47420
47397
47374
47349
47318
47283
47245
47209
47173
47136
47095
47052
47006
46958
46910
46867
46823
46777
46731
46687
46644
46598
46547
46495
46442
46394
46348
46296
46238
46179
46120
46060
45998
45938
45884
45839
45808
45793
45807
45862
45970
46141
46378
46687
47063
47499
47978
48482
48993
49498
49988
50448
50871
51250
51586
51878
52127
52335
52500
52621
52710
52775
52820
52848
52858
52853
52838
52810
52771
52724
52670
52606
52534
52461
52386
52303
52208
52109
52013
51917
51812
51696
51571
51435
51291
51146
51009
50881
50759
50651
50561
50487
50432
50398
50385
50390
50410
50444
50493
50552
50622
50704
50794
50885
50971
51052
51126
51191
51246
51290
51323
51345
51355
51355
51344
51324
51292
51248
51191
51120
51038
50949
50857
50762
50661
50553
50439
50322
50205
50082
49952
49820
49689
49561
49439
49323
49217
49114
49017
48928
48842
48759
48679
48603
48529
48456
48383
48315
48254
48197
48143
48095
48048
47994
47932
47868
47808
47754
47707
47664
47626
47595
47577
47565
47551
47532
47505
47472
47438
47406
47377
47351
47327
47298
47264
47227
47188
47148
47105
47058
47004
46948
46895
46844
46791
46734
46673
46611
46547
46480
46409
46339
46270
46202
46134
46069
46008
45956
45919
45903
45904
45932
46003
46130
46321
46584
46921
47328
47795
48305
48836
49371
49893
50390
50850
51268
51637
51957
52232
52463
52653
52808
52932
53024
53085
53120
53136
53136
53123
53100
53067
53022
52965
52900
52829
52751
52666
52578
52488
52395
52298
52193
52082
51963
51836
51705
51570
51431
51292
51157
51028
50909
50808
50724
50656
50602
50564
50545
50548
50570
50609
50664
50729
50798
50870
50946
51023
51092
51150
51197
51231
51249
51255
51253
51240
51215
51181
51138
51082
51017
50944
50860
50759
50645
50520
50386
50250
50112
49973
49837
49706
49574
49444
49317
49191
49066
48945
48825
48705
48585
48463
48339
48215
48091
47970
47854
47742
47633
47530
47431
47335
47242
47154
47075
47002
46934
46870
46806
46742
46685
46638
46595
46552
46507
46461
46413
46364
46314
46267
46223
46186
46150
46109
46065
46025
45986
45944
45897
45844
45792
45743
45695
45650
45608
45563
45517
45473
45431
45388
45341
45291
45240
45189
45136
45079
45020
44960
44896
44834
44780
44729
44677
44627
44576
44519
44458
44401
44355
44311
44261
44210
44159
44110
44069
44046
44048
44081
44153
44277
44464
44721
45055
45466
45938
46450
46985
47533
48078
48608
49112
49576
49990
50357
50680
50960
51196
51390
51544
51661
51743
51795
51817
51815
51795
51760
51712
51654
51587
51511
51430
51349
51260
51162
51058
50947
50820
50681
50531
50376
50217
50057
49894
49732
49578
49437
49313
49210
49124
49055
49012
48995
48998
49027
49084
49166
49263
49368
49477
49586
49695
49806
49918
50025
50124
50217
50302
50370
50423
50466
50496
50511
50511
50497
50466
50416
50351
50276
50188
50085
49970
49847
49720
49589
49457
49332
49215
49104
49000
48900
48803
48703
48598
48495
48398
48303
48210
48119
48030
47943
47858
47776
47701
47632
47568
47513
47466
47426
47392
47359
47326
47296
47267
47236
47204
47172
47138
47104
47069
47034
47000
46965
46933
46901
46869
46836
46800
46766
46733
46704
46676
46651
46627
46601
46571
46540
46509
46477
46443
46407
46368
46327
46279
46224
46166
46108
46047
45982
45915
45851
45787
45724
45668
45615
45565
45524
45490
45460
45436
45415
45401
45399
45421
45473
45567
45709
45911
46182
46523
46931
47395
47905
48446
49000
49543
50061
50546
50989
51388
51739
52040
52291
52500
52676
52820
52933
53018
53076
53114
53133
53131
53108
53068
53015
52949
52873
52793
52709
52620
52526
52428
52326
52218
52096
51963
51823
51680
51534
51385
51235
51088
50950
50827
50720
50633
50567
50519
50488
50476
50485
50516
50569
50644
50731
50825
50924
51027
51132
51239
51345
51440
51519
51583
51637
51680
51713
51739
51756
51758
51742
51711
51665
51601
51525
51442
51356
51267
51175
51079
50981
50877
50765
50650
50536
50421
50305
50189
50076
49966
49857
49749
49648
49552
49460
49376
49296
49217
49138
49058
48982
48914
48852
48794
48741
48694
48654
48621
48590
48559
48526
48492
48460
48427
48390
48347
48302
48257
48221
48197
48176
48150
48120
48089
48058
48027
47993
47955
47916
47879
47847
47816
47785
47751
47714
47674
47632
47589
47544
47500
47457
47411
47367
47326
47283
47239
47197
47156
47110
47054
46990
46927
46864
46799
46735
46676
46621
46569
46522
46483
46459
46461
46502
46589
46724
46918
47189
47542
47974
48469
49009
49573
50140
50701
51239
51739
52192
52598
52957
53268
53533
53753
53935
54083
54195
54274
54331
54371
54395
54397
54378
54347
54311
54271
54224
54168
54107
54043
53977
53905
53829
53747
53659
53564
53461
53346
53221
53088
52953
52822
52696
52575
52461
52360
52274
52204
52158
52135
52128
52133
52153
52186
52230
52288
52354
52427
52505
52585
52665
52743
52812
52870
52921
52965
52997
53015
53019
53011
52992
52959
52913
52858
52796
52728
52660
52589
52511
52426
52338
52248
52155
52057
51950
51836
51717
51597
51480
51363
51248
51132
51017
50906
50793
50677
50570
50472
50376
50282
50187
50093
50002
49913
49823
49733
49645
49559
49475
49391
49313
49244
49178
49114
49054
49001
48947
48888
48822
48759
48703
48649
48598
48552
48506
48454
48398
48341
48281
48219
48157
48097
48035
47972
47904
47832
47756
47675
47588
47501
47414
47326
47239
47156
47075
46993
46911
46833
46758
46681
46604
46529
46454
46379
46306
46233
46160
46085
46012
45941
45871
45799
45729
45663
45600
45543
45488
45430
45368
45303
45242
45189
45141
45098
45072
45068
45097
45173
45312
45525
45818
46193
46647
47172
47749
48352
48959
49550
50113
50641
51125
51557
51935
52258
52531
52750
52918
53037
53113
53153
53162
53150
53121
53079
53022
52953
52877
52796
52708
52614
52517
52414
52304
52189
52068
51934
51790
51640
51485
51327
51168
51010
50854
50704
50564
50437
50321
50219
50136
50073
50033
50022
50039
50082
50147
50234
50339
50458
50584
50716
50854
50996
51136
51263
51374
51471
51551
51612
51661
51695
51713
51718
51712
51694
51665
51623
51572
51510
51436
51350
51256
51155
51047
50934
50819
50699
50576
50457
50345
50235
50125
50017
49916
49820
49729
49648
49573
49502
49436
49376
49322
49271
49220
49174
49130
49082
49028
48971
48915
48861
48810
48763
48718
48673
48632
48598
48568
48539
48514
48490
48467
48444
48421
48393
48359
48319
48274
48226
48180
48139
48105
48071
48038
48004
47971
47935
47897
47862
47827
47788
47749
47709
47667
47621
47570
47516
47459
47403
47348
47292
47235
47176
47111
47042
46967
46888
46808
46734
46672
46625
46595
46589
46619
46689
46810
46995
47253
47586
47992
48465
48987
49534
50085
50627
51149
51640
52095
52506
52868
53177
53435
53648
53822
53956
54054
54120
54156
54165
54153
54121
54072
54013
53946
53875
53796
53711
53620
53522
53415
53300
53175
53045
52907
52760
52605
52443
52275
52104
51933
51766
51604
51449
51311
51194
51099
51028
50983
50966
50971
50996
51044
51113
51201
51308
51430
51558
51683
51803
51916
52025
52126
52213
52284
52338
52375
52395
52397
52382
52351
52309
52263
52213
52157
52098
52033
51960
51877
51783
51678
51561
51434
51301
51168
51037
50910
50788
50669
50555
50443
50336
50234
50131
50030
49937
49847
49758
49671
49593
49527
49467
49410
49356
49307
49259
49213
49168
49124
49080
49033
48985
48938
48892
48844
48796
48748
48698
48643
48587
48534
48487
48448
48414
48385
48356
48327
48298
48270
48243
48217
48185
48148
48109
48075
48042
48008
47971
47932
47892
47852
47810
47765
47714
47660
47608
47559
47504
47444
47381
47317
47256
47194
47130
47064
47001
46944
46894
46857
46842
46848
46881
46954
47079
47270
47543
47902
48339
48836
49379
49949
50531
51107
51660
52183
52667
53105
53493
53832
54118
54352
54543
54692
54796
54863
54906
54930
54937
54932
54916
54885
54839
54781
54715
54647
54570
54482
54384
54276
54164
54054
53942
53821
53691
53553
53414
53273
53131
52993
52862
52734
52611
52501
52411
52341
52290
52258
52245
52252
52280
52328
52391
52466
52553
52646
52741
52833
52918
52998
53073
53138
53196
53250
53290
53318
53338
53348
53345
53326
53291
53243
53183
53113
53037
52955
52866
52769
52668
52568
52468
52361
52245
52126
52006
51884
51766
51650
51535
51421
51311
51205
51105
51013
50927
50844
50766
50696
50634
50581
50536
50495
50456
50419
50377
50330
50283
50238
50195
50153
50109
50062
50012
49970
49934
49900
49865
49826
49784
49744
49707
49671
49638
49609
49580
49548
49516
49486
49457
49431
49404
49373
49340
49306
49270
49233
49192
49148
49100
49051
49000
48950
48900
48847
48793
48735
48675
48610
48541
48468
48392
48312
48233
48155
48079
48005
47934
47865
47809
47772
47761
47786
47857
47988
48195
48487
48858
49302
49806
50349
50909
51469
52014
52530
53008
53444
53834
54175
54471
54726
54937
55105
55236
55335
55405
55447
55466
55468
55454
55419
55366
55301
55230
55152
55063
54966
54866
54758
54645
54528
54403
54269
54128
53985
53835
53678
53515
53354
53197
53048
52911
52790
52689
52608
52551
52523
52520
52541
52585
52650
52735
52835
52944
53062
53188
53311
53420
53514
53596
53665
53719
53754
53775
53780
53770
53751
53724
53681
53628
53570
53507
53437
53366
53293
53215
53132
53045
52954
52857
52753
52640
52522
52404
52287
52170
52056
51942
51828
51719
51617
51519
51425
51335
51251
51173
51100
51037
50987
50944
50905
50865
50820
50772
50722
50671
50616
50557
50501
50451
50401
50348
50298
50254
50217
50188
50168
50153
50136
50114
50088
50060
50030
50000
49970
49941
49910
49879
49847
49814
49775
49733
49692
49652
49611
49566
49518
49467
49414
49359
49302
49244
49184
49124
49069
49015
48956
48891
48821
48745
48663
48579
48495
48407
48319
48236
48160
48091
48035
48001
47996
48028
48106
48244
48450
48730
49089
49525
50024
50564
51127
51700
52265
52806
53311
53767
54166
54506
54792
55031
55233
55399
55530
55627
55697
55741
55764
55766
55751
55723
55687
55643
55593
55533
55465
55392
55309
55217
55117
55006
54881
54737
54580
54414
54239
54059
53879
53702
53531
53368
53225
53107
53012
52943
52905
52898
52918
52964
53032
53119
53221
53337
53458
53579
53695
53804
53906
54000
54082
54152
54212
54258
54289
54300
54297
54283
54259
54223
54179
54126
54062
53989
53909
53826
53739
53651
53558
53459
53357
53253
53146
53037
52930
52824
52719
52612
52504
52400
52300
52204
52111
52020
51932
51850
51780
51720
51669
51623
51585
51554
51529
51501
51468
51432
51394
51351
51304
51256
51209
51161
51113
51064
51018
50974
50935
50904
50877
50854
50831
50808
50788
50772
50756
50733
50704
50670
50631
50586
50538
50488
50434
50376
50314
50255
50204
50157
50103
50047
49993
49939
49881
49816
49746
49674
49602
49526
49442
49355
49265
49171
49072
48972
48871
48765
48658
48552
48452
48368
48303
48262
48258
48302
48402
48566
48804
49115
49492
49926
50402
50907
51419
51920
52399
52850
53262
53629
53949
54224
54454
54639
54781
54884
54954
54998
55015
55005
54970
54912
54835
54744
54637
54513
54377
54230
54076
53913
53747
53579
53406
53224
53037
52849
52656
52461
52271
52089
51916
51753
51604
51473
51365
51278
51211
51167
51143
51139
51160
51203
51265
51345
51444
51557
51681
51809
51935
52058
52179
52296
52404
52499
52585
52663
52726
52770
52791
52792
52774
52737
52680
52606
52522
52429
52331
52223
52107
51987
51867
51754
51645
51535
51428
51327
51230
51132
51038
50944
50846
50744
50641
50543
50456
50381
50316
50257
50199
50142
50088
50041
49998
49958
49926
49904
49888
49874
49863
49853
49838
49819
49800
49783
49766
49744
49719
49693
49668
49642
49618
49598
49584
49576
49574
49572
49565
49555
49546
49534
49515
49490
49458
49421
49382
49343
49302
49256
49204
49145
49079
49013
48949
48888
48833
48785
48742
48699
48652
48602
48550
48501
48455
48415
48390
48384
48406
48467
48581
48759
49009
49334
49732
50197
50710
51253
51804
52348
52871
53358
53800
54198
54551
54850
55096
55296
55458
55584
55678
55746
55794
55819
55822
55807
55776
55730
55671
55598
55512
55413
55305
55187
55061
54924
54772
54607
54432
54248
54054
53854
53649
53445
53252
53072
52903
52749
52618
52512
52434
52389
52377
52392
52434
52504
52604
52727
52863
53005
53151
53298
53438
53570
53699
53821
53928
54013
54078
54126
54157
54173
54175
54161
54131
54089
54035
53970
53892
53806
53710
53606
53496
53377
53253
53131
53012
52895
52774
52649
52523
52400
52282
52164
52044
51926
51815
51708
51602
51501
51402
51309
51224
51147
51073
50997
50921
50851
50785
50724
50668
50621
50579
50540
50506
50479
50455
50430
50405
50377
50347
50319
50288
50255
50219
50182
50147
50112
50080
50048
50019
49996
49975
49949
49922
49893
49861
49820
49770
49716
49657
49592
49525
49457
49391
49330
49274
49219
49163
49109
49062
49026
49003
48996
49013
49069
49181
49362
49621
49957
50366
50840
51364
51915
52475
53028
53557
54052
54508
54919
55281
55594
55859
56078
56251
56383
56475
56535
56574
56596
56597
56581
56551
56509
56460
56404
56341
56267
56186
56101
56010
55915
55819
55719
55610
55489
55359
55221
55075
54920
54757
54592
54431
54277
54136
54016
53919
53846
53799
53778
53780
53803
53853
53928
54017
54118
54230
54349
54468
54581
54685
54777
54856
54923
54980
55024
55051
55065
55066
55053
55026
54990
54944
54890
54825
54752
54676
54598
54512
54419
54320
54212
54096
53977
53853
53729
53607
53486
53363
53236
53108
52986
52862
52735
52608
52489
52377
52274
52182
52102
52031
51964
51899
51842
51793
51748
51703
51658
51613
51566
51519
51479
51443
51407
51369
51331
51294
51256
51214
51173
51132
51095
51066
51040
51011
50984
50960
50940
50913
50878
50837
50791
50744
50697
50650
50600
50548
50495
50438
50372
50298
50221
50148
50084
50021
49953
49884
49817
49752
49691
49634
49583
49541
49515
49515
49552
49635
49775
49984
50269
50628
51056
51544
52073
52621
53171
53713
54227
54700
55132
55524
55870
56168
56423
56636
56806
56936
57031
57095
57136
57160
57167
57157
57131
57088
57028
56957
56878
56792
56697
56595
56491
56385
56279
56174
56067
55957
55840
55713
55578
55437
55292
55146
55003
54870
54755
54653
54564
54494
54447
54425
54428
54457
54504
54566
54641
54726
54817
54911
55007
55107
55208
55303
55387
55456
55505
55535
55553
55563
55565
55556
55532
55498
55456
55409
55354
55291
55217
55129
55027
54917
54802
54679
54550
54417
54282
54148
54020
53899
53781
53668
53560
53450
53337
53225
53120
53021
52927
52836
52745
52654
52563
52468
52371
52280
52199
52128
52063
52004
51948
51894
51839
51782
51725
51671
51619
51570
51524
51480
51432
51382
51332
51288
51249
51213
51180
51151
51123
51092
51056
51017
50977
50936
50894
50849
50797
50743
50689
50633
50577
50521
50462
50398
50333
50265
50193
50119
50045
49965
49874
49778
49685
49596
49518
49450
49390
49338
49301
49289
49312
49373
49485
49667
49928
50268
50686
51171
51708
52272
52841
53397
53930
54429
54886
55296
55655
55965
56231
56454
56636
56783
56892
56964
57004
57021
57019
56997
56957
56907
56843
56762
56666
56563
56453
56334
56206
56072
55932
55788
55638
55477
55306
55130
54953
54776
54602
54438
54286
54149
54025
53916
53822
53746
53693
53665
53658
53680
53732
53811
53910
54028
54155
54285
54415
54542
54665
54773
54860
54929
54984
55026
55050
55061
55056
55032
54994
54948
54896
54833
54757
54673
54584
54488
54389
54287
54179
54064
53942
53811
53671
53531
53393
53255
53120
52987
52855
52723
52599
52487
52384
52288
52198
52115
52037
51963
51890
51817
51746
51676
51607
51540
51478
51419
51364
51310
51260
51221
51191
51163
51137
51107
51071
51036
50999
50959
50914
50864
50816
50774
50733
50689
50648
50612
50580
50554
50531
50506
50478
50445
50405
50362
50321
50285
50248
50202
50147
50091
50035
49978
49921
49865
49808
49750
49690
49628
49562
49492
49420
49348
49276
49204
49133
49061
48990
48919
48850
48784
48725
48671
48626
48593
48567
48551
48557
48596
48678
48817
49032
49338
49732
50206
50747
51337
51952
52569
53171
53737
54259
54735
55159
55527
55835
56083
56277
56422
56521
56583
56620
56632
56617
56580
56525
56454
56365
56261
56145
56017
55878
55734
55591
55447
55295
55134
54968
54801
54628
54448
54258
54061
53861
53658
53458
53271
53101
52953
52828
52724
52641
52584
52553
52548
52565
52601
52653
52719
52799
52894
52999
53110
53224
53336
53444
53542
53627
53698
53754
53790
53804
53799
53779
53746
53700
53639
53563
53473
53368
53251
53124
52987
52842
52691
52535
52373
52216
52068
51924
51782
51643
51508
51377
51250
51126
51005
50886
50769
50654
50536
50412
50290
50176
50071
49972
49883
49804
49730
49660
49595
49537
49482
49431
49385
49342
49297
49248
49198
49148
49094
49036
48981
48933
48889
48848
48812
48783
48756
48726
48697
48670
48641
48607
48570
48529
48486
48438
48388
48335
48282
48235
48199
48167
48138
48108
48072
48029
47981
47930
47876
47822
47767
47711
47654
47593
47528
47462
47398
47336
47274
47211
47149
47086
47024
46965
46911
46858
46805
46757
46720
46695
46690
46717
46784
46899
47077
47331
47669
48086
48576
49127
49724
50345
50967
51572
52144
52669
53139
53549
53898
54189
54427
54614
54752
54852
54919
54955
54957
54925
54862
54781
54683
54569
54447
54323
54195
54056
53906
53750
53589
53423
53249
53061
52862
52657
52449
52242
52039
51842
51652
51475
51316
51175
51061
50979
50929
50907
50913
50950
51017
51112
51233
51370
51518
51679
51851
52024
52194
52358
52510
52647
52767
52872
52960
53027
53072
53094
53089
53062
53019
52963
52896
52819
52734
52645
52553
52457
52356
52249
52138
52028
51921
51814
51702
51588
51474
51363
51254
51146
51044
50947
50849
50749
50647
50550
50456
50366
50281
50203
50127
50058
49994
49939
49890
49845
49803
49764
49729
49699
49672
49641
49601
49558
49519
49487
49455
49423
49393
49365
49335
49301
49266
49231
49198
49167
49139
49112
49084
49057
49033
49006
48967
48921
48873
48823
48774
48725
48673
48617
48558
48498
48441
48393
48353
48326
48312
48318
48357
48446
48591
48799
49080
49437
49867
50357
50890
51449
52017
52576
53110
53607
54063
54471
54832
55149
55422
55650
55832
55971
56070
56129
56154
56156
56134
56088
56029
55964
55896
55821
55741
55655
55557
55447
55334
55217
55092
54957
54811
54653
54483
54301
54112
53919
53728
53544
53373
53216
53078
52964
52877
52811
52763
52734
52729
52748
52787
52843
52916
53006
53110
53228
53353
53480
53601
53711
53804
53882
53942
53983
54007
54015
54003
53972
53923
53862
53793
53718
53633
53540
53443
53345
53244
53135
53023
52909
52787
52653
52512
52370
52229
52089
51952
51821
51701
51588
51480
51375
51271
51170
51077
50993
50918
50847
50775
50705
50642
50584
50529
50477
50425
50371
50318
50272
50234
50196
50158
50119
50080
50043
50008
49974
49942
49917
49897
49879
49862
49841
49816
49784
49743
49698
49651
49602
49553
49504
49456
49408
49361
49317
49276
49238
49198
49154
49108
49058
49000
48940
48882
48828
48777
48728
48693
48681
48704
48777
48910
49110
49389
49755
50203
50721
51286
51876
52468
53047
53601
54118
54589
55012
55386
55708
55978
56198
56373
56509
56614
56692
56745
56769
56764
56737
56693
56634
56563
56479
56384
56281
56175
56066
55953
55838
55721
55603
55480
55352
55218
55074
54917
54752
54585
54413
54239
54071
53920
53791
53688
53614
53567
53547
53552
53580
53628
53696
53784
53886
53996
54107
54216
54317
54411
54501
54587
54664
54729
54784
54826
54854
54865
54861
54841
54802
54747
54678
54595
54500
54394
54282
54169
54055
53933
53801
53671
53543
53419
53298
53178
53057
52936
52814
52692
52569
52445
52323
52204
52091
51986
51890
51806
51730
51664
51605
51549
51493
51433
51375
51316
51252
51179
51106
51041
50985
50937
50898
50865
50835
50806
50779
50752
50725
50701
50679
50657
50630
50599
50563
50530
50500
50475
50457
50442
50426
50408
50390
50365
50329
50286
50244
50199
50147
50088
50024
49954
49877
49797
49718
49644
49575
49508
49442
49379
49329
49293
49275
49277
49305
49369
49479
49649
49897
50227
50632
51100
51616
52162
52722
53283
53831
54345
54813
55231
55600
55924
56197
56423
56605
56749
56856
56932
56978
56996
56989
56964
56925
56873
56808
56738
56660
56572
56472
56361
56244
56123
55997
55866
55730
55585
55427
55257
55082
54909
54740
54584
54442
54311
54195
54096
54018
53964
53932
53919
53927
53957
54011
54089
54182
54287
54400
54522
54652
54783
54905
55014
55107
55185
55249
55299
55329
55335
55319
55287
55242
55185
55116
55036
54945
54845
54739
54625
54505
54380
54252
54119
53982
53846
53716
53594
53473
53350
53226
53099
52972
52850
52736
52630
52524
52419
52317
52220
52127
52039
51956
51879
51808
51739
51678
51626
51576
51527
51476
51424
51372
51326
51287
51249
51217
51190
51168
51145
51121
51096
51069
51036
50996
50954
50910
50862
50816
50774
50739
50703
50664
50624
50584
50549
50515
50478
50438
50395
50345
50290
50236
50184
50135
50089
50042
49987
49923
49856
49788
49716
49642
49571
49508
49450
49399
49355
49317
49290
49282
49305
49371
49497
49693
49968
50325
50757
51254
51804
52386
52978
53556
54107
54626
55106
55539
55919
56249
56531
56769
56961
57109
57217
57294
57343
57363
57357
57331
57285
57218
57137
57049
56953
56848
56738
56626
56510
56388
56259
56122
55977
55819
55651
55473
55288
55096
54903
54715
54534
54368
54227
54117
54037
53989
53971
53985
54030
54098
54185
54288
54405
54534
54671
54809
54941
55064
55181
55289
55386
55467
55529
55570
55590
55598
55596
55583
55556
55516
55468
55412
55349
55277
55194
55100
54996
54886
54767
54638
54504
54370
54237
54100
53966
53838
53716
53597
53485
53382
53289
53199
53110
53021
52932
52843
52755
52668
52582
52501
52426
52359
52301
52251
52208
52169
52133
52095
52056
52019
51983
51939
51888
51839
51796
51755
51714
51669
51621
51570
51525
51490
51466
51448
51432
51416
51397
51374
51345
51310
51272
51232
51186
51135
51082
51032
50984
50936
50887
50840
50791
50738
50679
50615
50546
50472
50394
50305
50210
50111
50016
49928
49846
49770
49706
49661
49632
49620
49633
49683
49788
49962
50213
50544
50953
51430
51958
52522
53099
53669
54217
54733
55210
55642
56025
56359
56645
56885
57080
57236
57354
57434
57482
57507
57510
57491
57452
57397
57326
57239
57139
57032
56923
56814
56706
56599
56489
56369
56235
56087
55925
55752
55570
55385
55201
55020
54845
54682
54535
54409
54312
54248
54223
54234
54274
54333
54408
54497
54602
54720
54844
54969
55090
55209
55321
55420
55505
55572
55615
55632
55627
55605
55572
55531
55482
55419
55342
55258
55170
55081
54986
54881
54768
54648
54525
54395
54259
54120
53974
53825
53676
53530
53386
53241
53097
52958
52826
52706
52601
52510
52427
52353
52289
52231
52175
52123
52076
52033
51992
51955
51918
51877
51831
51784
51735
51682
51625
51569
51518
51473
51432
51394
51362
51338
51321
51309
51293
51269
51240
51213
51187
51161
51142
51130
51120
51102
51080
51057
51035
51012
50986
50957
50925
50890
50853
50815
50773
50725
50674
50620
50562
50500
50431
50356
50274
50189
50105
50021
49942
49873
49816
49767
49730
49719
49747
49826
49966
50177
50462
50818
51242
51724
52250
52798
53349
53890
54404
54879
55307
55683
56007
56283
56514
56700
56841
56944
57014
57063
57097
57110
57103
57080
57044
56993
56935
56875
56807
56725
56629
56522
56398
56257
56101
55934
55756
55562
55354
55142
54930
54715
54500
54292
54099
53927
53778
53649
53543
53468
53426
53412
53421
53454
53518
53612
53728
53857
53995
54139
54285
54427
54557
54666
54751
54814
54863
54896
54914
54920
54916
54895
54857
54807
54745
54670
54582
54485
54377
54258
54138
54020
53909
53798
53673
53535
53389
53239
53089
52948
52818
52693
52564
52433
52301
52175
52061
51958
51860
51766
51673
51583
51496
51414
51334
51256
51184
51115
51050
50991
50938
50890
50846
50807
50771
50732
50691
50648
50602
50552
50500
50448
50398
50350
50306
50264
50222
50179
50143
50108
50074
50041
50014
49989
49966
49939
49903
49856
49798
49735
49671
49610
49546
49479
49415
49350
49283
49216
49150
49083
49011
48938
48866
48795
48723
48654
48588
48528
48482
48458
48462
48503
48594
48751
48982
49286
49663
50106
50601
51131
51683
52241
52791
53320
53815
54271
54686
55053
55365
55622
55833
56002
56131
56223
56283
56310
56304
56271
56214
56129
56014
55878
55732
55588
55443
55292
55135
54968
54789
54597
54395
54182
53965
53746
53529
53317
53112
52917
52735
52568
52416
52290
52196
52133
52102
52102
52131
52185
52263
52366
52490
52628
52774
52924
53074
53218
53348
53466
53569
53652
53715
53757
53782
53784
53763
53719
53661
53594
53519
53433
53337
53235
53127
53010
52884
52753
52624
52500
52376
52253
52127
52000
51879
51765
51654
51548
51445
51345
51251
51157
51064
50973
50885
50801
50722
50650
50583
50521
50465
50415
50370
50328
50290
50260
50234
50208
50183
50160
50135
50105
50071
50036
50002
49971
49944
49924
49906
49888
49870
49854
49837
49818
49798
49775
49747
49713
49674
49633
49588
49542
49494
49447
49406
49371
49340
49311
49279
49248
49220
49195
49175
49164
49170
49198
49261
49373
49543
49776
50073
50435
50867
51356
51883
52426
52969
53495
53993
54458
54887
55275
55613
55898
56128
56309
56448
56554
56631
56674
56685
56671
56636
56583
56515
56437
56347
56245
56133
56009
55873
55728
55575
55413
55240
55059
54873
54682
54487
54288
54088
53896
53715
53551
53404
53278
53171
53085
53022
52988
52984
53011
53065
53140
53234
53349
53485
53636
53794
53952
54104
54247
54378
54494
54593
54672
54732
54772
54792
54795
54781
54750
54704
54648
54577
54493
54400
54297
54180
54055
53926
53795
53660
53525
53392
53262
53132
53004
52883
52767
52655
52548
52443
52338
52239
52149
52068
51992
51918
51848
51779
51707
51635
51563
51491
51416
51343
51280
51226
51177
51136
51103
51076
51051
51028
51009
50992
50973
50954
50938
50924
50907
50887
50864
50840
50809
50771
50730
50688
50642
50595
50547
50498
50445
50389
50330
50266
50201
50137
50073
50010
49948
49893
49858
49852
49878
49947
50068
50254
50517
50861
51281
51767
52304
52870
53445
54014
54563
55076
55541
55958
56326
56647
56920
57145
57329
57475
57582
57655
57696
57712
57709
57692
57666
57633
57591
57537
57473
57397
57310
57210
57103
56989
56865
56732
56590
56442
56291
56138
55982
55825
55671
55520
55373
55231
55100
54984
54891
54825
54785
54771
54786
54829
54892
54972
55069
55177
55288
55399
55508
55616
55720
55817
55900
55967
56019
56060
56087
56095
56085
56061
56026
55978
55918
55853
55781
55699
55607
55507
55401
55285
55159
55028
54895
54761
54629
54497
54362
54227
54093
53963
53838
53717
53597
53482
53373
53269
53169
53077
52992
52913
52841
52775
52710
52646
52585
52530
52480
52434
52391
52350
52310
52270
52235
52202
52166
52127
52091
52062
52031
51994
51956
51922
51889
51858
51829
51801
51774
51744
51712
51679
51643
51606
51567
51527
51483
51434
51381
51317
51240
51156
51073
50992
50912
50833
50754
50682
50622
50575
50548
50550
50589
50678
50833
51064
51376
51769
52234
52756
53315
53889
54456
55002
55516
55991
56421
56801
57129
57404
57632
57819
57968
58080
58156
58201
58222
58224
58204
58164
58108
58041
57965
57881
57788
57688
57588
57486
57383
57275
57160
57036
56901
56757
56605
56445
56278
56106
55932
55765
55607
55462
55335
55227
55144
55084
55051
55046
55071
55127
55208
55307
55418
55539
55664
55788
55909
56025
56126
56209
56275
56330
56372
56397
56408
56406
56389
56359
56317
56266
56207
56142
56072
55991
55898
55799
55695
55588
55478
55366
55248
55122
54988
54850
54711
54573
54436
54302
54177
54061
53951
53847
53750
53662
53580
53503
53430
53362
53302
53249
53197
53141
53084
53034
52989
52943
52896
52846
52793
52737
52681
52625
52570
52519
52476
52438
52402
52365
52327
52290
52260
52236
52214
52190
52164
52134
52103
52074
52041
52004
51966
51924
51877
51827
51776
51722
51663
51600
51537
51476
51418
51358
51293
51225
51153
51082
51011
50938
50865
50791
50719
50651
50589
50535
50492
50463
50462
50499
50585
50731
50954
51263
51657
52130
52662
53229
53811
54390
54953
55488
55985
56432
56830
57182
57488
57744
57950
58109
58227
58308
58360
58389
58394
58377
58341
58291
58232
58165
58088
58000
57906
57808
57706
57601
57494
57380
57254
57111
56958
56796
56628
56454
56270
56078
55886
55705
55540
55395
55278
55194
55143
55122
55132
55173
55241
55333
55441
55559
55675
55792
55905
56008
56102
56191
56276
56344
56394
56432
56463
56483
56490
56481
56458
56421
56371
56312
56242
56165
56080
55984
55872
55747
55611
55465
55312
55157
55006
54861
54725
54599
54479
54362
54247
54137
54025
53909
53791
53675
53564
53460
53362
53265
53166
53069
52978
52891
52808
52734
52670
52612
52557
52505
52460
52416
52373
52330
52293
52259
52227
52193
52153
52106
52056
52005
51953
51901
51850
51801
51753
51704
51660
51619
51576
51530
51482
51432
51383
51335
51284
51229
51169
51101
51032
50963
50894
50826
50758
50693
50629
50566
50499
50422
50338
50253
50168
50085
50010
49938
49865
49793
49722
49652
49585
49519
49459
49403
49348
49294
49252
49234
49250
49313
49439
49640
49924
50293
50741
51264
51845
52459
53079
53686
54267
54807
55294
55727
56100
56418
56685
56906
57080
57213
57307
57368
57398
57395
57361
57302
57229
57142
57041
56927
56802
56668
56526
56376
56218
56052
55880
55702
55516
55315
55098
54873
54650
54438
54236
54044
53870
53715
53583
53474
53390
53334
53306
53302
53323
53368
53439
53531
53635
53750
53878
54011
54143
54267
54381
54484
54571
54640
54691
54726
54749
54757
54750
54727
54688
54636
54572
54495
54403
54294
54174
54046
53912
53775
53639
53498
53356
53213
53076
52946
52818
52695
52576
52460
52345
52232
52123
52019
51924
51837
51755
51674
51594
51519
51448
51384
51331
51287
51250
51217
51185
51156
51127
51096
51067
51039
51010
50978
50943
50907
50867
50827
50794
50770
50753
50743
50734
50724
50713
50701
50685
50663
50633
50598
50558
50519
50481
50443
50408
50378
50348
50318
50289
50258
50222
50180
50130
50070
50006
49940
49877
49814
49748
49687
49636
49593
49560
49539
49530
49531
49547
49593
49684
49832
50049
50340
50708
51151
51657
52211
52792
53377
53949
54492
54997
55455
55865
56224
56530
56781
56982
57141
57268
57361
57419
57449
57454
57432
57390
57329
57248
57155
57050
56929
56795
56654
56512
56367
56214
56051
55879
55697
55499
55284
55061
54839
54623
54415
54226
54059
53916
53798
53710
53654
53624
53620
53641
53684
53749
53833
53939
54066
54209
54365
54527
54689
54843
54979
55093
55186
55257
55309
55342
55353
55346
55324
55291
55248
55198
55140
55075
54996
54904
54797
54674
54541
54403
54267
54134
53999
53860
53722
53586
53456
53331
53211
53092
52976
52865
52762
52670
52585
52501
52414
52323
52233
52150
52074
52002
51933
51866
51802
51745
51692
51639
51587
51541
51502
51472
51446
51421
51397
51375
51353
51329
51301
51269
51234
51197
51160
51128
51097
51068
51041
51018
51001
50987
50971
50947
50918
50885
50848
50808
50764
50716
50663
50605
50547
50491
50438
50389
50342
50289
50237
50191
50150
50114
50091
50090
50124
50199
50332
50547
50857
51255
51734
52285
52885
53509
54138
54749
55325
55854
56329
56745
57107
57416
57676
57885
58049
58172
58262
58325
58360
58371
58360
58325
58270
58202
58121
58031
57936
57839
57745
57651
57550
57442
57333
57222
57104
56975
56831
56671
56498
56318
56137
55958
55785
55623
55486
55375
55289
55228
55192
55178
55182
55200
55232
55279
55342
55422
55518
55626
55740
55853
55964
56075
56186
56288
56373
56438
56483
56509
56516
56507
56480
56435
56377
56309
56235
56155
56071
55982
55885
55781
55670
55548
55417
55280
55134
54981
54821
54663
54512
54373
54245
54124
54009
53900
53796
53696
53601
53510
53422
53331
53237
53145
53058
52977
52903
52837
52779
52731
52688
52648
52608
52568
52527
52484
52440
52395
52350
52305
52263
52227
52194
52164
52136
52108
52082
52054
52023
51993
51968
51942
51912
51877
51838
51800
51762
51726
51691
51659
51628
51597
51563
51526
51484
51433
51372
51306
51237
51167
51099
51037
50976
50910
50841
50776
50715
50656
50603
50560
50531
50514
50515
50539
50600
50712
50893
51154
51501
51935
52451
53032
53652
54285
54915
55522
56088
56600
57055
57453
57796
58087
58330
58527
58682
58795
58878
58937
58971
58982
58972
58945
58903
58849
58781
58700
58607
58511
58411
58308
58202
58092
57977
57853
57721
57585
57443
57295
57142
56987
56835
56687
56546
56420
56312
56223
56154
56103
56072
56065
56081
56117
56171
56243
56329
56428
56538
56654
56773
56895
57018
57136
57247
57346
57430
57495
57541
57568
57574
57561
57534
57495
57449
57393
57326
57250
57164
57069
56971
56870
56762
56647
56526
56400
56269
56129
55984
55838
55690
55545
55410
55287
55174
55067
54970
54882
54794
54702
54614
54531
54444
54355
54273
54200
54132
54069
54008
53948
53889
53833
53781
53727
53670
53614
53563
53518
53472
53422
53370
53315
53264
53218
53177
53134
53085
53035
52985
52936
52888
52834
52771
52706
52644
52582
52514
52446
52386
52330
52275
52219
52158
52091
52016
51930
51839
51750
51662
51574
51489
51406
51321
51235
51150
51064
50977
50890
50805
50719
50630
50540
50451
50363
50283
50214
50166
50142
50141
50170
50245
50381
50591
50884
51264
51732
52275
52873
53499
54123
54728
55299
55830
56314
56742
57112
57425
57686
57900
58074
58207
58298
58353
58381
58379
58348
58294
58222
58132
58027
57912
57792
57668
57541
57412
57278
57134
56980
56814
56636
56441
56232
56017
55803
55589
55384
55195
55026
54877
54748
54642
54556
54486
54435
54410
54413
54440
54493
54566
54657
54761
54872
54987
55107
55230
55349
55459
55562
55653
55734
55804
55858
55893
55908
55906
55883
55838
55772
55685
55579
55457
55328
55196
55062
54925
54780
54634
54488
54341
54197
54059
53925
53794
53664
53537
53413
53286
53158
53033
52915
52802
52693
52593
52501
52415
52331
52251
52177
52106
52042
51981
51915
51846
51778
51717
51663
51614
51571
51538
51512
51486
51456
51421
51382
51342
51302
51264
51227
51192
51160
51132
51107
51085
51066
51049
51033
51016
50995
50967
50931
50890
50847
50801
50753
50706
50659
50614
50570
50527
50484
50438
50387
50331
50268
50198
50126
50055
49986
49919
49854
49792
49737
49693
49661
49646
49654
49687
49754
49870
50049
50301
50636
51055
51546
52090
52670
53269
53867
54451
55005
55519
55987
56401
56754
57049
57293
57485
57630
57740
57818
57863
57876
57864
57830
57777
57707
57625
57536
57438
57327
57206
57075
56934
56785
56624
56450
56263
56062
55851
55634
55415
55196
54977
54767
54571
54402
54260
54144
54063
54015
53998
54011
54053
54123
54219
54333
54459
54599
54745
54892
55037
55178
55311
55431
55537
55629
55704
55758
55795
55815
55818
55804
55769
55712
55637
55554
55464
55366
55260
55149
55036
54917
54792
54663
54529
54394
54260
54133
54007
53880
53753
53630
53511
53393
53276
53162
53054
52954
52858
52766
52679
52593
52503
52416
52336
52262
52186
52108
52031
51951
51869
51787
51713
51648
51587
51527
51477
51437
51400
51366
51335
51305
51272
51237
51202
51164
51123
51082
51040
50999
50959
50923
50894
50866
50835
50797
50753
50705
50654
50604
50555
50506
50456
50404
50350
50291
50231
50178
50132
50092
50056
50024
49988
49943
49890
49835
49782
49732
49689
49655
49646
49679
49768
49923
50158
50482
50900
51407
51984
52611
53262
53909
54534
55130
55684
56179
56611
56987
57304
57562
57765
57923
58046
58135
58193
58225
58237
58230
58203
58158
58097
58023
57931
57826
57713
57593
57469
57347
57224
57098
56967
56830
56683
56523
56354
56178
55999
55820
55645
55479
55324
55186
55068
54976
54913
54875
54863
54876
54911
54967
55045
55143
55257
55381
55512
55646
55779
55900
56007
56097
56169
56226
56268
56296
56311
56311
56297
56269
56229
56176
56113
56038
55952
55856
55752
55639
55515
55382
55243
55096
54941
54783
54630
54486
54349
54218
54093
53973
53862
53755
53652
53551
53450
53345
53241
53137
53032
52927
52822
52720
52627
52544
52469
52397
52327
52265
52206
52151
52100
52055
52013
51964
51907
51849
51795
51744
51699
51664
51639
51617
51595
51571
51541
51504
51463
51425
51386
51345
51301
51256
51216
51182
51148
51114
51073
51020
50958
50897
50841
50786
50733
50683
50630
50572
50512
50452
50391
50327
50259
50191
50127
50064
50000
49940
49886
49837
49800
49780
49782
49818
49903
50055
50282
50593
50990
51461
51997
52582
53200
53831
54453
55049
55606
56111
56559
56952
57295
57588
57833
58030
58186
58305
58385
58431
58447
58438
58407
58363
58307
58238
58159
58078
57998
57911
57815
57711
57599
57479
57351
57216
57074
56920
56754
56579
56398
56212
56027
55853
55694
55553
55434
55343
55279
55239
55223
55227
55251
55296
55358
55434
55525
55629
55743
55864
55990
56117
56240
56356
56457
56543
56613
56665
56697
56708
56699
56672
56627
56561
56483
56398
56303
56192
56070
55941
55811
55682
55552
55419
55285
55150
55017
54885
54749
54611
54470
54326
54182
54043
53911
53784
53661
53546
53441
53346
53261
53184
53109
53035
52964
52896
52828
52757
52687
52620
52560
52507
52457
52405
52351
52296
52240
52187
52138
52093
52052
52015
51982
51951
51920
51893
51862
51821
51770
51718
51664
51605
51547
51492
51441
51391
51341
51293
51247
51202
51153
51095
51025
50949
50872
50799
50731
50667
50608
50552
50492
50424
50352
50282
50214
50148
50082
50011
49936
49862
49795
49730
49664
49601
49541
49485
49430
49377
49337
49320
49336
49394
49509
49696
49969
50332
50784
51317
51914
52549
53193
53824
54427
54992
55512
55978
56382
56728
57023
57264
57451
57594
57701
57769
57798
57794
57770
57724
57655
57568
57469
57358
57236
57108
56973
56832
56684
56528
56361
56181
55986
55780
55565
55346
55125
54905
54692
54490
54302
54128
53971
53837
53731
53653
53600
53576
53581
53612
53666
53740
53829
53928
54037
54157
54288
54421
54552
54679
54804
54922
55024
55104
55165
55202
55214
55204
55175
55124
55054
54967
54864
54749
54621
54484
54345
54205
54060
53917
53779
53641
53501
53362
53227
53098
52976
52855
52733
52610
52489
52369
52255
52145
52040
51938
51840
51753
51678
51611
51544
51475
51408
51346
51289
51236
51186
51138
51095
51058
51027
51002
50982
50964
50947
50930
50910
50885
50858
50832
50808
50785
50763
50738
50710
50678
50649
50627
50613
50604
50595
50586
50576
50561
50545
50527
50503
50473
50439
50399
50351
50298
50244
50190
50136
50081
50028
49981
49939
49897
49850
49801
49751
49707
49667
49624
49577
49532
49495
49466
49450
49457
49500
49589
49740
49964
50271
50666
51141
51684
52276
52896
53521
54135
54717
55255
55739
56165
56528
56829
57073
57272
57431
57547
57624
57669
57689
57685
57659
57614
57546
57454
57342
57215
57076
56927
56769
56604
56430
56245
56049
55842
55627
55404
55178
54953
54739
54535
54340
54154
53982
53831
53701
53591
53504
53449
53430
53443
53486
53558
53651
53765
53898
54044
54204
54378
54560
54741
54913
55067
55197
55308
55396
55458
55492
55506
55504
55482
55435
55363
55271
55166
55052
54930
54802
54664
54518
54369
54219
54067
53912
53759
53613
53474
53340
53212
53094
52982
52876
52774
52671
52564
52459
52358
52265
52180
52100
52025
51948
51868
51783
51703
51632
51567
51506
51457
51420
51384
51347
51311
51273
51236
51204
51179
51161
51145
51129
51111
51088
51058
51026
50996
50965
50931
50899
50870
50840
50809
50786
50771
50758
50742
50720
50693
50662
50627
50588
50546
50501
50454
50410
50371
50328
50281
50237
50197
50157
50113
50065
50015
49967
49920
49878
49843
49810
49780
49760
49759
49787
49855
49978
50172
50449
50820
51284
51827
52436
53094
53780
54468
55135
55767
56340
56842
57271
57632
57934
58180
58379
58541
58664
58751
58808
58843
58857
58850
58825
58786
58730
58652
58555
58449
58343
58238
58132
58023
57910
57794
57676
57554
57421
57274
57116
56951
56783
56614
56452
56298
56158
56035
55933
55854
55799
55771
55776
55814
55875
55951
56037
56130
56230
56336
56452
56577
56702
56824
56942
57050
57144
57225
57298
57356
57390
57398
57388
57362
57321
57265
57196
57114
57026
56932
56831
56719
56595
56465
56333
56197
56056
55914
55777
55644
55510
55379
55249
55117
54983
54854
54733
54614
54498
54386
54283
54188
54102
54025
53951
53877
53807
53743
53684
53628
53577
53532
53488
53443
53398
53353
53305
53254
53200
53146
53096
53050
53009
52973
52939
52902
52866
52834
52806
52781
52759
52736
52717
52700
52684
52665
52643
52621
52592
52554
52510
52458
52401
52337
52268
52198
52132
52068
52002
51935
51868
51802
51739
51678
51615
51551
51490
51432
51374
51314
51255
51197
51150
51120
51109
51131
51198
51325
51531
51824
52204
52666
53197
53783
54405
55039
55664
56263
56820
57327
57779
58173
58507
58786
59016
59206
59358
59469
59543
59585
59602
59594
59565
59521
59469
59411
59348
59277
59199
59109
59005
58891
58770
58643
58509
58370
58222
58066
57905
57737
57566
57397
57236
57084
56943
56815
56705
56614
56537
56478
56436
56419
56425
56453
56503
56570
56652
56747
56852
56967
57088
57209
57321
57417
57494
57558
57611
57655
57686
57702
57703
57688
57657
57612
57563
57510
57447
57371
57281
57177
57060
56934
56802
56668
56525
56374
56218
56062
55909
55759
55613
55470
55332
55199
55069
54942
54821
54706
54595
54486
54378
54276
54180
54085
53990
53898
53807
53720
53639
53560
53482
53407
53342
53286
53233
53183
53137
53098
53056
53011
52967
52929
52891
52852
52818
52786
52752
52713
52670
52626
52578
52524
52465
52405
52344
52283
52222
52156
52090
52027
51970
51918
51867
51815
51763
51710
51658
51605
51550
51496
51443
51394
51344
51290
51233
51178
51123
51067
51007
50942
50873
50801
50725
50650
50576
50500
50427
50362
50306
50258
50228
50221
50242
50307
50435
50641
50935
51322
51799
52351
52958
53594
54237
54867
55470
56030
56539
56993
57386
57718
57989
58206
58378
58510
58604
58663
58691
58690
58666
58624
58562
58484
58390
58280
58154
58015
57861
57693
57517
57338
57159
56982
56800
56607
56404
56194
55980
55766
55557
55359
55169
54990
54831
54695
54582
54492
54432
54398
54391
54416
54473
54563
54677
54807
54951
55105
55262
55417
55564
55697
55813
55911
55992
56051
56090
56113
56121
56115
56096
56064
56015
55945
55858
55755
55641
55519
55384
55242
55100
54954
54803
54656
54512
54368
54224
54086
53960
53842
53727
53613
53498
53384
53273
53166
53066
52974
52890
52816
52750
52688
52629
52573
52513
52450
52385
52322
52266
52220
52182
52152
52129
52106
52080
52046
52003
51957
51916
51880
51847
51818
51796
51777
51759
51743
51728
51714
51699
51682
51663
51645
51630
51616
51597
51570
51541
51514
51489
51467
51441
51407
51368
51324
51276
51221
51160
51092
51019
50944
50873
50806
50741
50681
50625
50573
50525
50485
50456
50433
50412
50402
50415
50464
50568
50747
51014
51370
51808
52320
52887
53488
54103
54713
55300
55847
56348
56798
57195
57531
57804
58021
58187
58310
58395
58447
58467
58461
58437
58398
58347
58285
58210
58123
58024
57916
57803
57681
57547
57401
57244
57073
56884
56681
56473
56261
56045
55826
55614
55413
55223
55046
54889
54760
54661
54595
54565
54565
54593
54649
54731
54833
54952
55088
55236
55390
55549
55710
55865
56008
56139
56255
56350
56423
56478
56522
56549
56551
56531
56486
56417
56327
56220
56105
55987
55867
55745
55622
55501
55381
55260
55138
55015
54888
54762
54639
54521
54405
54286
54168
54058
53954
53850
53750
53656
53563
53470
53380
53298
53223
53153
53087
53026
52967
52913
52865
52821
52775
52728
52686
52651
52616
52580
52547
52517
52488
52462
52439
52416
52391
52367
52346
52326
52305
52286
52272
52259
52244
52226
52203
52170
52128
52084
52036
51986
51933
51881
51835
51792
51752
51713
51676
51641
51604
51564
51515
51457
51396
51333
51269
51208
51153
51109
51079
51075
51115
51218
51395
51658
52014
52458
52974
53544
54150
54775
55399
55997
56556
57070
57532
57934
58278
58564
58794
58976
59118
59222
59291
59335
59359
59361
59337
59290
59229
59157
59079
58999
58917
58834
58748
58656
58558
58459
58363
58266
58160
58041
57911
57773
57629
57477
57323
57178
57043
56918
56799
56689
56592
56518
56468
56442
56447
56484
56547
56631
56733
56848
56977
57112
57248
57383
57515
57635
57738
57828
57909
57978
58029
58059
58073
58074
58063
58039
57997
57940
57872
57794
57712
57633
57553
57469
57378
57279
57173
57060
56946
56832
56715
56593
56469
56347
56223
56099
55978
55862
55751
55644
55544
55449
55359
55273
55192
55115
55042
54976
54921
54878
54840
54798
54759
54729
54702
54672
54641
54611
54576
54537
54498
54462
54428
54398
54372
54349
54331
54314
54302
54289
54271
54254
54236
54213
54186
54160
54135
54109
54083
54059
54035
54006
53970
53927
53878
53826
53766
53698
53629
53558
53488
53421
53355
53290
53227
53164
53104
53051
53004
52959
52912
52869
52844
52847
52892
52997
53181
53452
53810
54248
54751
55301
55871
56441
56998
57529
58018
58459
58851
59189
59471
59708
59908
60071
60200
60298
60367
60411
60433
60434
60415
60381
60340
60291
60235
60174
60108
60031
59942
59848
59754
59662
59571
59478
59379
59270
59150
59018
58875
58724
58569
58416
58272
58144
58033
57939
57862
57806
57771
57760
57773
57804
57850
57914
57999
58102
58215
58327
58437
58541
58638
58724
58799
58864
58917
58952
58967
58970
58968
58963
58955
58937
58905
58861
58811
58751
58678
58594
58501
58403
58304
58203
58096
57985
57870
57752
57631
57508
57389
57276
57174
57079
56981
56876
56773
56672
56574
56476
56383
56300
56223
56151
56083
56016
55951
55888
55829
55772
55716
55660
55607
55559
55518
55482
55452
55429
55411
55398
55388
55377
55362
55343
55317
55284
55248
55207
55163
55117
55070
55022
54970
54916
54862
54813
54769
54726
54680
54631
54578
54515
54450
54392
54341
54291
54249
54221
54210
54227
54289
54411
54602
54869
55214
55629
56096
56597
57119
57643
58143
58603
59022
59405
59749
60048
60302
60514
60687
60823
60927
61002
61053
61086
61103
61106
61090
61051
60991
60913
60825
60733
60638
60545
60459
60374
60279
60167
60042
59912
59778
59637
59488
59335
59180
59020
58857
58700
58550
58412
58292
58195
58124
58075
58048
58044
58062
58105
58175
58268
58380
58506
58640
58775
58905
59025
59131
59218
59289
59344
59382
59408
59418
59417
59411
59397
59371
59333
59284
59224
59157
59083
59004
58918
58823
58715
58591
58458
58319
58176
58036
57904
57780
57659
57540
57426
57314
57208
57107
57009
56910
56811
56714
56618
56524
56432
56347
56268
56192
56116
56042
55976
55916
55863
55813
55764
55717
55673
55634
55597
55560
55519
55477
55439
55406
55377
55350
55323
55293
55261
55228
55192
55153
55110
55059
54999
54931
54862
54796
54731
54670
54612
54553
54495
54443
54400
54368
54356
54380
54450
54574
54759
55009
55331
55720
56168
56661
57183
57705
58212
58693
59142
59552
59922
60251
60537
60773
60961
61108
61215
61288
61334
61356
61350
61322
61278
61218
61147
61069
60984
60891
60787
60667
60537
60403
60269
60129
59983
59829
59666
59492
59307
59116
58923
58726
58526
58333
58151
57988
57846
57726
57629
57560
57518
57506
57521
57560
57622
57710
57819
57944
58080
58222
58362
58494
58619
58736
58839
58923
58988
59033
59056
59061
59046
59009
58953
58879
58794
58703
58601
58486
58368
58244
58111
57976
57840
57699
57549
57391
57232
57075
56920
56764
56609
56455
56304
56160
56023
55889
55758
55633
55515
55402
55293
55193
55099
55010
54927
54849
54775
54704
54631
54555
54481
54409
54335
54267
54211
54162
54115
54072
54037
54011
53990
53972
53961
53952
53945
53940
53930
53912
53885
53857
53828
53790
53740
53682
53616
53545
53476
53410
53341
53267
53193
53123
53052
52975
52898
52828
52764
52696
52627
52564
52514
52478
52459
52464
52503
52589
52739
52965
53275
53672
54154
54702
55291
55904
56524
57131
57706
58241
58725
59152
59522
59838
60106
60325
60498
60630
60722
60776
60801
60802
60778
60729
60661
60576
60475
60365
60250
60131
60005
59873
59736
59595
59448
59287
59114
58931
58739
58535
58321
58107
57898
57699
57511
57340
57194
57080
56992
56927
56888
56883
56916
56984
57080
57201
57342
57500
57665
57836
58010
58181
58351
58516
58666
58793
58893
58967
59017
59039
59035
59010
58967
58908
58837
58761
58684
58603
58511
58412
58306
58187
58060
57929
57797
57665
57532
57394
57253
57109
56964
56820
56683
56555
56437
56328
56226
56134
56048
55969
55898
55833
55767
55697
55629
55566
55510
55457
55406
55357
55312
55269
55228
55187
55149
55110
55070
55035
55005
54978
54952
54929
54909
54887
54866
54848
54830
54811
54789
54762
54729
54692
54652
54603
54546
54487
54429
54373
54316
54255
54191
54127
54065
54003
53937
53866
53795
53726
53665
53621
53597
53601
53647
53749
53921
54173
54510
54928
55420
55971
56558
57161
57762
58347
58896
59398
59848
60244
60580
60860
61090
61275
61417
61519
61589
61630
61643
61632
61598
61546
61478
61396
61304
61205
61099
60990
60882
60772
60657
60540
60417
60279
60121
59950
59772
59589
59403
59217
59032
58851
58681
58523
58380
58256
58154
58074
58023
58003
58014
58057
58133
58239
58368
58516
58672
58834
59000
59163
59319
59459
59576
59672
59748
59803
59843
59865
59861
59834
59795
59745
59682
59607
59519
59418
59304
59178
59044
58905
58762
58621
58481
58341
58203
58066
57933
57806
57682
57557
57436
57321
57210
57102
57000
56903
56803
56699
56598
56503
56413
56327
56247
56169
56095
56026
55962
55901
55841
55783
55727
55678
55634
55593
55559
55530
55500
55472
55449
55430
55408
55379
55349
55317
55283
55247
55211
55179
55149
55118
55082
55041
54999
54960
54921
54877
54828
54774
54714
54649
54591
54538
54489
54441
54395
54349
54299
54241
54175
54105
54034
53962
53889
53814
53740
53675
53635
53635
53690
53818
54038
54357
54776
55290
55886
56535
57210
57884
58536
59152
59719
60231
60683
61070
61391
61657
61872
62042
62172
62265
62328
62368
62390
62392
62377
62344
62292
62225
62149
62064
61969
61873
61780
61686
61590
61493
61392
61284
61172
61056
60933
60796
60652
60508
60360
60206
60053
59917
59803
59703
59618
59553
59509
59490
59498
59537
59600
59683
59782
59894
60014
60139
60266
60390
60500
60598
60682
60749
60798
60836
60864
60882
60887
60880
60857
60816
60764
60704
60634
60556
60472
60378
60274
60163
60046
59920
59788
59652
59513
59370
59227
59091
58963
58845
58734
58628
58520
58412
58303
58192
58078
57963
57856
57762
57678
57600
57529
57466
57408
57356
57311
57270
57231
57196
57161
57124
57082
57037
56988
56941
56897
56853
56813
56780
56752
56729
56707
56682
56653
56624
56592
56559
56524
56490
56456
56420
56382
56341
56295
56243
56189
56133
56074
56013
55956
55904
55853
55799
55743
55688
55629
55567
55502
55433
55359
55277
55188
55093
54992
54892
54795
54700
54610
54529
54465
54421
54402
54420
54491
54632
54854
55164
55569
56066
56636
57252
57893
58533
59150
59732
60266
60744
61167
61538
61860
62132
62353
62525
62657
62757
62826
62866
62883
62882
62863
62826
62776
62716
62647
62572
62486
62390
62290
62183
62069
61945
61812
61672
61526
61372
61214
61055
60892
60722
60549
60387
60238
60099
59974
59872
59797
59744
59704
59683
59684
59708
59752
59818
59902
59997
60096
60197
60299
60396
60488
60577
60657
60719
60763
60797
60823
60833
60829
60813
60780
60729
60666
60596
60517
60429
60331
60223
60102
59972
59838
59697
59544
59382
59219
59057
58896
58736
58581
58426
58274
58135
58006
57881
57754
57627
57502
57380
57261
57147
57042
56940
56839
56743
56653
56569
56489
56416
56350
56288
56227
56169
56115
56061
56008
55957
55907
55858
55810
55760
55706
55647
55582
55517
55456
55401
55350
55307
55272
55239
55206
55170
55125
55072
55021
54976
54931
54882
54831
54779
54726
54670
54609
54542
54470
54394
54316
54240
54166
54094
54024
53953
53878
53804
53728
53647
53561
53475
53390
53303
53213
53122
53038
52965
52899
52836
52777
52724
52682
52656
52652
52676
52743
52871
53078
53374
53762
54245
54813
55442
56105
56783
57455
58102
58706
59254
59737
60149
60493
60779
61011
61196
61339
61439
61498
61527
61534
61524
61493
61439
61368
61282
61183
61069
60940
60803
60659
60510
60354
60188
60008
59818
59622
59420
59214
59007
58804
58608
58421
58244
58083
57941
57821
57724
57651
57611
57601
57616
57658
57727
57819
57931
58060
58203
58359
58522
58681
58832
58975
59111
59235
59338
59420
59480
59519
59539
59534
59506
59461
59403
59333
59256
59171
59071
58955
58831
58699
58558
58409
58256
58103
57951
57804
57662
57522
57383
57246
57111
56983
56864
56758
56666
56583
56506
56437
56373
56311
56249
56187
56124
56062
55999
55936
55875
55822
55777
55737
55702
55671
55642
55615
55590
55567
55540
55508
55477
55448
55419
55387
55357
55328
55297
55267
55237
55207
55178
55148
55116
55087
55058
55023
54985
54944
54901
54858
54817
54769
54714
54655
54599
54541
54478
54413
54342
54265
54186
54109
54030
53953
53880
53811
53743
53676
53609
53547
53500
53469
53455
53466
53510
53602
53757
53991
54314
54726
55221
55782
56386
57014
57648
58265
58851
59395
59886
60318
60692
61013
61284
61511
61692
61828
61928
61997
62040
62056
62047
62015
61963
61894
61810
61714
61602
61475
61339
61201
61060
60913
60765
60613
60456
60294
60128
59950
59760
59564
59371
59182
58999
58829
58681
58555
58447
58359
58299
58269
58270
58301
58358
58437
58538
58665
58811
58966
59119
59271
59421
59561
59686
59794
59884
59953
60001
60027
60028
60004
59952
59884
59806
59720
59631
59541
59448
59348
59237
59111
58979
58848
58719
58587
58449
58307
58164
58024
57891
57762
57639
57521
57403
57284
57172
57071
56977
56887
56803
56727
56656
56585
56511
56436
56363
56294
56227
56159
56087
56014
55945
55882
55821
55763
55707
55653
55602
55556
55520
55490
55463
55437
55413
55387
55357
55324
55295
55264
55227
55190
55151
55106
55056
55001
54938
54872
54812
54756
54697
54634
54566
54496
54421
54341
54258
54170
54076
53976
53873
53772
53676
53586
53503
53426
53354
53290
53237
53193
53159
53137
53125
53119
53113
53106
53101
53103
53120
53160
53237
53365
53565
53851
54228
54694
55239
55846
56491
57148
57798
58430
59032
59587
60085
60520
60898
61222
61490
61702
61867
61986
62064
62109
62130
62130
62108
62067
62008
61932
61841
61740
61629
61509
61376
61234
61086
60932
60777
60617
60448
60272
60090
59904
59718
59531
59347
59168
58997
58834
58678
58538
58423
58332
58267
58227
58210
58219
58254
58317
58402
58502
58614
58738
58868
58994
59115
59231
59342
59442
59526
59593
59645
59677
59687
59672
59637
59584
59512
59423
59320
59207
59086
58960
58830
58695
58551
58400
58253
58109
57971
57845
57727
57613
57503
57393
57280
57161
57035
56904
56773
56644
56522
56406
56296
56196
56112
56044
55982
55920
55856
55799
55748
55701
55655
55611
55569
55530
55493
55453
55409
55360
55308
55253
55201
55154
55106
55055
55001
54947
54891
54830
54764
54696
54630
54565
54503
54442
54383
54332
54289
54253
54219
54182
54141
54100
54057
54008
53955
53903
53853
53802
53751
53698
53640
53579
53516
53451
53381
53301
53217
53131
53045
52960
52881
52808
52736
52666
52595
52525
52457
52391
52326
52264
52213
52176
52165
52190
52256
52375
52560
52815
53150
53570
54064
54618
55214
55837
56471
57096
57696
58261
58784
59255
59668
60024
60321
60564
60756
60910
61028
61105
61144
61155
61148
61124
61073
61002
60916
60816
60699
60568
60428
60276
60115
59953
59793
59637
59486
59340
59189
59028
58861
58695
58534
58378
58232
58100
57981
57878
57796
57737
57699
57677
57674
57696
57740
57801
57880
57980
58090
58203
58317
58431
58538
58632
58711
58777
58828
58863
58879
58875
58849
58803
58737
58653
58553
58438
58315
58191
58067
57943
57821
57701
57578
57449
57320
57192
57059
56922
56782
56646
56512
56378
56249
56127
56008
55893
55786
55686
55590
55498
55414
55340
55272
55209
55153
55101
55053
55013
54981
54954
54925
54893
54855
54814
54775
54741
54708
54670
54631
54595
54560
54529
54501
54476
54456
54434
54410
54385
54357
54326
54298
54274
54248
54216
54180
54149
54119
54089
54058
54025
53988
53944
53894
53840
53784
53726
53671
53620
53572
53526
53483
53444
53410
53376
53338
53300
53263
53228
53199
53193
53225
53309
53458
53686
53997
54385
54845
55369
55936
56525
57117
57694
58246
58773
59267
59713
60099
60425
60699
60925
61109
61253
61364
61444
61495
61516
61510
61483
61438
61377
61301
61210
61108
60999
60883
60761
60628
60485
60334
60168
59986
59794
59599
59402
59205
59007
58813
58625
58451
58302
58179
58083
58018
57986
57988
58021
58080
58157
58250
58359
58479
58609
58749
58896
59046
59191
59326
59450
59563
59659
59735
59790
59827
59847
59844
59819
59782
59735
59679
59611
59527
59428
59314
59188
59056
58922
58787
58657
58531
58407
58280
58157
58041
57929
57818
57710
57608
57511
57416
57322
57230
57138
57042
56946
56856
56772
56687
56603
56523
56448
56379
56318
56267
56225
56186
56149
56115
56077
56035
55995
55957
55918
55881
55845
55809
55775
55742
55713
55688
55662
55633
55602
55566
55523
55474
55422
55377
55333
55286
55236
55179
55113
55046
54986
54931
54872
54805
54732
54658
54587
54520
54455
54395
54348
54321
54321
54354
54435
54587
54821
55139
55540
56019
56557
57136
57734
58330
58908
59457
59965
60427
60837
61193
61494
61750
61962
62132
62266
62373
62452
62504
62533
62543
62534
62504
62455
62398
62337
62266
62190
62111
62024
61927
61826
61726
61626
61515
61389
61247
61092
60929
60768
60614
60464
60321
60193
60080
59980
59897
59833
59789
59769
59774
59804
59859
59931
60017
60117
60225
60334
60441
60546
60646
60737
60816
60882
60935
60973
60997
61012
61021
61016
61000
60975
60938
60886
60824
60755
60677
60586
60481
60366
60241
60107
59968
59829
59693
59559
59425
59291
59159
59029
58902
58779
58664
58556
58451
58349
58248
58146
58050
57962
57876
57790
57705
57621
57543
57478
57428
57385
57346
57312
57281
57251
57221
57191
57164
57137
57105
57073
57045
57015
56979
56938
56897
56855
56815
56780
56755
56734
56712
56683
56649
56610
56568
56521
56468
56407
56343
56278
56213
56145
56070
55995
55923
55848
55773
55700
55632
55566
55502
55437
55367
55291
55212
55131
55050
54970
54889
54810
54732
54659
54600
54562
54547
54560
54607
54697
54842
55056
55354
55743
56220
56765
57358
57983
58619
59247
59856
60428
60952
61423
61841
62203
62509
62762
62967
63132
63260
63352
63414
63449
63455
63441
63412
63366
63305
63236
63164
63089
63013
62936
62855
62768
62675
62575
62470
62358
62235
62098
61949
61792
61633
61479
61335
61199
61071
60954
60848
60758
60690
60650
60637
60648
60679
60725
60782
60850
60929
61012
61093
61173
61249
61319
61383
61438
61480
61510
61527
61529
61517
61492
61458
61420
61378
61325
61255
61169
61074
60975
60869
60755
60633
60503
60369
60235
60101
59966
59826
59682
59536
59392
59247
59104
58962
58819
58678
58547
58422
58301
58186
58078
57978
57885
57801
57731
57677
57636
57602
57576
57553
57525
57489
57451
57413
57375
57335
57296
57265
57240
57216
57192
57173
57152
57124
57092
57057
57011
56959
56908
56859
56807
56754
56704
56650
56591
56533
56480
56429
56374
56315
56258
56209
56161
56110
56050
55981
55901
55815
55729
55642
55554
55465
55374
55283
55196
55111
55030
54953
54882
54816
54753
54687
54621
54556
54489
54415
54338
54262
54189
54118
54045
53970
53890
53810
53737
53683
53652
53643
53664
53725
53842
54028
54293
54647
55093
55617
56199
56821
57463
58106
58731
59327
59883
60389
60841
61241
61586
61876
62122
62326
62486
62598
62668
62703
62707
62683
62641
62585
62520
62449
62372
62288
62193
62089
61979
61862
61738
61612
61483
61346
61200
61046
60891
60734
60574
60411
60249
60088
59935
59798
59676
59574
59495
59439
59400
59382
59389
59422
59482
59560
59650
59752
59868
59993
60118
60239
60355
60460
60547
60619
60674
60713
60737
60745
60736
60713
60675
60623
60554
60470
60374
60268
60152
60022
59882
59747
59621
59491
59352
59215
59082
58950
58818
58692
58571
58452
58338
58234
58138
58048
57961
57875
57791
57707
57624
57543
57465
57389
57316
57249
57187
57132
57088
57053
57018
56980
56944
56912
56883
56857
56830
56806
56781
56756
56733
56710
56685
56655
56616
56566
56508
56452
56405
56369
56336
56304
56273
56236
56191
56144
56099
56059
56023
55996
55972
55944
55910
55869
55823
55771
55719
55664
55603
55536
55466
55397
55330
55268
55207
55145
55083
55021
54957
54897
54839
54780
54717
54653
54590
54525
54458
54394
54336
54285
54249
54234
54248
54299
54403
54577
54830
55173
55607
56123
56702
57321
57958
58595
59215
59803
60350
60843
61274
61647
61963
62224
62432
62595
62723
62819
62880
62909
62913
62898
62868
62824
62765
62689
62601
62508
62413
62312
62202
62088
61969
61842
61704
61556
61399
61230
61050
60863
60676
60492
60309
60135
59980
59849
59742
59659
59603
59573
59567
59582
59617
59667
59735
59823
59930
60051
60181
60314
60446
60571
60684
60786
60876
60951
61009
61050
61073
61075
61058
61024
60976
60909
60823
60730
60630
60516
60392
60262
60129
59995
59864
59733
59602
59471
59343
59216
59085
58952
58817
58680
58545
58414
58289
58172
58062
57955
57857
57771
57688
57604
57525
57455
57392
57334
57281
57230
57177
57122
57069
57017
56962
56905
56851
56798
56746
56696
56651
56610
56571
56535
56505
56476
56449
56423
56397
56372
56345
56314
56279
56245
56210
56164
56108
56051
55997
55947
55901
55856
55812
55771
55735
55701
55666
55632
55597
55554
55502
55445
55385
55321
55256
55189
55120
55051
54983
54920
54858
54791
54720
54653
54587
54519
54456
54402
54354
54308
54266
54230
54194
54153
54113
54084
54070
54076
54113
54193
54331
54545
54852
55259
55756
56327
56957
57624
58301
58968
59607
60205
60752
61250
61694
62078
62401
62671
62892
63063
63187
63275
63332
63360
63363
63349
63319
63265
63189
63102
63008
62912
62813
62711
62606
62501
62395
62290
62183
62069
61947
61821
61692
61557
61414
61265
61116
60975
60850
60744
60660
60596
60553
60526
60512
60511
60523
60552
60602
60670
60752
60840
60932
61025
61121
61215
61301
61379
61445
61497
61532
61551
61559
61561
61556
61538
61509
61468
61414
61345
61259
61160
61053
60939
60814
60678
60536
60391
60246
60099
59950
59801
59656
59514
59370
59224
59080
58939
58803
58676
58563
58463
58369
58277
58184
58094
58013
57941
57877
57819
57760
57699
57638
57579
57517
57451
57385
57319
57252
57191
57139
57092
57047
57008
56974
56942
56909
56873
56839
56808
56779
56751
56717
56673
56620
56563
56504
56444
56383
56321
56259
56200
56143
56090
56039
55986
55931
55877
55821
55763
55701
55644
55590
55535
55481
55427
55372
55317
55263
55206
55146
55080
55010
54935
54858
54781
54708
54639
54569
54496
54425
54362
54302
54239
54179
54125
54076
54032
53994
53959
53927
53903
53897
53917
53971
54073
54240
54486
54822
55257
55788
56394
57050
57730
58408
59062
59678
60242
60752
61201
61585
61907
62176
62394
62567
62705
62812
62884
62917
62914
62883
62829
62757
62675
62588
62496
62395
62286
62175
62065
61949
61827
61693
61544
61380
61208
61030
60844
60654
60458
60260
60065
59880
59710
59557
59425
59317
59234
59175
59148
59156
59196
59267
59361
59476
59608
59749
59894
60033
60159
60268
60361
60439
60504
60554
60589
60612
60622
60621
60610
60591
60566
60536
60501
60457
60399
60329
60251
60169
60085
59999
59916
59834
59744
59644
59536
59421
59299
59170
59033
58892
58748
58612
58488
58374
58267
58165
58067
57968
57868
57769
57676
57587
57501
57418
57343
57277
57212
57146
57080
57013
56940
56859
56776
56694
56613
56531
56451
56370
56293
56226
56168
56112
56055
56005
55969
55944
55923
55900
55874
55843
55809
55774
55735
55689
55642
55594
55548
55501
55452
55401
55351
55302
55252
55200
55152
55102
55048
54998
54958
54921
54890
54864
54837
54808
54779
54757
54736
54709
54673
54629
54581
54530
54478
54426
54375
54325
54275
54230
54189
54152
54128
54120
54136
54185
54276
54426
54646
54946
55334
55815
56377
56997
57649
58310
58962
59589
60180
60719
61201
61627
62000
62317
62582
62807
62998
63151
63261
63336
63384
63408
63411
63393
63358
63311
63255
63189
63116
63037
62956
62876
62801
62725
62644
62552
62447
62333
62207
62067
61916
61758
61594
61431
61277
61136
61013
60910
60832
60778
60752
60750
60768
60798
60838
60893
60966
61058
61161
61275
61394
61508
61615
61716
61808
61887
61951
61997
62025
62039
62039
62028
62003
61964
61914
61850
61775
61688
