56584
56491
56397
56298
56199
56103
56007
55910
55812
55716
55624
55536
55454
55378
55304
55230
55159
55098
55048
55011
54991
54986
54995
55020
55059
55106
55157
55208
55263
55316
55366
55418
55474
55533
55590
55635
55673
55700
55709
55700
55674
55635
55589
55541
55492
55438
55378
55312
55244
55171
55093
55016
54933
54836
54732
54627
54523
54423
54324
54227
54133
54036
53933
53831
53733
53636
53540
53450
53363
53275
53188
53105
53030
52960
52893
52828
52764
52705
52647
52592
52540
52482
52415
52347
52283
52227
52182
52143
52106
52073
52047
52024
51995
51962
51930
51894
51851
51809
51773
51734
51688
51641
51600
51554
51492
51421
51348
51281
51229
51186
51144
51093
51030
50969
50921
50881
50837
50776
50698
50613
50531
50452
50377
50306
50234
50165
50095
50018
49934
49842
49744
49643
49531
49410
49286
49163
49037
48912
48794
48688
48591
48503
48427
48364
48306
48260
48244
48275
48374
48554
48816
49152
49558
50023
50529
51059
51597
52127
52636
53111
53551
53958
54332
54670
54972
55242
55480
55691
55877
56035
56155
56239
56292
56316
56315
56292
56253
56200
56140
56076
56002
55916
55823
55728
55634
55538
55441
55344
55253
55161
55060
54944
54812
54669
54524
54385
54252
54119
53985
53862
53755
53658
53574
53513
53479
53466
53467
53482
53505
53527
53558
53614
53687
53768
53860
53961
54065
54165
54259
54349
54429
54492
54538
54569
54578
54568
54553
54539
54523
54500
54467
54419
54352
54273
54187
54096
54007
53918
53823
53719
53605
53487
53375
53273
53175
53070
52954
52835
52712
52584
52454
52328
52212
52110
52017
51932
51857
51790
51727
51660
51589
51518
51449
51381
51323
51272
51223
51171
51113
51055
51002
50959
50919
50882
50849
50818
50791
50769
50744
50711
50673
50633
50591
50555
50521
50487
50451
50408
50356
50307
50269
50242
50219
50199
50172
50136
50094
50053
50013
49971
49919
49857
49792
49723
49652
49587
49530
49472
49410
49351
49289
49215
49125
49029
48932
48833
48727
48616
48505
48396
48285
48176
48073
47978
47893
47822
47771
47741
47738
47781
47887
48067
48332
48678
49093
49573
50097
50648
51209
51760
52293
52796
53256
53670
54048
54382
54670
54922
55146
55343
55512
55655
55771
55863
55926
55961
55977
55977
55961
55937
55907
55855
55780
55691
55601
55513
55425
55338
55248
55155
55062
54975
54890
54802
54704
54594
54477
54350
54217
54093
53981
53872
53764
53664
53580
53516
53476
53458
53456
53469
53497
53537
53588
53648
53713
53781
53851
53925
54002
54077
54150
54218
54286
54351
54411
54464
54509
54545
54567
54564
54545
54517
54481
54432
54367
54290
54206
54122
54042
53962
53876
53784
53692
53604
53515
53425
53340
53260
53181
53105
53030
52953
52873
52789
52701
52605
52504
52408
52326
52245
52158
52078
52013
51956
51894
51833
51787
51748
51709
51669
51624
51574
51518
51464
51414
51370
51327
51285
51247
51216
51188
51163
51144
51127
51108
51089
51065
51036
51008
50980
50949
50917
50886
50856
50824
50788
50750
50710
50669
50628
50587
50547
50507
50465
50425
50385
50340
50285
50218
50151
50092
50036
49978
49916
49850
49777
49697
49616
49536
49455
49373
49292
49210
49128
49050
48976
48904
48828
48753
48685
48631
48601
48611
48669
48787
48975
49247
49601
50021
50495
51004
51532
52068
52604
53128
53624
54085
54517
54922
55295
55632
55940
56218
56459
56666
56853
57015
57146
57247
57320
57371
57404
57425
57435
57433
57418
57389
57348
57300
57240
57166
57093
57030
56970
56915
56879
56854
56826
56796
56763
56715
56650
56579
56505
56421
56331
56241
56156
56081
56015
55954
55895
55840
55792
55755
55730
55714
55709
55719
55736
55755
55778
55812
55860
55916
55970
56030
56094
56151
56196
56230
56254
56270
56277
56274
56264
56245
56222
56194
56163
56131
56098
56058
56012
55960
55904
55846
55778
55689
55587
55480
55370
55255
55142
55044
54957
54875
54796
54718
54635
54551
54479
54418
54356
54288
54211
54120
54027
53945
53875
53814
53758
53707
53660
53602
53539
53489
53454
53421
53383
53340
53294
53243
53193
53143
53096
53051
53009
52969
52933
52897
52854
52802
52742
52675
52608
52552
52515
52480
52434
52388
52348
52306
52256
52209
52171
52134
52095
52054
52010
51952
51888
51828
51767
51703
51641
51584
51524
51452
51367
51275
51175
51082
51002
50925
50847
50776
50703
50625
50541
50449
50354
50253
50150
50054
49962
49871
49786
49707
49641
49601
49592
49618
49686
49818
50031
50321
50677
51088
51540
52017
52513
53016
53506
53968
54402
54813
55202
55566
55906
56218
56500
56755
56979
57167
57320
57441
57535
57596
57626
57641
57649
57643
57620
57587
57546
57498
57447
57396
57347
57296
57240
57181
57119
57060
57007
56958
56911
56866
56820
56769
56707
56636
56554
56466
56372
56271
56166
56068
55983
55908
55844
55796
55764
55744
55731
55729
55740
55765
55806
55859
55911
55963
56019
56077
56131
56178
56221
56263
56301
56334
56357
56366
56358
56337
56307
56274
56238
56193
56146
56101
56052
55995
55931
55859
55776
55687
55596
55508
55425
55343
55259
55168
55073
54980
54887
54793
54701
54610
54523
54443
54369
54299
54229
54157
54085
54016
53950
53883
53817
53760
53710
53661
53605
53544
53485
53427
53373
53323
53278
53236
53195
53158
53123
53084
53050
53023
52992
52956
52920
52889
52855
52815
52774
52731
52685
52637
52595
52558
52516
52466
52416
52371
52325
52271
52219
52175
52131
52083
52033
51982
51927
51871
51816
51763
51709
51650
51592
51533
51466
51392
51319
51249
51173
51094
51019
50941
50859
50772
50684
50599
50513
50426
50341
50257
50172
50079
49983
49895
49818
49755
49713
49696
49714
49784
49912
50095
50331
50630
50992
51406
51857
52326
52802
53282
53758
54221
54664
55073
55444
55781
56085
56353
56584
56787
56961
57105
57220
57311
57378
57422
57444
57450
57436
57403
57359
57311
57258
57201
57140
57078
57019
56961
56908
56859
56811
56761
56710
56655
56592
56523
56459
56402
56347
56292
56236
56174
56100
56016
55933
55859
55794
55732
55676
55639
55621
55621
55639
55671
55710
55753
55799
55848
55899
55953
56005
56049
56089
56134
56186
56237
56273
56294
56305
56314
56323
56326
56316
56295
56270
56241
56202
56152
56097
56040
55982
55919
55848
55780
55719
55659
55596
55531
55457
55368
55272
55180
55096
55019
54945
54868
54791
54715
54644
54579
54519
54458
54394
54328
54262
54196
54138
54094
54057
54021
53988
53955
53916
53871
53822
53769
53717
53665
53619
53579
53537
53498
53470
53447
53416
53378
53341
53302
53257
53213
53175
53140
53103
53071
53050
53028
52997
52957
52912
52867
52826
52787
52747
52703
52655
52607
52558
52506
52449
52389
52328
52269
52210
52152
52095
52037
51975
51914
51856
51793
51718
51636
51552
51464
51370
51274
51183
51095
51004
50908
50812
50724
50640
50558
50481
50413
50355
50309
50279
50274
50308
50397
50551
50771
51056
51401
51792
52209
52639
53076
53514
53945
54354
54737
55098
55439
55755
56039
56293
56523
56726
56899
57039
57148
57231
57291
57331
57356
57370
57373
57357
57323
57277
57215
57139
57054
56972
56893
56812
56726
56641
56563
56491
56420
56350
56278
56207
56136
56060
55972
55877
55783
55691
55596
55495
55401
55329
55278
55238
55208
55196
55199
55208
55221
55241
55268
55304
55354
55413
55473
55529
55584
55638
55683
55724
55765
55798
55820
55835
55843
55840
55824
55800
55774
55742
55703
55663
55620
55562
55492
55415
55331
55244
55154
55059
54961
54866
54774
54686
54599
54509
54419
54327
54232
54134
54039
53954
53877
53797
53713
53633
53556
53481
53413
53351
53293
53236
53180
53123
53067
53016
52969
52918
52864
52813
52766
52718
52663
52602
52541
52487
52441
52404
52378
52360
52340
52313
52289
52272
52251
52223
52194
52167
52140
52109
52065
52018
51971
51920
51867
51820
51777
51733
51684
51633
51578
51517
51454
51393
51334
51273
51207
51139
51071
51001
50932
50860
50779
50687
50592
50501
50411
50314
50206
50096
49988
49881
49777
49676
49576
49474
49371
49277
49194
49119
49052
48991
48937
48908
48924
48995
49131
49336
49611
49957
50369
50831
51321
51821
52319
52801
53247
53652
54033
54395
54720
55000
55241
55457
55655
55834
55985
56099
56179
56236
56270
56283
56281
56261
56225
56178
56119
56052
55981
55905
55824
55740
55661
55587
55506
55413
55320
55229
55134
55035
54934
54824
54704
54578
54452
54327
54205
54097
54008
53939
53881
53829
53791
53774
53778
53804
53851
53911
53977
54051
54135
54228
54327
54440
54558
54659
54734
54787
54834
54877
54905
54913
54909
54903
54893
54881
54864
54839
54802
54756
54703
54644
54579
54509
54436
54357
54275
54191
54105
54015
53921
53825
53730
53636
53541
53450
53361
53270
53175
53081
52990
52904
52821
52742
52665
52594
52531
52476
52424
52366
52298
52227
52159
52097
52041
51994
51961
51938
51918
51895
51864
51828
51796
51767
51740
51717
51699
51684
51669
51657
51647
51637
51623
51606
51587
51566
51544
51523
51501
51479
51453
51421
51384
51348
51308
51266
51222
51178
51135
51092
51049
51010
50979
50950
50908
50848
50785
50726
50667
50601
50521
50431
50341
50251
50160
50076
50009
49951
49887
49820
49764
49728
49710
49719
49774
49889
50068
50307
50597
50924
51291
51703
52142
52588
53027
53455
53865
54250
54612
54953
55270
55553
55806
56033
56237
56407
56539
56638
56709
56753
56775
56779
56775
56768
56755
56729
56685
56632
56577
56513
56432
56340
56247
56160
56079
56003
55924
55840
55754
55663
55561
55451
55339
55229
55129
55035
54938
54840
54754
54685
54633
54611
54621
54647
54675
54706
54747
54797
54853
54920
54996
55075
55153
55230
55304
55373
55440
55507
55564
55606
55640
55671
55693
55705
55714
55717
55701
55662
55614
55567
55516
55452
55371
55282
55200
55127
55052
54970
54881
54784
54687
54593
54505
54431
54368
54312
54254
54190
54122
54049
53971
53893
53818
53746
53678
53618
53566
53517
53475
53443
53411
53378
53350
53325
53292
53251
53205
53157
53112
53073
53042
53020
53003
52981
52954
52933
52915
52889
52860
52832
52807
52781
52751
52722
52697
52668
52632
52595
52563
52536
52509
52484
52458
52425
52381
52333
52286
52240
52196
52157
52120
52074
52022
51968
51910
51841
51764
51688
51613
51533
51446
51360
51278
51202
51132
51062
50999
50947
50907
50886
50888
50909
50954
51038
51174
51373
51638
51959
52322
52713
53124
53555
53996
54437
54872
55294
55694
56071
56426
56757
57067
57353
57612
57846
58053
58225
58360
58462
58533
58585
58623
58641
58638
58627
58617
58605
58580
58544
58504
58456
58400
58341
58287
58246
58219
58202
58189
58171
58140
58092
58027
57948
57860
57769
57680
57598
57528
57471
57418
57359
57297
57244
57203
57178
57177
57193
57213
57236
57265
57298
57329
57356
57391
57436
57484
57528
57571
57612
57642
57660
57671
57686
57708
57731
57747
57752
57745
57727
57701
57666
57622
57572
57521
57467
57408
57344
57282
57217
57139
57048
56954
56863
56770
56677
56593
56519
56450
56381
56311
56236
56158
56082
56009
55939
55873
55811
55751
55684
55614
55548
55494
55452
55413
55374
55330
55279
55223
55165
55112
55065
55022
54984
54946
54904
54858
54817
54782
54747
54715
54691
54674
54653
54628
54603
54575
54535
54485
54438
54396
54356
54317
54279
54245
54211
54174
54136
54096
54052
54004
53955
53902
53846
53791
53733
53672
53610
53548
53486
53421
53356
53285
53206
53124
53044
52967
52888
52803
52714
52630
52554
52474
52390
52313
52239
52163
52092
52038
52005
51996
52020
52087
52207
52384
52619
52902
53223
53583
53978
54398
54827
55253
55671
56075
56462
56824
57155
57460
57743
58003
58237
58451
58642
58797
58911
58990
59046
59091
59125
59140
59139
59136
59134
59129
59114
59090
59069
59048
59019
58985
58951
58910
58853
58792
58737
58685
58637
58594
58555
58512
58456
58387
58313
58232
58146
58060
57978
57910
57853
57803
57764
57740
57728
57728
57734
57739
57746
57756
57771
57790
57814
57850
57897
57944
57988
58027
58055
58071
58077
58077
58073
58064
58049
58030
58008
57981
57945
57899
57840
57773
57702
57627
57548
57465
57380
57290
57196
57103
57014
56924
56827
56727
56632
56545
56461
56378
56293
56205
56118
56035
55955
55873
55786
55700
55624
55557
55494
55434
55379
55325
55272
55224
55182
55138
55090
55040
54991
54942
54894
54851
54810
54770
54732
54693
54656
54623
54590
54556
54524
54492
54454
54414
54377
54339
54301
54265
54223
54168
54103
54037
53969
53899
53834
53778
53727
53678
53625
53571
53517
53459
53399
53337
53275
53211
53143
53070
52993
52915
52837
52764
52694
52621
52543
52466
52385
52298
52207
52116
52020
51916
51808
51703
51607
51517
51433
51355
51282
51209
51140
51076
51018
50976
50964
50995
51083
51237
51462
51755
52104
52501
52932
53378
53828
54275
54714
55139
55536
55905
56250
56568
56853
57108
57337
57530
57691
57833
57959
58058
58131
58182
58212
58221
58214
58196
58165
58122
58072
58018
57960
57895
57827
57763
57699
57628
57554
57483
57413
57339
57262
57184
57101
57002
56890
56778
56675
56580
56495
56419
56344
56267
56197
56138
56091
56056
56039
56035
56044
56066
56098
56137
56177
56217
56261
56308
56358
56412
56465
56512
56554
56589
56620
56649
56670
56679
56679
56665
56633
56588
56539
56485
56426
56361
56293
56220
56146
56070
55990
55903
55812
55727
55651
55572
55483
55390
55300
55215
55129
55038
54949
54861
54769
54679
54592
54505
54421
54345
54275
54208
54139
54072
54017
53962
53907
53854
53801
53749
53703
53661
53621
53587
53561
53538
53517
53496
53473
53454
53437
53410
53376
53344
53313
53283
53254
53225
53195
53162
53121
53076
53031
52990
52955
52917
52872
52825
52780
52735
52686
52628
52566
52510
52465
52423
52381
52341
52298
52254
52208
52154
52092
52026
51967
51907
51838
51764
51692
51622
51546
51470
51399
51325
51246
51170
51099
51027
50954
50880
50805
50735
50676
50629
50596
50585
50611
50680
50805
50997
51256
51576
51944
52337
52747
53180
53617
54039
54441
54824
55192
55540
55867
56174
56453
56702
56923
57113
57273
57407
57512
57583
57627
57644
57640
57625
57607
57585
57560
57526
57478
57419
57358
57296
57234
57170
57099
57020
56937
56850
56755
56658
56565
56473
56374
56272
56170
56062
55955
55858
55774
55703
55648
55608
55584
55570
55566
55576
55598
55630
55682
55753
55829
55908
55994
56081
56170
56257
56332
56388
56429
56462
56492
56515
56527
56527
56516
56497
56466
56422
56368
56305
56231
56145
56048
55947
55852
55768
55681
55582
55475
55370
55266
55163
55071
54990
54909
54816
54714
54621
54538
54456
54371
54286
54201
54119
54045
53979
53912
53841
53774
53710
53644
53578
53516
53461
53411
53364
53320
53274
53225
53173
53125
53082
53036
52987
52942
52903
52866
52835
52813
52797
52781
52765
52752
52742
52731
52714
52694
52678
52661
52638
52612
52585
52554
52524
52496
52467
52433
52393
52347
52303
52262
52222
52180
52135
52088
52036
51983
51934
51882
51825
51766
51704
51637
51569
51502
51433
51362
51293
51228
51162
51089
51012
50938
50869
50806
50752
50709
50677
50656
50660
50707
50806
50961
51179
51459
51792
52169
52581
53020
53478
53942
54399
54840
55262
55666
56052
56416
56750
57056
57333
57586
57821
58029
58198
58328
58429
58515
58584
58630
58657
58676
58685
58680
58665
58639
58603
58561
58521
58483
58444
58400
58357
58315
58269
58216
58160
58105
58047
57976
57895
57817
57740
57658
57577
57509
57453
57402
57358
57321
57291
57272
57265
57273
57290
57313
57344
57387
57438
57494
57558
57630
57708
57793
57877
57957
58029
58088
58130
58158
58173
58179
58180
58174
58161
58143
58118
58086
58044
57993
57936
57877
57812
57743
57675
57605
57534
57466
57404
57345
57285
57222
57157
57087
57011
56933
56857
56780
56703
56629
56555
56476
56396
56325
56260
56192
56119
56043
55969
55897
55826
55757
55694
55637
55585
55534
55486
55444
55404
55361
55320
55285
55257
55228
55194
55157
55121
55080
55035
54986
54936
54887
54842
54800
54766
54737
54702
54659
54612
54563
54508
54449
54395
54343
54287
54225
54161
54094
54024
53957
53896
53842
53788
53727
53664
53601
53538
53472
53408
53344
53275
53205
53136
53064
52985
52905
52826
52744
52656
52565
52472
52377
52279
52182
52090
52002
51920
51849
51789
51748
51742
51780
51869
52014
52216
52482
52814
53196
53614
54058
54517
54971
55411
55837
56247
56627
56975
57292
57578
57837
58071
58281
58469
58629
58755
58850
58919
58966
58994
59001
58986
58957
58920
58876
58824
58769
58717
58666
58607
58543
58478
58413
58345
58274
58203
58129
58048
57962
57872
57777
57681
57586
57492
57401
57311
57222
57137
57060
56987
56919
56865
56826
56801
56790
56792
56803
56819
56842
56877
56918
56959
56999
57037
57068
57091
57114
57139
57161
57177
57184
57185
57178
57163
57148
57133
57111
57074
57025
56970
56907
56837
56764
56691
56612
56521
56415
56307
56205
56104
55998
55888
55775
55656
55531
55408
55290
55181
55082
54992
54908
54828
54745
54662
54578
54495
54415
54337
54260
54186
54114
54046
53981
53923
53868
53811
53756
53702
53646
53584
53516
53452
53389
53325
53267
53215
53170
53131
53093
53053
53013
52970
52923
52878
52840
52806
52774
52744
52716
52689
52664
52634
52594
52541
52481
52424
52367
52303
52236
52171
52103
52026
51947
51871
51795
51721
51647
51569
51481
51386
51288
51189
51089
50985
50877
50774
50677
50578
50471
50366
50265
50165
50070
49981
49901
49838
49813
49838
49920
50067
50291
50591
50962
51392
51874
52391
52917
53441
53958
54458
54927
55355
55743
56093
56408
56689
56929
57132
57307
57462
57598
57711
57791
57842
57877
57897
57901
57888
57857
57807
57739
57665
57585
57500
57412
57326
57245
57164
57083
57004
56931
56859
56778
56684
56584
56477
56369
56260
56149
56035
55927
55829
55735
55645
55570
55511
55464
55429
55413
55414
55423
55443
55479
55530
55591
55657
55728
55803
55880
55954
56016
56067
56111
56150
56189
56222
56238
56235
56224
56204
56169
56119
56060
55991
55912
55830
55753
55676
55589
55492
55397
55305
55212
55118
55026
54937
54845
54748
54649
54543
54434
54329
54231
54141
54055
53975
53903
53832
53763
53693
53620
53540
53451
53360
53270
53181
53095
53019
52956
52895
52827
52759
52701
52657
52621
52590
52555
52517
52482
52450
52416
52383
52358
52340
52318
52288
52252
52214
52177
52135
52088
52040
51991
51939
51888
51839
51791
51748
51704
51649
51577
51498
51423
51357
51294
51230
51163
51094
51017
50931
50838
50738
50636
50536
50437
50338
50240
50138
50034
49934
49842
49757
49686
49642
49635
49676
49777
49947
50190
50503
50885
51321
51793
52285
52785
53279
53757
54215
54644
55041
55411
55750
56053
56317
56543
56737
56901
57032
57139
57234
57307
57351
57371
57372
57355
57317
57264
57204
57133
57049
56960
56868
56774
56678
56585
56493
56398
56298
56197
56096
55990
55871
55739
55608
55481
55358
55240
55128
55024
54930
54849
54785
54741
54715
54710
54724
54747
54777
54819
54874
54942
55020
55106
55198
55292
55387
55479
55565
55639
55700
55748
55783
55810
55833
55842
55831
55799
55760
55720
55669
55606
55541
55471
55392
55299
55198
55093
54984
54872
54765
54666
54568
54471
54382
54292
54186
54069
53953
53837
53724
53623
53539
53474
53416
53352
53280
53211
53155
53108
53058
52997
52924
52851
52789
52731
52677
52636
52606
52577
52544
52507
52472
52445
52424
52406
52385
52362
52340
52327
52321
52309
52285
52256
52222
52186
52160
52146
52131
52115
52102
52087
52063
52023
51969
51909
51854
51809
51768
51724
51668
51601
51528
51451
51373
51291
51206
51125
51045
50966
50892
50829
50776
50739
50731
50767
50860
51013
51236
51530
51884
52281
52709
53155
53609
54067
54524
54965
55378
55765
56133
56478
56791
57076
57339
57570
57758
57909
58035
58140
58226
58291
58334
58354
58358
58354
58339
58309
58264
58214
58159
58096
58025
57952
57884
57817
57747
57677
57603
57526
57448
57373
57294
57200
57097
56995
56892
56779
56663
56560
56478
56411
56360
56330
56318
56314
56316
56325
56350
56393
56452
56521
56602
56694
56787
56865
56922
56967
57014
57067
57118
57158
57180
57189
57190
57180
57167
57158
57151
57133
57101
57059
57009
56952
56890
56820
56738
56654
56571
56483
56387
56290
56199
56118
56039
55959
55882
55802
55714
55619
55525
55440
55361
55283
55204
55129
55062
55004
54954
54907
54857
54807
54755
54695
54637
54594
54561
54519
54467
54410
54354
54301
54251
54203
54158
54111
54061
54009
53962
53918
53873
53827
53787
53752
53725
53711
53703
53686
53654
53620
53586
53545
53505
53469
53433
53395
53351
53304
53253
53196
53136
53075
53011
52945
52880
52814
52741
52663
52589
52516
52441
52360
52276
52193
52107
52014
51927
51854
51792
51745
51729
51758
51841
51987
52198
52468
52790
53165
53590
54046
54516
54988
55463
55929
56377
56809
57226
57617
57975
58303
58600
58868
59105
59311
59487
59636
59763
59870
59953
60005
60026
60032
60033
60025
60008
59986
59956
59915
59878
59852
59825
59790
59751
59716
59689
59666
59646
59629
59608
59571
59518
59453
59378
59294
59204
59110
59012
58913
58822
58741
58667
58598
58543
58508
58488
58478
58477
58490
58512
58541
58578
58619
58663
58705
58747
58793
58840
58878
58903
58921
58931
58933
58930
58923
58906
58882
58857
58825
58778
58722
58665
58609
58547
58474
58396
58317
58234
58149
58064
57980
57901
57824
57741
57652
57567
57488
57406
57317
57224
57136
57048
56954
56860
56778
56706
56628
56548
56474
56401
56325
56252
56189
56134
56076
56019
55969
55925
55875
55826
55783
55738
55687
55632
55584
55542
55501
55457
55407
55355
55308
55263
55218
55171
55124
55079
55041
55008
54971
54928
54880
54829
54789
54764
54743
54711
54659
54596
54533
54463
54386
54313
54239
54155
54071
53995
53920
53841
53763
53682
53601
53524
53443
53356
53266
53179
53099
53031
52971
52908
52837
52754
52661
52563
52473
52398
52341
52312
52315
52362
52464
52621
52841
53133
53487
53889
54326
54785
55252
55710
56161
56610
57043
57449
57835
58202
58547
58861
59142
59396
59625
59823
59989
60123
60222
60285
60312
60314
60297
60266
60225
60177
60127
60077
60029
59984
59943
59907
59874
59837
59795
59751
59703
59644
59575
59504
59436
59362
59277
59187
59100
59015
58923
58826
58732
58643
58560
58489
58433
58388
58352
58333
58331
58338
58353
58382
58417
58452
58486
58524
58564
58604
58642
58673
58697
58717
58734
58745
58741
58720
58691
58663
58633
58595
58553
58508
58458
58397
58324
58245
58163
58078
57992
57904
57816
57732
57655
57584
57511
57429
57334
57230
57125
57021
56918
56813
56707
56607
56517
56436
56359
56282
56212
56153
56102
56053
55999
55938
55867
55791
55721
55659
55600
55546
55498
55448
55393
55336
55282
55231
55184
55143
55105
55070
55040
55009
54968
54920
54867
54806
54742
54682
54628
54581
54538
54493
54448
54407
54367
54321
54273
54230
54189
54144
54093
54038
53977
53914
53851
53784
53714
53639
53561
53482
53399
53309
53214
53117
53022
52934
52850
52764
52670
52572
52479
52392
52303
52210
52115
52025
51943
51876
51830
51805
51802
51835
51923
52071
52280
52553
52890
53282
53711
54164
54634
55111
55584
56043
56483
56895
57278
57637
57970
58275
58548
58785
58986
59152
59287
59389
59459
59501
59517
59513
59498
59472
59431
59375
59311
59243
59177
59120
59073
59031
58987
58940
58891
58842
58791
58737
58678
58614
58542
58457
58359
58257
58160
58070
57983
57896
57808
57723
57648
57585
57534
57493
57459
57435
57424
57429
57449
57480
57514
57554
57602
57651
57698
57748
57800
57851
57905
57955
57994
58021
58045
58065
58069
58049
58009
57962
57908
57846
57775
57693
57599
57501
57411
57327
57245
57159
57064
56961
56854
56752
56663
56583
56502
56413
56318
56213
56108
56013
55921
55827
55738
55659
55581
55497
55412
55329
55248
55167
55090
55017
54950
54889
54838
54803
54775
54744
54706
54661
54608
54549
54493
54448
54411
54371
54319
54267
54221
54177
54136
54100
54063
54024
53982
53943
53912
53886
53857
53824
53785
53740
53691
53641
53591
53531
53457
53370
53277
53184
53095
53011
52929
52845
52758
52666
52569
52472
52383
52306
52245
52211
52217
52274
52387
52557
52787
53085
53438
53830
54243
54662
55079
55490
55895
56286
56653
56987
57289
57565
57812
58027
58204
58344
58462
58565
58647
58707
58739
58746
58732
58699
58647
58587
58525
58455
58381
58310
58235
58154
58063
57968
57869
57764
57652
57532
57407
57278
57143
57003
56864
56727
56596
56472
56354
56238
56128
56036
55960
55893
55838
55804
55786
55772
55759
55758
55775
55802
55832
55871
55920
55979
56046
56114
56173
56226
56279
56316
56329
56321
56304
56280
56248
56215
56183
56146
56095
56031
55956
55868
55769
55667
55566
55456
55339
55221
55103
54983
54867
54756
54643
54526
54413
54302
54188
54070
53951
53837
53729
53622
53512
53401
53294
53189
53084
52986
52890
52788
52688
52604
52538
52484
52435
52385
52336
52288
52237
52182
52124
52058
51989
51923
51862
51812
51767
51724
51677
51624
51571
51521
51469
51412
51353
51293
51230
51163
51096
51030
50961
50889
50817
50746
50672
50587
50497
50408
50318
50221
50120
50021
49935
49864
49814
49791
49798
49844
49945
50108
50337
50636
51000
51413
51857
52327
52812
53293
53753
54190
54606
54988
55329
55629
55893
56118
56305
56462
56594
56702
56784
56839
56875
56894
56888
56854
56797
56719
56624
56523
56419
56313
56207
56102
55989
55864
55735
55609
55481
55338
55185
55031
54880
54726
54566
54402
54240
54082
53934
53798
53678
53576
53495
53439
53409
53398
53415
53460
53523
53597
53684
53791
53909
54028
54144
54250
54345
54430
54508
54575
54628
54664
54684
54682
54660
54629
54598
54567
54533
54495
54446
54382
54303
54217
54130
54036
53925
53805
53685
53565
53445
53326
53212
53100
52988
52879
52772
52668
52566
52462
52354
52244
52139
52038
51938
51839
51739
51642
51553
51472
51393
51315
51240
51167
51097
51032
50970
50913
50858
50800
50743
50694
50644
50586
50525
50464
50408
50359
50317
50277
50235
50193
50155
50120
50094
50076
50058
50030
49988
49938
49885
49823
49749
49671
49597
49525
49454
49385
49320
49252
49179
49106
49033
48965
48908
48864
48838
48833
48855
48921
49048
49248
49523
49870
50284
50755
51268
51798
52326
52838
53330
53794
54225
54624
54987
55304
55571
55795
55989
56158
56296
56398
56467
56507
56523
56519
56501
56468
56422
56360
56280
56183
56081
55984
55894
55802
55700
55595
55487
55372
55250
55118
54964
54792
54611
54430
54259
54092
53927
53780
53651
53532
53424
53336
53279
53247
53237
53247
53273
53317
53377
53455
53543
53632
53724
53820
53921
54028
54139
54250
54352
54433
54493
54539
54570
54583
54583
54575
54556
54530
54501
54466
54409
54329
54240
54150
54054
53951
53853
53763
53670
53566
53462
53361
53257
53152
53051
52955
52857
52749
52638
52532
52422
52310
52210
52121
52043
51976
51915
51852
51790
51731
51669
51602
51530
51458
51389
51321
51250
51176
51104
51037
50973
50919
50877
50834
50789
50751
50721
50694
50671
50656
50648
50639
50622
50602
50585
50580
50580
50582
50582
50575
50565
50557
50546
50519
50477
50432
50380
50320
50263
50211
50154
50088
50016
49947
49882
49813
49742
49675
49622
49587
49581
49609
49683
49813
50011
50288
50644
51062
51523
52017
52536
53066
53589
54088
54555
54986
55385
55761
56116
56450
56754
57019
57239
57422
57572
57688
57775
57844
57893
57917
57916
57898
57872
57838
57792
57745
57704
57662
57609
57549
57489
57428
57361
57289
57216
57143
57067
56993
56918
56827
56721
56602
56473
56337
56206
56091
55999
55929
55880
55845
55825
55814
55807
55815
55841
55881
55932
55994
56056
56119
56183
56252
56326
56393
56448
56495
56537
56570
56599
56623
56637
56645
56649
56640
56614
56576
56529
56472
56406
56337
56268
56194
56111
56024
55938
55850
55758
55662
55562
55463
55366
55271
55182
55090
54989
54883
54783
54686
54591
54501
54419
54340
54258
54177
54103
54036
53970
53903
53834
53764
53699
53648
53613
53580
53539
53492
53446
53398
53348
53299
53250
53204
53166
53134
53101
53067
53038
53023
53013
52993
52966
52938
52903
52864
52823
52778
52734
52692
52657
52630
52607
52582
52550
52517
52476
52425
52370
52306
52228
52139
52053
51972
51889
51806
51730
51658
51581
51499
51409
51313
51218
51134
51073
51036
51022
51038
51106
51235
51424
51685
52028
52439
52892
53368
53856
54351
54847
55331
55785
56211
56618
56998
57348
57671
57965
58235
58476
58681
58847
58986
59102
59193
59258
59305
59332
59332
59314
59286
59242
59181
59111
59040
58969
58903
58851
58811
58767
58713
58660
58612
58560
58492
58411
58322
58231
58146
58062
57975
57887
57802
57717
57640
57576
57522
57473
57430
57391
57368
57366
57370
57369
57371
57392
57425
57458
57491
57523
57556
57595
57643
57699
57758
57809
57841
57855
57858
57848
57836
57825
57802
57764
57716
57664
57606
57542
57466
57379
57288
57187
57084
56989
56889
56781
56678
56587
56503
56422
56336
56243
56155
56076
55998
55918
55836
55755
55673
55582
55485
55392
55308
55230
55151
55062
54973
54901
54843
54782
54712
54645
54589
54538
54489
54445
54394
54336
54288
54251
54220
54188
54153
54121
54086
54044
54001
53958
53912
53867
53824
53787
53751
53711
53669
53623
53568
53512
53462
53415
53369
53324
53276
53223
53169
53117
53057
52984
52907
52831
52748
52649
52540
52437
52342
52247
52147
52041
51938
51846
51767
51697
51625
51562
51521
51513
51544
51619
51753
51958
52228
52552
52927
53346
53796
54262
54729
55187
55626
56043
56432
56794
57130
57438
57718
57967
58180
58362
58520
58652
58755
58827
58871
58890
58889
58873
58845
58807
58757
58699
58637
58571
58499
58418
58336
58261
58195
58134
58081
58028
57964
57886
57789
57676
57553
57429
57308
57187
57072
56973
56888
56806
56727
56659
56607
56567
56539
56520
56508
56501
56511
56546
56597
56648
56696
56740
56781
56817
56854
56892
56929
56963
56991
57012
57022
57020
57002
56967
56918
56860
56800
56742
56683
56616
56542
56465
56386
56303
56214
56118
56013
55899
55777
55650
55525
55405
55295
55196
55098
54994
54884
54779
54682
54596
54514
54427
54328
54224
54122
54023
53922
53819
53727
53652
53582
53511
53439
53361
53281
53207
53134
53062
52992
52924
52854
52781
52711
52647
52587
52523
52457
52395
52339
52283
52227
52179
52138
52092
52040
51995
51961
51929
51888
51839
51786
51732
51676
51617
51554
51488
51418
51338
51253
51172
51094
51020
50950
50879
50797
50704
50598
50484
50372
50262
50149
50030
49908
49789
49672
49551
49430
49314
49207
49119
49056
49027
49046
49125
49271
49493
49803
50195
50652
51154
51688
52236
52775
53287
53760
54198
54605
54976
55310
55606
55866
56090
56280
56442
56579
56689
56768
56818
56842
56840
56818
56782
56740
56696
56642
56578
56503
56426
56344
56252
56150
56046
55952
55866
55781
55689
55589
55488
55383
55269
55141
55004
54869
54739
54611
54487
54374
54282
54215
54169
54129
54094
54074
54073
54085
54105
54136
54181
54239
54303
54366
54428
54493
54562
54630
54690
54735
54765
54781
54784
54782
54782
54786
54787
54772
54739
54693
54640
54578
54503
54419
54333
54242
54134
54016
53901
53788
53676
53569
53466
53362
53256
53152
53047
52938
52830
52726
52623
52516
52408
52307
52207
52105
52003
51903
51808
51715
51625
51536
51443
51355
51282
51218
51156
51092
51028
50968
50912
50862
50818
50779
50734
50683
50632
50582
50535
50494
50459
50423
50386
50345
50308
50273
50236
50196
50154
50114
50078
50040
49997
49956
49919
49878
49831
49775
49710
49642
49575
49503
49424
49332
49238
49147
49052
48952
48863
48785
48704
48616
48527
48438
48338
48235
48131
48026
47927
47855
47817
47816
47870
47993
48188
48462
48816
49237
49714
50229
50760
51296
51825
52325
52785
53197
53563
53889
54178
54437
54667
54868
55039
55177
55282
55360
55412
55434
55435
55420
55389
55344
55292
55229
55157
55081
55005
54917
54819
54721
54618
54513
54409
54298
54171
54034
53895
53753
53602
53441
53282
53137
53002
52886
52796
52720
52650
52589
52544
52521
52519
52533
52558
52593
52643
52709
52797
52902
53013
53124
53229
53318
53391
53457
53525
53584
53625
53659
53684
53695
53698
53699
53694
53675
53638
53588
53531
53464
53389
53314
53235
53138
53024
52903
52783
52663
52538
52413
52296
52190
52093
51998
51905
51815
51724
51630
51543
51459
51378
51294
51202
51105
51012
50928
50848
50766
50684
50608
50540
50476
50413
50352
50297
50253
50219
50188
50155
50126
50103
50082
50059
50038
50019
50002
49993
49981
49954
49922
49891
49858
49829
49800
49770
49741
49710
49678
49651
49626
49603
49583
49560
49517
49449
49374
49304
49225
49132
49035
48936
48840
48754
48679
48614
48557
48508
48476
48472
48502
48572
48698
48893
49163
49510
49919
50361
50821
51298
51787
52269
52734
53178
53593
53969
54304
54606
54880
55124
55336
55513
55659
55775
55860
55921
55967
55995
56002
55991
55971
55943
55910
55873
55826
55770
55702
55624
55541
55463
55389
55310
55226
55137
55040
54932
54820
54713
54603
54490
54384
54289
54201
54110
54020
53941
53880
53834
53808
53808
53830
53869
53919
53977
54041
54108
54173
54235
54293
54355
54420
54485
54548
54609
54667
54719
54762
54799
54833
54853
54855
54848
54833
54806
54765
54711
54646
54573
54502
54436
54367
54287
54201
54109
54014
53916
53818
53721
53630
53551
53482
53414
53342
53262
53178
53099
53032
52966
52899
52839
52791
52744
52688
52632
52581
52529
52473
52421
52372
52321
52267
52216
52173
52138
52101
52056
52009
51967
51933
51909
51892
51876
51858
51834
51805
51778
51750
51722
51687
51646
51604
51566
51531
51503
51480
51458
51432
51398
51361
51328
51294
51256
51210
51162
51113
51063
51006
50942
50878
50807
50724
50637
50553
50473
50398
50330
50267
50213
50171
50147
50155
50207
50318
50496
50747
51064
51430
51827
52248
52690
53144
53596
54032
54444
54836
55215
55582
55924
56237
56520
56775
56997
57192
57365
57516
57640
57737
57807
57855
57889
57908
57912
57908
57897
57874
57843
57806
57766
57724
57680
57638
57599
57561
57522
57476
57424
57374
57323
57265
57195
57115
57027
56937
56856
56787
56724
56657
56591
56533
56485
56449
56423
56400
56378
56365
56371
56398
56436
56476
56520
56570
56626
56685
56744
56794
56833
56864
56894
56914
56920
56915
56908
56908
56912
56914
56910
56895
56870
56834
56785
56721
56644
56557
56463
56370
56283
56203
56123
56033
55938
55845
55759
55676
55592
55508
55422
55335
55249
55163
55082
55003
54921
54834
54742
54658
54591
54535
54484
54435
54390
54347
54299
54241
54176
54111
54047
53986
53932
53885
53839
53795
53753
53715
53679
53642
53606
53572
53535
53491
53450
53413
53376
53344
53320
53300
53280
53255
53224
53195
53169
53141
53105
53066
53027
52984
52934
52878
52818
52759
52695
52620
52538
52455
52381
52311
52241
52173
52104
52031
51953
51873
51790
51701
51609
51522
51440
51354
51264
51176
51098
51034
50991
50990
51047
51159
51328
51559
51850
52195
52589
53017
53459
53899
54328
54745
55146
55525
55886
56239
56577
56890
57172
57416
57621
57796
57945
58070
58173
58258
58331
58386
58413
58417
58410
58392
58354
58302
58253
58213
58174
58130
58082
58035
57989
57941
57888
57833
57772
57701
57622
57539
57456
57377
57299
57217
57133
57053
56978
56902
56827
56761
56711
56681
56665
56658
56657
56662
56677
56703
56731
56760
56790
56826
56870
56917
56962
57005
57044
57075
57100
57121
57138
57152
57164
57170
57167
57152
57123
57082
57033
56977
56913
56843
56773
56700
56619
56533
56443
56353
56270
56198
56124
56037
55946
55860
55775
55685
55599
55517
55434
55350
55268
55191
55120
55055
54996
54935
54870
54805
54741
54677
54618
54569
54525
54482
54439
54398
54361
54319
54269
54222
54187
54156
54119
54083
54060
54040
54016
53989
53952
53903
53842
53777
53711
53644
53579
53522
53476
53438
53400
53362
53331
53303
53273
53241
53209
53173
53133
53096
53057
53008
52956
52904
52844
52765
52674
52586
52506
52430
52359
52296
52231
52161
52089
52011
51918
51814
51712
51619
51536
51462
51402
51362
51350
51374
51446
51574
51762
52019
52345
52723
53130
53545
53963
54387
54808
55217
55606
55968
56302
56615
56909
57178
57421
57641
57837
58009
58149
58263
58361
58438
58483
58500
58499
58476
58431
58374
58313
58253
58194
58135
58075
58018
57964
57912
57857
57797
57737
57673
57602
57530
57458
57384
57308
57224
57132
57044
56960
56873
56786
56703
56627
56563
56517
56489
56476
56479
56492
56512
56541
56578
56621
56673
56736
56801
56864
56926
56987
57039
57081
57115
57139
57160
57178
57185
57179
57164
57137
57096
57039
56972
56900
56828
56756
56687
56618
56548
56474
56392
56307
56221
56134
56040
55946
55850
55745
55634
55525
55426
55330
55238
55153
55077
55000
54923
54851
54780
54707
54636
54571
54504
54430
54357
54286
54220
54159
54101
54045
53991
53937
53887
53844
53804
53760
53711
53661
53614
53574
53541
53512
53488
53463
53434
53408
53386
53359
53326
53289
53243
53187
53130
53072
53015
52959
52900
52836
52771
52709
52651
52589
52518
52441
52366
52290
52208
52127
52050
51970
51879
51780
51676
51564
51446
51323
51198
51077
50960
50847
50736
50632
50539
50457
50391
50356
50367
50435
50570
50773
51044
51380
51774
52211
52673
53152
53638
54112
54561
54984
55380
55742
56066
56357
56617
56845
57038
57199
57332
57444
57536
57605
57648
57662
57658
57642
57612
57566
57516
57470
57421
57364
57302
57231
57150
57058
56959
56860
56759
56659
56561
56468
56377
56282
56180
56068
55947
55826
55714
55613
55520
55435
55367
55315
55278
55257
55250
55256
55273
55299
55336
55381
55432
55489
55546
55603
55659
55712
55764
55819
55874
55924
55960
55979
55984
55982
55973
55953
55919
55879
55836
55788
55734
55671
55596
55515
55434
55357
55280
55191
55095
54997
54896
54793
54692
54593
54498
54410
54326
54243
54158
54067
53968
53864
53757
53648
53543
53445
53353
53271
53199
53135
53074
53011
52942
52865
52784
52702
52624
52558
52508
52471
52438
52399
52356
52312
52271
52227
52180
52139
52113
52099
52078
52047
52021
52002
51981
51958
51938
51913
51874
51824
51775
51732
51691
51643
51587
51527
51465
51400
51334
51272
51215
51157
51092
51021
50943
50859
50773
50681
50583
50484
50389
50291
50191
50092
49996
49900
49808
49723
49650
49600
49577
49584
49636
49749
49929
50178
50499
50886
51324
51795
52282
52767
53242
53704
54138
54528
54872
55181
55467
55727
55956
56153
56319
56454
56562
56643
56703
56743
56766
56776
56770
56746
56707
56659
56601
56535
56461
56378
56288
56193
56100
56008
55912
55808
55697
55578
55449
55315
55182
55049
54914
54779
54652
54534
54420
54319
54244
54197
54172
54169
54189
54230
54289
54368
54461
54559
54654
54749
54847
54949
55044
55129
55208
55281
55346
55401
55445
55477
55490
55482
55457
55418
55371
55323
55273
55218
55162
55110
55051
54981
54906
54829
54749
54664
54569
54470
54373
54278
54190
54107
54015
53909
53796
53688
53590
53504
53433
53364
53290
53219
53161
53108
53051
52990
52929
52872
52813
52756
52712
52675
52638
52606
52582
52566
52556
52548
52536
52518
52495
52470
52443
52405
52360
52324
52303
52292
52286
52280
52276
52270
52253
52228
52204
52184
52163
52146
52138
52127
52105
52076
52047
52011
51963
51912
51864
51817
51771
51721
51663
51598
51529
51453
51373
51293
51215
51144
51083
51041
51021
51021
51053
51130
51256
51443
51693
51993
52331
52702
53095
53502
53920
54334
54730
55108
55473
55824
56154
56457
56739
57000
57231
57428
57589
57715
57809
57881
57938
57978
57999
57999
57987
57969
57947
57915
57874
57822
57758
57690
57628
57570
57513
57458
57406
57348
57279
57199
57108
57003
56892
56779
56671
56577
56502
56438
56383
56338
56307
56288
56283
56290
56310
56341
56381
56425
56475
56534
56602
56676
56750
56826
56905
56976
57034
57083
57125
57152
57170
57190
57210
57218
57215
57204
57181
57147
57105
57058
57009
56957
56896
56829
56759
56685
56608
56531
56452
56367
56277
56188
56093
55995
55901
55815
55732
55651
55576
55507
55438
55371
55306
55239
55172
55109
55051
55003
54963
54923
54881
54838
54792
54748
54711
54673
54630
54587
54551
54520
54497
54481
54467
54446
54413
54375
54340
54304
54261
54219
54184
54153
54125
54102
54076
54038
53991
53945
53904
53867
53832
53802
53778
53754
53731
53705
53671
53631
53586
53540
53493
53440
53380
53323
53266
53199
53117
53029
52940
52852
52770
52694
52619
52545
52480
52431
52402
52397
52431
52521
52673
52881
53144
53460
53814
54196
54601
55021
55448
55874
56288
56681
57054
57406
57727
58012
58261
58486
58693
58878
59035
59171
59290
59391
59467
59519
59558
59585
59594
59585
59570
59551
59524
59492
59457
59419
59381
59339
59294
59250
59208
59172
59142
59106
59056
58997
58937
58875
58810
58748
58691
58629
58556
58483
58415
58350
58291
58242
58213
58199
58195
58200
58213
58232
58260
58298
58342
58384
58424
58466
58509
58542
58567
58593
58625
58654
58676
58691
58697
58692
58674
58646
58612
58576
58536
58490
58438
58379
58311
58238
58163
58085
58011
57944
57875
57796
57712
57626
57540
57454
57372
57292
57211
57134
57062
56990
56917
56846
56773
56696
56620
56554
56497
56439
56380
56323
56275
56235
56197
56159
56120
56076
56031
55986
55944
55903
55864
55823
55779
55734
55693
55660
55635
55616
55601
55588
55573
55550
55521
55491
55458
55420
55381
55345
55312
55276
55234
55191
55145
55088
55027
54978
54941
54901
54845
54773
54690
54598
54503
54416
54343
54277
54211
54143
54076
54008
53935
53856
53780
53705
53627
53552
53484
53435
53410
53420
53474
53568
53712
53912
54162
54452
54784
55150
55528
55900
56272
56653
57031
57392
57728
58034
58309
58557
58787
58998
59181
59342
59485
59605
59696
59762
59810
59844
59861
59865
59862
59848
59821
59781
59733
59682
59629
59587
59562
59545
59521
59489
59454
59416
59371
59321
59268
59209
59147
59079
59005
58929
58855
58784
58713
58640
58570
58508
58452
58403
58366
58348
58350
58363
58381
58407
58445
58491
58544
58600
58654
58698
58731
58756
58779
58798
58811
58815
58811
58800
58784
58764
58743
58716
58679
58630
58574
58512
58452
58396
58336
58271
58205
58139
58065
57981
57892
57804
57714
57621
57525
57434
57353
57277
57204
57132
57068
57010
56952
56895
56837
56781
56727
56671
56611
56550
56494
56437
56371
56305
56252
56211
56169
56130
56096
56063
56025
55984
55943
55902
55862
55824
55790
55754
55714
55671
55627
55589
55560
55539
55515
55480
55438
55395
55353
55303
55248
55194
55144
55094
55045
54998
54954
54908
54861
54813
54767
54718
54667
54614
54556
54492
54424
54354
54274
54181
54086
53995
53908
53820
53733
53651
53573
53489
53399
53318
53258
53218
53200
53212
53258
53349
53500
53710
53967
54266
54604
54968
55350
55738
56123
56502
56869
57220
57554
57867
58154
58418
58659
58875
59061
59221
59363
59486
59580
59647
59695
59726
59738
59737
59730
59717
59692
59657
59613
59566
59518
59468
59414
59365
59322
59283
59243
59198
59150
59103
59050
58980
58898
58815
58733
58647
58557
58475
58403
58337
58276
58222
58176
58143
58121
58114
58121
58138
58170
58213
58258
58302
58348
58399
58450
58495
58541
58596
58647
58685
58712
58729
58731
58717
58698
58674
58644
58609
58568
58521
58464
58400
58330
58253
58172
58089
58008
57929
57847
57766
57689
57615
57536
57450
57361
57271
57181
57088
56998
56912
56828
56754
56695
56643
56591
56539
56488
56435
56376
56312
56241
56167
56093
56020
55948
55879
55818
55763
55710
55661
55616
55579
55548
55514
55473
55433
55398
55358
55315
55274
55230
55175
55114
55056
54999
54940
54886
54843
54809
54776
54737
54694
54647
54594
54538
54484
54430
54374
54315
54255
54188
54112
54031
53947
53860
53770
53683
53604
53530
53455
53378
53301
53225
53142
53050
52959
52871
52779
52679
52576
52476
52383
52299
52230
52180
52156
52171
52233
52344
52511
52743
53035
53368
53740
54147
54570
54989
55399
55796
56175
56531
56864
57179
57475
57749
57993
58201
58376
58522
58640
58733
58804
58854
58884
58895
58889
58869
58835
58791
58743
58691
58638
58588
58534
58477
58420
58357
58288
58219
58155
58089
58014
57929
57838
57741
57636
57528
57425
57327
57231
57139
57056
56983
56918
56860
56816
56793
56785
56788
56800
56820
56856
56905
56961
57018
57078
57136
57190
57242
57292
57337
57373
57399
57414
57422
57427
57421
57403
57378
57347
57308
57260
57205
57146
57082
57012
56934
56851
56759
56658
56553
56447
56342
56241
56143
56043
55942
55841
55740
55644
55554
55467
55383
55303
55226
55151
55076
54998
54914
54823
54737
54663
54601
54550
54504
54449
54384
54324
54273
54224
54172
54118
54063
54009
53963
53930
53907
53885
53855
53815
53774
53735
53703
53681
53669
53659
53638
53603
53554
53495
53430
53368
53312
53258
53205
53159
53113
53053
52984
52920
52869
52821
52766
52709
52655
52598
52535
52465
52386
52293
52187
52075
51968
51867
51768
51668
51570
51471
51369
51269
51176
51093
51028
50991
50976
50987
51038
51143
51312
51553
51869
52254
52686
53145
53614
54079
54526
54948
55341
55703
56033
56342
56634
56901
57135
57337
57512
57655
57766
57847
57904
57945
57972
57989
57991
57973
57934
57879
57818
57756
57692
57623
57547
57461
57363
57261
57161
57058
56952
56848
56746
56646
56549
56452
56353
56248
56141
56033
55936
55851
55780
55725
55680
55644
55624
55622
55636
55666
55713
55777
55848
55923
56008
56096
56178
56254
56327
56395
56458
56519
56573
56619
56650
56668
56672
56656
56615
56554
56483
56411
56341
56273
56201
56122
56039
55959
55881
55797
55703
55604
55505
55403
55294
55187
55090
55001
54919
54837
54755
54672
54587
54497
54409
54325
54247
54175
54108
54042
53978
53919
53864
53804
53737
53673
53617
53563
53512
53469
53435
53401
53366
53334
53305
53278
53253
53231
53213
53194
53173
53155
53137
53111
53086
53064
53038
53009
52987
52972
52956
52927
52888
52850
52811
52764
52715
52673
52633
52587
52534
52476
52410
52340
52275
52212
52143
52068
51997
51929
51864
51803
51748
51693
51635
51574
51512
51463
51441
51451
51497
51595
51754
51971
52245
52574
52952
53365
53799
54237
54672
55106
55534
55941
56320
56670
56995
57294
57566
57814
58030
58209
58357
58479
58572
58637
58682
58714
58733
58735
58722
58698
58664
58618
58566
58513
58459
58402
58347
58297
58250
58202
58149
58093
58037
57971
57895
57812
57728
57645
57567
57494
57419
57336
57247
57156
57070
56995
56936
56895
56866
56850
56857
56887
56934
56989
57045
57106
57169
57232
57289
57342
57391
57439
57489
57536
57574
57605
57633
57655
57665
57660
57644
57616
57578
57530
57477
57422
57365
57307
57245
57178
57108
57038
56969
56895
56808
56710
56609
56505
56399
56293
56186
56087
56001
55921
55842
55760
55677
55598
55528
55465
55404
55348
55300
55255
55205
55152
55104
55062
55021
54973
54921
54870
54818
54770
54729
54687
54638
54583
54530
54478
54424
54373
54323
54275
54233
54197
54162
54127
54092
54054
54015
53982
53955
53923
53878
53831
53790
53756
53724
53693
53666
53637
53599
53551
53497
53439
53372
53297
53219
53138
53056
52971
52884
52795
52698
52595
52494
52396
52302
52211
52125
52040
51956
51881
51826
51798
51806
51862
51980
52162
52404
52704
53066
53476
53908
54349
54792
55227
55645
56042
56421
56782
57119
57427
57701
57939
58148
58332
58494
58627
58728
58799
58848
58876
58890
58895
58892
58878
58854
58821
58776
58716
58648
58577
58504
58434
58367
58298
58232
58172
58111
58038
57956
57873
57791
57705
57608
57498
57380
57263
57154
57053
56967
56898
56835
56779
56737
56709
56689
56676
56676
56690
56715
56749
56793
56842
56899
56959
57017
57070
57112
57142
57164
57179
57187
57190
57192
57190
57179
57161
57138
57107
57066
57018
56965
56903
56826
56740
56651
56559
56463
56361
56255
56151
56049
55943
55834
55723
55618
55518
55419
55314
55203
55092
54985
54881
54782
54686
54589
54495
54404
54316
54232
54149
54068
53993
53925
53862
53805
53754
53701
53643
53582
53523
53464
53397
53324
53254
53191
53132
53078
53026
52976
52929
52886
52841
52788
52725
52660
52598
52539
52484
52432
52383
52336
52290
52240
52187
52132
52070
52005
51933
51851
51766
51684
51599
51512
51424
51341
51255
51164
51073
50978
50873
50752
50621
50484
50352
50230
50114
49998
49886
49782
49683
49593
49529
49500
49505
49555
49669
49857
50123
50467
50880
51347
51852
52377
52903
53415
53903
54363
54793
55196
55568
55901
56193
56450
56674
56860
57005
57120
57218
57300
57361
57401
57421
57420
57399
57361
57313
57254
57182
57101
57016
56932
56855
56787
56720
56648
56571
56487
56395
56302
56209
56112
56005
55886
55764
55645
55527
55407
55290
55186
55102
55030
54966
54914
54883
54869
54864
54863
54874
54900
54938
54987
55047
55116
55191
55271
55349
55419
55476
55519
55551
55580
55609
55635
55645
55636
55617
55594
55566
55520
55458
55386
55306
55221
55133
55039
54938
54834
54729
54626
54517
54400
54285
54175
54061
53939
53818
53703
53592
53483
53378
53278
53178
53078
52982
52885
52789
52703
52628
52559
52489
52419
52355
52291
52220
52144
52066
51992
51928
51871
51815
51760
51706
51656
51606
51553
51504
51462
51424
51392
51364
51336
51305
51271
51232
51189
51143
51097
51055
51019
50983
50944
50905
50872
50841
50806
50767
50725
50674
50610
50534
50449
50354
50249
50140
50032
49931
49831
49729
49626
49525
49425
49328
49234
49141
49048
48965
48898
48860
48862
48914
49030
49224
49500
49854
50278
50758
51278
51814
52347
52862
53350
53807
54231
54618
54965
55273
55546
55786
55995
56172
56316
56430
56517
56580
56619
56629
56621
56603
56572
56524
56456
56381
56304
56226
56146
56063
55978
55887
55788
55685
55586
55494
55403
55306
55198
55077
54944
54806
54665
54524
54393
54274
54172
54087
54022
53977
53952
53943
53952
53983
54030
54092
54175
54268
54362
54451
54535
54620
54704
54790
54879
54968
55052
55127
55187
55226
55245
55247
55236
55218
55195
55166
55125
55068
54996
54915
54832
54748
54661
54573
54483
54383
54278
54173
54068
53962
53861
53766
53670
53569
53468
53370
53277
53191
53106
53024
52948
52876
52812
52759
52712
52665
52613
52559
52509
52462
52419
52381
52342
52300
52261
52221
52178
52137
52104
52078
52047
52011
51978
51947
51916
51888
51867
51852
51841
51824
51796
51766
51740
51714
51684
51648
51613
51581
51554
51528
51497
51460
51422
51383
51340
51292
51244
51192
51131
51062
50989
50913
50830
50743
50655
50570
50489
50408
50328
50257
50197
50151
50129
50146
50219
50359
50570
50853
51201
51599
52040
52508
52990
53474
53948
54402
54834
55249
55642
56001
56325
56618
56887
57127
57330
57499
57639
57749
57831
57891
57933
57958
57966
57965
57960
57948
57929
57901
57864
57816
57763
57713
57662
57605
57546
57491
57434
57373
57308
57238
57160
57076
56990
56903
56808
56709
56615
56530
56450
56381
56322
56271
56229
56204
56199
56207
56223
56251
56289
56327
56356
56384
56417
56453
56495
56544
56599
56657
56715
56772
56822
56863
56897
56920
56927
56917
56899
56883
56869
56847
56809
56756
56688
56606
56514
56419
56323
56220
56109
55997
55888
55783
55679
55578
55480
55384
55290
55201
55111
55016
54922
54842
54772
54698
54619
54538
54454
54367
54285
54204
54127
54060
54010
53974
53942
53901
53845
53776
53705
53644
53589
53541
53506
53472
53435
53401
53369
53336
53303
53266
53228
53189
53148
53108
53070
53029
52983
52932
52876
52817
52767
52730
52697
52664
52631
52597
52554
52502
52447
52386
52310
52220
52125
52027
51927
51824
51724
51632
51545
51465
51391
51317
51240
51167
51099
51039
50993
50977
51010
51108
51276
51515
51820
52185
52604
53059
53533
54012
54488
54954
55402
55820
56205
56561
56891
57186
57446
57673
57863
58019
58148
58258
58346
58408
58447
58470
58477
58470
58446
58411
58371
58324
58271
58212
58146
58074
57999
57927
57862
57803
57747
57689
57624
57550
57470
57384
57289
57183
57071
56961
56860
56769
56691
56622
56554
56488
56432
56396
56379
56377
56388
56410
56439
56476
56523
56572
56613
56653
56700
56749
56795
56838
56879
56918
56953
56980
56999
57013
57019
57015
56996
56961
56916
56869
56816
56749
56674
56602
56530
56449
56361
56271
56182
56089
55990
55892
55795
55698
55599
55496
55389
55282
55179
55084
54997
54913
54835
54768
54706
54644
54581
54520
54459
54395
54330
54269
54208
54144
54083
54025
53971
53920
53868
53815
53762
53713
53665
53618
53573
53528
53480
53431
53379
53325
53275
53230
53187
53146
53111
53082
53053
53023
52988
52945
52895
52846
52798
52748
52692
52633
52579
52522
52458
52388
52317
52239
52152
52054
51953
51852
51754
51662
51576
51494
51416
51344
51276
51208
51144
51095
51078
51107
51188
51333
51544
51816
52143
52520
52934
53367
53804
54239
54668
55085
55485
55864
56218
56543
56836
57094
57318
57510
57669
57802
57912
58000
58065
58109
58133
58138
58127
58108
58080
58039
57994
57944
57887
57824
57766
57715
57663
57604
57538
57469
57398
57321
57239
57154
57067
56977
56885
56786
56677
56567
56466
56378
56301
56231
56174
56131
56096
56074
56068
56075
56091
56114
56144
56183
56233
56292
56352
56412
56471
56531
56584
56627
56663
56692
56712
56718
56713
56705
56697
56680
56647
56604
56557
56505
56444
56370
56289
56202
56111
56025
55942
55853
55761
55672
55584
55490
55391
55292
55195
55101
55010
54921
54833
54744
54654
54568
54489
54418
54354
54291
54223
54149
54074
54003
53932
53863
53803
53749
53694
53633
53571
53516
53464
53413
53363
53315
53268
53226
53190
53156
53118
53076
53034
52995
52959
52927
52901
52879
52853
52817
52775
52732
52688
52641
52590
52535
52480
52421
52360
52299
52239
52181
52127
52073
52012
51946
51876
51795
51702
51602
51500
51396
51286
51174
51067
50968
50872
50779
50704
50653
50631
50645
50710
50837
51034
51296
51617
51984
52390
52822
53265
53702
54128
54541
54935
55301
55636
55940
56212
56450
56656
56839
57000
57139
57254
57342
57407
57448
57467
57466
57448
57413
57371
57323
57264
57195
57120
57045
56966
56880
56793
56711
56633
56551
56466
56378
56285
56188
56086
55978
55860
55729
55590
55454
55326
55206
55104
55025
54968
54929
54909
54906
54914
54931
54959
54999
55046
55098
55155
55215
55273
55333
55393
55448
55498
55542
55576
55600
55621
55636
55641
55633
55608
55569
55522
55468
55406
55338
55263
55177
55081
54983
54887
54791
54693
54596
54501
54405
54307
54211
54114
54011
53902
53793
53686
53578
53469
53362
53261
53166
53077
52993
52914
52836
52759
52686
52617
52549
52482
52419
52355
52290
52233
52185
52137
52085
52034
51988
51941
51888
51834
51784
51736
51689
51645
51607
51574
51544
51515
51486
51455
51419
51386
51357
51327
51292
51258
51218
51171
51121
51071
51024
50982
50938
50888
50828
50761
50686
50601
50509
50416
50323
50231
50136
50037
49935
49835
49738
49639
49536
49441
49357
49284
49226
49188
49181
49223
49331
49513
49768
50095
50488
50937
51416
51903
52391
52869
53324
53753
54155
54525
54857
55152
55416
55650
55854
56026
56164
56268
56339
56386
56419
56432
56422
56395
56354
56301
56240
56177
56113
56041
55959
55872
55783
55692
55599
55509
55416
55316
55208
55094
54967
54824
54673
54523
54381
54249
54129
54023
53933
53858
53799
53761
53746
53751
53775
53813
53863
53924
53997
54078
54163
54252
54350
54458
54567
54665
54754
54833
54897
54944
54982
55008
55016
55009
54996
54977
54945
54901
54851
54795
54730
54656
54573
54486
54394
54302
54210
54116
54018
53922
53829
53736
53637
53536
53437
53336
53232
53132
53039
52951
52868
52789
52710
52633
52553
52468
52383
52303
52232
52169
52111
52056
52008
51965
51920
51872
51827
51784
51747
51713
51679
51644
51609
51576
51545
51518
51492
51464
51431
51401
51378
51357
51340
51324
51307
51282
51247
51209
51169
51127
51079
51027
50976
50926
50870
50812
50756
50700
50638
50568
50492
50414
50336
50256
50174
50093
50020
49959
49910
49876
49867
49892
49960
50079
50253
50492
50798
51162
51573
52014
52466
52922
53378
53826
54256
54660
55030
55368
55675
55953
56198
56409
56591
56742
56863
56959
57031
57080
57107
57110
57097
57074
57045
57006
56954
56899
56845
56785
56716
56647
56584
56519
56441
56353
56262
56170
56074
55975
55873
55766
55652
55531
55406
55285
55171
55068
54979
54908
54865
54853
54868
54904
54957
55025
55103
55189
55276
55366
55456
55537
55611
55680
55743
55800
55859
55919
55974
56019
56051
56068
56069
56055
56033
56004
55963
55908
55848
55784
55713
55634
55552
55471
55388
55300
55208
55117
55032
54951
54875
54797
54712
54624
54533
54442
54352
54266
54185
54113
54046
53976
53901
53827
53762
53709
53661
53613
53561
53506
53446
53387
53335
53294
53258
53219
53172
53126
53081
53034
52991
52955
52927
52901
52873
52842
52817
52798
52778
52753
52727
52700
52671
52640
52611
52583
52556
52533
52517
52504
52491
52469
52434
52386
52334
52282
52218
52139
52054
51969
51884
51801
51716
51628
51543
51459
51373
51284
51200
51126
51065
51025
51017
51047
51122
51252
51438
51684
51993
52361
52779
53230
53702
54185
54659
55119
55563
55982
56365
56707
57018
57302
57562
57795
57996
58169
58315
58436
58536
58616
58673
58708
58726
58737
58743
58742
58735
58717
58688
58651
58612
58569
58524
58485
58456
58429
58400
58371
58337
58292
58242
58187
58127
58059
57987
57912
57835
57757
57679
57607
57540
57477
57428
57396
57373
57359
57359
57377
57405
57438
57475
57524
57584
57648
57712
57775
57835
57890
57939
57983
58018
58043
58061
58074
58074
58053
58015
57977
57943
57905
57859
57807
57750
57684
57609
57528
57445
57366
57291
57213
57125
57028
56928
56832
56736
56642
56558
56485
56413
56342
56276
56211
56147
56085
56026
55969
55911
55856
55803
55745
55679
55615
55557
55503
55452
55403
55360
55321
55285
55252
55219
55183
55145
55111
55080
55047
55012
54981
54948
54909
54867
54825
54781
54735
54692
54657
54629
54607
54582
54551
54516
54478
54438
54395
54350
54299
54246
54197
54144
54082
54016
53945
53871
53799
53725
53643
53555
53468
53383
53295
53202
53111
53030
52960
52892
52822
52759
52713
52682
52668
52685
52749
52864
53040
53280
53575
53918
54298
54711
55142
55576
56008
56434
56842
57224
57582
57918
58226
58501
58742
58956
59142
59300
59428
59528
59607
59667
59712
59739
59748
59740
59726
59709
59684
59650
59609
59568
59526
59486
59446
59404
59357
59312
59274
59237
59191
59133
59071
59010
58942
58863
58783
58706
58631
58556
58486
58428
58379
58338
58306
58284
58275
58282
58305
58336
58364
58392
58427
58471
58517
58563
58614
58669
58719
58763
58799
58820
58829
58833
58837
58837
58826
58809
58784
58744
58695
58642
58587
58527
58464
58403
58337
58260
58173
58084
57996
57907
57816
57724
57634
57544
57453
57365
57281
57196
57108
57020
56938
56859
56789
56728
56668
56602
56535
56474
56422
56368
56313
56261
56211
56159
56109
56061
56018
55978
55938
55901
55864
55831
55802
55773
55739
55701
55666
55635
55602
55564
55523
55481
55441
55402
55366
55329
55289
55250
55211
55171
55127
55085
55046
55002
54950
54893
54831
54762
54694
54632
54570
54504
54433
54355
54275
54193
54107
54021
53935
53843
53744
53644
53548
53453
53352
53251
53153
53060
52973
52900
52847
52819
52826
52883
52993
53158
53383
53669
54003
54373
54769
55182
55599
56013
56419
56812
57186
57539
57869
58167
58429
58660
58867
59053
59210
59335
59431
59500
59542
59561
59564
59556
59534
59495
59447
59393
59335
59271
59208
59151
59100
59048
58994
58939
58884
58827
58769
58703
58623
58529
58428
58326
58225
58128
58038
57953
57874
57800
57728
57663
57605
57555
57517
57491
57481
57491
57517
57554
57600
57652
57703
57745
57783
57821
57858
57890
57918
57944
57970
57991
58001
58001
57991
57972
57946
57916
57877
57825
57766
57709
57651
57584
57508
57430
57350
57261
57166
57067
56968
56869
56773
56679
56585
56492
56401
56312
56218
56112
56009
55919
55840
55768
55700
55631
55565
55504
55446
55390
55327
55264
55210
55160
55105
55043
54981
54921
54863
54806
54751
54704
54664
54636
54621
54612
54599
54583
54566
54543
54510
54467
54418
54368
54319
54271
54226
54184
54143
54105
54070
54037
54003
53968
53929
53882
53827
53767
53704
53636
53559
53480
53405
53331
53255
53178
53095
53002
52904
52810
52717
52618
52514
52411
52314
52223
52131
52040
51958
51889
51828
51777
51748
51749
51789
51879
52023
52226
52498
52837
53229
53658
54108
54566
55021
55464
55884
56274
56633
56962
57263
57539
57784
57994
58176
58334
58463
58563
58643
58705
58740
58749
58738
58713
58673
58623
58564
58496
58417
58336
58261
58192
58126
58061
57995
57927
57855
57774
57685
57590
57485
57374
57267
57163
57057
56955
56867
56792
56730
56685
56659
56655
56670
56704
56749
56801
56864
56942
57033
57128
57221
57310
57392
57467
57532
57592
57651
57703
57745
57778
57804
57820
57823
57814
57796
57772
57743
57709
57669
57620
57568
57513
57450
57380
57305
57227
57151
57080
57012
56946
56875
56796
56720
56652
56584
56515
56445
56377
56309
56240
56171
56108
56051
55997
55948
55904
55856
55807
55766
55730
55692
55654
55624
55598
55574
55548
55519
55487
55451
55414
55381
55353
55326
55302
55286
55273
55261
55251
55241
55224
55202
55180
55157
55126
55089
55051
55009
54957
54903
54858
54832
54816
54797
54772
54738
54698
54652
54604
54555
54497
54428
54349
54265
54181
54100
54023
53951
53881
53810
53739
53669
53595
53512
53427
53342
53260
53189
53132
53086
53058
53058
53095
53174
53298
53472
53703
53990
54328
54706
55109
55524
55947
56375
56798
57205
57594
57965
58317
58647
58944
59208
59442
59648
59824
59969
60085
60174
60240
60292
60332
60357
60369
60370
60354
60321
60284
60249
60213
60171
60123
60074
60027
59982
59939
59899
59855
59802
59746
59694
59640
59577
59509
59442
59380
59323
59268
59215
59164
59119
59078
59046
59024
59013
59016
59031
59053
59081
59118
59166
59219
59275
59332
59391
59451
59509
59563
59608
59637
59649
59654
59654
59651
59639
59617
59587
59550
59507
59463
59413
59355
59294
59234
59170
59095
59012
58927
58844
58767
58692
58618
58543
58467
58393
58319
58242
58164
58091
58017
57936
57851
57769
57690
57616
57550
57491
57435
57377
57319
57262
57206
57152
57097
57044
56995
56954
56913
56869
56821
56772
56725
56683
56645
56612
56582
56553
56522
56490
56457
56424
56393
56366
56341
56311
56274
56233
56187
56141
56096
56056
56017
55975
55926
55869
55804
55732
55658
55585
55517
55452
55381
55307
55238
55173
55108
55039
54971
54905
54833
54751
54666
54580
54491
54395
54295
54196
54104
54019
53945
53879
53818
53757
53699
53649
53620
53617
53643
53704
53818
53999
54247
54551
54897
55279
55688
56112
56540
56967
57380
57773
58148
58506
58843
59154
59437
59693
59920
60114
60278
60413
60520
60598
60649
60681
60692
60680
60656
60629
60596
60555
60507
60457
60407
60358
60309
60261
60214
60168
60124
60079
60029
59971
59908
59846
59783
59716
59644
59567
59485
59402
59320
59238
59161
59095
59045
59012
58993
58985
58989
59003
59022
59045
59079
59123
59172
59220
59266
59306
59336
59362
59389
59415
59435
59450
59462
59473
59478
59475
59464
59437
59391
59335
59277
59213
59143
59071
59000
58926
58846
58768
58689
58606
58523
58443
58359
58266
58167
58074
57987
57900
57815
57734
57657
57580
57502
57423
57348
57278
57212
57148
57082
57011
56944
56887
56835
56782
56731
56683
56638
56595
56555
56517
56477
56435
56394
56352
56306
56257
56216
56188
56161
56125
56085
56048
56013
55976
55933
55883
55828
55773
55720
55666
55608
55552
55502
55455
55408
55359
55310
55258
55200
55133
55063
54995
54924
54848
54769
54686
54601
54522
54450
54379
54304
54229
54158
54085
54007
53924
53838
53754
53669
53582
53496
53411
53335
53276
53234
53211
53218
53263
53353
53487
53674
53922
54226
54569
54939
55332
55741
56151
56554
56947
57322
57672
57998
58302
58579
58831
59057
59256
59428
59579
59707
59808
59876
59916
59936
59941
59934
59914
59889
59865
59833
59791
59746
59702
59655
59608
59563
59518
59471
59426
59390
59356
59314
59265
59212
59157
59095
59022
58943
58860
58774
58690
58613
58541
58475
58423
58388
58366
58350
58342
58343
58352
58371
58395
58422
58449
58478
58513
58551
58586
58616
58644
58667
58682
58691
58695
58695
58685
58665
58641
58610
58567
58511
58448
58379
58301
58217
58133
58045
57949
57849
57750
57653
57557
57462
57366
57266
57165
57066
56971
56880
56791
56702
56614
56524
56434
56346
56262
56180
56102
56023
55939
55855
55780
55717
55656
55595
55535
55481
55432
55381
55323
55261
55201
55147
55098
55051
55001
54947
54891
54836
54781
54725
54674
54628
54584
54538
54491
54446
54405
54362
54314
54258
54197
54135
54075
54017
53956
53890
53822
53750
53673
53594
53515
53436
53354
53273
53195
53121
53046
52973
52904
52829
52737
52632
52526
52425
52325
52224
52124
52023
51916
51804
51690
51580
51477
51381
51294
51218
51153
51102
51082
51110
51190
51324
51516
51771
52085
52453
52862
53291
53724
54156
54582
54994
55385
55749
56085
56393
56671
56916
57126
57301
57444
57561
57656
57729
57775
57798
57808
57808
57797
57776
57745
57706
57660
57611
57557
57492
57421
57359
57306
57254
57201
57150
57099
57044
56982
56912
56841
56770
56697
56622
56540
56448
56352
56261
56181
56109
56044
55989
55949
55923
55914
55921
55936
55956
55987
56030
56082
56142
56202
56254
56295
56335
56383
56430
56467
56491
56502
56506
56505
56499
56488
56469
56441
56409
56375
56330
56270
56201
56124
56037
55947
55857
55764
55664
55560
55458
55360
55268
55178
55087
54996
54906
54816
54727
54648
54575
54500
54424
54355
54294
54233
54171
54110
54051
53994
53942
53891
53831
53765
53703
53647
53596
53548
53506
53469
53432
53401
53374
53340
53303
53266
53228
53192
53156
53117
53078
53046
53020
52996
52971
52937
52900
52864
52833
52802
52767
52727
52679
52622
52562
52507
52454
52396
52333
52266
52197
52123
52046
51968
51893
51821
51746
51661
51566
51465
51360
51256
51155
51055
50959
50870
50791
50722
50664
50618
50592
50591
50619
50684
50795
50961
51188
51470
51794
52151
52529
52920
53309
53693
54064
54419
54752
55057
55331
55573
55786
55977
56147
56292
56410
56504
56576
56628
56664
56686
56694
56683
56647
56593
56535
56478
56423
56369
56319
56272
56226
56175
56118
56061
56002
55938
55863
55777
55683
55582
55480
55374
55265
55158
55055
54957
54867
54793
54734
54686
54651
54633
54631
54641
54664
54700
54748
54803
54860
54917
54979
55044
55106
55166
55222
55271
55314
55348
55369
55381
55387
55385
55368
55336
55301
55266
55225
55176
55121
55058
54985
54900
54807
54710
54610
54511
54414
54316
54215
54112
54016
53930
53848
53768
53690
53614
53541
53474
53412
53356
53304
53255
53207
53160
53113
53065
53019
52973
52925
52879
52836
52796
52755
52714
52674
52636
52602
52570
52544
52520
52486
52449
52421
52395
52365
52335
52305
52271
52243
52228
52219
52207
52189
52172
52150
52121
52086
52052
52026
52007
51989
51965
51939
51915
51887
51854
51815
51769
51723
51679
51629
51569
51504
51432
51356
51278
51201
51126
51055
50989
50926
50867
50814
50769
50729
50696
50675
50677
50712
50784
50897
51060
51271
51527
51825
52162
52530
52917
53309
53699
54084
54459
54811
55136
55437
55716
55972
56200
56401
56576
56724
56846
56949
57034
57099
57147
57185
57213
57231
57243
57247
57240
57222
57191
57152
57109
57068
57035
57007
56978
56950
56927
56906
56876
56835
56785
56729
56664
56588
56505
56421
56339
56261
56190
56138
56102
56076
56060
56055
56052
56052
56063
56090
56131
56180
56235
56300
56368
56431
56489
56545
56598
56648
56696
56736
56763
56778
56789
56793
56786
56777
56767
56756
56745
56731
56707
56669
56618
56563
56506
56444
56376
56301
56226
56147
56061
55972
55886
55803
55727
55662
55601
55539
55481
55431
55386
55337
55283
55223
55165
55112
55063
55015
54969
54926
54885
54848
54813
54778
54744
54709
54674
54640
54609
54578
54546
54513
54477
54442
54408
54371
54331
54295
54258
54220
54190
54166
54138
54101
54062
54027
53996
53966
53938
53909
53874
53836
53801
53766
53721
53669
53616
53561
53500
53440
53384
53328
53270
53213
53165
53120
53071
53016
52954
52887
52818
52753
52689
52619
52545
52473
52407
52343
52272
52196
52122
52057
52006
51969
51944
51934
51953
52013
52122
52285
52497
52755
53054
53381
53728
54091
54465
54842
55213
55574
55927
56266
56586
56888
57165
57411
57628
57819
57982
58118
58232
58327
58406
58463
58505
58537
58557
58565
58563
58551
58533
58512
58489
58462
58431
58401
58377
58360
58343
58326
58312
58300
58280
58254
58223
58184
58133
58071
58004
57937
57871
57807
57747
57691
57637
57586
57542
57507
57483
57471
57469
57475
57480
57488
57505
57540
57590
57645
57700
57749
57792
57833
57869
57895
57912
57922
57928
57925
57913
57893
57870
57843
57814
57785
57756
57721
57680
57634
57579
57515
57443
57364
57282
57194
57104
57022
56946
56874
56799
56721
56646
56574
56497
56413
56325
56247
56178
56112
56044
55971
55896
55825
55760
55702
55650
55596
55543
55496
55455
55421
55382
55337
55290
55244
55197
55152
55107
55065
55026
54990
54957
54923
54884
54841
54798
54756
54713
54668
54625
54583
54538
54493
54447
54399
54349
54298
54244
54184
54125
54068
54010
53948
53881
53814
53754
53700
53642
53578
53513
53451
53390
53327
53255
53180
53101
53015
52927
52837
52740
52640
52546
52454
52356
52256
52162
52077
52000
51931
51869
51809
51753
51709
51686
51690
51730
51814
51952
52146
52399
52703
53041
53400
53777
54164
54552
54939
55320
55689
56035
56355
56657
56942
57201
57429
57628
57801
57948
58069
58163
58235
58285
58315
58331
58338
58333
58317
58297
58276
58250
58217
58179
58139
58099
58062
58028
58000
57973
57944
57913
57876
57834
57787
57732
57666
57591
57514
57437
57353
57262
57174
57093
57020
56958
56907
56861
56821
56792
56777
56777
56784
56792
56807
56831
56861
56895
56937
56981
57025
57069
57109
57136
57148
57154
57158
57153
57137
57117
57101
57085
57060
57022
56974
56925
56875
56816
56747
56672
56594
56515
56436
56348
56245
56138
56038
55939
55839
55738
55639
55546
55456
55369
55284
55195
55109
55034
54965
54895
54823
54753
54683
54608
54528
54453
54385
54326
54275
54230
54191
54156
54116
54071
54023
53974
53923
53871
53813
53755
53702
53657
53614
53567
53517
53471
53430
53391
53353
53317
53281
53241
53192
53136
53082
53033
52987
52940
52884
52823
52762
52696
52621
52541
52465
52394
52322
52243
52159
52078
51998
51917
51836
51752
51662
51562
51460
51358
51251
51142
51035
50927
50821
50719
50622
50534
50452
50372
50301
50246
50217
50224
50276
50379
50538
50759
51044
51384
51765
52176
52610
53051
53489
53915
54322
54707
55071
55410
55726
56015
56272
56500
56697
56858
56991
57105
57203
57277
57325
57350
57362
57366
57360
57345
57319
57279
57230
57179
57127
57069
57012
56965
56921
56876
56823
56766
56711
56658
56606
56549
56480
56399
56315
56231
56145
56057
55976
55906
55840
55778
55725
55682
55652
55635
55637
55653
55677
55707
55746
55789
55837
55890
55945
55996
56040
56081
56123
56165
56203
56231
56247
56251
56245
56235
56216
56182
56139
56096
56048
55987
55914
55832
55746
55660
55576
55496
55415
55324
55222
55119
55018
54919
54828
54741
54649
54548
54445
54348
54259
54173
54093
54017
53943
53870
53797
53728
53667
53608
53544
53478
53413
53352
53295
53251
53216
53180
53147
53117
53085
53045
53002
52960
52919
52876
52835
52801
52768
52734
52704
52676
52644
52607
52568
52528
52487
52447
52406
52360
52307
52254
52203
52154
52106
52058
52008
51959
51905
51843
51776
51709
51636
51552
51462
51374
51287
51195
51102
51012
50924
50836
50746
50658
50578
50503
50428
50359
50309
50295
50329
50414
50551
50745
51003
51322
51686
52082
52497
52921
53346
53762
54160
54537
54892
55227
55540
55824
56074
56288
56472
56633
56770
56880
56955
56994
57014
57029
57030
57013
56984
56947
56900
56846
56794
56746
56700
56653
56604
56552
56496
56437
56377
56317
56250
56171
56082
55986
55877
55755
55630
55512
55397
55290
55196
55122
55065
55024
54999
54988
54992
55006
55032
55069
55115
55171
55238
55309
55376
55444
55519
55594
55659
55715
55762
55799
55831
55859
55876
55878
55866
55844
55809
55759
55696
55624
55547
55464
55376
55288
55202
55113
55020
54926
54834
54745
54654
54559
54458
54355
54257
54171
54091
54008
53924
53841
53759
53679
53598
53514
53431
53355
53288
53224
53162
53108
53063
53022
52981
52939
52896
52850
52798
52743
52686
52629
52572
52521
52475
52433
52392
52353
52321
52292
52264
52236
52209
52186
52168
52153
52137
52118
52097
52069
52033
51991
51944
51891
51839
51789
51734
51667
51590
51512
51432
51350
51266
51182
51098
51012
50927
50839
50743
50642
50547
50461
50378
50296
50213
50133
50058
49997
49957
49940
49961
50039
50183
50399
50689
51048
51462
51911
52380
52859
53333
53795
54239
54659
55050
55406
55732
56031
56301
56542
56754
56929
57068
57176
57261
57324
57368
57395
57406
57404
57394
57374
57344
57300
57242
57175
57107
57047
56994
56946
56907
56870
56826
56771
56709
56642
56570
56495
56418
56338
56251
56157
56059
55966
55884
55811
55745
55687
55637
55601
55583
55585
55601
55625
55657
55701
55757
55823
55897
55972
56043
56108
56167
56219
56261
56293
56316
56333
56350
56366
56374
56365
56343
56309
56261
56200
56133
56061
55981
55894
55802
55706
55610
55514
55419
55330
55245
55156
55063
54972
54882
54792
54706
54620
54528
54428
54331
54241
54151
54062
53984
53911
53839
53772
53713
53657
53599
53541
53489
53439
53385
53326
53269
53217
53165
53114
53070
53032
52993
52955
52921
52893
52864
52833
52798
52762
52729
52698
52665
52630
52594
52557
52521
52476
52423
52369
52315
52258
52199
52148
52113
52082
52044
51995
51934
51867
51797
51722
51642
51560
51477
51392
51308
51221
51133
51049
50967
50884
50794
50699
50605
50516
50429
50341
50250
50165
50089
50025
49980
49970
50013
50124
50310
50567
50887
51267
51698
52162
52647
53146
53646
54126
54583
55018
55424
55795
56137
56454
56739
56985
57192
57372
57534
57672
57786
57877
57942
57987
58021
58041
58041
58025
58002
57971
57930
57889
57853
57820
57788
57755
57719
57683
57646
57612
57583
57548
57499
57437
57369
57295
57213
57130
57053
56979
56900
56816
56733
56657
56595
56548
56516
56496
56483
56482
56495
56521
56556
56598
56646
56698
56755
56817
56881
56939
56990
57044
57092
57124
57138
57142
57148
57155
57153
57142
57123
57092
57050
57008
56965
56907
56830
56745
56657
56560
56458
56359
56263
56163
56062
55959
55853
55749
55654
55569
55488
55410
55336
55266
55196
55122
55047
54970
54889
54806
54732
54677
54631
54584
54539
54498
54461
54425
54391
54364
54343
54321
54295
54268
54233
54192
54155
54125
54099
54072
54048
54026
53999
53964
53928
53897
53872
53852
53838
53823
53797
53768
53745
53725
53703
53674
53642
53609
53572
53532
53492
53446
53398
53353
53312
53267
53217
53164
53108
53045
52975
52907
52843
52773
52694
52610
52529
52449
52367
52284
52198
52108
52018
51934
51855
51782
51723
51690
51688
51721
51801
51942
52147
52413
52735
53101
53500
53922
54358
54796
55228
55649
56058
56450
56824
57176
57501
57801
58072
58313
58530
58729
58904
59054
59182
59290
59373
59430
59465
59480
59473
59449
59421
59392
59359
59323
59289
59253
59214
59174
59136
59102
59073
59041
59002
58956
58908
58858
58804
58742
58677
58613
58547
58475
58399
58329
58268
