17691
17826
17690
17823
17761
17783
17873
17925
17903
17940
17935
17940
18050
17939
18088
18073
18156
17959
18210
18104
18159
18221
18315
18256
18315
18312
18456
18366
18370
18430
18421
18472
18527
18468
18412
18468
18620
18612
18568
18697
18627
18466
18622
18782
18700
18571
18750
18818
18882
18707
18834
18746
18902
18927
18973
19027
19033
18921
18969
19153
19177
19152
19096
19273
19080
19189
19197
19299
19226
19182
19138
19069
18972
18853
18886
18723
18759
18723
18525
18440
18425
18280
18098
18098
17963
17954
17695
17565
17606
17534
17500
17269
17223
17202
17056
17002
17070
16856
16792
16872
16770
16919
16857
16701
16812
16774
16659
16716
16732
16724
16633
16614
16743
16656
16807
16800
16956
16888
16869
17027
17001
17091
17216
17177
17275
17250
17208
17304
17285
17438
17478
17592
17610
17491
17547
17638
17690
17676
17808
17744
17741
17620
17826
17859
17701
17677
17742
17723
17782
17827
17902
17800
17946
18010
18015
17938
17902
18169
18072
18029
18030
18315
18359
18256
18407
18266
18255
18324
18277
18467
18329
18397
18346
18508
18381
18550
18638
18673
18587
18592
18581
18693
18584
18739
18668
18792
18827
18856
18891
18864
18869
18928
18868
18978
18912
18910
19036
18906
19084
19107
19060
19093
19069
19113
19197
19090
19234
19194
19148
19345
19401
19407
19277
19310
19492
19322
19447
19456
19483
19472
19427
19516
19404
19416
19502
19400
19406
19403
19158
19157
19063
19093
18920
18973
18757
18665
18611
18415
18381
18291
18320
18178
18016
17957
17945
17830
17812
17724
17781
17660
17661
17546
17480
17391
17387
17478
17352
17256
17373
17267
17270
17385
17318
17232
17207
17272
17420
17311
17451
17568
17589
17685
17702
17727
17836
17904
17748
17980
18050
18082
18035
18204
18188
18270
18306
18189
18289
18319
18372
18418
18440
18435
18436
18480
18451
18462
18535
18569
18546
18578
18649
18656
18642
18661
18737
18792
18747
18799
18865
18999
18779
18914
18997
18982
18952
19060
19000
19102
19043
19103
19038
19075
19111
19160
19184
19252
19169
19238
19392
19308
19464
19469
19407
19347
19389
19427
19427
19429
19537
19587
19467
19617
19520
19506
19668
19610
19522
19636
19529
19702
19663
19715
19626
19756
19833
19708
19905
19819
19822
19864
20021
19921
19922
19887
19973
20040
19977
20018
19984
19984
19996
20094
20205
20037
20002
20106
19991
20062
20006
19960
20020
19872
19846
19679
19677
19484
19434
19371
19419
19191
19225
19209
19015
18874
18965
18826
18805
18827
18725
18758
18596
18488
18590
18422
18451
18494
18522
18359
18220
18403
18242
18328
18286
18355
18366
18440
18270
18480
18314
18332
18458
18433
18444
18435
18476
18568
18627
18550
18628
18715
18817
18778
18783
18785
18764
18768
18822
18850
18899
18978
18889
18872
18880
18955
18932
18963
18964
19001
19059
19111
19144
19178
19101
19025
19228
19142
19094
19148
19205
19372
19296
19272
19356
19423
19355
19339
19376
19510
19542
19502
19609
19451
19565
19535
19561
19597
19722
19627
19716
19719
19725
19672
19771
19758
19849
19869
19853
19744
19888
19843
19941
19945
19953
19859
19890
20045
19992
19998
19931
20026
20133
19934
20042
20106
20173
20146
19956
20092
20087
20099
20076
20240
20177
20196
20221
20173
20304
20245
20164
20306
20192
20230
20324
20358
20264
20065
20139
20171
19956
19830
19794
19861
19696
19628
19650
19416
19315
19435
19483
19253
19108
19101
18868
18946
18870
18982
18801
18696
18730
18643
18535
18607
18591
18455
18517
18403
18479
18427
18380
18289
18492
18377
18373
18386
18384
18490
18393
18418
18570
18490
18582
18557
18601
18653
18710
18738
18755
18859
18795
18751
18896
18822
19013
19033
18905
18845
18899
19084
18968
19111
19070
19093
19005
19122
19094
19149
19127
19136
19169
19153
19232
19225
19236
19227
19309
19332
19364
19387
19256
19287
19269
19289
19442
19395
19534
19446
19500
19570
19539
19583
19666
19618
19542
19706
19636
19747
19743
19797
19716
19821
19710
19850
19769
19816
19867
19794
19909
19838
19893
19873
19968
19804
19823
19936
19918
19981
19972
19987
20038
19851
20004
19988
20017
20105
20064
20189
20104
20165
20217
20064
20235
20181
20227
20155
20210
20203
20238
20268
20166
20162
20137
20099
20069
20226
19985
19915
19966
19906
19794
19744
19638
19455
19555
19396
19293
19259
19267
19026
18930
18902
18943
18836
18819
18584
18561
18554
18380
18453
18225
18402
18156
18179
18100
18190
18083
18011
18000
18073
17988
17953
17995
17947
18031
18026
17988
18077
18089
18031
18165
18131
18125
18352
18400
18337
18295
18479
18435
18541
18522
18559
18484
18607
18639
18669
18674
18610
18528
18777
18684
18792
18740
18837
18890
18758
18847
18891
18945
19014
18988
19009
19009
19090
19153
19103
19173
19042
19203
19293
19224
19317
19310
19150
19295
19293
19343
19311
19223
19364
19385
19392
19430
19580
19418
19441
19567
19571
19606
19558
19666
19542
19590
19407
19625
19877
19566
19549
19780
19637
19663
19843
19668
19814
19629
19889
19740
19831
19735
19843
19694
19943
19864
19862
19816
19899
20049
19927
20069
19911
20058
20051
19982
20072
20156
20016
20102
20120
20334
20225
20242
20247
20335
20232
20045
20114
20082
20003
19879
19875
19817
19745
19673
19542
19404
19346
19403
19273
19193
19204
19012
19037
18993
18826
18835
18791
18768
18785
18756
18663
18647
18638
18520
18528
18535
18489
18496
18496
18427
18472
18473
18449
18445
18475
18412
18494
18566
18514
18610
18563
18719
18731
18730
18762
18793
18772
18917
18824
18930
19029
18992
18941
18984
19122
19093
19233
19162
19316
19225
19203
19269
19319
19308
19344
19429
19356
19450
19572
19480
19522
19445
19607
19530
19650
19505
19767
19602
19708
19654
19867
19660
19734
19881
19816
19827
19915
19857
19836
19983
20073
20069
19954
20100
20118
19980
20069
20220
20171
20132
20176
20295
20394
20345
20181
20408
20494
20341
20304
20381
20464
20345
20364
20550
20609
20443
20605
20584
20534
20574
20527
20618
20676
20647
20752
20633
20781
20793
20778
20712
20810
20701
20838
20798
20806
20853
20862
20841
20827
20817
20882
20814
20887
20785
20726
20719
20588
20599
20533
20423
20400
20247
20380
20172
20284
20003
19930
19980
19916
19783
19704
19856
19799
19677
19659
19662
19641
19529
19421
19539
19500
19515
19414
19383
19392
19354
19404
19385
19396
19321
19370
19331
19370
19214
19247
19380
19478
19483
19485
19609
19523
19548
19620
19627
19659
19601
19725
19751
19762
19817
19717
19772
19821
19754
19966
19914
19857
19970
19848
19934
19851
19866
19879
19825
19901
20093
20077
19966
19978
19966
19994
20040
20142
20121
20049
19997
20079
20178
20129
20015
20148
20094
20166
20264
20257
20201
20140
20092
20246
20122
20315
20290
20379
20166
20365
20264
20239
20345
20195
20461
20503
20452
20482
20362
20358
20375
20459
20407
20508
20336
20478
20565
20421
20617
20442
20390
20469
20490
20605
20622
20464
20610
20569
20597
20645
20594
20744
20743
20768
20734
20779
20560
20685
20639
20647
20710
20717
20652
20582
20620
20565
20532
20529
20358
20256
20334
20211
20208
20023
20120
19939
19705
19806
19593
19562
19569
19423
19422
19230
19305
19164
19206
19011
19146
18934
18881
18996
18905
18907
18884
18798
18805
18769
18648
18765
18628
18709
18681
18827
18685
18668
18751
18890
18805
18871
18840
18959
18893
18791
18991
18895
19046
19124
19137
19094
19126
19190
19219
19174
19199
19325
19371
19258
19391
19347
19355
19327
19224
19297
19418
19487
19535
19556
19459
19542
19571
19481
19481
19421
19602
19487
19561
19537
19635
19560
19677
19608
19664
19733
19762
19790
19695
19815
19789
19811
19731
19791
19891
19912
19834
19849
19763
19955
19842
19915
19949
20041
19917
19965
19995
20065
20053
19875
20063
20006
19999
20108
20177
20076
20184
20197
20153
20202
20151
20254
20180
20160
20096
20246
20113
20203
20194
20286
20237
20338
20296
20429
20338
20207
20282
20287
20354
20377
20319
20245
20272
20074
20153
20169
19966
20034
19959
19787
19811
19665
19653
19553
19434
19309
19270
19233
19155
19104
18928
18987
18962
18752
18774
18575
18667
18612
18679
18506
18414
18463
18278
18309
18338
18338
18228
18236
18194
18164
18198
18011
18167
18265
18209
18109
18149
18344
18340
18395
18462
18310
18502
18533
18496
18592
18457
18644
18736
18574
18645
18750
18772
18733
18710
18743
18871
18758
18860
18853
18812
18990
18836
19003
18844
18885
19079
19054
18872
19054
19184
19091
18974
19125
19072
19122
19047
19281
19150
19186
19185
19202
19246
19380
19300
19463
19397
19275
19434
19445
19536
19596
19591
19514
19590
19452
19470
19452
19530
19467
19684
19591
19462
19584
19747
19610
19716
19715
19690
19747
19684
19691
19690
19659
19683
19789
19704
19652
19796
19752
19791
19669
19833
19736
19781
19831
19889
19930
19780
19778
19940
19904
19889
19845
20010
19933
19933
19835
19908
19762
19845
19674
19668
19702
19523
19454
19463
19259
19343
19195
19039
18858
18824
18857
18766
18554
18533
18532
18310
18230
18224
18067
18093
17981
18051
17953
17800
17799
17758
17747
17690
17687
17647
17651
17631
17644
17613
17464
17445
17531
17553
17510
17589
17540
17650
17668
17658
17780
17783
17795
17833
17856
17962
17763
17906
17987
17858
17951
17943
17977
17918
18032
18076
18053
17936
17987
18018
18125
18078
18107
18175
18221
18285
18163
18245
18189
18315
18242
18343
18324
18405
18396
18357
18321
18461
18503
18503
18670
18602
18666
18617
18740
18754
18719
18670
18779
18836
18729
18887
18800
18858
18852
18998
18888
18937
19075
19092
19011
19123
19092
19113
19060
19182
19259
19145
19117
19126
19341
19328
19323
19219
19364
19386
19393
19440
19436
19429
19442
19522
19567
19638
19428
19451
19502
19553
19473
19642
19818
19582
19608
19706
19671
19614
19789
19705
19828
19683
19683
19656
19731
19451
19401
19511
19426
19276
19314
19180
19080
19001
18848
18847
18759
18647
18539
18518
18418
18279
18238
18097
18087
17966
18023
17965
17740
17818
17713
17761
17748
17735
17553
17692
17597
17626
17613
17551
17603
17680
17624
17719
17638
17604
17780
17786
17797
17964
17939
17975
18130
18169
18100
18136
18263
18290
18372
18494
18481
18493
18540
18640
18650
18651
18603
18739
18766
18680
18782
18817
18880
18777
18885
19020
18957
19003
19080
18986
18979
19065
19192
19094
19204
19319
19319
19187
19233
19352
19264
19287
19323
19447
19401
19345
19541
19407
19504
19391
19397
19636
19604
19606
19641
19518
19535
19543
19672
19556
19520
19518
19666
19767
19594
19681
19735
19713
19718
19745
19819
19606
19777
19728
19640
19751
19668
19781
19853
19735
19709
19869
19909
19873
19897
19795
19808
19759
19829
19882
19894
19941
20002
19929
19854
20028
19831
19894
19844
19899
19965
19873
19792
19743
19763
19642
19534
19412
19441
19323
19237
19169
18916
18956
18947
18820
18737
18572
18602
18579
18467
18352
18346
18260
18250
18108
18136
18131
18084
18070
17994
18002
18010
18006
17998
17902
17803
17933
18063
18032
18046
17997
18017
17975
18120
18216
18268
18276
18223
18432
18251
18448
18519
18510
18586
18520
18542
18522
18672
18659
18759
18748
18664
18920
18887
18796
18879
18883
18909
18865
18986
18944
18936
18968
19000
19050
19016
18964
19028
19135
19123
19030
19172
19100
19200
19130
19262
19306
19179
19172
19298
19261
19321
19422
19336
19321
19337
19483
19348
19371
19437
19516
19534
19571
19493
19527
19498
19560
19687
19648
19623
19632
19651
19612
19711
19620
19748
19809
19724
19797
19784
19648
19828
19897
19850
19843
19888
19854
19824
19858
19796
19861
19840
19956
19927
19971
19939
20057
20071
19952
20057
20055
20023
20002
20077
19926
20127
19997
19851
19867
19795
19667
19577
19363
19501
19446
19161
19212
19058
19039
18824
18795
18705
18699
18521
18528
18513
18330
18302
18292
18339
18151
18025
18157
18020
18061
18082
17899
17993
17874
17887
17935
17905
17806
17921
17908
17849
17825
17998
17991
17868
17969
17979
18061
18115
18132
18093
18235
18187
18268
18411
18351
18403
18470
18536
18361
18558
18544
18572
18548
18561
18578
18696
18545
18685
18667
18752
18554
18773
18790
18842
18725
18827
18760
18880
18923
18920
18787
18810
18921
19010
18951
18947
18960
18991
19024
19111
19152
19155
19139
19220
19260
19074
19106
19159
19406
19317
19403
19236
19351
19354
19279
19295
19320
19395
19448
19563
19582
19432
19419
19498
19442
19553
19464
19582
19540
19611
19518
19643
19738
19615
19633
19718
19675
19674
19811
19830
19678
19782
19693
19762
19764
19884
19919
19872
19787
19934
19841
19823
19882
19915
19861
19837
19841
19788
19765
19580
19730
19732
19501
19456
19463
19233
19167
19002
19070
19065
18674
18838
18578
18607
18401
18356
18256
18328
18176
18136
18017
18097
18055
17975
17947
17796
17803
17720
17692
17560
17680
17573
17658
17602
17570
17514
17576
17797
17797
17704
17649
17800
17847
17824
17980
17968
18102
17984
17960
18115
18026
18192
18209
18200
18282
18234
18363
18432
18431
18443
18441
18508
18440
18511
18575
18679
18676
18484
18719
18609
18562
18677
18718
18772
18600
18764
18730
18718
18846
18897
18858
18807
18829
18999
18945
18836
19016
19083
19118
19034
19104
19011
19029
19153
19186
19176
19179
19281
19172
19289
19343
19187
19419
19443
19385
19393
19486
19468
19284
19477
19718
19552
19799
19578
19413
19524
19523
19713
19695
19720
19734
19772
19710
19781
19749
19794
19873
19882
19848
19893
19946
19796
19864
19795
19825
20014
19897
19907
20019
19944
19907
20007
20048
20056
19946
19966
20031
20059
20009
19943
19798
19837
19664
19565
19530
19434
19282
19159
19087
19082
18932
18877
18848
18672
18521
18549
18428
18329
18206
18183
18219
18129
17997
17953
17883
17780
17753
17757
17768
17782
17552
17726
17496
17475
17631
17474
17587
17482
17627
17550
17722
17724
17777
17901
17885
17817
18024
18030
18018
18121
18106
18149
18259
18260
18405
18351
18403
18447
18553
18462
18493
18494
18546
18488
18608
18566
18553
18678
18819
18696
18835
18780
18826
18775
18858
18855
19013
19059
19067
18866
19105
19010
19011
19121
19189
19256
19155
19255
19210
19263
19214
19341
19419
19338
19438
19475
19399
19458
19454
19490
19593
19664
19639
19556
19633
19545
19644
19799
19784
19742
19741
19869
19819
19874
19802
19993
19770
19862
19831
19845
19871
19924
20006
19931
20018
20174
20147
20115
19993
20203
20069
20080
20290
20256
20275
20157
20281
20336
20351
20254
20339
20361
20283
20274
20227
20169
20137
20249
20041
20017
19914
19854
19895
19771
19721
19644
19563
19424
19357
19242
19055
19037
18927
18957
18922
18946
18825
18743
18696
18656
18698
18648
18502
18471
18389
18494
18459
18401
18345
18431
18169
18350
18394
18315
18305
18381
18305
18337
18487
18499
18508
18475
18435
18545
18491
18621
18589
18775
18818
18689
18831
18726
18874
18768
18956
18856
18983
18865
19010
18981
18964
19029
19077
19049
19093
19114
19074
19199
19199
19146
19368
19166
19365
19282
19406
19329
19418
19343
19336
19454
19503
19532
19475
19393
19596
19612
19587
19475
19637
19676
19661
19653
19697
19681
19723
19735
19899
19766
19831
19825
19707
19888
19810
19876
19844
19913
20038
19875
19848
19932
20060
19931
19959
19861
20021
19941
19916
20027
20020
19999
20072
19958
20117
20248
20039
20069
20140
20045
20232
20205
20317
20239
20200
20328
20291
20278
20226
20249
20195
20327
20164
20297
20175
20168
20041
19867
19942
19884
19789
19704
19561
19524
19509
19209
19190
19039
19212
19183
18904
18845
18932
18761
18724
18640
18760
18744
18562
18695
18604
18423
18337
18477
18461
18311
18450
18380
18357
18288
18377
18311
18341
18409
18363
18520
18424
18386
18450
18416
18554
18555
18632
18730
18730
18764
18658
18836
18834
18816
18985
18968
18858
19008
19068
18960
19063
19030
19067
18921
19029
19018
19136
19059
19047
19148
19058
19035
19124
19117
19111
19244
19348
19191
19278
19207
19329
19254
19225
19446
19335
19333
19382
19527
19476
19401
19384
19554
19595
19537
19540
19528
19593
19508
19664
19743
19672
19622
19711
19742
19767
19830
19823
19761
19801
19713
19895
19699
19761
19802
19802
19811
19881
19922
19819
19914
19891
19857
19823
20012
19822
19954
19944
19863
19861
19967
20047
19923
20111
20000
19952
20005
20095
20200
19964
19999
20157
20000
19967
19978
19972
19882
19758
19801
19795
19637
19597
19480
19481
19283
19212
19032
19063
18824
18793
18695
18774
18600
18665
18529
18392
18283
18459
18442
18278
18304
18254
18123
18030
17999
18011
17940
17900
17959
17993
17854
17891
17927
17840
17933
17885
17949
17845
17877
18009
18159
18128
18116
18229
18227
18200
18232
18312
18287
18455
18481
18499
18486
18578
18531
18551
18538
18634
18611
18658
18680
18735
18731
18764
18770
18674
18827
18742
18767
18947
18822
18919
18959
18917
18980
18960
18994
19003
19109
19065
19110
19131
19076
19194
19156
19135
19225
19187
19330
19462
19290
19461
19458
19462
19419
19409
19608
19547
19548
19504
19633
19770
19744
19599
19670
19766
19748
19747
19891
19759
19758
19773
19917
19854
19895
19868
19844
19841
19965
20044
19954
19944
20054
19983
20053
19980
20063
20063
20043
20106
20071
20194
20149
20045
20145
20238
20299
20297
20215
20312
20184
20337
20289
20248
20051
20159
20190
19908
20007
19894
19779
19672
19708
19619
19621
19436
19358
19355
19189
19013
19151
18947
18929
18838
18886
18772
18887
18879
18711
18765
18588
18733
18652
18590
18638
18582
18509
18551
18517
18589
18622
18548
18410
18647
18658
18533
18504
18622
18617
18599
18776
18752
18839
18815
19026
19019
18929
19028
19004
19153
19188
19196
19297
19248
19159
19341
19358
19323
19342
19366
19301
19464
19402
19454
19401
19618
19593
19650
19644
19575
19569
19757
19656
19629
19792
19701
19774
19711
19746
19790
19727
19976
19976
19903
19938
19975
20073
20000
19983
20005
20110
20118
19963
20158
19994
20050
20296
20293
20281
20207
20233
20368
20287
20117
20329
20294
20284
20370
20290
20245
20272
20347
20403
20306
20252
20381
20457
20503
20369
20482
20602
20491
20400
20516
20611
20499
20607
20524
20475
20488
20636
20606
20539
20291
20680
20775
20535
20621
20582
20542
20399
20356
20366
20328
20151
20025
20114
20055
19929
19910
19695
19721
19595
19532
19436
19309
19218
19225
19145
19088
19110
18981
19016
18938
18822
18802
18815
18704
18598
18740
18622
18682
18577
18414
18473
18426
18459
18394
18341
18440
18378
18243
18314
18374
18446
18357
18550
18478
18483
18481
18376
18552
18605
18501
18443
18609
18607
18609
18525
18646
18614
18597
18636
18662
18564
18622
18731
18695
18531
18671
18614
18631
18561
18593
18785
18725
18613
18743
18766
18785
18740
18822
18747
18827
18860
18878
18924
18858
18881
19023
18907
18791
19014
18939
19067
19125
19032
19056
19012
18953
19232
19178
19208
19157
19163
19202
19278
19283
19320
19269
19166
19317
19431
19271
19405
19319
19488
19462
19299
19326
19299
19304
19443
19322
19358
19515
19487
19436
19518
19479
19545
19462
19560
19533
19540
19620
19601
19596
19737
19622
19721
19674
19755
19605
19690
19562
19581
19432
19408
19453
19242
19108
19215
19109
18905
18881
18787
18830
18678
18557
18459
18340
18206
18201
18216
18009
17929
18037
17860
17939
17783
17682
17724
17583
17440
17583
17639
17488
17347
17296
17440
17371
17335
17314
17229
17351
17359
17382
17315
17385
17438
17413
17506
17543
17565
17574
17692
17703
17783
17857
17922
17815
17914
17978
17991
18015
18034
18113
18119
18185
18152
18174
18329
18264
18317
18396
18247
18312
18326
18480
18396
18415
18391
18468
18480
18490
18389
18413
18521
18651
18426
18494
18639
18538
18462
18670
18720
18649
18643
18733
18663
18603
18601
18628
18532
18671
18588
18701
18655
18526
18577
18602
18595
18535
18608
18550
18653
18671
18621
18679
18610
18618
18770
18628
18732
18694
18726
18721
18552
18732
18771
18771
18619
18642
18810
18661
18785
18846
18710
18729
18905
18839
18935
18775
18976
18842
18879
18988
18998
19026
18876
18961
18814
18767
18793
18629
18545
18556
18461
18328
18125
18143
17892
17884
17792
17741
17580
17550
17376
17271
17211
17175
17119
17102
17128
17073
16916
16790
16929
16708
16694
16657
16686
16545
16771
16705
16740
16674
16556
16528
16743
16712
16692
16775
16716
16790
16755
16907
16836
16868
16874
17016
17161
17096
17129
17241
17140
17228
17244
17221
17220
17288
17360
17382
17296
17402
17357
17387
17450
17360
17515
17420
17411
17407
17464
17543
17584
17620
17704
17759
17839
17869
17760
17718
17844
17946
18005
17891
18105
18057
17986
18140
18161
18286
18240
18103
18350
18299
18313
18369
18396
18453
18453
18514
18539
18611
18544
18616
18630
18702
18734
18731
18712
18732
18779
18960
18811
18938
18765
18930
19060
19043
19055
18993
18980
18988
19056
19166
19201
19005
19217
19207
19239
19186
19350
19233
19227
19452
19259
19285
19319
19345
19434
19424
19321
19509
19313
19482
19408
19353
19312
19308
19231
19171
19116
19067
19027
18876
18811
18631
18718
18459
18390
18462
18256
18177
18138
18011
18076
17826
17932
17796
17751
17620
17674
17440
17543
17465
17305
17297
17143
17245
17155
17215
17162
16965
17137
17016
16994
16903
16925
17043
16979
16892
17095
17148
17168
17098
17220
17367
17341
17300
17484
17388
17565
17586
17579
17562
17490
17708
17587
17671
17700
17704
17791
17793
17790
17745
17809
17891
17884
17826
17873
17946
17811
17906
17896
17889
18042
17862
17895
17958
18004
17985
18002
17906
18165
18041
18036
18112
18136
18078
17984
18045
18250
18081
18194
18212
18187
18301
18275
18293
18263
18255
18383
18296
18351
18473
18373
18482
18434
18455
18449
18495
18470
18633
18702
18596
18525
18759
18650
18815
18696
18790
18783
18909
18758
18807
18791
18851
18914
18866
18863
18960
18992
19000
19052
19081
19015
19041
19033
19260
19221
19278
19154
19198
19277
19247
19125
19140
19140
19081
18897
18995
18986
18849
18692
18730
18552
18350
18459
18246
18205
18115
17998
18031
17829
17790
17685
17579
17536
17483
17544
17386
17364
17307
17278
17377
17288
17268
17259
17243
17070
17150
17120
17078
17110
17137
17125
17200
17218
17316
17317
17249
17406
17345
17466
17414
17625
17618
17695
17614
17809
17842
17828
17892
17904
18019
17949
18026
18119
18096
18119
18173
18177
18188
18277
18233
18413
18265
18227
18492
18409
18371
18300
18508
18539
18493
18648
18608
18588
18611
18710
18848
18706
18828
18703
18792
18821
18908
18813
18892
18717
18893
18912
18854
18997
18879
18862
18886
18871
19002
19121
19015
19037
18973
18935
18953
19136
19049
19138
19040
19103
19001
19009
19140
19071
19160
19012
19103
19115
19033
19085
19102
19067
19108
18988
19118
19107
19052
19021
19096
19132
19069
19100
19129
19030
18980
19190
19201
19168
19080
19038
19140
19010
18985
18962
18926
18734
18806
18738
18563
18510
18324
18102
18106
17913
17785
17714
17667
17491
17493
17420
17195
17053
17076
17165
16913
16853
16908
16957
16783
16644
16792
16688
16558
16641
16575
16557
16562
16604
16479
16552
16580
16532
16716
16578
16655
16856
16768
16735
16894
16965
17069
17040
17196
17475
17258
17351
17508
17517
17372
17493
17469
17466
17558
17525
17654
17561
17498
17653
17591
17677
17804
17644
17619
17799
17651
17827
17696
17654
17699
17733
17880
17652
17731
17874
17864
17765
17794
17965
17925
17830
17792
17988
17815
17878
17991
17938
17818
17995
17979
18029
17902
18052
18073
17976
18046
18015
18063
18159
18096
18266
18153
18047
18186
18348
18247
18148
18414
18266
18292
18400
18365
18446
18516
18414
18561
18623
18423
18419
18580
18524
18473
18659
18630
18517
18400
18547
18532
18554
18379
18619
18429
18422
18506
18406
18465
18501
18408
18559
18476
18379
18373
18469
18354
18306
18229
18246
17900
17984
17697
17623
17461
17412
17365
17163
16983
16910
17026
16720
16594
16600
16543
16404
16281
16314
16258
16238
16182
16186
15999
15944
15975
15882
15957
15812
15826
15823
15684
15583
15547
15465
15439
15558
15541
15472
15353
15453
15531
15440
15367
15462
15424
15589
15730
15597
15486
15533
15550
15492
15510
15471
15693
15582
15577
15671
15746
15724
15747
15719
15719
15793
15714
15871
15890
15955
15884
15972
16028
16010
16047
16229
16295
16334
16382
16462
16439
16539
16635
16670
16791
16632
16799
16809
16927
16834
16924
16887
16959
17094
17154
17089
17093
17214
17296
17261
17103
17307
17184
17240
17132
17302
17340
17268
17315
17328
17329
17358
17551
17514
17344
17451
17454
17561
17703
17664
17755
17789
17819
17864
17839
17952
17894
17928
18128
18014
18099
18153
18160
18219
18326
18292
18484
18397
18291
18473
18551
18522
18656
18614
18726
18572
18689
18614
18752
18656
18584
18729
18629
18485
18516
18639
18377
18254
18377
18155
18121
18096
17944
17910
17816
17882
17638
17660
17513
17473
17338
17435
17257
17190
17188
17027
17178
17045
16977
16965
16979
16971
16959
16900
16853
16920
16853
16867
16858
16768
16839
16849
16954
16809
16888
16923
17111
17134
17040
17200
17261
17155
17145
17351
17331
17457
17396
17574
17429
17651
17668
17668
17649
17700
17726
17637
17844
17676
17816
17748
17879
17760
17873
18058
17909
17957
18006
17989
18133
18112
18262
18094
18116
18241
18322
18259
18120
18368
18474
18376
18487
18536
18479
18457
18362
18552
18482
18445
18551
18591
18661
18687
18742
18815
18875
18754
18821
18912
18852
19107
18913
19065
19014
19113
19054
19015
18991
19061
19171
19237
19199
19197
19283
19255
19250
19403
19361
19318
19382
19516
19472
19306
19464
19465
19517
19640
19543
19519
19684
19555
19711
19698
19706
19667
19738
19777
19736
19753
19850
19710
19828
19825
19827
19755
19746
19611
19535
19391
19393
19264
19138
19133
18942
18867
18890
18770
18682
18676
18541
18293
18340
18183
18252
18125
17965
17989
17949
17849
17753
17824
17806
17717
17734
17667
17542
17665
17670
17501
17538
17477
17471
17428
17587
17612
17499
17573
17627
17566
17584
17754
17707
17772
17691
17739
17772
17880
17760
17985
17909
17971
17876
17941
17976
17958
18015
18150
18195
18121
18132
18202
18152
18218
18209
18392
18331
18395
18355
18420
18423
18275
18350
18304
18360
18363
18587
18515
18469
18500
18492
18434
18432
18573
18516
18652
18632
18648
18740
18693
18611
18748
18703
18695
18856
18731
18844
18731
18821
18909
18836
18816
18852
18966
18937
18789
19016
18962
18957
18995
18917
18871
18946
18841
19010
18922
19059
19025
18948
19134
19162
19112
19054
19089
19169
19228
19269
19118
19206
19109
19156
19095
19160
19132
19217
19286
19204
19350
19234
19105
19245
19142
18980
18892
18860
18689
18603
18713
18510
18445
18359
18259
18245
17997
17986
17790
17825
17781
17626
17651
17401
17285
17217
17381
17278
17062
17089
16999
16985
16842
16920
16887
16761
16882
16782
16824
16661
16770
16696
16819
16755
16869
16835
16854
16875
16956
17035
16897
16891
16901
17153
17021
16955
17099
17246
17024
17302
17139
17282
17132
17320
17192
17237
17278
17167
17339
17171
17320
17313
17315
17344
17305
17194
17250
17323
17308
17399
17365
17249
17318
17382
17278
17400
17373
17373
17365
17348
17417
17334
17366
17370
17296
17348
17251
17432
17294
17351
17251
17483
17323
17297
17341
17425
17279
17359
17307
17296
17404
17360
17485
17288
17299
17437
17492
17479
17512
17476
17400
17427
17424
17637
17514
17606
17537
17690
17724
17624
17661
17697
17776
17877
17988
17922
17989
17911
18013
17929
18025
17975
18116
18162
18125
18173
18193
18078
18120
18131
18088
18094
17937
17952
17856
17725
17584
17572
17390
17257
17103
17019
16889
16897
16786
16663
16557
16557
16549
16298
16287
16096
16202
16159
16060
16102
16094
16047
15929
15970
15873
15880
15853
15894
15778
15817
15636
15871
15909
15847
15802
15824
15891
15913
15826
16013
16021
16098
16040
16110
16181
16292
16254
16422
16396
16434
16433
16388
16566
16537
16500
16541
16591
16794
16791
16737
16683
16672
16827
16762
16911
16867
16993
16886
16925
16939
17084
17095
16903
17055
17067
17148
17128
17273
17143
17247
17442
17299
17405
17374
17474
17544
17474
17530
17557
17628
17560
17666
17727
17765
17739
17711
17673
17765
17771
17776
17839
17869
17967
17864
17850
17970
17957
18036
17949
18166
18107
18238
18152
18139
18259
18327
18231
18266
18397
18269
18469
18327
18375
18477
18383
18378
18421
18531
18564
18574
18481
18577
18547
18701
18663
18623
18698
18595
18699
18778
18645
18743
18569
18544
18497
18565
18514
18373
18277
18301
18182
18120
18118
17857
17729
17698
17772
17641
17452
17473
17427
17338
17284
17211
17097
17072
16923
16942
17003
16898
16807
16854
16863
16745
16773
16880
16699
16734
16822
16673
16685
16712
16910
16719
16918
16771
16857
17016
16952
17080
17159
17113
17266
17211
17283
17311
17447
17379
17393
17370
17587
17669
17459
17634
17719
17694
17864
17801
17879
17778
17864
17897
18002
17940
17940
17940
18161
18150
18073
18185
18122
18175
18107
18236
18246
18312
18291
18401
18398
18332
18505
18547
18648
18454
18603
18588
18526
18556
18605
18755
18614
18672
18788
18797
18692
18746
18726
18829
18774
18952
18829
18802
18844
18906
19035
18949
19069
18963
19122
18974
19041
19054
18971
19066
19072
19222
19254
19026
19184
19135
19189
19142
19296
19380
19294
19397
19275
19275
19422
19247
19487
19397
19444
19277
19526
19336
19231
19218
19275
19259
19133
19042
19004
18975
18756
18841
18719
18470
18586
18464
18391
18180
18108
18075
18000
17953
17869
17761
17736
17617
17614
17569
17466
17467
17450
17364
17351
17250
17275
17268
17100
17138
17142
17227
17029
17129
17156
17109
17106
17178
17356
17306
17330
17446
17305
17535
17430
17574
17532
17669
17782
17652
17751
17754
17688
17827
17745
17944
17882
17851
17852
17915
18016
17964
17984
18033
18025
18019
18016
18064
18172
18149
18216
18234
18235
18141
18260
18291
18231
18187
18274
18270
18311
18195
18397
18268
18447
18278
18532
18436
18438
18474
18577
18539
18552
18616
18741
18531
18725
18662
18455
18771
18634
18695
18635
18595
18658
18786
18718
18634
18783
18821
18814
18797
18838
18912
18799
18931
18926
18973
18878
18993
19001
18892
18992
19012
19105
18971
19054
19006
19105
19094
19138
19103
19038
18967
19129
19089
19111
19112
19037
19077
19092
19041
19000
18970
18804
18787
18826
18683
18632
18569
18338
18318
18097
18026
18001
17848
17736
17634
17517
17489
17311
17382
17345
17223
17324
17207
17070
17143
17059
16951
16862
17020
16793
16817
16838
16722
16761
16726
16674
16788
16855
16893
16894
16786
16973
16848
16988
16913
17055
17190
17166
17272
17232
17280
17344
17390
17423
17358
17508
17606
17384
17518
17560
17613
17475
17588
17636
17591
17647
17553
17671
17746
17669
17676
17823
17792
17785
17767
17984
17893
17820
17918
17976
18007
17887
18013
18042
17997
18061
18100
17974
18137
18190
18194
18066
18146
18311
18153
18283
18302
18350
18454
18272
18347
18373
18396
18532
18472
18504
18548
18416
18562
18602
18634
18612
18589
18502
18618
18518
18669
18657
18581
18799
18731
18650
18742
18749
18810
18827
18841
18863
18756
18864
18909
18965
18986
18817
19023
19009
18883
18889
19000
18903
19069
19220
19052
18867
19030
18956
18860
18842
18690
18711
18604
18593
18547
18372
18290
18039
18038
17959
17941
17773
17614
17547
17519
17365
17196
17317
17034
17038
17140
16993
16898
16866
16901
16780
16834
16655
16788
16868
16708
16704
16815
16729
16721
16650
16826
16680
16817
16805
16765
16795
16974
16967
17092
17110
17016
17226
17244
17314
17257
17366
17392
17504
17619
17621
17513
17564
17767
17631
17740
17713
17914
17846
17860
17871
17975
18011
17923
18009
17998
18002
18034
18273
18232
18192
18287
18354
18385
18391
18480
18493
18550
18535
18563
18610
18666
18477
18547
18704
18603
18784
18729
18697
18774
18851
18867
18855
18894
18939
19030
19006
18999
19059
19187
19165
19237
19177
19186
19208
19255
19281
19390
19204
19485
19241
19357
19273
19369
19422
19383
19541
19466
19537
19559
19423
19557
19558
19538
19725
19610
19780
19674
19821
19702
19761
19805
19718
19736
19800
19723
19841
19815
19845
19924
19757
19749
19817
19579
19540
19642
19457
19455
19338
19243
19116
19061
18986
18980
18854
18838
18621
18608
18606
18635
18515
18410
18259
18336
18253
18213
18132
18055
18080
17947
17957
17925
17897
17906
17892
17885
17864
17876
17836
17868
17829
17899
17929
17911
17851
17981
17937
18011
18178
18118
18188
18129
18372
18308
18456
18306
18423
18585
18429
18443
18678
18666
18540
18539
18658
18755
18726
18752
18796
18814
18763
18794
18739
18746
18884
18833
18865
19000
18868
18859
19035
18870
18882
18959
19071
19149
19114
19049
19065
19172
19116
19045
19135
19081
19310
19183
19205
19087
19319
19242
19166
19203
19291
19405
19400
19338
19469
19395
19455
19518
19453
19389
19402
19397
19403
19352
19574
19480
19426
19497
19417
19539
19585
19521
19579
19510
19549
19501
19632
19527
19550
19695
19755
19650
19543
19758
19770
19700
19604
19742
19625
19734
19704
19772
19778
19795
19716
19729
19698
19670
19612
19570
19553
19371
19363
19179
19188
19063
19021
18774
18880
18599
18640
18703
18526
18340
18307
18154
18072
18162
17939
17937
17733
17726
17686
17605
17602
17564
17563
17434
17602
17546
17583
17522
17520
17483
17445
17494
17505
17438
17475
17464
17634
17689
17624
17729
17783
17776
17798
17821
17878
17880
17946
17994
17955
18114
18064
18061
18049
18044
18141
18274
18319
18236
18246
18196
18351
18289
18225
18224
18266
18304
18280
18362
18329
18343
18327
18655
18569
18347
18439
18540
18649
18494
18547
18658
18600
18658
18550
18732
18661
18779
18722
18745
18817
18710
18729
18685
18826
18744
18830
18877
18919
18925
18920
18934
19029
18985
19023
19092
18942
19104
18989
18959
19129
19143
19150
19004
19112
19114
19239
19234
19223
19203
19098
19191
19122
19248
19140
19226
19190
19244
19241
19313
19362
19413
19345
19375
19375
19245
19396
19401
19320
19438
19310
19207
19411
19323
19166
19210
19001
19078
19031
18816
18713
18664
18546
18519
18515
18330
18210
18240
18171
17938
17898
17859
17821
17674
17683
17434
17610
17550
17354
17414
17230
17345
17128
17251
17150
17031
17125
17155
16979
17070
16976
17068
17010
17096
17122
17179
17205
17280
17325
17340
17261
17305
17509
17552
17481
17483
17736
17592
17690
17816
17686
17769
17719
17838
17815
18029
17863
17886
17938
17912
17972
17972
18040
18027
17995
18072
18056
18238
18246
18106
18113
18285
18308
18311
18374
18403
18439
18523
18442
18438
18482
18510
18504
18501
18563
18463
18515
18651
18566
18548
18557
18722
18658
18737
18738
18754
18731
18680
18741
18754
18739
18860
18820
18811
18777
18769
18931
18782
18866
18999
18856
18890
18810
18922
18826
18863
18881
18846
19025
18866
18988
19059
18982
19003
18886
19075
18921
19059
19114
19016
18990
19109
19207
19125
19229
19073
19061
19182
19040
18965
19049
19066
18940
19031
18852
18863
18723
18581
18635
18528
18453
18335
18175
18076
17921
17943
17796
17861
17580
17621
17617
17498
17373
17402
17251
17294
17143
17145
17123
17027
17143
17126
17037
17023
16950
16994
16926
16892
17069
16849
16904
17052
17093
16964
17024
17095
17256
17098
17134
17299
17457
17356
17434
17564
17576
17568
17544
17703
17682
17610
17701
17890
17855
17895
17887
17879
17977
17858
17940
18033
17924
18077
18194
18085
17995
18164
18204
18171
18227
18265
18248
18201
18211
18381
18373
18347
18386
18432
18497
18564
18650
18556
18765
18540
18585
18651
18687
18783
18806
18805
18816
18908
18875
18838
18946
18863
18916
19010
18945
19169
19039
19184
19067
19174
19236
19316
19155
19305
19262
19252
19397
19339
19441
19480
19419
19475
19465
19484
19489
19461
19477
19578
19616
19639
19613
19545
19574
19671
19701
19822
19671
19735
19811
19827
19890
19786
19876
19858
19728
19949
19829
19833
19929
19872
19873
19726
19656
19593
19440
19711
19354
19359
19229
19021
18999
19006
18918
18924
18629
18584
18625
18362
18470
18447
18248
18269
18246
18141
17972
17958
17956
17860
17978
17835
17794
17718
17768
17753
17574
17620
17709
17759
17656
17829
17745
17839
17746
17895
17832
17776
17868
17821
17999
17978
18026
18017
18048
18251
18271
18187
18118
18320
18240
18213
18170
18378
18507
18482
18360
18400
18381
18378
18464
18530
18447
18485
18494
18555
18517
18601
18654
18513
18668
18640
18556
18604
18698
18766
18809
18711
18721
18743
18774
18780
18894
18950
18904
18774
18822
18900
19034
18957
18905
19050
19019
18980
18974
19101
19007
18916
18934
19111
19035
19114
19108
19083
19038
19038
19174
19170
19188
19288
19239
19221
19158
19256
19387
19286
19219
19307
19277
19349
19187
19334
19393
19351
19292
19448
19453
19428
19398
19479
19455
19360
19516
19407
19435
19466
19473
19469
19517
19521
19484
19490
19370
19419
19372
19190
19213
19195
19085
18921
18828
18828
18637
18577
18461
18550
18424
18299
18290
18079
18119
18030
17958
17828
17781
17881
17855
17790
17602
17645
17568
17519
17444
17481
17371
17463
17521
17476
17462
17398
17398
17527
17508
17393
17371
17487
17596
17434
17543
17616
17648
17688
17791
17855
17903
17770
18039
17824
17862
18027
18019
18013
18044
18070
18222
18128
18104
18226
18166
18265
18276
18317
18317
18339
18372
18439
18504
18455
18521
18525
18546
18549
18465
18592
18484
18549
18662
18679
18623
18663
18714
18553
18686
18629
18773
18652
18768
18866
18753
18714
18655
18854
18794
18805
18885
18851
18939
18859
18815
18841
18870
18880
19001
18900
18910
19045
19026
19032
19039
19120
19052
19187
19161
19106
19169
19231
19154
19229
19238
19082
19164
19118
19151
19254
19264
19304
19245
19122
19200
19212
19255
19203
19393
19403
19246
19298
19475
19393
19412
19389
19444
19365
19319
19234
19224
19155
18980
18913
18934
18871
18704
18563
18554
18340
18234
18242
18175
18067
17982
17903
17869
17710
17679
17666
17634
17476
17491
17493
17367
17275
17276
17251
17221
17044
17037
16969
17124
17019
16916
17036
16966
17016
17050
17098
17062
17060
17157
17199
17171
17291
17253
17264
17398
17542
17596
17397
17496
17698
17632
17714
17684
17609
17804
17827
17782
17817
17884
18003
17984
17987
18058
18039
18080
18145
18125
18204
18301
18263
18148
18333
18182
18291
18200
18405
18578
18489
18353
18614
18569
18477
18666
18706
18699
18623
18792
18749
18789
18822
18949
18974
18915
18890
19035
18969
19008
19037
19079
19029
19070
19225
19111
19220
19184
19142
19332
19221
19238
19362
19349
19396
19390
19451
19386
19455
19511
19522
19511
19506
19596
19625
19570
19562
19654
19735
19611
19664
19724
19773
19785
19883
19745
19777
19796
19965
19965
19938
19934
19864
19901
19943
19970
19897
19951
19835
19787
19781
19656
19575
19577
19540
19487
19316
19337
19280
19173
18987
18957
18937
18912
18730
18876
18685
18644
18668
18519
18512
18540
18481
18428
18328
18446
18333
18390
18259
18104
18162
18162
18188
18150
18161
18151
18119
18169
18173
18164
18040
18170
18389
18294
18332
18295
18430
18473
18468
18535
18475
18631
18665
18720
18602
18623
18820
18825
18717
18856
18966
18771
18847
18837
19117
19123
18911
19074
18964
19081
18996
19217
19344
19105
19107
19371
19369
19181
19381
19412
19249
19322
19367
19332
19500
19362
19631
19479
19491
19501
19732
19631
19654
19660
19819
19842
19813
19828
19895
19780
19705
19865
19966
19841
19794
19934
19976
19886
19970
19957
20100
20019
20067
20102
20178
20049
20112
19966
20125
20193
20133
20195
20149
20118
20292
20176
20108
20237
20186
20171
20310
20297
20202
20241
20154
20324
20412
20328
20409
20332
20408
20336
20372
20430
20360
20353
20290
20190
20218
20219
20085
20006
20068
19802
19849
19762
19722
19702
19535
19512
19337
19297
19230
19244
19133
19096
19079
18938
18935
18818
18846
18620
18794
18587
18734
18534
18486
18596
18483
18397
18424
18499
18349
18255
18288
18375
18277
18375
18293
18359
18445
18476
18435
18386
18457
18542
18605
18616
18698
18598
18576
18768
18703
18666
18788
18826
18720
18910
18796
18755
18905
18879
18925
18874
19016
18936
18916
18872
18943
19062
19072
18955
19035
19019
19089
19087
19032
19123
19185
19166
19195
19164
19282
19280
19198
19294
19264
19311
19373
19332
19382
19342
19358
19252
19320
19383
19397
19522
19496
19497
19394
19509
19373
19516
19425
19365
19487
19595
19554
19514
19517
19564
19523
19524
19533
19567
19565
19588
19653
19540
19562
19701
19569
19484
19663
19746
19627
19684
19689
19646
19664
19758
19736
19700
19739
19765
19763
19796
19738
19747
19844
19798
19656
19782
19813
19761
19697
19734
19620
19574
19470
19468
19215
19278
19268
19315
18998
18961
18871
18782
18647
18696
18669
18488
18461
18366
18198
18282
18074
18080
18042
17790
17903
17819
17813
17742
17557
17619
17655
17440
17484
17492
17400
17424
17454
17432
17482
17409
17524
17523
17559
17551
17654
17727
17753
17763
17850
17932
17941
17985
18042
18056
17925
18082
18165
18075
18126
18133
18258
18165
18301
18306
18355
18213
18182
18294
18378
18220
18172
18358
18230
18218
18359
18346
18318
18405
18286
18383
18458
18439
18550
18400
18462
18605
18573
18537
18386
18590
18518
18637
18497
18662
18743
18699
18623
18655
18688
18745
18819
18770
18855
18896
18933
18839
18842
18970
19019
18975
18871
19014
19104
19002
18985
19059
18968
19145
19106
19046
19129
19030
19069
19034
19174
19002
19068
19145
19053
19150
19188
19278
19312
19126
19263
19298
19267
19313
19301
19397
19244
19224
19375
19391
19208
19375
19171
19101
19096
19115
18990
19043
18943
18873
18689
18661
18621
18550
18458
18444
18169
18252
18041
18010
17934
17886
17758
17695
17663
17630
17663
17406
17543
17490
17323
17414
17475
17328
17197
17183
17187
17250
17286
17142
17319
17223
17266
17388
17440
17378
17377
17506
17410
17487
17615
17724
17731
17724
17784
17783
17814
17925
17973
18040
18029
18099
18210
18152
18149
18244
18179
18211
18310
18282
18425
18305
18523
18559
18605
18507
18541
18566
18663
18746
18664
18640
18721
18679
18825
18855
19013
18868
19100
18922
18971
19036
19146
19020
19094
19145
19213
19149
19343
19227
19284
19272
19344
19444
19308
19387
19339
19536
19517
19538
19441
19631
19501
19584
19533
19618
19749
19710
19714
19835
19905
19833
19920
19852
19912
19928
19946
19907
19970
19872
19998
20000
19967
19972
20121
20099
20151
20236
20210
20250
20045
20223
20241
20269
20252
20226
20130
20111
20150
20255
20169
20061
20067
19927
19951
19838
19759
19696
19554
19622
19557
19407
19275
19207
19314
19049
19050
18968
19073
18859
18921
18787
18779
18706
18551
18670
18498
18487
18528
18518
18497
18452
18376
18387
18349
18374
18369
18435
18292
18335
18397
18337
18396
18387
18374
18473
18382
18410
18651
18664
18580
18623
18732
18721
18741
18903
18864
18766
18839
18860
18835
18926
19060
18947
18886
18909
19021
18905
19025
19061
19061
19041
19028
18973
19135
19117
19172
19113
19241
19165
19168
19148
19189
19281
19307
19285
19423
19299
19320
19429
19346
19343
19491
19470
19505
19368
19478
19610
19518
19529
19438
19551
19626
19588
19631
19600
19555
19634
19752
19580
19577
19767
19785
19736
19714
19813
19809
19719
19834
19817
19862
19775
19736
19876
19945
19818
19841
19971
19926
19872
19946
20012
19990
19951
20061
19887
20019
19938
19999
20038
19947
19948
20067
19894
19863
19811
19846
19870
19678
19773
19659
19512
19413
19360
19329
19152
19065
19198
19038
18814
18793
18834
18776
18675
18540
18601
18465
18356
18444
18471
18305
18104
18155
18231
18120
18130
17946
18066
17861
18054
17872
17886
17936
17846
17942
17872
17917
17898
17855
17944
17894
18128
18060
18058
18147
18199
18257
18251
18280
18308
18282
18404
18328
18310
18433
18491
18362
18463
18421
18429
18610
18517
18358
18492
18552
18575
18445
18576
18572
18604
18748
18645
18654
18668
18815
18759
18668
18882
18906
18835
18849
18820
18872
18928
18864
18829
19040
19085
19025
18932
19123
19042
18950
19139
19021
19175
19160
19142
19232
19100
19167
19195
19242
19236
19211
19339
19301
19307
19247
19280
19321
19175
19337
19216
19327
19459
19428
19411
19338
19322
19487
19519
19403
19485
19429
19638
19515
19521
19541
19628
19587
19499
19652
19618
19542
19647
19597
19532
19537
19473
19408
19319
19391
19426
19171
19096
19043
19018
18762
18753
18652
18706
18515
18329
18413
18304
18070
18022
18058
17954
17829
17787
17642
17660
17629
17524
17375
17413
17405
17384
17295
17354
17350
17326
17286
17210
17256
17263
17212
17274
17327
17393
17390
17286
17406
17346
17546
17638
17540
17620
17748
17762
17711
17806
17858
17939
17991
17960
17969
18088
18042
18161
18109
18174
18097
18149
18259
18200
18186
18077
18291
18183
18327
18298
18269
18447
18496
18365
18385
18483
18541
18460
18669
18511
18594
18611
18782
18703
18646
18828
18845
18727
18838
18876
18909
18801
18985
18970
18957
19049
19072
18991
19022
19085
19158
19231
19147
19090
19171
19307
19201
19308
19252
19319
19310
19451
19294
19366
19449
19487
19318
19404
19364
19517
19496
19494
19624
19702
19456
19557
19774
19750
19637
19722
19807
19710
19854
19762
19790
19812
19925
19817
19807
19788
19867
19754
19707
19725
19512
19592
19643
19412
19483
19405
19343
19248
19075
19177
18917
18942
18903
18902
18757
18645
18659
18583
18532
18426
18453
18408
18333
18302
18343
18158
18279
18156
18163
18232
18192
18273
18038
18162
18204
18169
18261
18169
18244
18265
18350
18364
18473
18408
18413
18436
18452
18431
18500
18530
18499
18615
18459
18450
18567
18507
18620
18629
18804
18916
18949
19077
19135
19288
19405
19409
19536
19472
19491
19713
19728
19705
19658
19663
19532
19673
19683
19774
19698
19686
19870
19739
19855
19725
19802
19911
19935
19780
19904
19909
19806
19844
19909
19830
19791
20032
19936
19962
19988
20075
19945
20092
20075
20121
20075
20154
20000
20076
20061
20024
20266
20301
20157
20153
20276
20387
20225
20228
20431
20441
20443
20395
20457
20474
20515
20537
20483
20627
20648
20621
20560
20573
20624
20631
20626
20574
20626
20633
20511
20527
20610
20566
20478
20479
20411
20369
20218
20109
20055
20102
19821
19840
19861
19572
19542
19557
19388
19469
19200
19184
19202
19120
19022
19008
18880
18870
18891
18940
18824
18840
18567
18653
18729
18569
18557
18598
18528
18513
18429
18424
18561
18423
18398
18383
18411
18421
18519
18375
18510
18529
18541
18484
18534
18528
18441
18509
18527
18521
18577
18522
18581
18634
18570
18530
18679
18566
18581
18591
18595
18550
18642
18665
18667
18730
18559
18665
18699
18730
18710
18662
18778
18749
18743
18827
18863
18898
18930
18847
18926
18954
18839
18898
18833
19065
18972
18924
18964
18962
18969
19087
19087
19086
19083
19133
19099
19191
19080
18995
19153
18988
19163
19256
19209
19098
19099
19193
19132
19186
19090
19143
19040
19211
19153
19178
19219
19355
19290
19270
19135
19298
19208
19182
19227
19207
19336
19162
19311
19314
19356
19244
19189
19398
19208
19338
19287
19194
19024
19081
18941
18857
18814
18684
18565
18430
18396
18255
17986
17955
17728
17818
17638
17435
17373
17278
17190
17101
17046
16916
16903
16898
16867
16693
16559
16475
16599
16509
16262
16250
16264
16385
16216
16109
16114
16162
16120
16123
16247
16256
16141
16158
16352
16247
16386
16486
16473
16593
16589
16626
16644
16716
16694
16671
16711
16749
16881
17026
16885
17005
17103
17007
16960
17082
17266
17181
17126
17317
17289
17388
17442
17344
17486
17334
17596
17444
17676
17573
17569
17676
17559
17689
17758
17813
17724
17866
17891
17887
17887
18031
18078
18141
18076
18116
18185
18260
18346
18332
18359
18411
18271
18405
18344
18424
18507
18426
18537
18564
18612
18623
18678
18587
18602
18668
18745
18731
18800
18790
18810
18666
18824
18924
18915
18922
18983
18784
18937
18947
18948
18842
18838
18921
18872
18857
18797
18858
18973
18815
18840
18829
18733
18753
18746
18687
18538
18456
18384
18392
18307
18041
18104
17975
17902
17684
17687
17502
17531
17246
17358
17208
17044
17028
16924
16856
16827
16857
16865
16722
16599
16766
16600
16654
16644
16646
16576
16577
16572
16529
16591
16620
16625
16687
16670
16654
16733
16698
16757
16786
16855
16948
16932
17202
17278
17258
17202
17416
17411
17542
17405
17688
17605
17721
17632
17800
17586
17719
17726
17656
17811
17680
17820
17883
17828
17760
17878
17893
17796
17953
18008
17980
17938
17967
18090
18041
17981
18129
18035
18112
18129
18114
17994
18142
18144
18234
18120
18119
18184
18301
18250
18256
18309
18370
18345
18229
18349
18388
18374
18415
18374
18406
18509
18346
18389
18440
18324
18315
18545
18529
18443
18454
18465
18412
18322
18522
18384
18337
18494
18527
18341
18501
18382
18553
18486
18472
18481
18372
18437
18381
18521
18384
18499
18509
18453
18515
18447
18264
18395
18298
18289
18284
18033
18053
17865
17961
17885
17776
17738
17565
17376
17407
17183
17105
17169
16948
16965
16840
16786
16503
16591
16683
16556
16322
16458
16369
16309
16256
16333
16140
16143
16155
16262
16268
16189
16266
16102
16189
16098
16219
16258
16181
16208
16380
16265
16272
16400
16558
16640
16492
16685
16623
16735
16772
16749
16904
16858
16939
16915
16881
16943
16979
17131
17115
16985
17138
17052
17137
17118
17197
17078
17192
17326
17313
17231
17343
17246
17237
17352
17328
17366
17451
17384
17324
17440
17542
17456
17462
17604
17497
17460
17636
17524
17674
17587
17542
17702
17653
17686
17668
17713
17690
17718
17800
17703
17782
17850
17853
17955
17856
17880
17870
17874
17900
18014
18126
18030
17996
18143
17984
18011
18029
18054
18246
18205
18198
18252
18358
18289
18238
18235
18194
18176
18275
18159
18254
18280
18194
17990
18034
17950
17856
17748
17586
17495
17399
17302
17124
17094
16894
16897
16853
16647
16563
16466
16530
16377
16297
16190
16004
16174
15958
16006
15939
15907
15790
15697
15836
15711
15692
15598
15583
15677
15602
15518
15714
15531
15669
15651
15703
15708
15801
15798
15788
15854
15938
16036
16011
16054
16045
16073
16053
16110
16132
16295
16187
16272
16237
16112
16214
16338
16347
16388
16289
16209
16312
16310
16385
16296
16412
16462
16382
16493
16462
16472
16555
16542
16498
16458
16566
16480
16525
16640
16519
16676
16592
16665
16729
16631
16650
16691
16839
16777
16873
16835
16900
16822
17048
16976
17069
17078
16979
17028
16984
17085
17140
17083
17047
17101
17090
17137
17147
17234
17171
17289
17265
17294
17325
17326
17502
17438
17418
17418
17484
17386
17436
17527
17413
17562
17319
17403
17277
17335
17259
17212
17086
17070
16964
16814
16654
16652
16709
16420
16468
16323
16259
16240
16166
16068
16035
15943
15901
15867
15838
15801
15740
15762
15582
15555
15645
15476
15534
15534
15613
15560
15631
15632
15702
15688
15575
15802
15827
15785
15895
15982
15948
15881
15862
15939
16051
16197
16143
16133
16173
16195
16344
16275
16398
16452
16533
16510
16587
16726
16662
16699
16706
16803
16857
16864
16772
16876
16893
16810
16965
16954
16990
16958
16902
17036
17108
17138
17061
17162
17210
17283
17321
17367
17500
17341
17451
17421
17472
17727
17797
17767
17630
17741
17864
17881
17734
17780
17894
18031
17963
18034
17996
18080
17952
18119
18143
18183
18076
18246
18152
18149
18311
18354
18228
18343
18411
18374
18388
18425
18405
18385
18425
18517
18488
18508
18438
18554
18487
18497
18505
18573
18525
18503
18571
18448
18323
18315
18129
18235
18223
17959
17887
17827
17819
17722
17627
17600
17567
17476
17442
17405
17276
17269
17194
17108
17102
17213
17134
17163
16963
17103
16930
17080
17038
16904
16936
17027
16964
17007
16942
17035
16968
17116
17215
17155
17143
17243
17300
17343
17426
17570
17525
17474
17571
17615
17616
17587
17711
17785
17660
17857
17847
17813
17784
17880
17866
17757
17832
17781
17768
17868
17935
17912
17866
17882
17934
18100
18038
17933
18005
18214
18168
18174
18223
18275
18285
18379
18303
18464
18307
18352
18468
18387
18440
18419
18386
18413
18365
18497
18625
18573
18567
18610
18624
18671
18633
18800
18768
18624
18791
18654
18820
18619
18834
18634
18777
18736
18779
18706
18749
18651
18854
18736
18867
18825
18832
18879
18842
18915
18958
18863
18836
19015
18984
18915
18887
18845
18878
18768
18810
18676
18616
18427
18380
18358
18249
18122
18106
18002
17921
17905
17741
17574
17571
17522
17464
17441
17300
17264
17216
17115
17088
17060
16984
16972
16895
16903
16819
16850
16778
16816
16833
16837
16774
16840
16972
16821
17003
17069
16918
17165
17017
17239
17060
17176
17132
17143
17154
17291
17257
17274
17265
17347
17324
17214
17405
17444
17362
17415
17469
17585
17649
17546
17473
17609
17644
17623
17639
17730
17709
17633
17776
17752
17716
17716
17740
17830
17863
17709
17846
17963
17796
17822
17922
17931
17887
18122
18068
18117
18025
18104
18098
18030
18060
18086
18150
18197
18176
18157
18222
18105
18121
18182
18280
18231
18264
18346
18308
18383
18335
18209
18327
18383
18336
18358
18412
18397
18517
18438
18345
18482
18421
18465
18443
18438
18509
18460
18431
18625
18659
18567
18626
18601
18466
18485
18437
18268
18231
18057
18018
17977
17824
17651
17625
17413
17341
17406
17289
17173
17037
16781
16808
16711
16520
16635
16580
16409
16446
16382
16304
16325
16307
16337
16264
16167
16201
16141
16125
16050
16109
16125
15986
16000
16079
16147
16108
16259
16286
16146
16246
16289
16277
16410
16338
16537
16487
16402
16547
16603
16554
16504
16440
16519
16595
16530
16512
16583
16714
16473
16554
16681
16665
16752
16734
16667
16812
16748
16928
16960
16837
16880
16990
16838
16878
16904
17015
16970
16995
17042
17057
17164
17076
17156
17104
17162
17255
17208
17355
17351
17497
17419
17411
17398
17530
17390
17489
17588
17643
17594
17663
17646
17773
17626
17574
17758
17719
17703
17698
17859
17714
17861
17889
17852
17929
17869
17886
18021
18126
17909
17968
18082
17990
17980
18058
18035
18089
18112
18081
18174
18056
18121
18021
17875
17840
17735
17783
17500
17487
17343
17358
17151
17187
16994
16886
16885
16763
16572
16671
16462
16423
16250
16235
16244
16159
16099
15939
15894
16001
15867
15781
15763
15854
15917
15756
15882
15782
15757
15653
15791
15748
15722
15710
15819
15937
15846
15886
15845
15982
15940
15942
15940
15944
16148
16003
16120
16156
16119
16354
16372
16335
16297
16456
16519
16467
16503
16452
16405
16554
16585
16616
16612
16471
16667
16565
16618
16584
16731
16659
16757
16731
16861
16802
16905
16959
17072
16973
17037
17106
17102
17127
17065
17234
17287
17318
17241
17405
17548
17422
17487
17485
17524
17531
17570
17568
17701
17599
17720
17753
17792
17761
17873
17927
17868
18049
18061
18071
18124
18025
18112
18211
18139
18293
18268
18342
18246
18413
18298
18342
18467
18377
18469
18556
18502
18593
18704
18656
18573
18548
18724
18691
18703
18704
18611
18412
18506
18551
18355
18367
18149
18078
17916
17871
17826
17686
17567
17660
17522
17398
17425
17257
17192
17286
17203
17108
17018
17168
17020
17032
17070
16902
16981
16912
16932
16969
16884
16791
16876
16855
16879
16899
17027
17143
17147
17210
17097
17181
17318
17394
17298
17488
17565
17562
17572
17664
17646
17639
17727
17704
17683
17820
17862
17834
17910
17893
17980
17909
17919
17930
18080
18135
18109
18193
18271
18247
18114
18225
18239
18268
18303
18344
18288
18349
18368
18564
18387
18525
18454
18539
18592
18630
18627
18661
18641
18640
18750
18746
18776
18728
18849
18771
18933
18888
18979
18898
18968
18919
19097
19081
18981
18936
19092
19055
19003
19058
19133
19136
19117
19114
19206
19213
19226
19279
19357
19341
19336
19446
19328
19240
19379
19324
19394
19350
19449
19540
19517
19579
19572
19539
19591
19355
19608
19567
19392
19489
19384
19368
19192
19207
19170
19032
18872
18962
18907
18768
18561
18547
18351
18269
18214
18266
18183
17994
18000
17966
17849
17805
17735
17760
17653
17623
17723
17639
17592
17517
17637
17546
17537
17482
17461
17394
17344
17452
17451
17370
17453
17475
17610
17528
17575
17643
17747
17673
17674
17689
17746
17832
17961
17899
17967
17889
17914
18089
17925
18083
17957
18089
18092
18145
18025
18111
17994
18124
18098
18139
18018
18163
18189
18212
18269
18244
18278
18286
18319
18431
18297
18232
18336
18480
18392
18528
18495
18452
18532
18421
18604
18404
18522
18593
18552
18627
18570
18603
18726
18681
18629
18637
18801
18785
18778
18773
18642
18723
18831
18717
18654
18792
18703
18833
18814
18725
18771
18863
18719
18758
18876
18930
18887
19004
19021
18833
18904
18936
19050
19005
18891
19030
19056
19119
19002
19110
19058
19094
19019
18966
19026
18811
18943
18828
18808
18687
18555
18578
18394
18231
18196
18121
18063
17848
17905
17863
17780
17618
17648
17396
17348
17357
17263
17149
17130
17150
16949
17000
16987
16936
16927
16786
16742
16727
16844
16683
16728
16706
16719
16645
16818
16904
16829
16750
16830
16825
16830
16971
16995
17126
16961
17084
17008
17068
17078
17206
17225
17275
17211
17345
17261
17292
17425
17497
17468
17448
17454
17370
17393
17332
17506
17428
17488
17450
17514
17579
17522
17413
17712
17629
17610
17678
17664
17739
17673
17861
17738
17822
17886
17909
17859
17983
17842
17992
18014
17886
17884
18015
18072
18202
18000
18216
18002
17996
18248
18199
18150
18149
18130
18276
18180
18236
18410
18325
18359
18350
18412
18287
18462
18433
18381
18427
18400
18443
18485
18516
18567
18467
18486
18428
18488
18518
18552
18605
18609
18653
18572
18689
18667
18639
18550
18570
18720
18524
18594
18569
18474
18355
18315
18195
18228
18063
17849
17794
17707
17557
17512
17380
17304
17138
17127
16943
17017
16775
16712
16654
16682
16483
16508
16358
16379
16213
16270
16207
15974
15980
15930
15977
15829
15878
15784
15846
15935
15925
15940
15898
15844
15964
15879
16055
16046
16139
16100
16172
16288
16344
16342
16223
16395
16411
16415
16368
16452
16603
16605
16643
16744
16678
16609
16807
16838
16768
16849
16821
16848
16973
16918
16924
16984
16920
17092
16979
17105
17040
17053
17115
17084
17078
17181
17350
17285
17205
17383
17439
17471
17442
17616
17611
17652
17684
17667
17783
17842
17822
17863
18009
17921
17898
17911
17994
17946
18022
18092
18039
18146
18226
18102
18116
18246
18267
18225
18349
18312
18254
18386
18337
18449
18526
18476
18505
18585
18641
18507
18611
18678
18643
18545
18633
18714
18702
18780
18782
18840
18789
18788
18824
18849
18711
18709
18820
18657
18701
18700
18703
18630
18579
18538
18394
18334
18210
18184
18006
18042
17894
17742
17766
17541
17538
17451
17305
17211
17236
17245
17082
17001
17050
16971
16904
16848
16735
16701
16827
16777
16682
16661
16684
16862
16840
16828
16731
16938
16881
17015
16938
17052
17148
17128
17112
17293
17393
17429
17312
17520
17500
17518
17584
17582
17664
17534
17668
17674
17596
17700
17850
17698
17737
17778
17823
17858
17821
17882
17858
17904
17784
17898
17936
17994
17885
18069
18005
18216
18130
18245
18215
18126
18244
18208
18348
18439
18396
18510
18441
18377
18516
18391
18611
18535
18640
18531
18559
18619
18668
18677
18648
18769
18621
18762
18701
18788
18766
18670
18700
18794
18767
18661
18813
18714
18744
18661
18726
18691
18724
18658
18681
18620
18786
18622
18643
18630
18615
18718
18723
18685
18671
18681
18551
18701
18771
18734
18594
18600
18790
18758
18720
18706
18612
18624
18534
18635
18655
18464
18445
18440
18400
18150
18130
17993
17907
17731
17684
17612
17644
17374
17242
17188
17192
16969
16841
16821
16797
16650
16508
16623
16379
16339
16294
16363
16326
16193
16155
16297
16118
16017
16150
16110
16164
16037
16081
16000
16146
16078
16228
16400
16295
16433
16463
16593
16562
16651
16619
16628
16602
16849
16816
16845
16722
16851
16793
16927
16867
16987
17100
16890
17021
17082
17154
17080
17158
17278
17190
17243
17282
17181
17241
17414
17475
17465
17282
17468
17579
17435
17499
17553
17678
17681
17660
17657
17746
17670
17766
17648
17809
17684
17788
17826
17872
17825
17902
17853
17904
17821
18005
18011
18014
18043
18017
18003
17954
17996
18136
18168
18035
18100
18219
18235
18131
18153
18203
18121
18271
18217
18236
18208
18285
18370
18386
18318
18392
18496
18356
18412
18422
18409
18411
18375
18528
18397
18412
18385
18480
18520
18465
18480
18336
18336
18251
18355
18302
18144
17964
17940
17926
17679
17773
17596
17593
17309
17303
17197
17015
17062
16966
16831
16850
16702
16760
16689
16722
16686
16609
16626
16489
16436
16613
16563
16438
16537
16426
16484
16537
16588
16476
16563
16519
16461
16497
16536
16606
16640
16593
16589
16641
16676
16778
16810
16862
16940
16933
17009
17041
16969
17012
17090
17182
17018
17100
17138
17205
17199
17214
17210
17150
17093
17113
17283
17119
17120
17257
17338
17282
17231
17175
17193
17252
17135
17251
17147
17261
17435
17393
17283
17434
17411
17523
17331
17515
17508
17474
17472
17479
17468
17669
17579
17647
17722
17768
17693
17820
17896
17788
17678
17767
17922
17987
17738
17982
17950
17928
17807
17974
17990
18009
18101
18066
18120
18199
18119
18300
18322
18279
18413
18472
18441
18590
18574
18626
18616
18538
18733
18829
18718
18801
18779
18751
18719
18722
18967
18974
18879
19013
18937
18858
18961
18882
18809
18717
18724
18495
18519
18248
18316
18130
17980
17878
17861
17724
17657
17493
17464
17430
17304
17194
17167
17040
17142
17062
16896
16789
16825
16817
16596
16636
16427
16530
16504
16411
16260
16379
16351
16271
16361
16394
16254
16245
16272
16346
16396
16492
16506
16422
16597
16522
16703
16592
16632
16706
16780
16707
16863
16834
16887
17023
16919
16891
17064
17035
17038
17061
17168
17154
17256
17207
17223
17310
17439
17472
17421
17428
17600
17520
17651
17740
17785
17817
17815
17916
17910
18064
18017
18020
17990
18055
18137
18195
18186
18116
18152
18238
18171
18349
18225
18295
18287
18274
18320
18529
18389
18552
18463
18579
18557
18598
18594
18597
18632
18469
18687
18579
18694
18629
18770
18767
18688
18591
18798
18782
18703
18767
18844
18795
18819
18772
18724
18774
18837
18834
18806
18946
18854
18955
18981
18936
18986
18970
18965
19012
18984
18942
18996
18891
18888
18917
18836
18889
18817
18650
18572
18451
18572
18385
18325
18246
18033
18015
18065
17934
17726
17598
17628
17596
17509
17336
17400
17237
17235
17141
17157
17082
17074
16877
17024
16897
17017
16787
16825
16853
16813
16822
16849
16815
16714
16861
16856
16842
16906
16838
16968
16883
17012
17013
17175
17205
17049
17331
17363
17233
17385
17329
17493
17358
17460
17527
17581
17498
17530
17671
17669
17501
17570
17752
17590
17626
17683
17730
17711
17798
17887
17855
17886
17930
17860
17873
18001
18023
17982
18008
17969
18128
18041
18181
18137
18150
18169
18023
18194
18267
18097
18270
18207
18272
18154
18187
18367
18233
18237
18253
18308
18222
18216
18190
18308
18321
18273
18275
18180
18276
18273
18267
18327
18132
18358
18230
18233
18184
18287
18270
18267
18250
18287
18299
18223
18247
18331
18413
18282
18325
18403
18424
18283
18399
18427
18383
18424
18427
18554
18410
18423
18373
18402
18287
18237
18210
18216
18086
17936
17950
17700
17631
17535
17349
17172
17061
17075
16939
16846
16643
16607
16531
16451
16499
16330
16215
16123
16159
16102
15944
16030
15879
15782
15773
15895
15761
15790
15753
15784
15827
15763
15774
15752
15798
15813
15873
15942
15781
15929
16062
16148
15980
16068
16213
16298
16109
16106
16377
16389
16320
16402
16490
16544
16420
16473
16620
16587
16481
16677
16633
16684
16605
16678
16719
16755
16694
16919
16848
16949
16943
17022
16990
17032
16940
17113
17128
17162
17207
17255
17186
17321
17280
17199
17280
17414
17340
17326
17331
17325
17462
17433
17496
17475
17598
17518
17431
17602
17653
17642
17648
17746
17567
17692
17675
17626
17775
17566
17752
17761
17589
17632
17690
17633
17826
17803
17769
17739
17740
17748
17850
17787
17886
17991
17982
17970
17981
18089
18014
17982
18077
18143
18146
17983
18161
18045
18017
18036
18075
18165
18093
18127
18086
18012
17969
17925
17817
17773
17645
17583
17450
17198
17123
16997
16907
16788
16653
16559
16544
16401
16321
16249
16112
16067
15957
15980
15905
15769
15747
15733
15858
15752
15640
15686
15463
15447
15543
15500
15500
15340
15476
15342
15431
15476
15562
15465
15534
15503
15590
15666
15682
15781
15725
15847
15659
15831
15835
15838
15922
15900
15937
15964
15836
15923
15912
15892
16026
16075
16034
15989
16057
16159
16053
16141
16151
16183
16121
16131
16075
16141
16177
16172
16170
16223
16092
16180
16308
16226
16249
16295
16262
16273
16294
16314
16366
16423
16442
16384
16457
16306
16483
16526
16577
16576
16524
16606
16523
16672
16717
16629
16600
16818
16829
16718
16672
16874
16814
16868
16845
16869
17003
16878
16812
16950
16999
17002
17051
17066
17028
17170
17067
17211
17087
17242
17231
17265
17233
17290
17358
17361
17411
17440
17501
17670
17477
17549
17748
17649
17647
17635
17748
17653
17525
17538
17453
17431
17126
17207
17125
17029
16806
16886
16605
16485
16519
16500
16379
16157
16223
16053
16113
16006
15963
16054
15964
15809
15774
15775
15700
15716
15629
15591
15525
15635
15657
15578
15668
15663
15606
15545
15719
15760
15754
15739
15717
15778
15922
15791
15955
16055
16093
16068
16190
16217
16290
16310
16325
16445
16411
16336
16541
16479
16481
16595
16616
16634
16565
16714
16681
16733
16869
16811
16997
16800
17066
17009
16901
16976
17042
17165
17166
17044
17155
17193
17255
17275
17254
17354
17348
17285
17373
17511
17529
17544
17509
17601
17543
17715
17653
17708
17689
17854
17818
17792
17996
17951
17815
17896
17954
18139
18095
18159
18106
18173
18053
18119
18126
18097
18163
18136
18325
18367
18318
18190
18248
18379
18372
18325
18458
18484
18397
18476
18470
18475
18554
18519
18630
18596
18420
18694
18530
18564
18633
18678
18741
18667
18825
18693
18753
18725
18658
18669
18591
18529
18548
18455
18391
18291
18178
18149
18067
17922
17883
17719
17548
17652
17551
17381
17288
17233
17204
17237
17233
17128
17020
16953
16996
17052
16986
16902
16837
16926
16825
16763
16878
16870
16723
16863
16873
16648
16746
16892
16939
16924
16970
16991
17097
17060
17151
17064
17084
17127
17270
17196
17211
17192
17254
17405
17340
17351
17416
17313
17279
17297
17427
17449
17445
17376
17418
17341
17483
17448
17600
17456
17439
17510
17468
17523
17415
17510
17611
17504
17535
17600
17471
17503
17577
17473
17478
17506
17469
17592
17539
17603
17580
17578
17673
17720
17744
17671
17594
17713
17681
17598
17735
17667
17746
17728
17690
17683
17601
17706
17608
17775
17695
17777
17654
17788
17818
17736
17917
17809
17909
17930
17857
17991
17981
17813
18038
18080
17914
18008
18044
17927
17952
18037
17889
18015
18015
18026
18071
18044
18106
18092
18130
17892
17952
18008
17733
17875
17780
17605
17541
17488
17344
17237
17101
16905
16886
16751
16661
16620
16452
16303
16178
16245
16219
16050
15992
15926
15972
15802
15740
15810
15774
15655
15618
15482
15602
15606
15592
15404
15406
15386
15312
15345
15398
15397
15381
15447
15425
15555
15499
15625
15640
15687
15712
15728
15726
15844
15784
15810
15868
15903
15940
15914
15882
16083
15893
16034
16074
16025
15975
16121
16039
16211
16150
16218
16215
16278
16281
16214
16307
16244
16363
16404
16411
16442
16296
16365
16540
16386
16361
16404
16524
16513
16527
16653
16555
16722
16711
16829
16647
16830
16751
16885
16822
16928
17028
17106
16984
16967
16929
16995
17039
16985
17084
16964
16939
16944
17031
17042
17113
17133
17198
17112
17036
17182
17212
17210
17111
17299
17255
17240
17388
17372
17373
17333
17368
17395
17403
17339
17333
17468
17357
17362
17498
17388
17448
17490
17541
17665
17505
17569
17532
17571
17553
17361
17421
17178
17167
17119
16912
16708
16592
16603
16372
16377
16184
16177
15951
15893
15990
15956
15746
15604
15656
15679
15560
15541
15524
15553
15427
15352
15359
15308
15340
15194
15247
15230
15081
15182
15119
15158
15205
15153
15140
15157
15181
15360
15218
15223
15403
15457
15534
15395
15520
15613
15618
15635
15717
15643
15770
15758
15773
15642
15796
15857
15872
15977
15826
16028
16054
16049
15949
16120
16176
16160
16075
16254
16328
16204
16249
16412
16195
16284
16295
16433
16389
16430
16443
16470
16509
16514
16518
16443
16499
16735
16763
16673
16667
16782
16760
16753
16734
16974
16900
16907
16815
16963
17018
16873
17020
17041
16906
17005
17102
17036
17102
17169
17207
17325
17244
17378
17379
17309
17320
17478
17430
17417
17423
17566
17536
17622
17578
17609
17547
17688
17648
17743
17785
17747
17733
17910
17913
17835
17877
17921
18077
17923
17897
18011
18142
18149
18081
18220
18049
17976
18028
18037
17841
17781
17730
17793
17495
17645
17498
17347
17200
17216
17182
16981
16978
16988
16729
16661
16601
16629
16713
16492
16589
16406
16338
16305
16358
16274
16307
16175
16324
16222
16244
16111
16338
16236
16259
16164
16253
16325
16329
16436
16470
16446
16502
16545
16730
16751
16689
16914
16767
16790
16924
17067
16938
16968
17032
17097
17092
16948
17253
17332
17333
17199
17417
17308
17482
17514
17554
17478
17555
17579
17538
17634
17573
17664
17602
17700
17676
17651
17727
17656
17686
17775
17970
17927
17877
17977
18174
17968
18172
18257
18145
18116
18321
18326
18252
18310
18426
18468
18302
18387
18496
18512
18444
18587
18595
18608
18584
18588
18705
18650
18600
18756
18710
18704
18751
18804
18805
18801
18877
18825
18919
18996
18939
18986
18981
18941
19015
19072
19088
18955
19106
19178
19095
19139
19285
19204
19320
19295
19357
19340
19262
19378
19405
19290
19279
19302
19352
19328
19286
19347
19266
19238
19397
19413
19239
19230
19179
19031
19058
18812
18768
18813
18606
18656
18434
18437
18261
18200
18230
17977
17915
17921
17743
17741
17592
17657
17451
17528
17395
17453
17390
17440
17394
17435
17251
17287
17376
17242
17259
17219
17251
17286
17207
17270
17364
17265
17441
17445
17414
17414
17495
17474
17556
17577
17495
17581
17709
17725
17560
17809
17717
17681
17843
17773
17941
17815
17703
17974
17944
17823
17979
17962
17797
17908
17838
17972
17829
17997
17941
18026
18031
18025
18033
18132
18060
18133
18220
18170
18118
18257
18175
18198
18188
18230
18363
18190
18261
18229
18264
18195
18277
18377
18271
18258
18408
18270
18295
18404
18471
18308
18460
18288
18406
18557
18338
18583
18440
18440
18446
18546
18456
18474
18563
18421
18492
18559
18433
18617
18478
18458
18623
18484
18555
18466
18609
18669
18657
18696
18686
18637
18686
18692
18760
18821
18687
18777
18836
18760
18723
18837
18808
18815
18665
18790
18783
18753
18742
18709
18489
18372
18448
18330
18166
18079
17998
17964
17823
17732
17633
17612
17378
17377
17332
17106
16973
16988
16849
16833
16691
16741
16628
16602
16471
16575
16542
16452
16279
16378
16354
16257
16225
16355
16204
16177
16172
16279
16155
16084
16187
16271
16293
16165
16306
16419
16378
16318
16535
16404
16545
16668
16590
16747
16715
16665
16769
16787
16814
16850
16701
16696
16805
16818
16842
16792
16852
16915
16781
16879
16850
16951
16899
16877
17021
16980
17070
17124
17108
17084
17090
17233
17261
17313
17155
17256
17272
17251
17190
17328
17403
17347
17273
17316
17377
17340
17463
17452
17411
17390
17528
17552
17619
17612
17647
17689
17603
17621
17729
17832
17851
17681
17874
17861
17865
17880
17874
17926
17932
17919
17935
17982
17988
18051
18066
18141
17999
18127
18288
18081
18157
18198
18281
18206
18314
18290
18346
18312
18427
18292
18371
18375
18494
18534
18428
18450
18645
18648
18587
18758
18493
18615
18526
18475
18482
18322
18192
18149
18128
17918
17999
17829
17637
17641
17403
17469
17403
17252
17169
17080
17078
17022
16922
16808
16901
16782
16920
16633
16789
16731
16758
16633
16501
16549
16551
16523
16527
16505
16521
16620
16664
16555
16651
16573
16744
16733
16827
16833
16757
16908
16817
16952
17020
17004
17023
17063
17103
17125
17136
17207
17173
17322
17178
17325
17429
17363
17374
17437
17387
17418
17479
17523
17519
17513
17586
17596
17638
17630
17654
17691
17760
17868
17867
17953
17919
17938
18009
18065
18104
18045
18190
18220
18079
18206
18183
18360
18307
18313
18374
18425
18513
18459
18542
18551
18640
18743
18647
18605
18835
18781
18819
18825
18832
18955
18844
18946
18893
18987
18968
18987
19029
19023
19014
19024
19103
19178
19245
19328
19283
19262
19333
19293
19315
19374
19337
19358
19516
19396
19424
19531
19447
19517
19655
19663
19699
19743
19734
19824
19787
19732
19851
19833
19966
19836
20037
19992
19861
19819
19871
19788
19606
19590
19644
19417
19415
19366
19212
19131
19117
19042
18947
18888
18723
18823
18737
18533
18573
18396
18477
18472
18349
18278
18272
18166
18168
18021
18054
17972
17952
18005
17953
17958
17953
17893
17885
17926
17930
17787
17743
17944
17975
18037
17898
17915
17987
18058
18169
18080
18143
18104
18145
18193
18216
18295
18304
18165
18190
18189
18391
18260
18394
18409
18409
18456
18443
18422
18382
18411
18425
18477
18435
18560
18440
18509
18581
18506
18513
18553
18572
18576
18493
18724
18584
18513
18755
18804
18744
18819
18754
18736
18830
18861
18917
18825
18870
18842
18992
19012
19034
18969
19001
18987
19077
19061
19070
18987
19109
19073
19027
19078
19246
19196
19124
19107
19108
19207
19186
19226
19230
19359
19235
19168
19379
19262
19210
19159
19258
19340
19264
19314
19441
19308
19357
19377
19341
19477
19493
19422
19338
19372
19490
19570
19599
19542
19558
19591
19415
19335
19377
19443
19305
19154
19203
19182
19083
18798
18757
18779
18679
18569
18454
18399
18337
18306
18231
18117
17993
18041
17814
17914
17749
17756
17647
17539
17486
17429
17500
17326
17322
17356
17237
17144
17147
17106
17146
17010
17192
17095
17160
17233
17185
17052
17283
17145
17260
17187
17162
17372
17509
17304
17387
17450
17432
17298
17369
17554
17453
17470
17476
17587
17558
17619
17634
17662
17662
17726
17742
17631
17795
17793
17694
17740
17755
17774
17757
17799
17631
17777
17795
17786
17767
17882
17885
17977
17921
18120
18112
18152
18146
18228
18074
18205
18130
18232
18144
18131
18241
18215
18164
18270
18419
18200
18222
18366
18481
18459
18380
18402
18383
18428
18407
18553
18484
18538
18598
18561
18680
18525
18731
18646
18545
18575
18670
18789
18735
18710
18722
18673
18760
18695
18866
18809
18759
18851
18784
18836
18746
18874
18885
18862
18774
18838
18891
18862
18898
18986
18954
18965
18864
18917
18810
18748
18647
18660
18572
18459
18457
18371
18228
18058
17963
17820
17831
17718
17643
17436
17256
17264
17069
17063
16909
16815
16898
16796
16636
16589
16689
16573
16515
16484
16456
16452
16513
16323
16384
16362
16302
16276
16247
16185
16266
16379
16321
16295
16457
16546
16552
16461
16647
16601
16606
16737
16719
16752
16772
16964
17033
16946
17034
17078
17225
17142
17113
17189
17189
17218
17425
17458
17322
17449
17364
17581
17392
17520
17482
17530
17554
17649
17695
17685
17760
17807
17757
17823
17889
17900
17914
17927
17882
18036
17987
18049
18189
18153
18057
18109
18244
18281
18258
18262
18340
18470
18409
18447
18516
18533
18509
18639
18631
18552
18669
18642
18618
18851
18764
18743
18800
18905
18885
18861
19064
18968
18897
19118
19064
19033
19131
19234
19170
19114
19294
19159
19158
19217
19307
19482
19275
19201
19398
19259
19399
19481
19641
19664
19527
19767
19568
19618
19603
19696
19664
19738
19664
19733
19702
19624
19643
19569
19455
19512
19365
