27461
27521
27467
27112
27505
27223
27402
27324
27326
27639
27231
27159
27634
27668
27835
27826
27677
27768
27394
27629
28032
27503
27677
27604
27463
27362
27455
27642
27405
27131
27510
27528
27468
27679
27590
27364
27283
27363
27834
27332
27405
27001
27250
27221
26879
27559
27291
27104
26931
27326
27326
27000
27010
27171
27338
27393
27347
27905
27688
27419
27688
27825
27753
27725
28005
27517
27806
27908
28015
27121
27702
27825
27992
27658
27835
27900
27821
27737
27656
27867
27960
27577
27496
28020
27871
27734
27640
28213
28026
27434
27556
27736
27554
27401
27588
27957
27743
27224
27265
27492
27352
27094
27751
27158
26884
27212
27258
27408
27049
27179
27289
27278
27052
27306
27138
27176
27042
27300
27131
27120
26934
27213
27042
27101
26979
27349
27032
27092
27344
27329
27211
27117
27242
27587
27229
27378
27408
27439
27093
27412
27314
27508
27170
27341
27275
27326
27291
27594
27465
27500
27424
27336
27531
27576
27125
27643
27515
27386
27583
27403
27607
27485
27558
27560
27891
27494
27928
27907
27850
27470
27856
27906
27927
27865
28454
28019
27703
27868
27820
28014
27708
27991
28013
28099
27615
27973
27770
28057
27870
27845
28023
27733
27886
28189
27898
27575
28342
28037
28218
28245
28239
28071
27718
27962
27967
28335
27940
28172
27792
27986
27825
28168
27946
27718
27356
27807
27777
27377
27620
28080
27339
27382
27482
27981
27479
27616
27264
27256
27349
26976
27370
27234
26771
26875
27219
27066
26878
27042
26875
26879
26689
26694
27069
26885
26826
26950
26967
27015
26742
27057
27217
26564
27004
27337
26951
26957
27026
27286
27312
27087
27221
27604
27568
27344
27526
27671
27671
27934
28284
27865
27829
27888
28224
27884
27774
28202
28068
28063
27982
28317
28224
28295
28417
28461
28536
28497
28447
28279
28401
28203
28417
28781
28438
28549
28791
28925
28342
28457
28793
28613
28697
28507
29090
28739
28620
29095
28829
28868
28284
29061
29025
29030
28928
29211
28809
28992
29012
28783
29092
28928
28913
29263
29140
29175
29131
29004
29138
28617
28654
28355
28630
28151
28481
28277
28256
27959
28334
28054
27642
28147
28178
27718
27958
27992
27760
27836
27815
28283
27821
27655
27559
27815
27670
27645
27617
27529
27528
27185
27608
27275
27350
27355
27188
27603
27701
27274
27552
27407
27343
27443
27617
27716
27369
27635
27416
27596
27536
27774
27519
27525
27370
28063
27479
27410
27586
27725
27915
27314
27744
27810
27619
27588
27598
27721
27763
27818
27712
27751
27988
28027
28028
27724
27915
27827
28050
27853
27738
27839
28197
27855
27990
28182
27929
27723
27677
28255
28128
28004
28320
28086
28224
28148
28482
28015
28197
28318
28713
28315
28465
28388
28475
28085
27965
28189
28162
28674
28030
28505
28359
28406
28290
28537
28546
28352
28736
28508
28457
28342
28350
28471
28300
28026
28465
27989
28405
27890
28025
28270
28055
27696
28354
28280
27457
27740
28001
28013
27804
27683
27997
27857
27251
27727
27415
27749
27494
27451
27711
27807
27255
28166
28078
27780
27545
27400
27269
27507
27661
28051
27740
27909
27765
27547
27674
27671
27928
27615
27705
27945
28316
28026
27739
28013
27731
27973
27680
28351
27945
28022
28109
28067
27622
28352
28056
28228
28105
27650
27923
28495
27947
27884
28246
28194
27745
27773
28318
28374
27718
28306
27963
28025
28296
28065
28778
28279
27900
28438
28342
28407
27925
28220
28064
28406
28063
28392
28054
28278
28215
28245
28470
28284
28611
28465
28489
28669
28837
28840
28579
28253
28687
28518
28849
28598
28864
28814
28472
28779
28815
28827
28424
28731
28923
28491
28680
29110
28237
28498
28741
28317
28427
28184
28286
28438
28735
28294
28543
28128
28513
28160
28883
28220
28114
28522
28766
28046
28591
28199
28510
27905
28092
28290
28395
28199
28067
28292
27958
28117
27962
28393
28357
28342
27979
28063
28031
28091
28262
28312
28145
27968
28200
28090
28091
28091
28322
28441
28466
28165
28497
28458
28398
28678
29230
29065
28608
28994
28757
28765
28807
28982
29236
28545
28717
29078
28544
28830
28753
28621
28940
28693
28893
28949
28773
28831
29059
28655
28605
28911
29065
29093
29066
28988
28818
29102
28923
29370
29164
29158
28854
29202
29363
29492
29326
29528
29895
29200
29466
29370
29440
29505
29149
29366
29210
28895
29440
29054
29372
29277
29488
29160
29242
29169
29242
29155
28842
29055
28594
28856
28633
28732
28663
28597
28493
28654
28625
28504
28577
28563
28733
28645
28376
28486
28358
28135
28466
28362
28190
28169
28379
28029
28059
27984
28252
28001
27958
27991
28222
28094
27996
28243
28360
28007
28040
28150
28137
28030
27951
27919
28304
28559
28019
28319
28376
28202
28294
28232
28402
28008
28358
28529
28402
28050
28417
28392
28334
28321
28432
28242
28288
28504
28240
28187
28582
28854
28598
28625
28392
28674
28635
28688
28520
28832
28788
28599
28576
28895
28820
28667
28714
28888
28399
28761
29067
28793
28891
28321
29082
28263
28603
28808
28935
28613
28570
28542
28666
28664
28715
28772
28777
28642
28712
28790
29107
28672
28876
28922
28851
28727
28840
28780
28572
28920
29117
28615
28848
28646
29021
28673
28703
28543
28640
28502
28440
28565
28471
28422
28172
28330
28289
28068
27915
28315
28116
28373
27832
28034
27811
27649
27701
27891
27841
27427
27869
27875
27584
27585
27746
27722
27718
27650
27804
27743
27733
27845
27831
27839
27698
27744
27870
27784
27737
27919
28107
28071
27564
27849
27848
28069
27841
28018
27855
27750
27918
27963
27896
27653
27930
28080
27922
27829
28101
28074
27726
27859
27730
28285
28070
27985
28157
27938
27936
28001
28240
28221
27997
28197
28188
28114
28115
28335
28487
28298
28432
28450
28606
27992
28039
28474
28447
28350
28529
28540
28607
28314
28516
28731
28607
28667
28692
28651
28703
28594
28761
28965
28776
29303
29138
29009
28899
29136
29072
29090
28911
29123
29144
29004
28766
29047
28910
28610
28712
28350
28564
28400
28549
28709
28311
28219
28653
28323
28160
28324
28463
28185
28089
28086
28179
28278
27943
28329
28122
28197
28055
27899
27869
27668
28165
28709
27878
27715
28214
28324
28122
28043
28333
28270
28176
28057
28309
28102
28236
28138
28388
28400
28212
28310
28400
28268
28200
28421
28826
28457
28098
27987
28352
28203
28199
28415
28384
28645
28623
28011
28552
27939
28566
28272
28571
28285
28548
28617
28605
28270
28552
28533
28013
28254
28519
28019
28413
28680
28742
28315
28057
28506
28300
28448
28262
28550
28621
28396
28342
28649
28499
28383
28480
28678
28399
28287
28269
28508
28522
28623
28857
28555
28724
28628
28363
28610
28519
28552
28746
28694
28370
28500
28551
28369
28211
28759
28354
28296
27984
28435
28211
28041
28168
28198
27902
27914
27719
27982
27985
27619
27784
27903
27667
27534
27777
27684
27403
27482
27661
27480
27453
27341
27430
27478
27440
27633
27410
27183
27249
27655
27616
27586
27671
27703
27770
27441
27446
27517
27640
27392
27500
27768
27617
27291
27652
27899
27573
27482
27765
27773
27731
27241
27819
27699
27919
27566
27958
27959
27700
27724
27982
27780
27925
27921
27441
27720
28035
27642
27686
27432
27709
28046
27942
27550
27948
27986
27692
27961
28070
28119
27808
27911
27973
27760
27526
27940
28091
27577
27783
27923
28400
27951
27615
28287
28296
28179
28210
28218
28278
28089
27796
27834
27930
28060
28167
28066
28299
27988
28330
28423
28203
27645
28402
28458
28297
28347
28404
28085
27887
27818
28220
27925
27426
27896
27993
27579
27603
27809
28097
27645
27660
27555
27572
27392
27418
27666
27707
27116
27598
27390
27291
27386
27335
27323
27315
27074
27625
27352
27319
27668
27564
27568
27379
27303
27427
27435
27332
27648
27347
27530
27320
27638
27701
27583
27518
27772
27490
27625
27982
27636
27632
27674
27726
27834
27691
27695
27871
27741
27817
27823
28000
27901
27758
27892
28292
27965
27883
27786
28084
28118
27814
28221
28023
27897
28153
28618
28077
27798
28240
28595
28315
28085
28326
28238
28253
27998
28449
28451
28315
28229
28436
28397
28416
28343
28517
28379
28395
28600
28522
28354
28360
28475
28415
28644
28235
28560
28821
28898
28621
28383
28515
28609
28921
28858
28882
28906
29084
28925
29033
28707
29059
28885
28738
28455
28466
28418
28383
28599
28197
28315
28548
28675
28451
28205
28310
28336
28368
28121
28280
27999
27878
27766
27912
28111
28042
27862
27989
28025
28031
27820
28033
27942
28058
27774
27969
27939
27890
27742
27883
28090
27805
27779
28069
28014
27748
27845
28015
27879
27910
27970
27950
27885
27822
28149
27982
27787
28128
27877
27679
27791
27940
28247
28048
27823
27701
27991
28266
27951
28513
28151
28205
28009
28317
28228
27938
28282
28142
28411
28050
28263
28256
28140
28202
28318
28441
28201
28167
28489
28333
28543
28310
28513
28425
28268
28368
28374
28239
28125
28405
28358
28435
28358
28532
28626
27927
28351
28618
28110
28027
28218
28484
28410
28277
28197
28469
28475
28450
28531
28554
28801
28499
28480
28298
28252
28197
28121
28058
27931
28135
28128
27965
27912
27994
27844
27875
27912
27938
27791
27798
27781
27904
27854
27639
27483
27911
27703
27418
27733
27587
27858
27546
27707
27827
27677
27735
27795
27700
27639
27961
27835
27941
27621
27760
27902
27747
27849
27889
27797
27935
27773
28400
28054
28041
28100
28291
28040
28081
28114
28241
28165
28226
28367
28361
28273
28279
28674
28402
28686
28765
28580
28686
28519
28812
28586
28691
28665
28677
29024
28921
28818
28749
28884
28823
28847
28950
28819
28686
28990
28777
28819
28750
28952
28881
29108
28890
28742
28855
29245
29065
28950
28917
28925
28897
28956
29055
28502
29259
29070
28959
28937
29122
29200
29078
29336
29392
29356
29052
29246
29306
29335
29189
29250
29515
29276
29120
29215
28845
28985
28605
29458
29088
28915
28776
29025
28897
28495
29233
28640
28458
28331
28597
28671
28214
28276
28541
28571
28299
28357
28436
28407
28188
28095
28357
28402
27998
28312
27886
28284
27725
28320
28084
27981
27818
27850
28282
28393
28182
28435
27982
28157
28022
28441
28503
28114
28064
28511
28335
27905
28450
28656
28315
28024
28524
28341
28298
28621
28210
28341
28440
28605
28329
28237
28213
28752
28535
28248
28492
28105
28084
28123
28464
28260
28393
27805
28371
28689
28384
28215
28386
28604
28114
28314
28573
28305
28291
28439
28458
28374
28235
28404
28403
28373
28174
28480
28354
28609
28173
28505
28095
27982
28508
28537
28992
28489
28824
28355
28348
28319
28722
28857
28500
28509
28786
28601
28962
28243
28616
28287
28284
28434
28662
28216
27737
28297
28160
28040
27742
27995
27945
27955
27625
27888
27989
27453
27666
28086
27643
27187
27953
27378
27380
27444
27794
27474
27138
27370
27571
27363
27397
27260
27480
27652
27559
27735
27394
27393
27192
27627
27869
27559
27703
27748
27781
27481
27968
27569
27880
27912
27748
28345
28122
27712
27902
28170
27943
27976
28175
28179
28053
28265
28209
28171
28108
28165
28281
28266
27978
28176
28150
28420
28216
28332
27944
28286
28388
28513
28294
28554
28428
28602
28523
28306
28743
28310
28307
28017
28514
28711
28272
28173
28343
28040
28255
28197
28360
28353
28186
28263
28297
28155
27955
28326
28206
28061
28226
28291
28318
28116
28523
27986
28220
27965
27937
28241
28246
27737
28161
27813
28277
27850
28183
28142
27999
27727
28025
28070
27746
27647
27931
27506
27409
27953
27705
27422
27787
27718
27577
27392
27365
27623
27494
27412
27451
27413
27502
27360
27386
27530
27516
27377
27576
27359
27424
27426
27594
27549
27575
27314
27523
27584
27402
27829
27888
27429
27438
27748
27729
27551
27507
27612
27817
27713
27576
27888
27770
27828
27606
28036
27875
28163
27944
27917
27820
27849
28123
27918
27967
27882
28106
28108
27963
28106
28176
28152
28092
28148
28179
27852
28290
28001
28228
28400
27986
28266
28415
28185
28315
28284
28224
28183
28275
28272
28315
28126
28358
28616
28499
28469
28234
28707
28680
28653
28768
28671
28625
28654
28690
28604
28794
29197
28908
28770
28624
29154
28806
28868
29069
29085
29278
29051
29001
29264
29198
28955
29256
29388
29172
29031
29065
28955
28907
28735
28569
28601
28685
28571
28706
28540
28301
28447
28517
28443
28223
27979
28402
28212
28304
28521
28168
28136
28320
28358
28237
28592
28362
28215
28374
28415
28579
28560
28338
28084
28351
28598
28291
28466
28518
28369
28608
28199
28755
28531
28276
28379
28726
28482
28373
28605
28482
28476
28383
28441
28979
29145
28813
28588
28938
28804
29030
29243
28767
28568
29146
28813
28997
28641
28945
28884
28420
28604
28809
28561
28776
29040
29066
28766
28739
28958
28995
28841
28738
28820
28816
28510
28743
28835
28971
28720
29165
28396
28915
28385
29147
28930
28612
28446
28868
29040
29049
28693
28599
29140
28722
28674
28944
28741
28651
28631
28777
28891
28594
28757
29188
29209
28770
29320
28599
28726
28862
29081
28555
28532
28535
28481
28622
28370
28149
28346
28362
28157
28225
28239
28250
28230
28339
28057
28107
27977
28228
28240
28209
28331
28276
28281
28262
28380
28372
28421
28253
28468
28593
29050
28789
28731
28726
28772
29058
29376
29103
29078
29403
29358
29381
29346
29490
29304
29401
29173
29980
29499
29339
29888
29773
29862
30008
29839
30089
29620
29759
29769
29576
29660
29543
29798
29794
29538
29826
29809
29537
29368
29612
29503
29398
29433
29829
29586
29720
29479
29216
29182
29389
29433
29452
29627
29648
29705
29821
29476
29270
29930
29321
29624
29721
29252
29584
29715
29643
29428
29485
29089
29605
29386
29780
29405
29480
29712
29540
29334
29591
29473
29491
29481
29580
29467
29222
29333
29364
29355
29089
29316
29012
29132
29003
28834
28942
28820
28303
28622
28600
28159
28387
28802
28372
28377
28520
28370
28238
28149
28385
28502
28217
28386
28293
28327
28000
28452
28677
28410
28296
28184
28441
28365
28078
28279
28471
28596
28038
28374
28315
28647
28540
28441
28385
28381
28325
28627
28275
28497
28512
28425
28350
28365
28564
28358
28346
28612
28460
28307
28506
28879
28803
28434
28593
28422
28840
28423
28787
28564
28506
28216
28660
28685
28758
28594
28439
28605
28672
28678
28790
28632
29037
28517
28897
28740
28816
28964
29109
29172
29049
28843
29233
29351
28902
29320
29151
29490
28852
29439
28990
29261
28870
29208
29392
29208
29075
29576
29263
29447
29283
29521
29836
29410
29605
29803
29405
29425
29339
29444
29294
29108
29346
29067
28969
28957
29440
28511
28490
28601
28954
28631
28520
28852
28626
28613
28169
28471
28713
28241
28402
28561
28863
28417
28558
28409
28568
28379
28544
28664
28440
28280
28531
28677
28150
28636
28796
28813
28373
28911
28777
28554
28386
28977
28706
28679
28832
28830
28434
28943
28610
29338
29036
28634
28803
28932
29140
28766
28696
28909
28640
29005
28997
28965
28791
28794
28947
29208
28960
29113
29137
28896
28992
29054
28999
29042
29050
29042
28930
29020
28717
29094
29324
29079
28738
28791
29296
28983
28840
29040
28961
28736
29035
29159
28972
28942
29004
29017
29033
28864
29035
29393
29130
29176
29341
29312
29162
29139
29265
29254
29082
29269
29253
29127
28943
28983
28589
28994
28943
28900
28717
28565
28639
28705
28642
28328
28560
28490
28389
28192
28500
28451
28171
28223
28408
28327
28050
27908
27930
28171
27983
28380
28014
28150
27856
28029
27988
27872
27888
28008
27997
27980
27879
28129
27950
27824
27934
28141
27829
27888
28058
28074
28183
27802
28168
27993
28080
27974
28111
28104
28039
28138
28304
28040
28081
28214
28175
28122
28164
28223
28219
28247
27929
28241
28193
28172
28265
28221
28196
28152
28372
28478
28222
28195
28287
28005
28052
28044
28346
28312
28369
28324
28486
28238
28160
27873
28278
27887
27984
28031
28168
27866
28017
28205
28374
28372
28356
28062
28614
28054
28039
28686
28256
28384
28444
28399
28358
28253
28486
28475
28312
28237
28385
28180
28144
28259
28436
28110
28023
28108
28009
27875
28218
27976
28048
27893
27695
27561
27871
27820
27661
27893
28036
27575
27641
27732
27630
27635
27711
27756
27691
27820
27710
27736
27658
27592
27847
27738
27788
27765
27896
27828
27664
27867
27576
27757
27496
28235
27971
28146
28047
28069
27813
27979
27941
28095
28436
28030
28111
27851
27966
28123
28277
28034
27871
27847
28078
27767
28003
28119
28005
28070
27888
28060
28431
27748
27640
28038
27927
28260
27964
28444
28420
28112
28044
28180
28439
27824
28079
28162
28097
27966
28235
28324
28210
28174
28277
28710
28351
28108
28094
28466
28668
28241
28616
28453
28530
28585
28632
28784
28556
28919
28895
28705
28802
29084
28919
28711
28423
28694
28492
28179
28523
28599
28416
27885
28170
28212
28136
27888
28211
27949
27839
27649
28039
27922
27905
27887
27826
27865
27608
27554
27963
27646
27511
27479
27737
27801
27743
27687
27324
27454
27406
27734
27636
27213
27281
27479
27528
27432
27545
27599
27717
26957
27701
27133
27513
27492
27686
27609
27507
27933
27666
27703
27721
27902
27643
27743
27684
28135
27615
27760
27316
28358
27879
27750
27652
27881
27990
27748
28021
27742
27823
28033
28259
27900
28007
28190
28099
27923
27530
27957
28172
27600
27895
28014
28184
27974
27953
27831
27887
28254
28355
28104
28214
27688
27891
28160
27801
28025
28012
28003
28037
27898
28147
28041
28160
28064
28193
27793
28060
27949
27931
28171
27976
27865
28144
28045
28041
28031
28018
27947
27669
27820
27513
27527
27527
27403
27410
27405
27470
27345
27369
27278
27461
27370
27377
27228
27294
27072
27149
27173
27319
27308
27339
27270
27493
26964
27029
27493
27339
27237
27095
27616
27425
27507
27114
27456
27571
27678
27455
27574
27205
27399
27659
27424
27525
27433
27381
27607
27564
27448
27659
27703
27346
27645
27656
27749
27445
27588
27949
27755
27539
27771
27692
27688
27487
27802
27698
27431
27687
27890
28076
27753
27806
27802
28005
27882
28078
27704
27882
27548
28048
28041
28169
28039
27656
28066
27892
27926
27784
28025
27779
27848
28075
28186
28138
28218
28023
27938
27875
28291
28476
28160
27965
28426
28240
28230
28091
28250
28135
27899
28178
28212
28016
28188
28219
27687
28094
28058
28353
27958
27812
27718
27866
27663
27684
27698
27810
27807
27541
27813
27631
27606
27718
27895
27755
27254
27488
27573
27486
27485
27707
27502
27621
27222
27653
27800
27740
27408
27626
27137
27612
27824
27791
27604
27620
27751
27765
27516
28052
27788
27326
27676
27639
27515
27691
27412
27545
27831
28036
27531
27888
27857
27992
27767
27813
27767
27811
27447
27812
28030
27591
27979
27949
27591
28086
27881
27976
27901
27806
28078
27944
27854
28054
27929
27988
28018
27848
28085
28248
27764
28357
27808
28165
27892
28064
28020
28012
27735
28207
28239
27745
28302
28134
28320
27990
27889
28182
27941
28023
27989
28294
28261
28121
28226
28265
28184
28618
28371
28264
28212
28228
28149
28493
27804
28117
28252
28189
27828
27757
28387
27723
27814
27757
27666
27725
27432
27734
27802
27460
27398
27630
27416
27161
27468
27256
27172
27167
27044
27270
27236
27279
26994
27420
27068
27110
27344
27111
27070
27231
26980
27214
26916
27329
27301
27112
27273
27215
27227
27482
27035
27307
27721
27223
27310
27475
27269
27156
27454
27208
27229
27478
27444
27453
27344
27225
27407
27140
27063
27384
27841
27376
27361
27401
27447
27533
27658
27571
27624
27571
27246
27707
27437
27646
27637
27988
27655
27512
27491
27732
27775
27639
27606
27769
27615
27627
27754
27687
27557
27371
27875
27788
27831
27863
27956
28080
27503
27779
28136
27917
27796
27790
28123
27948
28079
28021
28011
27756
27813
28088
28040
27738
27598
27495
27546
27418
27492
27571
27457
27402
27487
27379
27367
27171
27302
27151
26977
27112
26878
27057
26849
26690
27026
26865
27050
26818
26796
26420
26876
26817
26804
26713
26730
26493
26686
26523
26449
26514
26640
26371
26661
26835
26899
26777
26885
26796
26767
26943
26916
26847
26814
26665
26980
26832
26442
26845
26955
27022
26894
27015
27249
26715
26957
27322
27193
27033
27155
27432
27117
27332
26870
27186
27388
27140
27256
27211
27188
27253
27571
27037
27379
27261
27460
27453
27050
27456
27430
27393
27403
27570
27713
27237
27341
27536
27506
27532
27342
27241
27473
27377
27343
27557
27779
27180
27577
27283
27442
27551
27599
27484
27605
27261
27783
27496
27273
27637
27510
27359
27291
27318
27104
27422
27189
27018
26979
26990
26941
27520
27136
26905
26758
27093
26886
26721
26880
26906
26780
26517
26704
27007
26597
26550
26577
26610
26453
26241
26575
26403
26098
26435
26487
26413
26232
26627
26800
26580
26425
26817
26821
26616
26491
26907
27009
26607
26879
27107
26978
26766
27122
26896
27043
27142
27585
27328
27229
27568
27267
27353
27306
27460
27389
27284
27184
27281
27220
27338
27039
27105
27529
27214
27070
27271
27285
27285
27131
27326
27286
27293
27434
27281
27277
27403
27524
27761
27297
27119
27264
27540
27230
27507
27666
27927
27573
27447
27731
27401
27385
27703
27597
27670
27849
27801
27720
28020
27388
27906
27457
27921
27737
27982
27292
27682
27651
27281
27409
27514
27230
27256
26967
26961
27234
27106
27311
27031
26706
26733
26557
26629
26682
26586
26366
26393
26602
26712
26260
26361
26414
26299
26176
26603
26223
26092
26318
26246
26195
25789
26256
25946
26139
26133
26068
26077
25934
26024
26033
26040
26063
25932
26026
25815
25625
26272
26072
26034
26200
25829
26216
26134
25892
26456
26022
26073
26286
26366
25999
26104
26117
26024
25960
25842
26145
25911
26266
26228
26167
26469
26303
26521
26374
26385
26001
26434
26202
26131
26359
26522
26273
26500
26441
26894
26517
26538
26852
26638
26465
26192
26787
26680
26592
26436
26507
26551
26463
26474
26511
26521
26553
26513
26716
26458
26718
26343
26475
26274
26333
26550
26420
26232
26263
25989
26254
25966
26325
26159
25657
25600
25804
25689
25659
25516
25401
25522
25386
24952
25359
25137
25368
25297
25031
24771
24865
24850
24931
24611
24495
24550
24927
24621
24344
24434
24486
24310
24244
24439
24392
24436
24500
24152
24352
24565
24338
24700
24583
24336
24602
24711
24752
24607
24925
24569
24757
24795
24922
24713
24798
25042
24873
24885
24735
25081
24740
25083
24656
24919
25332
25006
24881
24865
25090
25289
25276
25119
24991
24687
25098
24977
24827
24985
25157
25363
25164
25090
25557
25096
25070
25297
25332
25244
25537
25253
25183
25204
25232
25516
25105
25530
25292
25548
25444
25464
25459
25564
25978
25563
25488
25872
25894
25624
26102
25736
25750
25875
25872
25740
25667
25776
25804
25740
25562
25494
25861
25547
25468
25045
25324
25118
24711
24937
24878
24910
24707
24729
24953
24409
24401
24650
24214
24377
24391
24321
24471
23915
24133
24254
24138
23923
23857
24128
23742
24127
24330
24059
23750
24034
24034
24159
23878
24132
24491
24360
23747
24160
24190
24143
24381
24467
24330
24029
24358
24321
24540
24220
24289
24407
24562
24422
24733
24556
24591
24199
24607
24497
24577
24500
24711
24728
24179
24607
24873
24441
24589
24799
24879
24803
24583
24808
24697
24767
25303
24954
25147
24954
25021
25223
24988
25100
25261
25219
25055
24785
24959
25227
25417
25291
25340
25486
25601
25314
25390
25361
25109
25289
25242
25313
25252
25431
25426
25268
25246
25270
25487
25284
25100
25358
25143
25136
24770
25436
25109
24883
24834
25111
24864
24451
24650
24659
24554
24522
24699
24720
24511
24378
24642
24459
24329
24558
24525
24246
24213
24109
24309
24051
23964
24153
24224
24093
24398
24275
24116
24188
24272
24495
24487
24229
24574
24561
24487
24685
24776
24656
24603
24743
24917
24800
24877
24978
25142
24924
24871
25158
25038
25052
24888
25174
25197
25283
25460
25204
25516
25333
25438
25684
25561
25597
25546
25828
25664
25628
25839
25843
25787
25743
26004
25964
25870
26071
26059
26080
25930
25990
26228
26069
25865
26143
26136
25835
25977
26105
26016
26002
25934
26247
26205
26196
26143
26404
26449
25827
26291
26361
26330
26064
26252
26361
26173
26198
26275
26121
26013
26018
25926
25840
25730
25730
25866
25781
25443
25685
25680
25546
25418
25542
25520
25364
25323
25385
25214
25291
25242
25304
25171
25144
25267
25022
25127
25081
25141
25147
25035
25166
25153
25130
25012
25141
25101
25178
24782
25093
25296
24998
24955
25160
25318
25120
25266
25313
25258
25343
25363
25351
25404
25229
25362
25591
25429
25450
25437
25550
25431
25351
25657
25697
25507
25473
25704
25572
25581
25580
25736
25690
25571
25992
25975
25942
25865
25952
26164
25859
25911
26090
26100
26002
26077
26321
26358
26250
26373
26279
26009
26089
26258
26174
26110
26258
26135
26553
26251
26100
26192
26245
25781
26161
26248
25952
26048
26302
26671
26010
26515
26436
26210
26252
26234
26286
26145
26032
26123
26139
25907
25951
25836
25898
25746
25434
25753
25591
25537
25623
25526
25112
25295
25326
25184
25232
24871
25286
25142
24911
24903
25038
24817
25096
24635
24849
24670
24635
24750
24924
24799
24482
24904
24823
24901
24883
25016
25046
24981
25200
25191
25109
25071
25005
25201
25294
25134
25154
25370
25382
25132
25483
25396
25451
25208
25607
25519
25556
25337
25739
25725
25630
25683
25762
25700
25643
25933
25920
25933
25803
26141
26031
25884
26205
26335
25974
26071
26066
26221
26153
26097
26272
26440
26253
26120
26329
26248
26283
26401
26670
26204
26320
26395
26461
26332
26057
26416
26428
26239
26278
26518
26547
26284
26368
26414
26525
26436
26392
26563
26463
26202
26322
26457
26176
26211
26350
26498
26239
26044
26181
26134
25951
26010
26144
25956
26040
25908
26010
25983
25704
25810
25654
25682
25477
25499
25525
25528
25497
25543
25355
25330
25213
25410
25158
25264
25428
25434
25304
25046
25445
25566
25451
25296
25692
25351
25610
25590
25811
25633
25688
25761
25785
25747
25807
25964
25910
25801
25683
25856
25843
25868
25899
25884
25659
25777
25883
25880
25912
25653
25893
25945
25840
25965
25983
25787
25862
25812
25988
26073
25849
25826
26010
26038
25903
26062
26227
25785
25887
26038
25918
26029
25938
26170
26031
26057
25841
26178
26038
25969
26151
26216
26413
25950
26620
26105
26228
26165
26426
26336
26185
26285
26401
26241
26321
26473
26442
26288
26299
26300
26394
26259
26196
26346
26271
26113
26117
26120
25816
25867
25959
25917
25813
25619
25718
25682
25658
25295
25669
25219
25168
25486
25479
25385
24902
25280
25357
25133
25125
25205
25301
25158
25018
25186
25270
25305
24944
25246
25194
25140
25090
25265
25337
25137
25174
25320
25352
25161
25281
25522
25241
25260
25276
25507
25326
25222
25362
25313
25321
25200
25455
25449
25220
25650
25387
25826
24655
25480
25443
25403
25387
25511
25421
25640
25329
25468
25480
25287
25528
25399
25624
25370
25543
25481
25474
25359
25569
25349
25495
25440
25599
25411
25441
25455
25559
25540
25603
25728
25773
25640
25605
25859
25732
25702
25794
25794
25836
25745
25576
26027
25815
25766
26049
25781
25843
25788
25987
25941
25644
25759
26193
25905
26192
26016
26051
25799
26008
25649
25866
25503
25507
25592
25814
25549
25504
25626
25312
25061
25006
25499
25545
25379
25281
25202
25247
25051
25551
24949
25441
25176
25165
25180
25449
25296
25447
25601
25446
25463
25566
25824
25688
25882
25857
25666
25777
25938
25962
25968
25597
25950
25885
26200
25702
25916
25907
25814
25918
25878
25926
25920
26108
26152
26089
25978
26348
26232
26265
26217
26405
26118
26415
26343
26567
26284
26394
26629
26473
26381
26324
26714
26571
26433
26538
26599
26650
26493
26383
26681
26428
26358
26652
26367
26395
26157
26393
26449
26386
26397
26449
26465
26381
26160
26466
26315
26311
26340
26409
26451
26218
26458
26450
26497
26288
26533
26581
26450
26446
26582
26479
26391
26546
26488
26571
26381
26395
26217
26473
26073
26485
26315
26495
26281
26464
26427
26331
26166
26443
26336
26229
26167
26406
26089
26199
26167
26260
26005
26000
26183
25917
25976
25872
26200
26274
25856
26046
26256
26278
25898
26278
26446
26189
26114
26372
26293
26453
26270
26437
26379
26495
26491
26319
26375
26417
26569
26525
26529
26572
26685
26693
26603
26506
26717
26297
26308
26600
26850
26816
26591
26832
26646
26538
26469
26661
26681
26569
26540
26741
26626
26661
26893
26927
26690
26736
26841
26890
26740
26612
27161
26886
27138
26665
26907
26935
26992
27052
27106
26786
26972
27156
27049
27309
27102
27303
27256
27223
26953
27347
27192
27133
27166
27397
27244
27191
27162
27502
27251
27063
27298
27060
27080
27040
27224
27016
26895
26737
26916
26971
26798
26958
26913
26812
26691
26645
26768
26777
26595
26870
26544
26683
26541
26646
26623
26746
26644
26963
26785
26859
26812
27336
27088
26606
26838
26782
26900
26687
26926
26850
26959
26820
26941
26812
27088
26868
26939
26959
26919
27125
27013
26934
26963
27044
27095
26996
26925
27126
27154
27008
27125
27226
27347
27106
27195
27334
27041
27097
27251
26937
27243
27199
27321
27295
27175
27053
27179
27312
26819
27177
27510
27409
27182
27692
27320
27363
27393
27728
27632
27485
27377
27482
27376
27488
27607
27865
27582
27702
27767
27770
27668
27584
27843
27635
27678
27449
27791
27441
27533
27450
27678
27448
27546
27459
27680
27617
27529
27441
27144
27401
27337
27048
27350
27179
27093
27365
27208
27224
27082
27218
26908
26982
27107
27186
26878
26939
26977
27010
26869
26586
27214
26722
26668
26908
26612
26820
26665
26885
26957
26641
26632
26706
26741
26706
26824
26865
26703
26621
26674
26748
26640
26633
26600
26567
26657
26526
26621
26668
26599
26132
26567
26486
26423
26550
26567
26545
26535
26485
26651
26484
26440
26596
26862
26402
26685
26575
26666
26629
26570
26692
26722
26567
26593
26674
26520
26325
26544
26738
26528
26444
26659
26732
26534
26401
26627
26627
26537
26545
26769
26620
26437
26618
26747
26265
26461
26654
26371
26503
26468
26703
26573
26545
26233
26602
26715
26568
26482
26642
26583
26476
26464
26681
26402
26270
26305
26377
26232
26249
26276
26215
26121
26043
26189
26079
25827
26007
26054
25940
25912
26007
26040
25870
25813
25899
25884
25833
25726
25870
25830
25627
25846
26030
25821
25578
25899
25899
25869
25854
26003
25946
25913
25893
26039
25897
25773
25835
25442
25949
25715
25843
25889
25761
25682
25862
25808
25805
25732
25986
25921
25904
25965
25998
25920
25821
26096
25947
25841
25929
25997
25960
25959
25834
26094
25993
25847
25847
26043
26152
25994
26146
26130
25989
26112
26154
26079
26054
26007
25910
26148
26093
26334
25994
26197
26163
26129
26524
26489
26285
26501
26619
26354
26375
26590
26486
26386
26547
26556
26389
26578
26400
26774
26503
26481
26651
26669
26554
26305
26652
26633
26429
26562
26532
26453
26339
26503
26249
26301
26329
26331
26504
26363
25828
26301
26241
26356
25969
26238
26466
26176
25817
26099
26172
26362
26121
26247
26132
26031
26148
26003
26244
26232
26260
26546
26251
26202
26774
26497
25880
26403
26428
26266
26276
26280
26491
26354
26362
26503
26448
26329
26284
26445
26371
26337
26365
26406
26228
26345
26403
26352
26404
26236
26563
26381
26308
26169
26375
26439
26242
26118
26441
26163
26049
26246
26406
26285
25879
26345
26413
26290
26115
26182
26498
26242
26287
26400
26717
26383
26500
26863
26255
26469
26772
26478
26746
26515
26739
26713
26652
26718
26813
26758
26604
26564
26756
26632
26698
26883
26732
26647
26330
26859
26626
26627
26373
26547
26465
26588
26347
26650
26388
26436
26333
26586
26624
26069
26279
26115
26224
26051
26201
26305
26231
25863
26171
26249
26107
26009
26181
26125
26041
26106
26234
26102
25907
26199
26213
26032
26096
26190
26495
26203
26224
26148
26122
26084
26125
26375
26006
25763
26107
26133
26330
25811
26362
26142
26390
26511
26493
26429
26377
26147
26369
26174
26175
26362
26663
26323
26132
26425
26160
26355
26305
26498
26378
26532
26404
26602
26605
26654
26505
26439
26520
26450
26676
26733
26650
26855
26698
26870
27079
26783
26864
26341
26325
26968
26724
26729
26566
26779
26949
26759
26669
26955
26988
26689
26846
26996
26805
26833
27026
26979
26999
26889
26824
27170
26916
26914
27065
26817
26522
26269
26765
26764
26660
26637
26613
26532
26344
26307
26372
26029
25942
26177
26038
26143
25718
26031
26167
26087
26103
26271
25897
25988
26090
26018
25895
26207
26226
25902
26119
25794
26443
26146
26106
25830
26145
25909
26172
26211
26205
26302
25972
26387
26375
26299
26239
26330
26324
26271
26021
26559
26324
26388
26542
26738
26514
26428
26806
26384
26547
26319
26615
26715
26646
26417
26860
26940
26868
26917
26596
27035
26584
26956
26531
26748
26481
26703
27092
27025
26591
26834
27022
26861
26972
26956
26900
26773
26748
27079
26908
26760
26946
27120
27070
26783
27128
27031
26961
26986
27133
27168
27013
27001
27185
27053
26950
27056
27133
26962
26665
27007
26905
26736
26547
26757
26625
26578
26492
26528
26503
26553
26619
26580
26442
26229
26405
26296
26165
26071
26253
26180
26151
26013
26175
26058
25910
25996
26130
26106
25967
26277
25971
25990
25789
26050
25946
25975
25844
26103
26248
26025
26005
26098
26177
26019
26326
26104
26136
25864
26227
26111
26088
26166
26310
26444
26260
26337
26576
26351
26402
26467
26713
26738
26477
26629
26632
26655
26531
26714
26760
26676
26637
26809
26715
26604
26923
26785
26590
26533
26701
26743
26689
26650
26856
26691
26943
26528
26965
26930
26607
26615
26829
26784
26627
26812
26828
26718
26512
26805
26793
26757
26721
26914
26641
26841
26935
26859
26892
26584
26662
26761
26575
26326
26609
26720
26442
26305
26550
26376
26271
26224
26320
26355
26223
26134
26157
26185
25794
25958
26002
25813
25810
25977
25798
25755
25720
25791
25916
25721
25679
25728
25724
25596
25672
26292
25696
25466
25748
25841
25858
25923
25914
26016
25543
25950
26319
26053
25843
26077
26047
25884
25955
26152
26107
25970
25873
26096
26016
26097
25972
26225
26176
26132
26201
26069
26222
26054
26100
26371
26384
26407
26523
26205
26208
26203
26270
26361
26148
26285
26291
26254
26224
26261
26374
26212
26119
26280
26354
26368
26067
26377
26336
26305
26333
26371
26531
26145
26240
26445
26293
26114
26471
26497
26424
26456
26656
26575
26462
26358
26581
26553
26433
26398
26750
26555
26179
26142
26135
26026
26026
26111
25901
26210
26174
26262
26117
25732
25900
25916
25896
25780
25771
25859
25809
25768
25886
25809
25789
25410
25836
25941
25701
25608
25618
25653
25645
25772
25853
26002
25520
25834
25930
25837
25624
25839
25857
25824
25716
25884
26021
25915
25636
26188
26004
25967
25900
26119
26366
26179
26510
26290
26250
26637
26282
26286
26316
26600
26448
26476
26346
26581
26574
26390
26130
26650
26630
26550
26478
26683
26657
26545
26447
26793
26743
26499
26760
26881
26759
26742
26755
26697
26722
26593
26859
26727
26778
26820
26738
26816
26871
26949
26876
27077
26686
27043
27092
27048
26530
26888
26959
26593
27093
27060
26907
27319
26903
26913
26824
26582
26788
26612
26869
26809
26519
26593
26404
26371
26459
26272
26338
26227
26300
26137
26074
26025
26255
26289
26037
26132
26173
26218
26074
26320
26099
26130
26203
26334
26314
26173
26110
26217
26280
26300
26321
26422
26287
26150
26251
26352
26307
26226
26524
26328
26300
26551
26440
26500
26401
26270
26406
26380
26220
26501
26473
26492
26449
26512
26510
26435
26474
26585
26191
26456
26571
26498
26385
26501
26556
26588
26614
26427
26644
26587
26608
26854
26818
26919
26751
26590
26724
26694
26438
26552
26671
26569
26654
26716
26670
26721
26632
26657
26584
26784
26791
26993
26836
26676
26725
26936
26846
26709
26941
26876
26721
26685
26801
26539
26638
26650
26600
26572
26395
26331
26172
26361
26292
26271
26146
26117
25918
26106
26325
25987
25836
25946
25948
25912
25734
25890
25927
25501
25951
26058
25789
25716
26078
25781
25494
25730
25972
25378
25600
25760
25876
25704
25601
25779
25820
25847
25663
25908
26030
25780
25755
25979
25904
25972
25653
26270
25842
25677
25835
25882
25885
26156
26042
26081
25891
25997
25859
26006
25942
26041
26127
26002
26008
26003
26199
26012
26075
26349
26208
26211
26089
26218
26132
26123
26219
26324
26411
26127
26414
26419
26247
26266
26383
26315
26393
26225
26401
26433
26498
26470
26653
26670
26217
26357
26709
26764
26152
26657
26668
26585
26685
26971
26615
26544
26486
26616
26531
26436
26304
26180
26372
26546
26276
26481
26150
25897
26079
26343
25935
25467
25994
25805
25901
25891
25887
25694
25688
25619
25718
25617
25443
25553
25620
25458
25199
25579
25421
25425
25538
25687
25567
25549
25304
25273
25790
25712
25587
25539
25805
25432
25612
25931
25705
25299
25696
25826
25675
25577
25794
25667
25765
25711
25859
26010
25700
25839
26067
25932
25890
25937
25902
25864
26094
26365
26081
25924
26107
26238
26140
26058
26126
26399
26285
26189
26179
26127
26253
26202
26386
26150
26325
26326
26342
26473
26393
26394
26411
26600
26362
26624
26637
26467
26488
26585
26646
26566
26400
26722
26693
26892
26800
26954
26800
26475
26715
26537
26467
26580
26766
26626
26621
26618
26723
26438
26655
26232
26636
26306
26046
26434
26394
26237
26190
26374
26195
26273
26052
26210
26141
26031
25893
26118
25946
25885
25877
25971
25717
25599
25782
25740
25634
25622
25715
25747
25666
25633
25860
25881
25673
25674
25834
25738
25745
25892
26031
25992
26005
26005
26144
25926
25911
26112
26037
25942
25925
26094
26107
26114
26015
26221
26318
25998
26391
26385
26322
26347
26495
26243
26395
26459
26289
26513
26379
26313
26537
26419
26350
26578
26547
26543
26426
26641
26568
26474
26343
26463
26463
26400
26454
26488
26499
26222
26471
26573
26415
26231
26640
26534
26415
26373
26603
26413
26470
26635
26564
26560
26488
26421
26413
26488
26345
26246
26206
26122
25892
26421
25964
26113
25980
25933
25609
25569
25482
25621
25548
25110
25320
25113
25159
25003
25090
24891
24728
24647
24703
24626
24495
24426
24589
24362
24132
24394
24322
24314
24188
24308
24365
24240
24104
24387
24528
24287
24445
24524
24541
24352
24551
24905
25056
24450
24736
24609
24643
24825
24836
24759
24788
24712
24882
24589
24801
24764
24841
24858
24674
24746
24747
24656
24638
24687
24732
24445
24601
24779
24450
24680
24753
24709
24756
24732
24691
24880
24745
24576
24993
24822
24899
24770
24993
24827
24959
24896
25224
25018
25106
25128
25347
25271
25218
25240
25466
25382
25305
25391
25477
25504
25422
25558
25706
25584
25745
25782
25749
25406
25832
25769
25625
25448
25710
25584
25436
25276
25795
25449
25590
25263
25263
25315
24919
24952
25080
24971
24626
25028
24968
24899
24821
24838
24725
24676
24522
24631
24552
24559
24404
24662
24731
24384
24572
24621
24460
24338
24382
24573
24419
24525
24498
24489
24442
24371
24503
24600
24486
24591
24721
24903
24422
24878
24903
24791
24577
24998
24945
24992
25106
25228
25358
25102
25254
25378
25304
25178
25559
25516
25549
25481
25535
25423
25523
25490
25740
25543
25552
25383
25716
25741
25879
25698
25689
25749
25670
25852
25910
25876
25822
25950
25847
25871
25963
26009
25995
25815
26050
25955
25743
25966
26116
26092
26039
25982
26244
26281
26178
26237
26343
26371
26153
26180
26396
26186
26119
26326
26255
26123
26123
26049
25976
26018
26003
25939
25648
25906
25615
25653
25605
25308
25340
25177
25323
24988
24780
24882
24935
24923
24998
24723
24815
24825
24906
24939
24614
24653
24753
24774
24777
24611
24717
24788
24698
24902
24908
24832
24913
24954
24904
24804
24644
24876
24754
24683
24939
24994
25002
24814
25077
25003
24990
24961
25117
25134
24994
25075
25277
25160
25245
25454
25340
25305
25288
25460
25273
25333
25337
25479
25476
25143
25534
25477
25433
25393
25498
25574
25627
25594
25707
25757
25716
25566
25800
25865
25713
25619
25799
25653
25768
25819
25857
25712
25784
26015
25877
25930
25939
26013
26127
25920
26220
26126
26191
26118
26118
26200
26148
25962
26186
26250
26031
25977
26040
26066
25938
25855
25975
25857
25801
25613
25723
25834
25488
25661
25392
25585
25199
25550
25326
25223
25183
25232
25315
25069
25077
25135
24859
24894
25011
24900
24878
24650
24933
24638
24821
24581
24682
24786
24620
24483
24773
24830
24675
24831
24878
24816
24751
24847
24890
24948
24705
24899
24750
24941
24807
25136
25137
25175
25352
25158
25068
25113
25159
25318
25330
24950
25300
25311
25277
25311
25527
25394
25249
25440
25452
25492
25496
25498
25733
25587
25469
25682
25803
25707
25565
25817
25819
25758
25727
25926
25727
25808
25896
25915
25789
25719
25893
26010
25808
25704
25998
25980
26039
25778
25988
25941
25917
25904
26022
25904
25819
26058
25977
25966
25936
25997
26035
26096
25898
26072
25915
26049
26003
25862
25784
25701
25592
25596
25632
25465
25513
25472
25435
25198
25328
25250
25181
25006
25135
25078
24874
24754
24937
24744
24576
24730
24603
24387
24309
24589
24552
24234
24270
24317
24277
24096
24194
24442
24173
24168
24294
24330
24241
24253
24389
24228
24236
24233
24434
24344
24491
24388
24519
24626
24531
24450
24626
24749
24514
24756
24706
24724
24519
24875
24843
24773
24639
24848
24615
24907
24931
25044
24806
25040
25179
25166
25195
25034
25248
25037
25253
25071
25169
25387
25082
25113
25353
25135
25232
25168
25304
25243
25186
25310
25275
25368
25288
25400
25230
25273
25221
25429
25523
25290
25382
25434
25353
25207
25339
25362
25350
25250
25501
25326
25519
25216
25553
25361
25483
25513
25517
25428
25305
25412
25388
25361
25213
25274
25233
25208
24925
25137
25139
25060
24731
25031
24961
24875
24893
24948
24646
24587
24794
24752
24788
24688
24762
24568
24586
24607
24740
24873
24703
24734
24781
24549
24443
24706
24664
24654
24466
24737
24726
24662
24674
24912
24848
24954
24856
25161
25177
24948
24929
24993
24983
24843
25034
25121
24819
24983
25076
25162
25071
24947
25183
25227
25224
25228
25322
25405
25097
25559
25405
25365
25383
25507
25543
25432
25516
25569
25351
25555
25611
25671
25693
25633
25737
25801
25801
25584
25688
25637
25660
25618
25838
25645
25744
25468
25781
25853
25880
25839
26037
26053
25798
26171
26193
26226
26015
26427
26199
26232
26449
26257
26355
26322
26318
26161
26098
25854
26061
25982
25794
25857
25861
25702
25455
25589
25590
25570
25392
25443
25312
25318
25161
25248
25105
25207
25162
25005
24895
24885
24639
24858
24841
24643
24557
24722
24823
24532
24673
24798
24775
24695
24948
25024
24978
25101
25165
25112
25145
25097
25319
25271
25265
25215
25501
25484
25328
25522
25471
25632
25262
25692
25475
25650
25586
25725
25798
25727
25656
25767
25730
25661
25845
25702
25768
25680
26031
25778
25837
25882
26003
26223
25958
26031
26137
26056
26007
25976
26123
26106
25860
26262
26074
26139
26184
26197
26216
26149
26164
26158
26186
26179
26214
26319
26303
26209
26250
26433
26360
26080
26434
26475
26391
26185
26494
26768
26442
26473
26721
26512
26428
26404
26528
26534
26333
26554
26458
26455
26486
26621
26390
26335
26269
26411
26187
26113
26071
26316
26105
25993
26146
26032
26061
25832
26056
25966
25882
25917
26018
25941
25971
25907
26181
26114
25782
26046
26142
26055
26052
26254
26040
26111
25976
26230
26130
26054
26234
26307
26297
26141
26290
26358
26382
26331
26373
26359
26430
26496
26475
26912
26369
26329
26410
26676
26570
26456
26589
26586
26563
26723
26543
26727
26786
26954
26834
26823
26775
27073
26791
26750
26765
26955
27067
26993
26881
27183
27105
26952
27096
27120
27126
27055
27223
27128
27236
27233
27255
27309
27126
27232
27494
27394
27211
27330
27351
27570
27245
27467
27395
27332
27224
27521
27376
27438
27502
27683
27379
27267
27601
27528
27483
27357
27596
27506
27420
27409
27497
27262
27405
27305
27384
27298
27101
27369
27298
27263
27127
27252
27157
27112
27097
27079
27060
26872
26750
26979
26988
26904
26750
26968
27043
26854
26868
27018
26967
26901
27089
27086
26990
26884
27029
26880
26893
27025
26982
26726
26794
27036
27046
26711
26805
27126
26992
26830
27006
26717
26673
26863
26755
26927
26888
26980
27199
26953
27198
27017
27274
27255
27114
27176
27277
27207
27304
27157
27343
27275
27108
27298
27307
27215
26967
27270
27175
27224
27038
27334
27353
27174
27224
27274
27314
27060
27376
27293
27172
27207
27200
27096
27128
27080
27249
27149
27105
27168
27147
27363
27149
27127
27063
27291
27160
27223
27255
27117
27281
27376
27040
27214
27038
27196
26991
26987
27036
27141
27076
27016
27065
27245
26966
26751
27014
26810
26866
26666
26754
26743
26681
26591
26507
26543
26523
26532
26530
26404
26299
26453
26396
26531
26464
26479
26558
26364
26346
26391
26346
26276
26455
26344
26313
26303
26535
26306
26291
26085
26358
26629
26170
26371
26409
26409
26189
26128
26485
26496
26311
26497
26467
26397
26398
26332
26529
26293
26261
26487
26401
26406
26288
26506
26490
26359
26522
26535
26299
26178
26399
26521
26508
26361
26572
26563
26533
26597
26731
26614
26701
26785
26901
26846
26713
26820
26889
26826
26595
26792
26806
26771
26710
26847
27079
26415
27065
26807
27026
26764
26828
27044
27036
26834
26892
26860
26923
26735
26880
26921
26803
26905
26897
26799
26798
26712
26945
26895
26760
26868
27016
26729
26635
26785
26828
26620
26669
26686
27079
26534
26611
26606
26430
26483
26459
26706
26572
26323
26533
26354
26464
26318
26429
26304
26349
26227
26427
26395
26264
26272
26524
26447
26092
26292
26540
26309
26251
26350
26404
26348
26194
26362
26370
26263
26353
26560
26400
26240
26409
26520
26342
26327
26517
26409
26440
26424
26469
26409
26401
26422
26532
26379
26427
26453
26551
26485
26453
26638
26710
26555
26609
26640
26634
26433
26548
26631
26530
26502
26537
26774
26583
26434
26705
26605
26684
26704
26750
26596
26561
26854
26813
26581
26637
26717
26658
26694
26659
26796
26752
26782
26506
26781
26777
26824
26702
26902
26890
26794
26820
26921
26835
26760
26665
26909
26868
26699
26716
26686
26798
26583
26824
26697
26615
26395
26576
26465
26469
26362
26531
26606
26448
26433
26443
26288
26384
26439
26240
26341
26154
26453
26244
26104
26293
26185
26115
26092
26290
26097
26150
26084
26316
26205
26237
26059
26322
26341
26194
26102
26266
26275
26111
26208
26554
26127
26126
26342
26335
26225
26136
26432
26313
26196
26298
26450
26345
26194
26161
26485
26272
26107
26367
26506
26411
26292
26526
26485
26424
26491
26621
26487
26562
26762
26797
26734
26527
26578
26701
26776
26476
26870
26717
26888
26843
26937
26886
26830
26870
27178
27100
26972
26831
26923
26888
27009
27111
27085
27068
26857
26850
27025
27120
27043
27191
26938
27134
27121
27336
27163
27215
27164
27260
27142
27064
27127
27198
27038
27076
27099
27011
26883
26974
26952
26855
26745
26707
26998
26642
26647
26812
26560
26528
26524
26605
26428
26515
26227
26507
26331
26135
26246
26289
26136
26168
26180
26247
26075
26089
26292
26350
26197
26217
26421
26400
26296
26353
26285
26438
26360
26517
26381
26385
26235
26356
26342
26390
26294
26440
26405
26376
26280
26649
26491
26472
26487
26392
26377
26446
26690
26735
26630
26551
26782
27008
26706
26792
26842
26835
26605
26747
26903
26892
26662
26786
26724
26821
26689
27034
26944
26993
26821
26960
27068
26930
26810
27126
27049
26956
26928
27006
26970
26889
27069
27223
27051
27241
27203
27156
27165
26939
27263
27151
27193
27182
27411
27315
27076
27243
27192
27243
26958
27086
27155
26887
26645
26974
26942
26715
26620
26563
26695
26394
26505
26570
26622
26446
26381
26386
26454
26335
26528
26207
26207
26161
26263
26079
26089
26066
26239
26189
26174
26201
26234
26158
26155
26278
26262
26199
26115
26316
26197
26155
26299
26417
26272
26154
26395
26438
26336
26263
26528
26482
26370
26622
26646
26647
26553
26590
26749
26638
26639
26609
26765
26617
26700
26732
26921
26775
26839
26921
26798
26852
27208
26991
27058
26904
26980
27250
27078
26933
27113
27119
27061
27029
27224
27208
27197
27192
27375
27352
27204
27365
27342
27140
27124
27297
27291
27307
27252
27343
27407
27381
27407
27489
27399
27498
27452
27707
27504
27575
27602
27590
27665
27482
27587
27484
27591
27365
27473
27481
27250
27354
27264
27119
27048
27006
27197
27031
26763
27051
26971
26904
26731
26779
26691
26707
26597
26751
26672
26675
26722
26768
26693
26487
26608
26447
26457
26332
26586
26298
26555
26300
26437
26219
26367
26381
26627
26751
26469
26534
26743
26611
26478
26690
26672
26601
26599
26769
26693
26701
26659
26952
26833
26813
26896
27054
26998
26974
26848
26937
26787
26810
26948
27032
26885
27161
26929
27222
26657
27069
27092
26944
27023
27414
26972
27122
27091
27238
27460
27093
27360
27388
27574
27313
27243
27446
27426
27273
27319
27413
27264
27212
27432
27322
27417
27443
27478
27410
27411
27357
27568
27502
27448
27484
27548
27569
27529
27473
27463
27459
27158
27396
27337
27201
26913
27291
27144
26991
26925
27013
27152
26583
26834
26897
26945
26757
26764
26775
26590
26508
26730
26790
26533
26414
26599
26453
26207
26083
26135
26352
26101
26304
26272
26108
26064
26188
26087
26099
26116
26319
26310
26419
26278
26226
26284
26305
26543
26493
26358
26267
26478
26110
26337
26300
26477
26279
26563
26469
26612
26686
26512
26639
26750
26714
26689
26857
26743
26718
26597
26902
26654
26902
26850
26845
26755
26673
26826
26885
27016
26921
27040
26950
26880
26986
27070
27019
27083
26994
27021
27007
27038
27209
27298
27261
27085
27391
27398
27237
27168
27284
27407
27348
27247
27449
27172
27540
27362
27608
27336
27373
27450
27474
27520
27254
27317
27258
27275
27250
27290
27037
27079
27120
27009
26932
26859
26760
26805
26736
26820
26748
26688
26519
26406
26686
26454
26474
26475
26416
26363
26203
26319
26343
26403
26083
26189
26078
26217
25957
26265
26143
26233
26005
26257
26061
26095
26251
26366
26430
26312
26490
26433
26290
26217
26498
26515
26536
26627
26735
26309
26548
26798
26788
26659
26469
26732
26838
26877
26885
26752
26962
26709
26625
26863
27005
26868
26726
27154
27049
26963
26963
27100
27009
26968
27239
26932
26993
26965
27471
27020
27331
26982
27211
27113
27091
27020
27314
27381
27206
27406
27394
27428
27220
27422
27482
27334
27333
27491
27293
27423
27421
27505
27546
27452
27536
27740
27582
27579
27697
27504
27567
27482
27504
27540
27333
27445
27456
27333
27284
27125
27240
27140
27062
27138
27294
27198
27171
27286
27258
27016
26923
27024
26830
26858
26748
26843
27056
26716
26765
27047
26785
26648
26860
26796
26790
26558
26827
26678
26659
26776
26753
26817
26705
26640
26805
26801
26529
26914
26845
26805
26857
26933
26914
26959
26762
27060
27168
27169
27092
27287
27186
27186
27284
27187
27177
27090
27375
27301
27446
27284
27345
27255
27341
27431
27430
27427
27274
27415
27403
27299
27222
27411
27286
27352
27333
27474
27347
27498
27346
27570
27645
27568
27431
27585
27685
27359
27558
27630
27586
27427
27587
27569
27556
27922
27744
27959
27637
27901
27922
27847
27815
27798
28020
27972
27739
28102
27991
28007
28036
27981
27943
27668
27530
27713
27639
27401
27341
27530
27274
27148
27195
27280
27116
27072
27109
27240
26976
26788
26868
27053
27004
27080
26898
26900
26818
27058
26978
26796
26779
26934
26984
26885
26952
26989
26780
26715
26829
26989
26890
26698
26952
26910
26897
26940
26756
26918
26802
26806
26898
26882
26784
26734
26844
26828
26800
26722
26890
26699
26773
26976
27119
26934
27036
27233
27220
27253
27162
27325
27298
27210
27276
27321
27384
27184
27306
27384
27213
27181
27271
27134
27213
27309
27501
27252
27269
27248
27403
27481
27258
27463
27336
27396
27257
27463
27626
27446
27526
27556
27498
27596
27523
27663
27481
27501
27527
27798
27607
27456
27629
27702
27634
27520
27575
27407
27433
27522
27361
27274
27038
27018
27262
27041
26905
27021
26888
26787
26865
26829
26839
26807
26639
26823
26485
26425
26664
26673
26513
26399
26472
26378
26494
26400
26733
26515
26504
26394
26554
26371
26412
26443
26622
26374
26415
26298
26580
26541
26192
26533
26551
26536
26507
26670
26562
26528
26724
26676
26556
26613
26677
26801
26661
26471
26762
26880
26704
26720
26807
26635
26798
26710
26928
26888
26701
26950
27047
26968
26931
26926
27038
27193
27097
27116
27244
27078
26952
27165
27291
27158
27331
27343
27153
27182
27288
27511
27178
27176
27449
27358
27484
27412
27495
27500
27293
27414
27550
27499
27288
27533
27545
27451
27379
27485
27571
27631
27512
27705
27725
27714
27520
27660
27544
27396
27276
27395
27435
27270
27382
27117
27143
27030
27051
27073
26805
26686
26788
26829
26696
26420
26625
26692
26468
26503
26640
26536
26492
26587
26461
26526
26423
26693
26336
26351
26492
26452
26522
26388
26289
26455
26453
26156
26360
26360
26400
26463
26533
26578
26533
26549
26605
26640
26502
26482
26698
26546
26659
26782
26829
26766
26587
26793
26690
26751
26677
26921
26815
26896
26710
27095
26981
27047
27090
26985
27051
26893
26973
27106
27071
27135
27272
27263
27054
27100
27214
27439
27154
27334
27236
27137
27110
27205
27488
27300
27245
27364
27250
27294
27469
27481
27569
27263
27445
27428
27458
27361
27444
27541
27618
27442
27463
27564
27468
27270
27743
27585
27457
27460
27508
27717
27524
27635
27577
27448
27289
27264
27277
27247
27122
27278
27156
27091
26997
27076
26883
26894
26826
26990
26954
26627
26923
26979
26843
26795
26804
27096
26921
26886
27043
27062
26848
26793
27160
27019
26940
26876
26968
26984
26830
26979
26813
27084
26798
26994
27129
27040
27015
27144
27219
27020
27193
27214
27099
26925
27265
27276
27170
27033
27288
27456
27302
27327
27398
27215
27259
27451
27552
27565
27172
27597
27489
27271
27341
27428
27612
27409
27331
27469
27562
27473
27581
27617
27636
27437
27538
27795
27692
27511
27671
27736
27730
27684
27797
27834
27601
27530
27811
27748
27747
27709
27888
27878
27500
27872
27939
27983
27613
27853
27798
27792
27721
27943
27879
27830
27957
28043
27941
27915
28088
28213
27863
27782
27771
27750
27609
27615
27722
27629
27358
27333
27394
27354
27202
27263
27286
27261
27210
27301
27238
27316
27264
27277
27379
27216
27344
27335
27198
27245
27276
27368
27310
27263
27311
27329
27424
27445
27491
27673
27415
27421
27361
27401
27441
27277
27384
27217
27114
27262
27510
27210
26960
27411
27336
27300
27160
27487
27398
27388
27622
27591
27590
27463
27537
27663
27545
27281
27624
27700
27553
27528
27710
27691
27658
27715
27742
27589
27570
27653
27755
27728
27575
27859
27746
27690
27697
27855
27930
27849
27784
27905
28024
27810
27893
27945
27801
27696
27920
27965
27851
27945
27907
28046
27950
27771
28044
28036
27954
28030
28091
28045
27929
27968
28032
27824
27839
28016
28077
27746
27710
27805
27770
27682
27819
27755
27505
27641
27452
27653
27511
27461
27408
27553
27242
27204
27407
27270
27310
27376
27443
27119
27352
27281
27408
27376
27170
27072
27367
27182
27110
27299
27347
27351
27359
27438
27564
27282
27326
27560
27339
27550
27571
27674
27642
27403
27624
27702
27682
27547
27713
27670
27607
27899
27858
27616
27634
27713
27865
27758
27837
27716
27877
27909
27812
27795
27576
27760
27632
27917
27737
27891
27861
28048
27869
27807
27898
27575
28030
27509
28046
27891
27992
27965
28063
27934
27849
27823
28042
28131
27902
28001
27946
27858
28106
28038
27947
27910
27670
28274
28214
28080
28220
28553
28163
28146
28174
28272
28173
28034
28221
27956
28075
27756
27867
27941
27832
27680
27886
27751
27660
27617
27789
27882
27611
27765
27559
27655
27422
27832
27131
27469
27493
27454
27315
27230
27281
27261
27424
27377
26844
27167
27068
26789
27113
27063
26752
27142
27083
27029
27151
26940
26974
26899
26795
26869
27040
26964
27006
27183
27203
27058
26925
27242
27101
27146
26946
27282
27344
27167
27221
27243
27228
27222
27115
27364
27089
27308
27312
27190
27528
27093
27466
27304
27393
27457
27469
27282
27283
27237
27421
27381
27297
27531
27533
27517
27514
27475
27090
27559
27410
27449
27479
27623
27821
27478
27741
27860
27573
27825
27595
27657
27723
27617
27709
27679
27967
27990
27878
27897
27839
27940
27707
27805
27903
27683
27413
27811
27718
27479
27408
27311
27521
27360
27241
27443
27320
27082
27228
27214
27244
27101
26923
27154
26897
26755
27045
27028
26926
26739
27007
26616
26679
26784
26485
26501
26287
26453
26357
26771
26320
26920
26982
26617
26929
27057
27111
26924
27117
27136
27155
27017
26731
26986
27059
26752
26930
27004
27067
26644
26986
26666
26920
26563
27279
26734
26848
26998
27299
27268
26625
27121
26968
26943
26804
27107
26693
27060
26552
27159
27066
27061
26591
26921
27120
26840
27255
27310
27059
27136
27256
27398
27263
27156
27377
27259
27357
27142
27037
27353
27286
27388
27377
27604
27496
27826
27705
27321
27353
27518
27786
27566
27233
27685
27663
27583
27578
27707
27649
27465
27612
27519
27525
27346
27442
27432
27346
27248
27111
27130
27109
27014
26982
26988
26824
27019
26907
26803
26693
26892
26921
26639
26501
26746
26535
26595
26740
26543
26614
26446
26666
26881
26367
26165
26582
26760
26547
26489
26514
26482
26827
26584
26596
26799
26735
26527
26700
26566
26450
26555
26550
26571
26470
26551
26555
26407
26697
26861
26747
26842
26795
26901
26731
26771
27046
26797
26818
26678
26905
26862
26797
26717
26878
26863
26850
26645
26886
27001
26719
27030
27043
26968
26728
26959
27178
26923
26945
26988
26940
26925
26736
27124
27067
26905
27031
27111
26978
26953
27048
27144
27208
27218
27369
27297
27208
27444
27438
27312
27314
27365
27429
27324
27224
27512
27535
27537
27169
27470
27654
27416
27275
27477
27341
27285
27160
27324
27343
27230
27303
27295
27345
26989
27245
27218
27201
27077
27166
27092
26984
26837
27208
27176
27111
27150
27469
27046
26734
27369
27195
27088
26987
27090
27074
27221
27117
27277
27311
27539
27163
27359
27269
27042
27324
27286
27233
27070
27458
27341
27414
27402
27544
27315
27503
27607
27568
27664
27414
27579
27739
27494
27151
27565
27566
27510
27306
27697
27384
27543
27624
27721
27671
27553
27711
27879
27902
27668
27856
27757
27883
27785
27666
27697
27738
27749
27572
27712
27773
27817
28096
27944
27887
28127
28098
27938
27671
27977
27985
28005
27885
27967
28227
27869
28148
27994
28204
28090
27981
28170
28134
27864
28312
28045
28264
27949
28548
28276
28153
28221
28518
28194
28085
27803
27698
27954
27751
28014
27886
27808
27597
27824
27877
27712
27495
27392
27412
27612
27655
27633
27616
27276
27279
27424
27466
27306
27569
27563
27582
27437
27627
27648
27623
27588
27648
27603
27640
27581
27835
27601
27735
27705
27644
27710
27807
27713
27551
27555
27329
27759
27720
27787
27627
27764
27693
27507
27716
27858
27715
27657
27830
27946
27824
27758
27862
27724
27752
27798
27845
27664
27775
27912
27933
27789
27774
27889
27890
27785
27727
27834
27966
27805
27788
27935
27757
27606
27883
28044
27830
27702
27863
28045
27961
27845
28078
27998
28028
27949
28195
28202
27962
28037
28151
28019
28019
28328
28079
28048
28050
28226
28208
28091
28288
28399
28426
28239
27905
28044
28279
27815
28400
28331
27778
27885
27920
27703
27912
27811
27822
27683
27602
27659
27701
27610
27424
27438
27440
27395
27086
27346
27454
27303
27149
27404
27456
27252
26969
27404
27227
27214
27207
27216
27256
27216
27253
27237
27241
27115
27276
27262
27264
27125
27406
27190
27202
27272
27617
27146
27242
27352
27368
27395
27117
27459
27442
27422
27540
27599
27612
27508
27484
27686
27319
27339
27457
27545
27453
27276
27592
27377
27576
27416
27553
27493
27477
27208
27551
27486
27391
27520
27611
27519
27327
27569
27555
27661
27502
27643
27639
27676
27647
27749
27582
27597
27896
27861
27939
27639
27448
27771
27871
27633
27997
28072
27949
27809
28096
28028
27958
27768
28114
27876
27776
27934
27881
28075
27570
27815
27773
27776
27574
27687
27492
27523
27407
27548
27377
27315
27271
27596
27370
26976
27416
27396
27279
27058
27322
27193
27192
27035
27283
27149
27203
26990
27240
27212
27139
27300
27079
27257
27158
27261
27273
27176
27293
27245
27158
27216
27183
27376
27307
27335
27314
27403
27346
27187
27475
27547
27407
27212
27578
27475
27577
27141
27602
27479
27516
27418
27468
27500
27409
27784
27620
27628
27712
27760
27918
27593
27829
27827
27794
27903
27986
28098
27863
27935
28185
28108
28067
27627
28189
27974
28075
27874
28142
28133
28010
28276
28054
28155
27865
28042
28244
28054
28013
28027
28134
27967
28023
28127
28116
28028
28157
28084
28132
28173
28256
28314
28027
27774
28076
27920
27844
27606
27810
27612
27513
27512
27446
27558
27421
27375
27490
27395
27242
27350
27456
27189
27083
27303
27294
27016
26985
26771
26893
26770
26933
26899
26780
26598
26884
26900
26586
26302
26482
26376
26258
26096
26243
26240
26105
26189
26242
26258
26147
26167
26101
26057
26017
26399
26325
26337
26046
26260
26337
26326
26291
26522
26257
26420
26307
26562
26559
26386
26633
26685
26511
26312
26566
26468
26423
26283
26616
26538
26458
26588
26674
26440
26468
26489
26607
26828
26522
26622
26749
26859
26504
26772
26681
26676
26684
26896
26840
26680
26625
26887
26737
26836
26821
27003
26936
26935
26963
27129
26874
26922
26988
26933
26905
26993
27065
26922
26828
27063
26798
26811
26695
26800
26709
26510
26487
26731
26531
26508
26212
26159
26432
26335
26247
26117
25977
25887
26152
26021
25896
25781
25971
25890
25832
25759
25821
25610
25861
25759
25650
25763
25545
25698
25685
25729
25606
25821
25932
25866
25761
25943
25886
25972
25930
26176
26184
26095
26430
26297
26219
26173
26557
26460
26421
26570
26563
26412
26787
26582
26613
26538
26349
26555
26716
26710
26636
26886
26645
26694
26665
26977
26928
26816
26799
26989
26866
26826
26891
27081
27012
26896
27031
26994
26980
26955
27215
27329
27150
27171
27389
27466
27306
27355
27362
27210
27307
27300
27295
27408
27197
27437
27188
27234
27375
27361
27114
27401
27179
27361
27066
27256
27356
27600
27397
27239
27432
27392
27309
26963
27245
27134
27103
26917
27018
26991
26918
26739
26976
26846
26686
26827
26827
26548
26576
26680
26518
26456
26298
26389
26187
26270
26158
26330
26177
26030
26158
26324
26114
25821
25990
26194
25951
26010
26142
26298
26133
25965
26275
26119
26218
26309
26324
26335
26355
26538
26276
26333
26240
26567
26461
26385
26494
26576
26682
26554
26392
26680
26608
26541
26575
26704
26697
26628
26814
26816
26695
26628
26798
26727
26771
26722
26797
26693
26596
26669
26854
26823
26512
26829
26856
26765
26791
26984
26674
26793
26585
26823
26798
26575
26736
26982
26762
26690
26946
26774
26813
26851
26953
26924
27019
26973
27015
26982
26794
27113
27001
26943
26889
27068
27189
27056
26701
27134
26848
26969
26900
26832
26883
26659
26621
26830
26672
26543
26596
26367
26431
26305
26488
26397
26333
26288
26219
26308
26092
25900
26156
25870
26017
26088
25966
25916
25592
25906
25745
25725
25502
25785
25755
25658
25565
25709
25608
25597
25703
25825
25628
25693
25720
25837
25725
25556
25784
26010
25655
25713
26022
26042
25821
25714
26049
25968
25875
25948
26027
26061
25947
26059
26304
26123
26110
26353
26115
26219
26157
26463
26470
26219
26369
26515
26514
26361
26458
26511
26506
26464
26506
26385
26325
26298
26426
26527
26290
26378
26425
26302
26253
26401
26290
26308
26194
26371
26351
26263
26389
26499
26458
26380
26507
26397
26472
26455
26532
26727
26514
26720
26683
26790
26589
26882
26730
26734
26681
26576
26729
26459
26418
26356
26338
26442
26216
26453
26194
26140
26122
26167
26164
26110
26056
26052
26068
25934
25917
26010
25831
25882
25957
25908
26032
25862
25884
26143
25972
26022
26149
26358
26033
26187
26230
26290
26172
26112
26344
26319
26039
26292
26416
26268
26149
26378
26231
26362
26342
26423
26437
26227
26256
26232
26475
26342
26477
26523
26398
26294
26468
26342
26439
26660
26534
26318
26401
26376
26975
26680
26498
26596
26647
26557
26517
26655
26647
26484
26606
26723
26621
26685
26725
26954
26791
26526
26987
26838
26793
26741
26875
26965
26764
26787
26765
26839
26844
26932
26895
26794
26847
26922
26813
26771
26805
26878
26869
26758
26841
26947
26770
26767
26682
27054
26828
26666
26664
26709
26633
26418
26669
26374
26360
26318
26383
26296
26271
25987
26377
26313
26265
26164
26328
26162
26037
26339
26164
26064
26099
26193
26112
26105
25976
26083
26017
25924
25845
26033
25917
25824
25960
26089
25878
25901
26060
26019
25931
25876
26077
25921
26042
26073
26032
25988
25779
26079
26163
26156
25939
26089
26249
26000
26012
26138
25983
25953
25981
26256
26218
26093
25981
26280
26208
25863
26380
26401
26325
26061
26448
26527
26263
26432
26592
26513
26331
26529
26559
26460
26527
26548
26493
26577
26455
26562
26554
26517
26411
26597
26613
26464
26478
26651
26526
26551
26544
26812
26700
26374
26508
26596
26617
26742
26638
26652
26651
26570
26763
26600
26767
26673
26471
26558
26568
26762
26745
26509
26312
26428
26376
26193
26265
26223
25993
26159
26086
26240
26103
25837
26017
25864
25955
25537
26286
26219
25819
25289
25695
26080
25718
25922
25882
25657
25608
25772
25571
25708
25494
25602
26304
25595
25476
25692
26278
25782
25540
25910
25886
25872
25761
25885
25980
25885
25935
26187
25979
26267
25937
25474
26195
25478
26148
26139
26068
26117
26077
26081
25858
26301
26271
26071
26353
26408
25994
25989
25996
26373
26123
26336
26327
26374
26404
26239
26356
26364
26181
25472
26087
26253
26083
26316
26469
26746
26208
26646
26295
26841
26236
26369
26724
26690
26484
26724
26149
26451
26794
26616
26673
26492
26762
26540
26387
26607
26603
26576
26944
26563
26724
27184
26931
26492
26855
26804
26778
26634
26420
25861
26530
26954
26699
26896
26164
26049
26649
26422
26203
26258
26395
26307
25951
26530
25885
25920
26030
25980
26017
26242
26232
26324
26289
26385
26524
26539
26550
26583
26708
26602
26589
26906
26732
26593
26507
26608
26581
26641
26604
26680
25975
26680
26756
26581
26786
26696
27179
26814
26253
26956
26903
26705
26799
26485
27028
27307
26720
26812
27010
27378
27245
27227
27257
27109
27073
26923
27166
27374
26916
26897
26975
27061
26537
27266
27307
27134
27407
27359
27196
27237
27396
27469
27533
27383
27256
27509
27507
27555
27836
27858
27821
27425
27630
27995
27462
27676
27604
27494
27623
27650
27906
27632
27626
27602
27494
27792
28134
27980
27448
27651
28109
27581
27979
27276
27316
27830
27377
27131
27070
27294
27240
27568
26647
26916
26868
26254
27009
26730
26834
26651
26806
26688
26620
26528
26563
26616
26453
26686
26700
26757
26445
26776
26831
26796
26885
26970
26591
26794
26783
26951
26972
26833
27046
27066
27171
26919
27174
26982
27097
27127
27228
27330
27133
27074
27120
27198
27070
26957
27114
27028
27129
27127
27050
26895
27027
27071
27168
27069
27148
27149
27259
27195
27144
27234
27272
26825
27036
26915
26983
26831
27206
27463
27150
27265
27233
27150
27219
27341
27364
27418
27262
27223
27374
27295
27236
27297
27253
27360
26941
27349
27095
27157
27439
27425
27211
27379
27358
27623
27377
27799
27312
27823
27551
28048
27634
27283
27507
27487
27443
27558
27473
27366
27509
27344
27253
27094
27329
27153
27076
27266
27301
27191
26834
27116
26899
27014
26958
27199
26914
27043
26981
27057
27004
26935
27050
26990
26988
26869
27076
26912
26952
27044
26888
26973
26824
26671
27400
26695
27325
26786
26692
26933
26530
26913
26803
27012
26968
27019
26963
26936
26996
27024
26908
26800
26800
26352
26912
27343
26971
26843
26927
27027
27022
27134
26945
26998
27249
27013
27019
27142
27023
27254
27000
27134
27248
27136
27040
27174
27157
27039
27094
27132
27216
27013
26807
27277
27186
26725
27014
26938
26969
26819
27070
26973
26935
27078
27074
27178
27086
26952
27061
27081
26985
26991
27080
27074
26741
27202
27200
27132
27091
26908
26955
26868
26902
26977
26791
26873
26876
27249
26966
26664
26737
27161
26549
26940
26572
26731
26438
26402
26454
26207
26176
26202
26359
26193
25996
26137
26059
26041
25845
26038
25884
25754
25814
25789
25828
25660
25743
25826
25752
25790
25879
25860
25876
25956
25987
25848
25962
25919
26013
26045
25915
26022
26084
25995
26000
26092
25846
25905
25908
26181
25830
26037
25811
26156
26181
26145
26290
26249
26331
26104
26289
26495
26167
26059
26352
26463
26175
26269
26348
26328
26251
26136
26338
26491
26140
26121
26371
26325
26224
26262
26292
26242
26270
26367
26409
26228
26076
26400
26128
26359
26384
26442
26555
26266
26567
26572
26522
26217
26564
26548
26469
26329
26432
26627
26345
26223
26482
26490
26246
26250
26303
26215
26113
26122
26146
26057
26007
25861
26093
25924
25844
25952
25778
25635
25597
25734
25614
25326
25584
25523
25573
25413
25507
25539
25440
25362
25453
25571
25290
25211
25202
25092
25266
25227
25230
25216
25040
25238
25212
25305
25202
25469
25246
25280
25249
25318
25318
25239
25133
25360
25357
25248
25154
25343
25281
25130
25334
25397
25274
25291
25391
25140
25172
25264
25404
25241
25348
25317
25358
25516
25420
25395
25527
25404
25345
25483
25449
25559
25503
25431
25565
25324
25636
25584
25489
25473
25712
25898
25821
25851
25901
25970
25882
25926
26039
25850
26041
25965
26248
26149
26086
26218
26156
26141
26088
26238
26242
26158
25995
26055
25864
25889
25873
25889
25695
25509
25542
25698
25336
25361
25220
25321
25025
25001
24971
24901
24663
24687
24762
24484
24329
24204
24448
24304
24159
24256
24101
24200
24193
24058
23963
24082
24061
24022
24088
23885
23793
23905
23829
23845
23918
23934
23929
23673
24124
24259
24108
24312
24383
24578
24508
24510
24732
24666
24551
24454
24555
24520
24428
24521
24453
24440
24637
24673
24559
24493
24473
24760
24568
24713
25001
24808
24818
25250
24888
25407
24993
24446
25098
24777
25126
24949
25098
25288
25136
25251
25326
25531
25369
25478
25514
25439
25418
25520
25476
25585
25436
25537
25516
25494
25570
25905
25730
25762
26039
25984
26001
26154
26283
26257
26242
26127
26288
26167
26186
26052
26117
26028
25903
26006
25949
25789
25818
26043
25886
25900
25737
25925
25863
25767
25730
25791
25878
25513
25602
25485
25514
25240
25348
25361
25126
25090
24953
24949
24871
24880
25053
24786
24539
24632
24492
24572
24400
24538
24425
24468
24278
24613
24544
24529
24816
24602
24609
24826
24854
24892
24800
24920
25079
25113
25057
24957
25135
25289
25233
25350
25407
25574
25424
25531
25563
25399
25509
25677
25715
25732
25595
25847
25762
25697
25727
25889
25979
25875
26016
25902
25891
25899
26054
26206
25936
25902
26095
26018
26030
26019
26028
26201
26173
26201
26276
26286
26264
26389
26498
26434
26381
26749
26724
26586
26587
26746
26738
26654
27096
26814
26657
26728
26738
26763
26676
26581
26540
26365
26318
26105
26252
26353
26117
26028
26103
26010
25830
25941
25973
25824
25554
25757
25525
25657
25604
25746
25670
25586
25570
25735
25732
25721
25652
25827
25763
25711
25763
25831
25989
25581
25691
25934
25628
25665
25765
25741
25804
25774
25898
25876
25976
26214
26191
26084
25874
26131
26051
26124
25884
26254
26169
26085
25751
26319
26280
26111
25974
26175
26103
26315
26194
26448
26509
26402
26491
26623
26541
26416
26628
26565
26612
26519
26700
26508
26659
26380
26521
26598
26398
26606
26693
26600
26430
26777
26676
26623
26613
26734
26670
26736
26881
26927
27121
26691
26977
26817
27258
26896
27046
26873
27087
26975
27034
27160
26984
27095
27134
27042
26774
26896
27332
26773
26539
26556
26224
26574
26511
26561
26642
26461
26623
26330
26248
26283
26161
26048
26230
25687
26031
26066
25982
26063
25883
25298
25829
25256
25701
25636
25658
25648
25653
25475
25328
25464
25450
25435
25336
25490
25721
25423
25481
25408
25437
25374
25559
25345
25450
25347
25448
25873
25418
25870
25271
25349
25330
25375
25384
25501
25389
25531
25608
25558
25615
25620
25853
25656
25689
25683
25821
25462
25589
25618
25620
25560
25654
25668
25691
25677
25757
25668
25707
25531
25721
25659
25484
25600
25608
25686
25523
25580
25742
25586
25657
25728
25827
25880
25708
25892
25971
25833
25678
25777
25843
25756
25941
25966
26033
25968
25772
25977
26031
26041
25767
26049
26116
25978
26010
26073
25838
25648
25847
25803
25755
25554
25825
25444
25568
25513
25447
25377
25202
25420
25201
25111
24960
25120
25373
25039
24794
24881
24835
24781
24621
24581
24529
24440
24300
24376
24474
24373
24506
24536
24359
24201
24514
24637
24538
24502
24655
24744
24858
24193
24720
24714
25096
24675
24665
24658
24499
24752
24741
24696
24704
24881
24656
24886
24986
25104
25069
24902
25107
25307
25117
25121
25227
25438
25307
25055
25314
25523
25184
25206
25403
25201
25179
25352
25188
25229
25057
25274
25201
25291
25163
25409
25436
25384
25047
25381
25686
25436
25076
25621
25874
25077
25325
25041
25481
25195
25686
25394
25634
25486
25547
25587
25480
25728
25775
25640
25349
25610
25363
25746
25585
25919
25868
25697
25683
25743
25413
25585
25341
25390
25411
25381
25315
25308
25104
24928
25096
24825
24866
24765
24738
24716
24546
24609
24562
24162
24141
24192
24069
24073
24225
24050
23685
23924
24286
24273
23871
24087
24163
24136
24156
24113
24134
24212
24115
24149
24373
24371
24449
24472
24571
24574
24596
24486
24644
24366
24544
24514
24781
24869
24658
25362
25148
24588
24993
24567
24407
24638
24563
24830
24877
24802
24609
24914
24778
24680
24790
24812
24874
24557
24859
24926
24922
24815
25015
24849
24919
24810
25094
25106
24697
25007
25122
24887
24760
25067
24864
24961
24892
25143
25094
25092
25153
25230
25125
25059
25357
25243
25269
25236
25139
25242
25321
24944
25290
25661
25063
25221
25117
25326
25063
25027
25195
25003
25027
24907
25022
24899
24806
24889
24847
24739
24728
24762
24814
24646
24513
24579
24387
24383
24174
24463
24478
23939
24186
24211
24108
23933
24115
23829
24057
23958
23975
23896
23816
23930
23975
23985
23842
24147
24084
23897
23876
24183
24121
24173
23941
24197
24072
24210
24458
24247
24461
24390
24356
24472
24433
24296
24506
24384
24541
24461
24599
24687
24547
24448
25023
24617
24533
24819
24839
24700
24787
24895
24775
24713
24398
24884
24924
24842
24806
24767
24857
24834
24840
24957
24899
24757
24910
24836
24886
24633
24877
24705
24807
24690
24789
24636
24674
24752
24616
24675
24584
24579
24781
24744
24963
24925
25209
25128
24859
25308
25315
25191
25319
25373
25192
25256
25207
25150
25094
25127
25221
24990
25041
24310
24808
24805
24768
24713
24678
24532
24461
24396
24697
24502
24337
24472
24338
24293
24243
24378
24393
24299
24202
24235
24288
24116
23988
24148
24169
23847
23931
23948
23849
23886
23980
23962
24068
24010
24124
24031
24169
24183
24341
24351
24413
24505
24715
24539
24156
24468
23989
24579
24485
24646
24620
24613
24660
24678
24654
24670
24712
24896
24729
24839
24965
25135
25013
24963
25215
25106
25107
24989
25029
25300
25015
25034
25278
25176
25028
25287
25137
25196
24999
25304
25185
25288
25116
25356
25146
25326
25199
25466
25399
25377
25387
25630
25366
25449
25521
25445
25384
25247
25687
25494
25524
25764
25639
25467
25676
25652
25692
25749
25614
25696
25613
25769
25594
25626
25406
25374
25197
25474
25298
25302
25303
25172
25166
25090
24921
24493
25533
24924
24954
24834
24455
24903
24763
24787
24579
24626
24694
24654
24561
24565
24442
24560
24461
24662
24638
24642
24201
24796
24623
24701
24393
24874
25057
24830
25009
25165
25000
24766
25264
25389
25260
25110
25318
25481
25304
25399
25567
25666
25439
25484
25495
25672
25487
25574
25490
25553
25142
25601
25599
25423
