38882
38897
38924
38931
38961
38933
38947
39022
38978
38972
39009
39003
39008
38990
39015
39075
39027
39025
39049
39030
39056
39081
39129
39162
39065
39057
39122
39130
39124
39081
39086
39145
39095
39076
39090
39095
39131
39090
39054
39113
39123
39134
39094
39030
39073
39111
39144
39213
39192
39186
39183
39176
39231
39247
39283
39348
39285
39260
39280
39282
39332
39350
39360
39399
39378
39429
39473
39458
39507
39533
39536
39557
39517
39536
39554
39527
39529
39473
39445
39515
39515
39511
39491
39468
39510
39499
39498
39568
39549
39533
39510
39485
39537
39523
39465
39467
39450
39494
39530
39524
39549
39515
39499
39548
39508
39506
39516
39486
39501
39493
39487
39493
39415
39423
39456
39409
39380
39340
39333
39356
39275
39242
39255
39262
39294
39258
39245
39307
39271
39253
39275
39291
39299
39226
39209
39262
39199
39191
39217
39173
39166
39157
39140
39144
39105
39134
39137
39083
39103
39112
39128
39199
39208
39244
39245
39202
39236
39252
39256
39281
39241
39282
39325
39293
39301
39300
39321
39396
39382
39368
39363
39374
39415
39376
39391
39483
39438
39409
39410
39383
39425
39452
39448
39470
39433
39414
39400
39418
39479
39430
39399
39452
39411
39414
39431
39380
39386
39395
39397
39437
39417
39409
39400
39414
39460
39414
39421
39512
39468
39461
39516
39529
39557
39552
39556
39594
39554
39549
39538
39504
39532
39527
39530
39569
39517
39522
39548
39532
39566
39577
39586
39629
39618
39677
39722
39684
39672
39646
39656
39700
39652
39667
39681
39618
39619
39637
39654
39673
39613
39617
39632
39616
39658
39651
39633
39659
39614
39613
39625
39613
39633
39582
39542
39580
39557
39584
39612
39597
39633
39623
39609
39673
39680
39678
39652
39638
39677
39629
39603
39678
39657
39640
39647
39651
39677
39617
39573
39640
39651
39652
39618
39578
39626
39630
39609
39622
39569
39570
39564
39520
39570
39618
39634
39658
39628
39654
39640
39562
39563
39551
39528
39550
39511
39499
39464
39417
39454
39437
39394
39409
39393
39444
39465
39417
39436
39428
39389
39399
39372
39372
39342
39307
39352
39318
39262
39309
39306
39280
39237
39221
39258
39216
39223
39320
39278
39233
39248
39267
39297
39275
39302
39377
39321
39301
39322
39304
39303
39254
39221
39258
39235
39242
39243
39227
39258
39227
39215
39284
39272
39274
39276
39261
39293
39265
39234
39265
39234
39250
39265
39244
39269
39239
39211
39274
39305
39359
39372
39348
39388
39395
39409
39458
39411
39427
39493
39525
39556
39543
39576
39643
39585
39579
39596
39565
39607
39622
39575
39570
39566
39593
39563
39545
39627
39618
39577
39629
39636
39658
39668
39667
39731
39739
39723
39738
39690
39727
39771
39734
39739
39732
39719
39731
39688
39700
39686
39620
39635
39637
39634
39668
39635
39638
39618
39568
39603
39613
39603
39629
39585
39579
39575
39543
39551
39504
39471
39493
39427
39405
39401
39354
39343
39295
39251
39262
39212
39209
39217
39200
39217
39179
39166
39220
39205
39249
39281
39221
39210
39221
39241
39258
39189
39196
39215
39178
39184
39157
39129
39153
39119
39126
39116
39082
39136
39147
39112
39111
39085
39137
39163
39121
39144
39163
39184
39229
39212
39271
39291
39209
39208
39231
39226
39235
39220
39270
39263
39190
39199
39192
39183
39228
39217
39241
39240
39204
39247
39255
39243
39288
39297
39348
39358
39327
39393
39423
39395
39402
39387
39424
39435
39414
39442
39420
39404
39417
39336
39345
39385
39345
39355
39364
39350
39359
39329
39350
39357
39361
39436
39430
39416
39502
39518
39508
39487
39499
39567
39543
39531
39603
39580
39574
39578
39550
39568
39544
39507
39518
39478
39495
39512
39498
39533
39515
39505
39568
39579
39630
39659
39639
39681
39680
39653
39675
39658
39690
39694
39654
39686
39695
39698
39726
39658
39630
39620
39596
39632
39612
39565
39568
39523
39532
39541
39511
39508
39462
39446
39462
39373
39377
39422
39370
39343
39346
39385
39433
39384
39391
39423
39429
39458
39422
39401
39439
39406
39433
39439
39370
39394
39415
39365
39336
39316
39354
39348
39318
39348
39321
39327
39397
39359
39374
39414
39382
39391
39407
39419
39421
39358
39403
39447
39405
39423
39428
39406
39422
39422
39476
39478
39432
39476
39491
39484
39508
39489
39561
39612
39576
39623
39673
39674
39673
39648
39709
39726
39662
39666
39662
39668
39723
39707
39722
39720
39685
39713
39705
39699
39741
39696
39686
39710
39731
39772
39724
39696
39761
39747
39741
39733
39708
39739
39729
39720
39732
39656
39661
39692
39661
39676
39688
39706
39748
39719
39745
39773
39766
39809
39794
39775
39834
39835
39843
39838
39824
39856
39841
39860
39899
39813
39826
39870
39798
39792
39828
39818
39809
39802
39857
39844
39805
39869
39873
39852
39910
39914
39940
39950
39947
40011
39997
39951
39983
39954
39918
39886
39895
39949
39886
39818
39824
39751
39745
39755
39700
39713
39714
39662
39651
39647
39681
39647
39594
39631
39601
39550
39558
39509
39524
39533
39462
39439
39419
39415
39449
39407
39402
39388
39340
39344
39306
39279
39301
39236
39220
39243
39245
39258
39203
39177
39233
39206
39195
39176
39137
39175
39190
39190
39222
39191
39215
39227
39197
39236
39241
39211
39207
39165
39210
39249
39223
39241
39229
39223
39270
39249
39269
39294
39296
39336
39296
39244
39271
39267
39318
39347
39314
39337
39347
39362
39403
39363
39384
39417
39403
39428
39423
39421
39449
39383
39376
39425
39464
39495
39443
39434
39493
39442
39437
39461
39438
39470
39492
39500
39526
39479
39469
39461
39450
39485
39444
39418
39482
39482
39519
39546
39512
39524
39516
39520
39575
39552
39554
39562
39558
39588
39567
39590
39676
39636
39619
39637
39616
39612
39583
39597
39646
39589
39595
39625
39592
39604
39622
39652
39681
39608
39607
39646
39645
39658
39631
39648
39716
39658
39622
39617
39601
39640
39650
39669
39721
39685
39702
39725
39691
39703
39712
39746
39796
39733
39712
39710
39684
39723
39717
39673
39669
39645
39703
39733
39687
39699
39694
39688
39715
39650
39604
39578
39561
39581
39527
39499
39544
39490
39472
39474
39430
39421
39383
39351
39365
39309
39294
39287
39262
39280
39237
39205
39238
39198
39215
39256
39251
39274
39274
39311
39385
39345
39344
39357
39338
39384
39388
39347
39352
39345
39386
39367
39295
39309
39299
39266
39257
39195
39228
39273
39236
39231
39219
39230
39276
39244
39271
39308
39313
39389
39423
39420
39456
39434
39443
39462
39482
39517
39455
39426
39475
39409
39393
39440
39449
39467
39455
39469
39506
39436
39434
39500
39549
39596
39564
39564
39645
39642
39662
39684
39667
39686
39670
39673
39712
39660
39661
39666
39609
39603
39584
39569
39595
39576
39623
39649
39620
39665
39684
39670
39684
39658
39697
39706
39634
39600
39559
39558
39593
39533
39537
39535
39457
39465
39469
39426
39440
39460
39484
39436
39404
39469
39451
39435
39499
39480
39498
39514
39463
39474
39487
39477
39471
39413
39424
39420
39370
39394
39403
39405
39421
39359
39376
39407
39365
39357
39346
39364
39406
39360
39388
39443
39442
39470
39465
39460
39483
39424
39413
39408
39364
39359
39304
39249
39252
39196
39192
39191
39155
39165
39117
39056
39070
39042
39046
39045
39027
39041
38994
38983
39044
39011
39028
39063
39026
39025
39024
39028
39036
38958
38946
38950
38918
38931
38887
38827
38839
38817
38826
38811
38785
38828
38807
38777
38830
38836
38859
38841
38795
38845
38852
38809
38821
38805
38816
38810
38805
38847
38809
38795
38870
38844
38836
38868
38888
38917
38896
38921
39002
38970
38985
39028
39017
39026
39002
38982
39011
38996
39044
39070
39020
39000
38961
38958
39011
38986
39013
39042
39015
39033
39040
39056
39092
39048
39076
39110
39080
39102
39112
39117
39143
39104
39129
39135
39077
39097
39117
39135
39194
39178
39174
39170
39173
39221
39190
39183
39248
39194
39160
39187
39204
39204
39141
39148
39232
39200
39206
39224
39170
39166
39178
39205
39255
39225
39216
39191
39158
39201
39186
39153
39171
39132
39157
39190
39162
39165
39155
39186
39245
39197
39217
39273
39269
39277
39243
39214
39235
39189
39170
39136
39089
39118
39093
39045
39046
38990
38985
38981
38958
39012
39012
38976
39005
39004
39033
39028
39007
39065
39057
39023
39067
39042
39002
38975
38993
39044
38985
38953
39001
38923
38881
38914
38923
38925
38886
38878
38891
38803
38808
38856
38830
38832
38817
38802
38841
38844
38881
38877
38850
38901
38903
38899
38958
38945
38946
38928
38889
38929
38934
38924
38961
38944
38964
38939
38863
38889
38897
38863
38890
38895
38907
38895
38920
39008
38983
38964
39037
39017
39023
39051
39036
39058
39060
39069
39096
39031
39024
39046
39034
39050
39039
39066
39121
39055
39046
39076
39053
39055
39032
39036
39110
39115
39116
39069
39016
39070
39074
39038
39074
39082
39100
39073
39039
39090
39086
39071
39105
39072
39102
39135
39108
39145
39171
39177
39208
39195
39245
39278
39279
39352
39352
39294
39310
39329
39385
39382
39327
39330
39283
39246
39287
39275
39310
39329
39284
39290
39292
39308
39334
39260
39252
39268
39238
39261
39265
39261
39283
39252
39289
39303
39244
39250
39259
39264
39261
39173
39167
39164
39098
39115
39135
39112
39082
39008
39012
38996
38942
38978
38977
38942
38967
38959
38963
38917
38857
38887
38866
38825
38841
38805
38819
38806
38742
38772
38801
38794
38803
38781
38836
38860
38827
38871
38867
38819
38845
38851
38857
38811
38759
38762
38702
38689
38758
38701
38667
38684
38679
38696
38689
38709
38751
38687
38689
38727
38735
38802
38821
38796
38823
38823
38834
38786
38725
38741
38692
38645
38682
38652
38645
38635
38596
38611
38595
38592
38637
38610
38639
38666
38646
38703
38739
38748
38799
38811
38848
38838
38807
38868
38880
38864
38893
38833
38783
38756
38754
38793
38752
38733
38782
38713
38671
38690
38710
38751
38733
38731
38773
38736
38775
38829
38814
38844
38863
38871
38906
38892
38928
38929
38887
38930
38947
38949
38996
38968
38952
38922
38896
38947
38948
38949
39003
38962
38949
38959
38952
38981
38961
38967
39049
39057
39097
39131
39114
39135
39129
39149
39219
39200
39217
39241
39234
39269
39251
39235
39291
39285
39294
39283
39256
39285
39260
39250
39315
39285
39258
39250
39248
39267
39203
39173
39227
39185
39168
39170
39144
39160
39130
39092
39103
39057
39059
39054
39012
39027
39006
38998
39057
39015
38951
38912
38935
39001
38938
38872
38911
38869
38840
38827
38809
38853
38843
38805
38817
38799
38843
38858
38809
38827
38840
38843
38844
38767
38792
38843
38805
38782
38760
38776
38823
38772
38766
38778
38761
38788
38781
38781
38816
38772
38803
38854
38830
38812
38773
38782
38848
38817
38826
38868
38881
38890
38839
38851
38935
38879
38821
38800
38799
38871
38886
38868
38904
38893
38909
38913
38912
38967
38964
38976
39039
38981
38945
38958
38959
38967
38917
38912
38968
38918
38909
38922
38882
38887
38889
38913
38972
38961
38997
39013
38973
38992
38989
38993
39062
39059
39046
39008
38985
39049
39045
39017
39037
38992
39009
39032
38996
39003
38996
38997
39027
38995
39037
39070
39014
38994
39000
39046
39057
38939
38949
39004
38957
38981
39032
39020
39013
39015
39070
39063
39032
39062
39021
39010
39081
39039
39019
39026
38995
38994
38973
38978
39019
38980
39006
39022
38972
38998
38996
38948
38975
39013
39049
38987
38930
38994
38967
38875
38875
38862
38867
38827
38764
38778
38755
38738
38784
38739
38698
38664
38631
38654
38627
38609
38632
38549
38505
38503
38479
38472
38408
38378
38434
38418
38418
38395
38338
38366
38373
38357
38378
38336
38330
38333
38330
38355
38310
38309
38391
38351
38315
38315
38318
38358
38331
38295
38318
38302
38345
38353
38288
38313
38337
38319
38331
38322
38351
38349
38324
38333
38294
38321
38409
38334
38281
38296
38292
38318
38320
38327
38347
38291
38315
38352
38327
38341
38329
38323
38377
38377
38402
38407
38401
38461
38445
38395
38411
38388
38407
38402
38358
38390
38390
38373
38407
38385
38395
38412
38421
38451
38412
38422
38506
38471
38467
38500
38492
38512
38504
38511
38571
38562
38578
38593
38594
38630
38602
38597
38645
38593
38602
38648
38634
38640
38646
38695
38756
38706
38725
38767
38739
38747
38758
38791
38850
38828
38854
38858
38797
38799
38798
38802
38834
38791
38795
38789
38738
38759
38774
38795
38839
38798
38827
38893
38910
38932
38941
39011
39057
38925
38901
38971
38935
38882
38848
38844
38837
38747
38730
38721
38669
38676
38671
38678
38715
38665
38669
38678
38642
38673
38689
38688
38698
38640
38651
38660
38612
38619
38614
38612
38639
38591
38603
38615
38574
38578
38552
38531
38551
38480
38436
38419
38414
38455
38414
38373
38415
38398
38419
38450
38459
38505
38477
38436
38476
38460
38444
38418
38395
38402
38331
38304
38372
38348
38366
38407
38385
38379
38362
38367
38388
38324
38343
38381
38354
38371
38384
38397
38423
38363
38351
38337
38295
38333
38353
38362
38398
38347
38328
38326
38311
38330
38301
38302
38341
38286
38325
38388
38348
38344
38368
38378
38365
38301
38345
38390
38366
38392
38402
38408
38438
38406
38446
38461
38401
38425
38454
38456
38481
38462
38483
38478
38452
38487
38472
38464
38495
38433
38447
38496
38479
38483
38473
38482
38524
38486
38490
38495
38474
38514
38515
38514
38572
38570
38609
38638
38624
38648
38631
38634
38693
38665
38664
38649
38606
38662
38703
38696
38710
38684
38704
38709
38709
38777
38784
38783
38824
38786
38810
38827
38765
38772
38767
38715
38712
38704
38711
38658
38609
38636
38580
38523
38536
38482
38514
38565
38517
38494
38491
38514
38564
38531
38527
38511
38469
38478
38457
38466
38522
38483
38496
38505
38433
38424
38446
38472
38485
38410
38405
38415
38392
38429
38427
38408
38436
38412
38429
38418
38371
38411
38424
38408
38432
38393
38378
38367
38361
38403
38379
38383
38456
38422
38417
38442
38447
38507
38527
38520
38546
38522
38540
38527
38479
38512
38506
38469
38484
38457
38475
38488
38484
38535
38522
38504
38559
38543
38549
38570
38573
38582
38537
38562
38640
38574
38561
38603
38575
38555
38521
38503
38533
38517
38550
38551
38509
38538
38535
38531
38589
38578
38577
38567
38548
38575
38556
38572
38623
38538
38510
38548
38537
38522
38482
38485
38530
38479
38477
38485
38458
38494
38501
38488
38523
38511
38526
38511
38478
38514
38492
38466
38510
38488
38493
38492
38460
38470
38452
38467
38521
38464
38458
38481
38459
38474
38465
38459
38500
38485
38515
38542
38543
38577
38530
38485
38537
38537
38548
38531
38477
38469
38423
38405
38454
38399
38358
38363
38380
38407
38342
38317
38392
38359
38319
38330
38368
38409
38352
38336
38409
38376
38365
38375
38339
38331
38311
38302
38281
38176
38208
38290
38260
38240
38247
38285
38315
38248
38259
38295
38286
38318
38311
38295
38321
38285
38285
38277
38250
38289
38281
38270
38324
38301
38282
38276
38289
38346
38323
38313
38376
38349
38359
38391
38373
38378
38361
38369
38408
38357
38373
38400
38361
38358
38343
38355
38438
38454
38471
38473
38485
38554
38549
38549
38609
38578
38596
38646
38654
38682
38677
38686
38714
38650
38664
38702
38671
38665
38651
38658
38686
38634
38661
38703
38679
38688
38679
38682
38724
38687
38689
38695
38675
38712
38705
38704
38757
38720
38699
38689
38672
38687
38645
38637
38684
38610
38575
38601
38608
38620
38583
38584
38635
38592
38611
38646
38607
38605
38614
38638
38663
38597
38603
38625
38592
38605
38607
38613
38614
38518
38512
38531
38487
38500
38510
38495
38476
38402
38415
38431
38384
38378
38360
38374
38432
38390
38388
38422
38437
38459
38387
38308
38301
38252
38262
38262
38213
38238
38247
38212
38162
38078
38126
38169
38095
38071
38079
38106
38157
38139
38150
38136
38094
38116
38100
38089
38127
38082
38070
38054
37986
37967
37947
37956
37988
37926
37921
37930
37893
37911
37902
37869
37871
37835
37848
37834
37793
37852
37884
37872
37886
37862
37910
37956
37932
37908
37857
37875
37940
37879
37873
37899
37857
37859
37872
37877
37889
37844
37866
37897
37898
37925
37886
37871
37931
37914
37924
37926
37885
37914
37942
37967
38004
37963
37974
37979
37934
37942
37929
37922
37957
37924
37934
37941
37913
37946
37959
37966
37979
37912
37936
37983
37949
37944
37943
37955
37979
37927
37952
37998
37986
37994
37980
37997
38029
37958
37975
38028
37995
37988
37992
38017
38054
38003
37998
37991
37960
38004
38034
38058
38089
38038
38072
38125
38099
38095
38084
38104
38163
38148
38183
38203
38166
38192
38189
38170
38214
38213
38210
38184
38173
38219
38189
38187
38272
38262
38279
38312
38273
38239
38220
38274
38330
38244
38249
38320
38307
38303
38316
38347
38346
38241
38245
38294
38281
38295
38259
38199
38215
38224
38250
38213
38169
38216
38180
38099
38106
38095
38113
38105
38079
38110
38072
38024
38062
38055
38059
38025
37960
37966
37936
37901
37930
37903
37903
37904
37883
37882
37812
37778
37837
37808
37786
37774
37750
37770
37736
37713
37761
37758
37794
37806
37772
37822
37861
37872
37907
37886
37890
37862
37813
37844
37840
37834
37874
37822
37796
37799
37792
37803
37759
37770
37856
37823
37803
37826
37838
37868
37824
37784
37825
37806
37807
37824
37833
37842
37781
37796
37898
37864
37844
37875
37883
37911
37914
37933
37965
37917
37959
38009
37968
37975
38014
38055
38072
38018
38071
38124
38072
38040
38010
37999
38013
37972
38024
38078
38062
38098
38125
38140
38175
38170
38252
38314
38277
38274
38269
38285
38325
38287
38307
38317
38261
38262
38249
38228
38246
38216
38226
38216
38181
38230
38271
38309
38342
38276
38312
38391
38384
38393
38416
38467
38510
38442
38439
38453
38408
38410
38405
38408
38449
38429
38467
38493
38468
38494
38502
38511
38527
38448
38441
38441
38378
38386
38400
38384
38367
38330
38408
38440
38351
38343
38369
38372
38382
38357
38392
38379
38307
38315
38301
38280
38305
38283
38318
38323
38249
38240
38216
38182
38210
38198
38192
38145
38084
38083
38038
38029
38069
37973
37914
37925
37921
37932
37909
37918
37965
37912
37915
37966
38000
38055
38062
38087
38153
38129
38145
38158
38111
38102
38060
38010
38013
37989
38025
38021
37953
37965
37984
38000
38034
38011
38062
38101
38060
38074
38112
38170
38207
38134
38156
38208
38174
38176
38189
38206
38233
38181
38174
38165
38125
38131
38105
38103
38137
38079
38092
38135
38108
38107
38102
38123
38181
38148
38136
38134
38117
38121
38066
38067
38150
38118
38096
38089
38049
38058
38061
38092
38151
38111
38115
38146
38146
38178
38183
38212
38252
38180
38188
38238
38220
38224
38214
38214
38251
38221
38234
38260
38276
38317
38272
38241
38302
38287
38284
38294
38294
38337
38335
38359
38439
38433
38485
38557
38574
38623
38644
38661
38696
38675
38741
38778
38714
38722
38743
38725
38713
38673
38699
38673
38589
38590
38581
38572
38618
38597
38595
38571
38516
38518
38485
38473
38520
38466
38429
38402
38356
38354
38306
38266
38284
38223
38196
38200
38205
38244
38211
38177
38189
38128
38137
38173
38158
38188
38200
38211
38265
38271
38314
38308
38247
38272
38279
38259
38276
38247
38260
38261
38234
38248
38205
38180
38218
38176
38182
38197
38168
38200
38203
38185
38232
38262
38307
38291
38251
38295
38289
38273
38310
38266
38254
38263
38251
38272
38240
38229
38278
38230
38208
38235
38262
38287
38221
38197
38274
38239
38190
38193
38244
38323
38299
38293
38382
38390
38402
38388
38334
38363
38386
38386
38405
38361
38367
38379
38361
38369
38333
38348
38426
38389
38394
38427
38396
38384
38378
38411
38442
38371
38409
38480
38442
38413
38393
38404
38447
38415
38425
38419
38386
38426
38429
38426
38476
38455
38458
38453
38440
38506
38516
38498
38543
38541
38555
38528
38469
38481
38458
38444
38487
38461
38481
38495
38467
38500
38497
38477
38525
38525
38527
38517
38523
38565
38526
38540
38630
38581
38562
38593
38573
38568
38542
38540
38588
38547
38511
38485
38486
38537
38509
38494
38532
38463
38452
38476
38448
38468
38476
38451
38429
38363
38382
38403
38368
38359
38319
38311
38332
38253
38260
38304
38260
38235
38220
38231
38265
38227
38254
38286
38259
38262
38235
38229
38258
38187
38168
38196
38195
38191
38132
38128
38195
38155
38147
38177
38174
38182
38156
38167
38217
38172
38188
38210
38165
38189
38205
38180
38184
38167
38180
38143
38095
38126
38088
38039
38069
38050
38070
38065
38017
38061
38081
38051
38080
38093
38102
38068
38068
38146
38151
38175
38235
38174
38192
38227
38137
38109
38152
38167
38151
38111
38152
38141
38085
38137
38173
38169
38176
38138
38182
38203
38148
38181
38229
38254
38291
38269
38288
38297
38298
38354
38323
38270
38298
38292
38330
38354
38324
38329
38311
38318
38343
38268
38290
38352
38332
38335
38341
38361
38417
38400
38415
38437
38447
38476
38434
38449
38545
38508
38477
38481
38470
38506
38511
38513
38538
38476
38469
38490
38482
38491
38445
38435
38504
38487
38498
38527
38521
38526
38464
38426
38471
38435
38412
38400
38375
38370
38311
38291
38313
38221
38202
38237
38209
38202
38186
38177
38197
38150
38141
38131
38105
38126
38077
38036
38085
38059
38025
37997
37988
38022
37972
37929
37971
37950
37956
37941
37870
37866
37852
37824
37827
37802
37861
37899
37862
37883
37913
37950
37973
37906
37941
37980
37916
37918
37946
37940
37936
37887
37873
37846
37836
37891
37854
37815
37861
37847
37876
37903
37876
37910
37937
37948
37971
37935
37967
37999
37988
38031
38029
38005
38026
37999
38013
38009
37969
37999
37999
37993
38020
37981
38008
38038
37999
37991
37976
38010
38106
38089
38057
38047
38057
38087
38027
38018
38112
38091
38063
38079
38097
38127
38088
38072
38107
38048
38053
38099
38096
38108
38073
38036
38057
38035
38055
38075
38071
38096
38068
38074
38116
38043
38049
38112
38097
38082
38063
38075
38117
38096
38144
38172
38115
38110
38133
38182
38210
38130
38150
38198
38159
38159
38149
38123
38152
38167
38194
38139
38065
38109
38113
38085
38120
38096
38077
38057
38067
38143
38120
38071
38105
38101
38135
38143
38096
38115
38113
38093
38105
38059
38045
38020
37989
38028
37997
37933
37939
37918
37943
37944
37904
37924
37896
37847
37849
37802
37796
37791
37773
37812
37799
37772
37771
37705
37736
37791
37766
37768
37749
37714
37728
37719
37758
37763
37727
37739
37721
37740
37807
37762
37757
37769
37725
37733
37735
37739
37785
37762
37753
37748
37767
37834
37794
37749
37800
37773
37758
37783
37818
37852
37795
37795
37906
37905
37891
37907
37922
37962
37939
37934
37991
37957
37947
37960
37956
37978
37932
37902
37948
37940
37969
37971
37930
37983
38022
38009
38013
37994
38039
38057
38038
38083
38083
38074
38104
38070
38093
38107
38067
38102
38115
38085
38098
38105
38162
38160
38109
38131
38112
38095
38158
38174
38203
38198
38159
38189
38182
38173
38222
38203
38203
38197
38176
38221
38233
38245
38273
38203
38203
38240
38225
38241
38226
38210
38234
38198
38201
38200
38178
38207
38202
38228
38298
38253
38241
38266
38258
38259
38223
38235
38304
38261
38239
38234
38213
38255
38268
38269
38307
38284
38300
38309
38295
38329
38277
38189
38190
38181
38195
38168
38114
38122
38075
38035
38064
38011
37984
37986
37996
38050
38023
37971
37991
37972
37995
38018
38006
38020
37976
37953
38000
37961
37947
37960
37956
37962
37904
37880
37920
37865
37842
37828
37784
37822
37853
37846
37840
37807
37875
37911
37850
37860
37890
37905
37906
37848
37893
37945
37908
37890
37862
37875
37936
37894
37868
37864
37870
37922
37893
37859
37899
37877
37879
37881
37858
37880
37860
37847
37872
37822
37847
37887
37848
37832
37817
37831
37868
37817
37822
37846
37834
37860
37858
37869
37909
37865
37887
37927
37913
37927
37906
37891
37936
37930
37945
37907
37831
37859
37878
37868
37893
37886
37936
37939
37877
37901
37929
37944
37973
37919
37907
37921
37928
37960
37923
37918
37991
37985
38017
38032
37981
38007
38039
38038
38051
38032
38068
38066
38024
38047
38022
38008
38091
38111
38108
38084
38078
38132
38107
38096
38171
38145
38109
38107
38129
38179
38148
38139
38196
38163
38178
38212
38198
38242
38262
38243
38257
38239
38255
38256
38255
38293
38258
38253
38300
38230
38218
38242
38200
38214
38236
38231
38240
38211
38217
38189
38160
38219
38209
38159
38147
38073
38064
38087
38081
38100
38074
38069
38112
38059
38041
38033
37989
38003
37997
37985
38008
37984
38014
38009
37931
37921
37905
37890
37924
37912
37935
37920
37868
37907
37920
37890
37882
37837
37870
37903
37866
37848
37822
37850
37876
37779
37803
37871
37814
37799
37824
37825
37841
37848
37883
37848
37818
37895
37894
37860
37900
37887
37895
37895
37878
37925
37924
37917
37965
37948
37964
37977
37961
37982
37952
37935
37984
37962
37981
38016
38027
38077
38072
38063
38106
38091
38116
38123
38101
38173
38201
38160
38164
38165
38194
38175
38146
38188
38177
38176
38218
38158
38163
38211
38203
38222
38221
38224
38272
38265
38290
38299
38291
38345
38340
38324
38367
38362
38416
38442
38381
38375
38375
38377
38411
38388
38407
38389
38333
38375
38405
38408
38433
38386
38379
38381
38381
38437
38412
38368
38408
38395
38395
38398
38404
38444
38403
38389
38455
38420
38414
38459
38482
38495
38457
38485
38573
38523
38496
38517
38517
38541
38520
38507
38537
38484
38465
38458
38418
38396
38341
38348
38409
38351
38352
38395
38378
38387
38398
38421
38441
38369
38381
38423
38425
38477
38467
38412
38424
38433
38471
38444
38372
38374
38353
38348
38367
38268
38241
38286
38289
38276
38219
38218
38281
38227
38182
38173
38170
38200
38173
38177
38242
38201
38178
38171
38145
38168
38144
38111
38129
38111
38154
38168
38118
38141
38161
38174
38208
38179
38213
38252
38249
38290
38299
38310
38330
38260
38268
38282
38216
38224
38267
38284
38260
38183
38234
38276
38219
38239
38265
38245
38259
38269
38312
38292
38246
38272
38250
38248
38301
38242
38215
38235
38235
38263
38262
38280
38305
38236
38270
38330
38304
38341
38390
38391
38388
38369
38428
38451
38420
38437
38413
38402
38420
38349
38375
38432
38399
38395
38397
38401
38427
38396
38418
38430
38416
38458
38446
38437
38488
38469
38492
38508
38475
38496
38497
38502
38554
38542
38571
38598
38579
38582
38554
38584
38658
38597
38582
38629
38633
38626
38591
38613
38672
38621
38643
38694
38663
38655
38642
38635
38647
38598
38611
38612
38574
38612
38615
38582
38586
38554
38585
38595
38546
38546
38522
38519
38575
38543
38531
38527
38502
38508
38455
38418
38441
38368
38329
38332
38331
38359
38327
38311
38348
38292
38280
38289
38259
38270
38256
38262
38316
38289
38290
38288
38259
38274
38239
38217
38277
38266
38252
38236
38234
38291
38277
38268
38323
38278
38244
38239
38228
38251
38231
38250
38317
38265
38242
38261
38269
38320
38331
38330
38353
38313
38366
38441
38437
38435
38404
38394
38406
38331
38352
38419
38404
38365
38311
38329
38379
38305
38312
38377
38379
38390
38365
38345
38388
38381
38395
38397
38398
38438
38411
38416
38481
38432
38433
38472
38445
38426
38379
38340
38342
38286
38293
38303
38276
38299
38278
38270
38336
38330
38323
38319
38335
38396
38357
38312
38353
38333
38352
38383
38392
38451
38443
38400
38423
38416
38432
38422
38397
38419
38388
38391
38446
38387
38375
38388
38346
38367
38400
38410
38404
38339
38374
38408
38374
38400
38400
38387
38438
38443
38444
38403
38380
38456
38471
38464
38494
38445
38467
38507
38477
38484
38474
38466
38505
38488
38487
38441
38372
38389
38363
38328
38364
38344
38348
38338
38307
38331
38287
38233
38258
38227
38208
38200
38212
38270
38243
38219
38255
38190
38155
38162
38162
38195
38169
38155
38213
38184
38139
38105
38111
38178
38169
38158
38179
38093
38080
38123
38102
38084
38055
38055
38066
37979
37972
38010
37996
37997
37977
37992
38038
37987
37993
38020
37996
38009
38023
38079
38163
38124
38095
38069
38025
38045
38034
38026
38068
38034
38028
38029
38018
38050
38022
37998
38026
37985
38012
38073
38072
38058
38026
38077
38170
38121
38117
38162
38148
38139
38127
38161
38209
38139
38129
38155
38139
38159
38147
38139
38185
38168
38173
38181
38195
38252
38225
38204
38260
38230
38218
38219
38206
38245
38224
38184
38219
38222
38249
38256
38242
38269
38246
38255
38316
38272
38286
38328
38295
38279
38275
38312
38361
38308
38324
38359
38336
38358
38365
38363
38376
38324
38342
38355
38320
38354
38347
38310
38346
38353
38368
38349
38333
38368
38333
38335
38412
38374
38378
38421
38405
38396
38352
38329
38388
38398
38409
38377
38345
38410
38427
38406
38401
38329
38351
38399
38376
38388
38384
38381
38416
38385
38386
38369
38325
38338
38300
38266
38303
38271
38256
38235
38199
38219
38181
38140
38177
38162
38164
38151
38118
38132
38091
38060
38086
38042
38055
38069
38029
38054
38054
38022
38046
38044
38044
38013
38005
38054
37999
37948
37983
37952
37989
38035
37991
37977
37962
37947
37978
37971
37987
37968
37949
38022
38015
37954
37964
37960
37997
38003
37971
37998
37980
37960
37989
37957
37987
38019
37981
37974
37961
37978
38020
37965
37967
38002
37999
38022
38012
38027
38079
38036
38041
38073
38067
38084
38059
38054
38104
38070
38064
38077
38064
38063
38014
38024
38102
38059
38040
38072
38090
38118
38093
38101
38167
38136
38129
38119
38092
38162
38195
38158
38158
38154
38187
38168
38123
38144
38116
38116
38196
38174
38153
38153
38154
38202
38177
38140
38175
38165
38193
38208
38191
38228
38219
38206
38247
38226
38239
38232
38189
38225
38242
38255
38324
38300
38238
38197
38241
38338
38304
38283
38350
38298
38273
38307
38310
38319
38298
38314
38367
38322
38325
38328
38284
38319
38329
38295
38317
38338
38384
38363
38325
38377
38377
38368
38413
38366
38343
38337
38306
38307
38273
38266
38286
38193
38161
38184
38168
38166
38135
38127
38144
38067
38057
38085
38073
38094
38090
38103
38139
38070
38040
38040
38029
38056
38024
37990
38003
37961
37987
38003
37947
37957
37953
37921
37943
37965
38038
38059
38018
38006
37949
37947
38021
37983
37966
37963
37926
37952
37938
37889
37915
37929
37942
37928
37934
37958
37873
37854
37949
37931
37949
37999
37965
37960
37988
38026
38027
37943
37975
38041
38027
38023
37988
37964
37991
37977
38023
38035
37989
38025
38021
37966
37988
38007
38020
37991
37989
38028
37960
37949
38057
38035
38009
38030
38023
38027
38005
38022
38075
38030
38033
38051
38024
38048
38057
38068
38110
38095
38128
38125
38064
38092
38123
38126
38125
38068
38105
38145
38109
38103
38082
38087
38135
38094
38083
38079
38063
38110
38103
38078
38115
38096
38102
38115
38124
38167
38122
38088
38138
38101
38073
38078
38105
38167
38147
38134
38192
38167
38165
38177
38172
38221
38218
38195
38214
38185
38210
38221
38183
38206
38212
38216
38248
38209
38225
38255
38248
38285
38294
38313
38352
38290
38282
38287
38244
38262
38264
38247
38257
38220
38242
38253
38218
38219
38177
38162
38212
38169
38144
38142
38134
38165
38145
38145
38195
38160
38184
38225
38197
38192
38171
38174
38231
38218
38224
38200
38143
38156
38126
38089
38130
38126
38130
38100
38062
38106
38102
38081
38108
38071
38080
38094
38055
38032
37985
37995
38056
38011
38022
38055
38013
37989
37973
37997
38036
37986
38010
38026
37967
37995
38032
38015
38005
37971
37994
37999
37998
38047
38006
37974
38051
38061
38054
38018
37980
38035
38055
38043
38061
38026
38046
38051
38001
38012
38022
38051
38104
38061
38067
38086
38077
38130
38126
38082
38116
38137
38159
38130
38102
38141
38115
38119
38197
38165
38156
38169
38146
38164
38156
38144
38165
38144
38196
38216
38157
38171
38172
38144
38162
38159
38182
38145
38097
38163
38179
38152
38188
38192
38216
38199
38166
38223
38212
38148
38160
38172
38228
38237
38198
38214
38175
38146
38224
38229
38180
38121
38128
38194
38156
38147
38232
38198
38180
38221
38243
38258
38220
38225
38285
38251
38254
38257
38208
38224
38234
38223
38226
38185
38211
38219
38184
38216
38199
38136
38108
38074
38138
38174
38112
38097
38091
38095
38112
38056
38078
38098
38044
38045
38043
38035
38049
38010
38033
38028
37956
37950
37924
37892
37918
37900
37906
37889
37868
37928
37930
37904
37921
37877
37898
37945
37948
37960
37918
37906
37965
37946
37957
37978
37948
37927
37907
37969
38021
37896
37869
37940
37934
37944
37970
37988
37991
37946
37985
37988
37928
37970
38014
38011
38003
37962
38011
38043
38004
38017
38023
38036
38058
37995
38021
38075
38054
38065
38062
38055
38071
38023
38034
38064
38073
38117
38105
38112
38174
38131
38107
38106
38094
38124
38101
38077
38104
38074
38101
38129
38112
38155
38177
38184
38218
38198
38241
38276
38242
38243
38240
38281
38347
38293
38293
38313
38267
38250
38228
38229
38254
38210
38232
38237
38186
38240
38306
38325
38342
38294
38276
38255
38262
38336
38299
38236
38276
38273
38279
38278
38271
38306
38282
38275
38318
38270
38272
38279
38235
38270
38287
38255
38283
38327
38390
38368
38334
38402
38394
38341
38350
38317
38335
38345
38321
38363
38364
38331
38329
38282
38292
38301
38284
38330
38328
38301
38304
38233
38208
38202
38182
38210
38187
38165
38189
38125
38097
38093
38077
38107
38081
38039
38042
37990
37996
38002
37960
37964
37948
37947
37982
37941
37960
37996
37985
38003
37976
37942
37945
37907
37954
37970
37881
37858
37867
37866
37858
37786
37789
37806
37802
37853
37838
37798
37821
37806
37832
37845
37828
37869
37867
37860
37905
37883
37900
37918
37890
37879
37841
37850
37897
37842
37863
37894
37834
37841
37892
37921
37926
37875
37903
37933
37923
37943
37907
37895
37953
37922
37915
37915
37883
37899
37881
37875
37922
37890
37880
37874
37860
37904
37895
37892
37962
37947
37930
37939
37966
37994
37936
37945
38035
37980
37944
37969
37968
37985
37962
37952
38010
38009
38012
37999
37991
38032
37997
37970
38001
37958
37987
38026
37974
37959
37961
37973
38013
38006
38046
38039
37976
38005
38025
38020
38052
38049
38092
38089
38031
38048
38066
38079
38075
37995
38055
38130
38065
38046
38076
38089
38097
38073
38106
38100
38059
38085
38078
38096
38146
38080
38069
38088
38050
38069
38088
38098
38132
38099
38086
38068
38064
38114
38077
38045
38091
38050
38036
38052
38049
38067
38015
37969
38001
37958
37919
37891
37882
37918
37872
37837
37880
37839
37819
37811
37772
37771
37738
37722
37741
37674
37662
37666
37624
37626
37616
37607
37605
37531
37544
37567
37514
37514
37522
37523
37526
37481
37529
37543
37458
37463
37512
37545
37565
37522
37549
37557
37513
37529
37506
37472
37502
37482
37484
37484
37478
37503
37457
37458
37559
37550
37527
37534
37543
37566
37539
37567
37641
37589
37601
37667
37674
37701
37705
37702
37735
37714
37720
37714
37719
37785
37748
37679
37703
37696
37707
37691
37662
37710
37717
37717
37771
37769
37809
37826
37790
37831
37863
37868
37882
37838
37861
37888
37861
37851
37809
37808
37842
37780
37804
37867
37846
37848
37848
37846
37856
37808
37832
37867
37863
37889
37850
37817
37866
37853
37850
37838
37819
37861
37853
37849
37907
37880
37871
37886
37890
37909
37868
37875
37945
37903
37898
37923
37905
37917
37896
37874
37908
37910
37948
37932
37871
37910
37927
37908
37927
37909
37936
37949
37952
38018
37988
37923
37975
37996
37979
37949
37983
38054
37994
37968
38035
37985
37970
37985
37940
37968
38016
38015
38006
37984
38026
38004
37934
37970
38002
38004
38001
37937
37984
38039
37995
37999
38013
38006
38001
37964
38021
38043
37971
37958
37944
37920
37918
37863
37864
37847
37790
37810
37811
37798
37811
37758
37764
37779
37753
37761
37727
37705
37733
37684
37683
37699
37690
37729
37706
37656
37682
37687
37706
37671
37623
37677
37690
37670
37688
37638
37627
37643
37648
37667
37629
37658
37766
37734
37701
37710
37716
37754
37739
37731
37796
37789
37773
37740
37713
37752
37738
37736
37784
37744
37763
37810
37802
37816
37798
37786
37830
37830
37873
37878
37830
37851
37855
37853
37891
37858
37853
37848
37828
37852
37823
37810
37849
37803
37801
37804
37761
37777
37779
37764
37770
37728
37755
37781
37770
37806
37791
37760
37773
37736
37758
37764
37720
37748
37756
37742
37771
37749
37749
37742
37744
37795
37767
37753
37816
37795
37804
37820
37785
37797
37807
37829
37866
37799
37776
37798
37803
37805
37746
37743
37801
37745
37748
37800
37791
37792
37774
37772
37793
37741
37756
37773
37740
37765
37759
37737
37777
37785
37807
37778
37734
37774
37751
37703
37741
37743
37744
37700
37648
37689
37684
37665
37711
37701
37707
37688
37654
37696
37685
37646
37668
37641
37636
37629
37625
37662
37612
37566
37603
37572
37562
37547
37510
37542
37556
37558
37568
37498
37499
37515
37481
37491
37463
37415
37418
37400
37438
37435
37376
37392
37389
37372
37395
37369
37393
37414
37401
37437
37428
37397
37383
37315
37356
37402
37338
37311
37321
37344
37350
37272
37287
37328
37304
37298
37267
37268
37318
37274
37259
37259
37260
37327
37325
37279
37288
37281
37325
37326
37281
37324
37333
37296
37303
37289
37319
37319
37289
37314
37280
37244
37279
37261
37292
37319
37290
37303
37298
37307
37355
37317
37318
37346
37345
37347
37299
37303
37355
37281
37265
37330
37360
37354
37282
37262
37323
37305
37321
37333
37294
37299
37280
37262
37293
37279
37320
37363
37372
37412
37390
37377
37428
37390
37366
37371
37388
37430
37393
37368
37402
37357
37375
37413
37386
37396
37394
37376
37372
37338
37405
37449
37401
37410
37405
37370
37368
37339
37360
37365
37355
37405
37402
37402
37441
37380
37366
37380
37367
37411
37414
37382
37394
37368
37369
37364
37365
37404
37359
37337
37387
37342
37351
37395
37371
37356
37322
37311
37351
37321
37314
37306
37283
37300
37280
37308
37390
37348
37330
37335
37298
37306
37296
37280
37293
37249
37261
37272
37233
37220
37182
37196
37255
37193
37165
37175
37154
37164
37138
37115
37135
37092
37099
37123
37112
37112
37056
37037
37086
37034
37011
37021
37008
37027
37002
36980
36995
36940
36955
36988
36976
37003
37012
37035
37091
37072
37094
37098
37053
37078
37101
37111
37121
37062
37083
37099
37049
37066
37083
37078
37091
37059
37085
37087
37040
37053
37027
36995
37031
37004
36988
36992
37020
37058
36995
36996
37129
37156
37167
37188
37187
37226
37225
37222
37255
37227
37259
37280
37246
37275
37278
37259
37301
37306
37310
37275
37247
37286
37262
37250
37284
37214
37205
37236
37207
37215
37230
37252
37277
37246
37309
37342
37263
37249
37267
37295
37349
37333
37318
37266
37239
37333
37356
37311
37330
37330
37352
37339
37314
37359
37349
37337
37392
37384
37411
37435
37417
37435
37422
37423
37469
37451
37498
37521
37450
37439
37467
37506
37536
37479
37494
37524
37496
37493
37487
37535
37611
37557
37542
37559
37531
37536
37543
37580
37622
37565
37589
37641
37621
37627
37615
37604
37619
37573
37574
37548
37479
37499
37500
37458
37434
37366
37361
37371
37363
37389
37357
37360
37436
37405
37378
37376
37364
37378
37345
37349
37411
37375
37367
37355
37299
37321
37346
37340
37333
37277
37308
37349
37342
37366
37339
37320
37358
37328
37341
37347
37312
37336
37337
37341
37396
37384
37395
37406
37407
37453
37449
37469
37535
37488
37479
37499
37478
37491
37491
37524
37601
37575
37555
37543
37545
37620
37646
37650
37676
37625
37638
37669
37638
37625
37634
37699
37706
37548
37547
37645
37602
37553
37561
37588
37602
37551
37554
37555
37551
37591
37563
37556
37614
37573
37577
37604
37575
37575
37551
37541
37588
37565
37552
37532
37528
37592
37586
37570
37618
37597
37604
37604
37577
37622
37646
37649
37669
37631
37650
37642
37579
37617
37660
37656
37638
37580
37612
37625
37573
37594
37597
37579
37609
37575
37535
37497
37504
37570
37537
37512
37558
37496
37477
37529
37542
37519
37464
37508
37602
37537
37508
37555
37571
37589
37586
37621
37673
37626
37656
37707
37685
37707
37738
37759
37770
37722
37772
37808
37751
37748
37753
37751
37766
37722
37727
37723
37695
37728
37718
37708
37748
37717
37731
37741
37704
37733
37752
37763
37796
37751
37744
37739
37726
37782
37773
37726
37742
37724
37735
37740
37747
37802
37775
37749
37801
37790
37819
37850
37850
37914
37935
37908
37916
37911
37974
38000
37950
37937
37913
37920
37949
37882
37900
37953
37916
37888
37870
37890
37922
37865
37887
37932
37918
37946
37969
38006
38061
38032
38064
38096
38069
38090
38083
38053
38045
37978
37973
37981
37951
37940
37887
37876
37909
37824
37790
37801
37766
37765
37764
37783
37798
37715
37725
37776
37763
37765
37740
37731
37769
37726
37708
37707
37712
37755
37706
37660
37712
37690
37653
37619
37603
37626
37600
37633
37712
37650
37644
37693
37687
37720
37740
37731
37749
37753
37817
37850
37846
37878
37842
37815
37856
37825
37847
37886
37864
37860
37840
37848
37870
37792
37792
37832
37814
37820
37796
37779
37814
37789
37782
37750
37712
37763
37771
37759
37786
37729
37694
37684
37688
37733
37703
37679
37710
37666
37685
37705
37652
37666
37679
37652
37643
37609
37627
37642
37652
37688
37649
37650
37697
37617
37614
37662
37609
37570
37554
37551
37558
37497
37474
37441
37399
37421
37396
37368
37368
37289
37305
37347
37296
37265
37227
37206
37258
37258
37246
37225
37251
37312
37231
37160
37221
37207
37182
37167
37142
37145
37105
37095
37134
37081
37080
37084
37026
37036
37052
37044
37051
37036
37101
37131
37089
37094
37074
37064
37118
37115
37138
37130
37084
37109
37098
37075
37126
37133
37132
37090
37059
37122
37125
37109
37159
37140
37127
37114
37098
37130
37125
37150
37199
37127
37123
37154
37121
37150
37189
37180
37157
37114
37163
37176
37124
37142
37152
37160
37180
37130
37163
37189
37148
37198
37248
37241
37270
37290
37315
37267
37233
37312
37318
37287
37318
37284
37280
37292
37291
37325
37295
37274
37312
37279
37293
37311
37284
37309
37296
37266
37311
37312
37295
37257
37250
37277
37226
37251
37353
37280
37228
37282
37320
37338
37306
37298
37326
37267
37267
37295
37278
37269
37232
37252
37334
37311
37316
37341
37330
37342
37320
37336
37411
37386
37372
37381
37391
37428
37396
37388
37456
37432
37424
37442
37454
37488
37459
37453
37508
37464
37438
37436
37421
37439
37408
37390
37426
37374
37359
37374
37358
37339
37276
37270
37305
37212
37186
37245
37268
37279
37251
37252
37286
37239
37262
37285
37230
37220
37204
37180
37198
37178
37195
37187
37163
37202
37167
37116
37155
37143
37135
37135
37152
37182
37104
37057
37122
37103
37093
37095
37077
37102
37078
37045
37074
37077
37132
37155
37120
37144
37147
37139
37145
37089
37118
37144
37086
37074
37053
37031
37073
37083
37096
37058
37009
37032
37023
37047
37111
37062
37073
37104
37049
37041
37055
37063
37077
37051
37090
37093
37038
37051
37042
37026
37050
37012
37018
37027
37006
37028
37015
37022
37078
37043
37051
37075
37046
37032
37006
37035
37107
37061
37049
37079
37089
37116
37083
37068
37140
37139
37125
37102
37098
37152
37133
37124
37195
37197
37227
37246
37214
37239
37257
37281
37337
37327
37367
37399
37372
37380
37372
37402
37464
37391
37325
37303
37293
37306
37250
37218
37257
37216
37216
37230
37210
37248
37256
37234
37236
37207
37256
37285
37249
37268
37270
37261
37277
37232
37252
37277
37246
37238
37193
37172
37202
37148
37136
37137
37105
37121
37098
37060
37056
37010
37044
37067
37007
36984
36950
36929
36956
36929
36937
36906
36841
36881
36885
36820
36806
36797
36820
36810
36797
36832
36785
36754
36791
36730
36714
36733
36700
36699
36692
36705
36745
36683
36634
36625
36651
36704
36671
36664
36715
36657
36656
36711
36707
36700
36683
36705
36745
36689
36696
36716
36681
36703
36714
36703
36714
36675
36677
36672
36645
36653
36617
36622
36671
36603
36599
36657
36660
36657
36635
36653
36699
36652
36656
36671
36648
36686
36691
36672
36717
36731
36748
36729
36725
36792
36770
36739
36787
36764
36758
36767
36771
36815
36801
36800
36884
36892
36880
36855
36839
36868
36841
36848
36909
36858
36857
36903
36902
36911
36897
36905
36935
36885
36904
36927
36893
36925
36960
36978
37005
36960
36954
36940
36911
36948
36940
36924
36951
36910
36920
36926
36884
36894
36888
36880
36903
36869
36895
36903
36863
36910
36940
36933
36979
36992
37005
36969
36946
37001
36969
36924
36978
36980
36990
36998
36993
37019
36996
37007
37067
37020
37024
37045
37003
37008
37001
36962
36958
36938
36968
36965
36922
36913
36876
36902
36954
36830
36755
36798
36831
36837
36763
36713
36747
36719
36709
36719
36732
36751
36685
36663
36722
36665
36618
36624
36619
36617
36568
36561
36595
36531
36543
36590
36563
36560
36534
36494
36513
36509
36523
36529
36549
36585
36537
36555
36635
36575
36581
36634
36580
36557
36579
36581
36556
36507
36561
36584
36535
36552
36565
36585
36642
36622
36628
36628
36609
36651
36657
36672
36738
36714
36698
36695
36699
36749
36732
36714
36751
36723
36743
36752
36697
36708
36726
36732
36739
36673
36666
36674
36659
36690
36687
36698
36730
36663
36665
36701
36684
36711
36726
36738
36787
36767
36749
36715
36692
36727
36707
36716
36784
36733
36707
36737
36749
36759
36726
36749
36818
36770
36769
36818
36823
36826
36794
36801
36862
36838
36851
36867
36845
36869
36877
36905
36967
36928
36912
36918
36918
36954
36930
36917
36966
36931
36919
36925
36931
36993
36992
36963
36973
36936
36971
37009
37004
37054
37050
37007
37026
37028
37047
37019
36985
37036
37038
37033
37071
37023
37029
37075
37094
37121
37085
37060
37097
37071
37087
37097
37067
37097
37096
37081
37106
37079
37094
37086
37041
37070
37064
37027
37023
36974
36983
36983
36932
36914
36876
36892
36974
36951
36933
36918
36894
36949
36969
36946
36931
36868
36885
36896
36845
36857
36839
36785
36768
36733
36750
36734
36679
36687
36671
36672
36719
36681
36687
36708
36684
36698
36691
36709
36790
36796
36797
36784
36767
36803
36790
36791
36815
36742
36759
36810
36772
36764
36753
36713
36688
36649
36685
36690
36648
36662
36633
36613
36675
36682
36692
36681
36657
36690
36665
36646
36704
36709
36737
36737
36701
36751
36762
36731
36770
36786
36774
36708
36693
36787
36796
36780
36822
36789
36800
36830
36831
36898
36923
36895
36917
36934
36981
36979
36966
37028
37024
37000
37018
36959
36959
36990
36986
37015
37009
37001
37027
36990
37011
37037
37027
37063
37055
37038
37070
37053
37076
37061
37007
37060
37095
37067
37053
37019
37051
37061
37044
37098
37095
37062
37084
37054
37049
37033
37011
37057
37048
37032
37085
37079
37091
37083
37043
37058
37049
37063
37129
37087
37048
37044
37055
37076
37003
36955
36993
36935
36892
36883
36882
36935
36929
36890
36872
36802
36813
36833
36789
36786
36764
36744
36764
36729
36745
36766
36753
36769
36740
36738
36772
36694
36660
36663
36622
36598
36553
36544
36585
36548
36545
36532
36483
36518
36547
36551
36570
36539
36574
36610
36609
36646
36620
36596
36668
36678
36650
36598
36586
36641
36595
36547
36599
36585
36578
36581
36575
36610
36605
36617
36668
36618
36604
36619
36614
36658
36672
36684
36720
36673
36672
36702
36707
36712
36663
36668
36739
36716
36744
36766
36695
36686
36721
36749
36761
36710
36725
36741
36737
36797
36803
36788
36823
36806
36834
36873
36869
36855
36789
36789
36858
36812
36811
36844
36814
36814
36820
36835
36846
36791
36835
36884
36841
36828
36831
36865
36915
36896
36965
37030
36997
37000
37002
37007
37045
37040
37086
37100
37061
37084
37085
37087
37124
37079
37076
37090
37077
37092
37055
37042
37102
37068
37034
37024
37036
37092
37090
37108
37146
37067
37076
37142
37138
37154
37146
37124
37165
37187
37207
37165
37121
37146
37121
37137
37213
37173
37189
37249
37243
37260
37252
37235
37270
37260
37254
37229
37239
37310
37268
37219
37277
37248
37185
37141
37129
37138
37059
37026
37069
37001
36982
37004
36964
36948
36939
36948
36976
36940
36978
37010
36987
37020
37013
36977
37008
37001
36981
36921
36896
36959
36930
36878
36914
36890
36881
36887
36877
36877
36839
36860
36910
36834
36847
36901
36860
36874
36921
36922
36920
36910
36946
36911
36863
36934
36955
36917
36914
36883
36930
36962
36922
36934
36943
36964
37025
37015
37034
37049
37045
37097
37105
37106
37134
37085
37102
37119
37061
37051
37046
37047
37070
37026
37030
37029
37000
37036
37034
37025
37068
37042
37038
37034
37027
37089
37093
37068
37084
37042
37059
37092
37091
37112
37082
37075
37137
37126
37148
37169
37150
37176
37172
37176
37238
37222
37212
37199
37198
37271
37298
37317
37359
37296
37280
37305
37294
37296
37269
37284
37336
37276
37267
37303
37310
37343
37341
37349
37391
37354
37370
37390
37367
37386
37350
37296
37310
37296
37305
37271
37233
37299
37309
37265
37279
37264
37276
37280
37301
37386
37378
37343
37392
37397
37426
37430
37385
37392
37398
37424
37429
37305
37281
37308
37241
37189
37150
37127
37134
37085
37075
37044
36997
37030
37029
37031
37080
37044
37045
37076
37078
37073
37019
37028
37085
37021
37023
37063
37011
36962
36920
36902
36901
36842
36855
36842
36754
36748
36747
36727
36752
36746
36761
36755
36756
36814
36798
36797
36855
36802
36787
36826
36837
36848
36795
36757
36794
36783
36801
36788
36734
36762
36777
36785
36842
36823
36797
36778
36804
36882
36872
36881
36956
36929
36952
36995
36959
36952
36942
36919
36917
36861
36855
36872
36894
36931
36886
36887
36956
36906
36902
36932
36899
36903
36917
36936
36966
36937
36973
36998
36973
36996
36974
36946
36988
36988
37014
37013
36980
36999
36983
36986
37038
36991
36983
37015
37027
37062
37041
37037
37096
37085
37104
37114
37081
37100
37096
37093
37120
37061
37047
37069
37086
37128
37101
37088
37133
37086
37071
37082
37071
37098
37091
37093
37128
37098
37155
37231
37231
37254
37253
37250
37279
37264
37314
37322
37256
37279
37301
37274
37262
37233
37278
37287
37240
37263
37265
37258
37273
37208
37205
37232
37224
37243
37229
37240
37299
37268
37274
37284
37251
37269
37266
37259
37276
37212
37190
37185
37160
37165
37112
37071
37089
37024
36995
36996
36981
36999
36969
36949
36974
36921
36926
36953
36936
36951
36941
36938
36952
36888
36896
36914
36880
36903
36895
36842
36816
36771
36778
36755
36722
36788
36783
36715
36726
36733
36743
36693
36640
36678
36675
36673
36713
36664
36671
36705
36688
36702
36692
36686
36728
36737
36798
36817
36766
36778
36773
36755
36777
36767
36821
36847
36808
36817
36790
36755
36783
36772
36785
36788
36786
36829
36820
36842
36923
36893
36896
36938
36937
36938
36899
36892
36942
36894
36853
36811
36765
36803
36827
36852
36901
36864
36878
36922
36936
36956
36919
36917
36992
36993
37026
37038
36987
37000
37019
37025
37038
36987
37000
37006
36965
36990
37001
37010
37047
37014
37038
37077
37076
37105
37094
37103
37171
37154
37158
37161
37129
37138
37119
37127
37179
37137
37141
37168
37158
37179
37166
37171
37232
37216
37217
37203
37177
37229
37242
37236
37273
37261
37297
37313
37285
37329
37335
37300
37308
37287
37310
37324
37329
37378
37349
37323
37376
37347
37324
37316
37311
37345
37306
37272
37309
37269
37257
37274
37284
37319
37267
37210
37246
37227
37211
37190
37175
37204
37149
37100
37142
37111
37089
37092
37090
37083
37006
37000
37074
37021
37002
37032
37015
37011
36989
36992
37037
37006
37004
36994
36957
36981
36995
37030
37070
36991
36983
37023
37000
36984
36975
37018
37056
36973
36980
37023
36981
36975
36983
36984
36997
36965
36997
37006
36971
37002
36999
36990
37037
37013
37003
37009
37026
37064
37015
37003
37076
37043
37029
37042
37035
37072
37076
37065
37077
37046
37103
37131
37067
37072
37084
37074
37103
37096
37105
37093
37111
37192
37170
37131
37152
37104
37135
37190
37166
37178
37186
37179
37199
37172
37188
37211
37234
37279
37246
37261
37344
37289
37258
37284
37289
37318
37293
37268
37331
37356
37361
37330
37328
37396
37388
37395
37456
37407
37408
37446
37432
37464
37481
37468
37475
37463
37516
37516
37441
37442
37454
37482
37528
37484
37492
37505
37466
37477
37466
37464
37525
37527
37537
37524
37503
37547
37546
37568
37649
37613
37578
37577
37592
37644
37618
37594
37642
37604
37568
37561
37565
37578
37496
37448
37489
37432
37402
37417
37414
37436
37425
37444
37494
37425
37387
37401
37402
37402
37344
37333
37376
37317
37310
37315
37242
37230
37257
37281
37273
37193
37226
37264
37216
37224
37225
37203
37228
37224
37243
37231
37228
37291
37266
37231
37267
37229
37231
37240
37203
37213
37195
37176
37220
37214
37223
37211
37202
37264
37273
37292
37374
37355
37332
37317
37318
37397
37419
37403
37418
37372
37380
37408
37403
37408
37373
37389
37441
37378
37392
37441
37401
37391
37396
37408
37444
37424
37430
37410
37383
37437
37453
37478
37537
37492
37500
37545
37538
37536
37496
37489
37542
37510
37496
37486
37457
37469
37435
37423
37481
37456
37452
37462
37465
37516
37511
37507
37559
37542
37559
37559
37517
37556
37567
37551
37605
37637
37658
37614
37582
37645
37658
37672
37729
37679
37664
37670
37635
37659
37678
37682
37679
37615
37652
37692
37647
37652
37659
37662
37685
37649
37669
37683
37662
37690
37667
37648
37703
37701
37721
37736
37735
37775
37755
37740
37774
37730
37746
37781
37741
37704
37658
37666
37705
37637
37630
37641
37572
37530
37490
37482
37535
37500
37445
37396
37401
37460
37419
37398
37453
37406
37403
37443
37437
37457
37453
37442
37457
37410
37412
37414
37381
37372
37301
37253
37277
37225
37210
37222
37217
37235
37175
37113
37145
37152
37188
37194
37175
37228
37239
37228
37248
37215
37247
37266
37231
37277
37314
37310
37310
37258
37257
37240
37203
37250
37252
37221
37242
37228
37271
37320
37331
37356
37340
37370
37428
37362
37385
37474
37473
37449
37409
37402
37434
37400
37423
37444
37416
37418
37377
37357
37407
37387
37394
37412
37417
37451
37422
37421
37496
37484
37485
37484
37451
37467
37456
37449
37471
37421
37447
37502
37499
37498
37446
37424
37483
37476
37491
37516
37533
37580
37541
37500
37532
37513
37545
37551
37489
37509
37537
37532
37529
37487
37515
37513
37456
37476
37503
37532
37556
37488
37506
37551
37520
37522
37526
37537
37553
37489
37505
37547
37530
37523
37481
37482
37549
37519
37495
37474
37450
37494
37484
37456
37503
37507
37510
37485
37458
37497
37493
37508
37546
37456
37426
37455
37444
37451
37422
37381
37371
37316
37327
37324
37266
37261
37241
37231
37249
37181
37171
37182
37164
37198
37189
37156
37169
37122
37095
37070
37051
37069
37016
36983
36996
36902
36878
36907
36879
36871
36854
36852
36882
36859
36885
36856
36769
36805
36847
36823
36820
36818
36858
36844
36809
36844
36813
36788
36856
36860
36877
36889
36877
36906
36888
36880
36929
36893
36882
36893
36895
36924
36894
36893
36978
36982
36987
36979
36943
36959
36953
36976
37042
36998
36971
36974
36974
37007
36965
36920
36955
36944
36964
36977
36958
36969
36924
36907
36990
36993
36971
36957
36974
37019
36980
36975
37027
36964
36964
37009
36976
36968
36979
36996
37014
36972
37009
37050
37033
37040
37017
37028
37089
37062
37078
37100
37071
37098
37127
37162
37193
37123
37123
37154
37149
37184
37165
37122
37146
37144
37171
37164
37145
37203
37202
37182
37219
37202
37230
37261
37263
37314
37314
37301
37346
37327
37327
37325
37318
37356
37339
37343
37394
37334
37313
37334
37322
37338
37343
37387
37450
37405
37414
37420
37356
37362
37386
37391
37407
37372
37387
37387
37374
37419
37379
37310
37329
37317
37317
37281
37230
37256
37233
37193
37212
37185
37199
37193
37145
37175
37191
37189
37215
37165
37139
37121
37096
37103
37069
37085
37135
37044
37017
37065
37049
37017
36983
37005
37046
36979
36982
37010
36976
36978
36965
36952
36985
36962
36960
36943
36936
36994
36974
36943
36991
36974
36976
36997
37005
37014
36951
36945
37014
36986
37014
37039
36977
36999
37062
37082
37092
37079
37127
37136
37120
37175
37178
37180
37234
37199
37198
37219
37219
37257
37239
37224
37285
37281
37270
37253
37244
37278
37246
37245
37301
37244
37236
37275
37265
37267
37264
37289
37307
37228
37251
37287
37227
37232
37267
37273
37275
37248
37285
37285
37254
37314
37332
37313
37343
37322
37329
37339
37340
37369
37344
37363
37419
37352
37360
37398
37343
37350
37390
37392
37392
37373
37400
37383
37355
37400
37385
37379
37446
37413
37396
37432
37471
37507
37479
37494
37524
37413
37403
37482
37475
37457
37440
37435
37444
37405
37437
37437
37385
37431
37461
37442
37457
37463
37518
37510
37450
37473
37463
37433
37461
37434
37420
37390
37348
37354
37295
37252
37299
37267
37239
37221
37209
37255
37245
37227
37251
37209
37235
37269
37239
37247
37235
37213
37218
37161
37152
37137
37100
37130
37113
37079
37105
37086
37094
37075
37022
37028
37009
37007
37046
37014
37052
37081
37030
37050
37085
37090
37101
37081
37128
37141
37099
37115
37100
37089
37135
37113
37127
37139
37117
37137
37114
37103
37157
37146
37159
37154
37111
37120
37104
37104
37153
37132
37152
37138
37052
37059
37091
37107
37140
37117
37128
37126
37111
37142
37103
37073
37108
37070
37087
37123
37105
37117
37100
37083
37115
37103
37143
37158
37122
37156
37176
37197
37258
37242
37249
37257
37249
37280
37248
37222
37258
37218
37214
37232
37226
37249
37236
37252
37306
37262
37267
37283
37242
37258
37273
37279
37302
37260
37259
37248
37220
37255
37254
37254
37283
37231
37253
37292
37250
37230
37205
37208
37263
37243
37245
37255
37263
37300
37278
37297
37375
37333
37330
37369
37362
37374
37362
37363
37401
37372
37392
37409
37383
37395
37366
37338
37350
37281
37252
37243
37223
37251
37215
37174
37225
37217
37175
37105
37077
37135
37103
37067
37139
37133
37086
37035
37030
37091
37064
37026
37043
36989
37005
37046
37016
37012
36992
36971
36978
36924
36923
36933
36919
36917
36831
36778
36842
36842
36828
36795
36775
36850
36863
36824
36842
36828
36834
36823
36815
36857
36817
36786
36846
36820
36793
36790
36808
36866
36842
36810
36841
36823
36871
36903
36850
36860
36889
36914
36962
36966
37020
37038
37003
37029
37053
37105
37165
37088
37062
37106
37130
37149
37108
37086
37100
37040
37071
37117
37064
37039
37029
37036
37072
37049
37067
37069
37051
37103
37112
37116
37179
37183
37219
37236
37212
37251
37264
37265
37291
37234
37211
37207
37207
37269
37256
37206
37225
37208
37215
37196
37164
37205
37202
37198
37244
37215
37223
37232
37212
37270
37316
37333
37342
37289
37342
37425
37451
37514
37537
37527
37546
37515
37520
37508
37472
37480
37446
37453
37520
37479
37471
37490
37470
37483
37482
37495
37515
37451
37479
37539
37529
37546
37552
37556
37570
37519
37545
37565
37507
37492
37474
37464
37474
37403
37389
37402
37382
37383
37358
37388
37458
37395
37365
37368
37322
37308
37294
37302
37324
37262
37268
37287
37240
37218
37177
37164
37213
37178
37154
37152
37162
37187
37118
37083
37130
37064
37016
37021
37030
37071
37051
37030
37070
37047
37049
37037
37017
37088
37106
37071
37087
37087
37117
37098
37050
37082
37084
37086
37137
37104
37096
37095
37069
37087
37082
37099
37126
37041
37047
37122
37140
37153
37144
37172
37233
37191
37189
37214
37222
37261
37215
37151
37193
37219
37247
37238
37234
37277
37233
37210
37278
37264
37271
37289
37284
37342
37356
37326
37337
37324
37353
37343
37296
37319
37318
37328
37376
37329
37325
37346
37334
37355
37342
37347
37400
37370
37377
37396
37388
37420
37402
37385
37423
37378
37354
37360
37369
37387
37333
37337
37418
37369
37339
37361
37356
37359
37336
37361
37427
37389
37398
37419
37392
37420
37424
37397
37399
37364
37380
37385
37366
37393
37381
37408
37489
37446
37424
37434
37426
37472
37479
37464
37475
37419
37402
37384
37355
37390
37370
37354
37431
37423
37367
37321
37341
37391
37310
37272
37356
37323
37282
37299
37305
37283
37214
37241
37320
37247
37213
37221
37179
37209
37249
37235
37205
37146
37153
37135
37095
37124
37109
37096
37123
37053
37028
37044
37039
37060
37024
36984
36998
36962
36984
36999
36965
36993
37001
37000
37031
37006
37031
37038
37009
37059
37084
37082
37104
37057
37054
37075
37090
37121
37054
36992
37030
37004
36982
36966
36960
37009
36988
36957
36992
36993
37062
37102
37056
37082
37117
37129
37165
37156
37177
37182
37177
37200
37140
37118
37185
37145
37129
37156
37156
37156
37089
37048
37110
37122
37138
37135
37130
37172
37140
37108
37149
37127
37135
37132
37100
37147
37169
37148
37144
37112
37163
37196
37160
37174
37170
37177
37240
37223
37213
37219
37246
37304
37256
37221
37291
37280
37269
37279
37290
37314
37271
37269
37325
37279
37295
37338
37314
37331
37332
37300
37301
37283
37303
37287
37268
37335
37351
37363
37430
37406
37406
37421
37421
37478
37489
37484
37515
37483
37499
37519
37505
37527
37509
37517
37582
37558
37553
37532
37468
37471
37451
37416
37436
37417
37422
37399
37353
37366
37346
37361
37412
37334
37295
37316
37314
37326
37290
37264
37271
37213
37231
37239
37185
37229
37260
37201
37165
37149
37175
37147
37115
37143
37104
37109
37178
37123
37123
37170
37143
37138
37135
37135
37160
37134
37152
37151
37122
37150
37136
37123
37131
37055
37073
37131
37107
37087
37073
37099
37133
37074
37107
37175
37175
37203
37209
37206
37234
37211
37233
37237
37218
37266
37245
37193
37227
37241
37258
37211
37154
37213
37237
37216
37216
37159
37165
37193
37207
37263
37238
37185
37220
37237
37276
37289
37286
37330
37310
37309
37375
37357
37377
37414
37403
37404
37373
37372
37427
37419
37457
37446
37362
37407
37459
37409
37375
37387
37454
37438
37400
37452
37453
37460
37516
37482
37526
37601
37583
37569
37545
37537
37571
37555
37590
37614
37600
37633
37626
37620
37639
37576
37598
37652
37635
37639
37639
37663
37700
37648
37666
37695
37672
37703
37700
37668
37687
37670
37668
37643
37622
37654
37606
37584
37661
37629
37573
37539
37525
37556
37523
37501
37521
37449
37447
37484
37461
37464
37448
37432
37441
37385
37377
37373
37342
37351
37322
37306
37308
37219
37235
37295
37254
37224
37211
37232
37279
37244
37245
37239
37207
37229
37222
37226
37255
37182
37179
37228
37239
37260
37243
37251
37313
37292
37308
37334
37322
37338
37329
37362
37429
37367
37339
37371
37390
37400
37349
37347
37400
37334
37301
37307
37287
37304
37288
37277
37317
37298
37315
37316
37290
37336
37335
37311
37352
37345
37343
37318
37292
37323
37301
37303
37361
37312
37304
37345
37356
37377
37369
37387
37422
37358
37371
37398
37347
37352
37377
37386
37390
37342
37369
37384
37342
37347
37332
37353
37443
37424
37381
37368
37403
37471
37444
37437
37484
37432
37467
37535
37499
37497
37526
37552
37588
37558
37545
37534
37550
37598
37553
37562
37646
37570
37501
37516
37541
37583
37556
37519
37526
37488
37520
37545
37502
37504
37511
37544
37593
37541
37552
37594
37596
37629
37620
37606
37638
37623
37666
37681
37625
37631
37635
37638
37660
37621
37655
37676
37633
37659
37664
37632
37634
37586
37554
37508
37483
37521
37475
37443
37510
37484
37441
37409
37391
37425
37398
37370
37390
37348
37379
37407
37343
37319
37309
37307
37325
37287
37310
37300
37231
37244
37257
37254
37280
37244
37235
37211
37182
37228
37209
37167
37197
37179
37174
37153
37132
37172
37149
37126
37170
37139
37129
37126
37122
37196
37206
37162
37174
37160
37168
37154
37149
37210
37193
37160
37193
37152
37139
37145
37135
37160
37152
37164
37191
37115
37131
37190
37158
37139
37139
37166
37198
37157
37198
37231
37187
37199
37199
37183
37208
37188
37189
37168
37157
37226
37225
37199
37224
37192
37223
37248
37203
37210
37217
37235
37299
37299
37315
37308
37298
37369
37367
37318
37327
37306
37332
37349
37329
37340
37320
37345
37412
37355
37348
37399
37390
37359
37326
37391
37483
37416
37400
37449
37469
37529
37548
37521
37536
37540
37574
37556
37524
37568
37544
37500
37513
37474
37501
37530
37504
37538
37569
37590
37617
37572
37594
37620
37606
37650
37666
37671
37711
37693
37726
37745
37717
37739
37720
37680
37665
37588
37570
37556
37501
37500
37462
37416
37426
37396
37408
37394
37347
37373
37353
37308
37333
37336
37357
37311
37241
37303
37334
37281
37253
37237
37297
37306
37253
37272
37260
37238
37276
37255
37243
37216
37191
37233
37196
37136
37165
37147
37129
37095
37070
37112
37085
37052
37095
37076
37083
37093
37079
37106
37091
37089
37131
37094
37118
37159
37147
37169
37147
37104
37120
37102
37105
37077
37039
37062
37031
37010
37041
36991
37000
37021
36969
36952
36929
36914
36941
36928
36983
37033
37031
37060
37064
37112
37210
37192
37197
37229
37230
37249
37222
37207
37224
37147
37119
37125
37103
37107
37076
37070
37095
37035
37046
37073
37033
37049
37080
37105
37131
37103
37166
37222
37204
37235
37234
37211
37243
37231
37222
37192
37178
37214
37170
37154
37217
37173
37167
37215
37220
37217
37194
37232
37299
37235
37222
37255
37230
37208
37180
37202
37250
37197
37204
37215
37159
37164
37188
37209
37233
37184
37192
37208
37195
37226
37221
37225
37244
37173
37200
37268
37260
37286
37293
37265
37249
37195
37202
37201
37177
37193
37134
37078
37107
37080
37091
37114
37100
37094
37041
37036
37102
37067
37061
37079
37052
37037
36985
36964
36996
36931
36892
36880
36869
36908
36889
36870
36923
36905
36895
36892
36890
36904
36845
36844
36933
36899
36861
36848
36834
36880
36891
36873
36876
36829
36854
36887
36869
36880
36879
36914
36947
36836
36792
36825
36816
36802
36773
36806
36878
36841
36851
36873
36848
36877
36882
36858
36877
36879
36933
36948
36914
36923
36896
36898
36953
36907
36896
36904
36883
36925
36952
36957
36964
36891
36876
36876
36859
36899
36890
36866
36899
36891
36927
36938
36918
36978
37001
36995
37046
37062
37100
37104
37085
37122
37106
37095
37144
37109
37096
37080
37030
37039
37038
37049
37082
37039
37067
37105
37078
37104
37132
37152
37166
37097
37105
37149
37161
37192
37162
37154
37228
37236
37251
37247
37231
37280
37279
37254
37268
37224
37240
37260
37234
37246
37215
37196
37265
37277
37270
37239
37228
37277
37257
37256
37319
37274
37258
37288
37310
37372
37376
37345
37338
37305
37364
37392
37328
37348
37393
37398
37377
37306
37320
37315
37248
37252
37247
37228
37235
37167
37140
37136
37132
37164
37120
37084
37129
37093
37072
37071
37054
37053
37014
37037
37100
37004
36940
36967
36995
37025
36999
36994
37019
36945
36935
36953
36922
36930
36890
36815
36809
36818
36873
36863
36811
36849
36866
36876
36922
36891
36902
36917
36899
36926
36913
36899
36931
36882
36863
36878
36886
36890
36824
36828
36908
36853
36817
36815
36789
36832
36852
36821
36811
36783
36811
36829
36836
36876
36842
36834
36897
36850
36830
36859
36862
36868
36833
36833
36865
36808
36836
36881
36833
36823
36830
36834
36855
36834
36877
36897
36876
36923
36932
36927
36960
36926
36933
36932
36908
36962
36980
36965
36989
36974
37003
37003
36966
36999
36997
36992
37049
37040
37042
37053
37071
37111
37056
37023
37078
37052
37057
37076
37058
37091
37099
37089
37112
37092
37130
37157
37146
37188
37185
37173
37206
37179
37196
37201
37168
37208
37230
37225
37236
37199
37245
37286
37246
37239
37235
37271
37333
37277
37259
37278
37285
37322
37288
37246
37280
37276
37300
37289
37253
37312
37313
37250
37258
37268
37294
37279
37271
37316
37267
37224
37263
37227
37237
37261
37221
37218
37194
37160
37170
37143
37147
37106
37036
37058
37074
37083
37097
37030
37048
37064
36993
36993
37026
37040
37041
36991
37017
37021
36966
36978
36968
36941
36959
36933
36952
36960
36939
36970
36957
36944
36976
36943
36971
36993
36943
36932
36916
36908
36930
36904
36961
37016
36999
37012
37007
37022
37076
37052
37077
37099
37078
37116
37110
37082
37123
37138
37160
37135
37115
37184
37177
37138
37175
37158
37141
37108
37089
37154
37162
37141
37155
37116
37153
37183
37124
37107
37112
37147
37199
37146
37124
37134
37139
37155
37108
37117
37207
37175
37151
37162
37166
37212
37204
37185
37221
37199
37210
37234
37247
37270
37222
37227
37308
37262
37228
37244
37257
37291
37269
37263
37316
37307
37344
37357
37297
37295
37306
37325
37352
37295
37298
37309
37288
37340
37366
37373
37427
37423
37426
37409
37398
37455
37461
37472
37502
37411
37387
37422
37409
37414
37401
37393
37389
37318
37348
37390
37351
37363
37383
37406
37451
37429
37442
37448
37439
37478
37465
37450
37448
37349
37351
37400
37360
37332
37292
37258
37280
37264
37274
37273
37269
37279
37191
37146
37197
37147
37131
37151
37121
37107
37091
37118
37173
37123
37120
37137
37110
37109
37064
37040
37113
37123
37098
37042
37018
37054
37011
36993
37048
36994
36972
36993
36985
37007
37005
37008
37022
36957
36975
37020
37005
37017
36991
36954
36972
36969
37019
37023
36960
36957
36945
36943
36979
36936
36937
36941
36917
36951
36953
36942
36971
36940
36964
37002
37009
37044
37023
37011
37049
37001
36998
37035
37051
37078
37044
37033
37082
37047
37060
37088
37065
37066
37034
37026
37098
37095
37074
37047
37057
37122
37093
37061
37092
37043
37059
37117
37118
37122
37096
37100
37152
37119
37116
37136
37147
37180
37139
37118
37177
37157
37159
37173
37175
37229
37232
37218
37238
37203
37234
37245
37190
37209
37205
37157
37172
37199
37254
37247
37220
37253
37212
37175
37211
37180
37205
37237
37209
37232
37226
37194
37237
37270
37302
37296
37308
37364
37324
37314
37377
37323
37324
37382
37365
37341
37321
37350
37404
37363
37366
37357
37296
37307
37306
37273
37263
37228
37263
37255
37191
37216
37214
37169
37169
37151
37172
37165
37137
37165
37147
37147
37190
37124
37113
37151
37145
37150
37116
37105
37163
37125
37063
37024
37036
37068
36993
36967
37027
36977
36983
37028
36987
36962
36963
36990
37020
36970
36985
37010
36999
37031
37029
37039
37089
37047
37044
37066
37067
37089
37051
37032
37087
37076
37101
37125
37103
37119
37115
37133
37191
37160
37168
37187
37171
37195
37187
37191
37230
37184
37179
37179
37146
37173
37192
37222
37273
37223
37207
37213
37214
37270
37282
37282
37300
37237
37249
37288
37281
37328
37357
37371
37409
37376
37368
37354
37336
37373
37349
37333
37375
37338
37356
37395
37401
37464
37476
37447
37479
37478
37467
37421
37419
37498
37470
37421
37461
37445
37459
37465
37427
37451
37456
37454
37494
37490
37529
37536
37504
37549
37551
37512
37518
37484
37478
37465
37462
37523
37504
37477
37531
37516
37510
37514
37513
37548
37514
37500
37577
37572
37558
37545
37545
37609
37617
37620
37674
37649
37658
37667
37638
37665
37658
37626
37617
37550
37547
37562
37560
37606
37566
37479
37472
37467
37509
37507
37450
37443
37409
37402
37442
37382
37366
37384
37364
37363
37331
37332
37370
37320
37331
37352
37306
37310
37312
37300
37302
37251
37264
37263
37217
37234
37235
37240
37269
37215
37220
37241
37224
37250
37228
37176
37174
37154
37204
37225
37193
37230
37246
37238
37253
37233
37299
37320
37234
37232
37267
37288
37325
37306
37310
37312
37326
37367
37325
37344
37452
37419
37391
37403
37393
37429
37439
37424
37415
37357
37383
37400
37357
37381
37397
37399
37426
37390
37399
37412
37398
37418
37388
37393
37470
37457
37468
37470
37426
37455
37486
37508
37552
37526
37530
37525
37521
37592
37590
37554
37584
37567
37568
37555
37545
37608
37583
37510
37526
37514
37510
37518
37556
37587
37498
37473
37553
37496
37473
37535
37572
37611
37612
37612
37612
37526
37521
37552
37525
37506
37458
37449
37484
37436
37449
37457
37389
37370
37341
37296
37294
37257
37261
37245
37207
37211
37156
37138
37207
37164
37106
37078
37073
37111
37090
37084
37118
37046
37028
37049
37031
37044
37019
36984
37003
36983
36996
36989
36966
37003
36982
36951
36962
36914
36946
36971
36903
36888
36892
36890
36913
36900
36942
36948
36905
36929
36923
36911
36946
36912
36924
36962
36977
37000
36961
36964
37033
36993
36980
36995
36972
36975
36959
36966
36995
36934
36941
36978
36962
36971
36963
36977
37018
36971
36979
37011
37007
37032
37025
37026
37043
36974
36992
37036
37003
36998
36994
36998
37011
36956
36984
37031
37002
36972
36941
36987
37049
36974
36975
37009
36944
36920
36952
37001
37019
36956
36982
36995
36929
36932
36951
36979
37038
37020
37015
36997
36985
37047
37055
37057
37100
37052
37056
37093
37095
37131
37139
37166
37233
37191
37152
37153
37179
37211
37155
37152
37221
37167
37173
37241
37244
37245
37216
37200
37247
37247
37258
37237
37219
37279
37257
37208
37247
37249
37277
37312
37328
37337
37284
37311
37394
37329
37337
37434
37462
37473
37472
37485
37504
37456
37489
37510
37459
37477
37494
37486
37501
37481
37512
37508
37475
37536
37583
37617
37661
37616
37632
37668
37659
37685
37677
37666
37681
37630
37656
37688
37665
37699
37702
37668
37672
37643
37651
37631
37597
37628
37612
37600
37623
37547
37520
37505
37445
37459
37465
37421
37382
37326
37358
37360
37295
37288
37264
37236
37229
37178
37235
37275
37186
37150
37165
37203
37256
37215
37180
37158
37190
37290
37258
37173
37180
37151
37149
37152
37134
37130
37072
37057
37091
37024
37046
37111
37085
37073
37057
37038
37057
37050
37091
37088
37053
37103
37123
37127
37162
37113
37101
37105
37093
37134
37132
37127
37165
37129
37136
37154
37138
37146
37099
37067
37105
37089
37123
37152
37127
37146
37137
37137
37202
37203
37205
37186
37185
37267
37263
37207
37219
37189
37178
37180
37193
37221
37160
37148
37223
37176
37155
37192
37214
37254
37237
37224
37291
37313
37345
37359
37360
37386
37335
37332
37435
37424
37382
37368
37375
37403
37345
37321
37386
37367
37369
37366
37323
37353
37370
37363
37391
37393
37454
37488
37483
37532
37524
37506
37556
37558
37585
37571
37509
37531
37532
37518
37565
37559
37552
37534
37535
37581
37556
37585
37698
37663
37615
37622
37638
37683
37690
37724
37776
37707
37701
37761
37774
37768
37739
37778
37828
37728
37696
37723
37690
37683
37676
37668
37661
37593
37597
37576
37496
37519
37548
37536
37545
37511
37502
37475
37455
37490
37462
37467
37523
37450
37419
37440
37408
37386
37344
37317
37314
37247
37255
37262
37205
37205
37208
37220
37257
37208
37194
37191
37186
37240
37233
37211
37239
37204
37222
37266
37271
37273
37228
37239
37303
37245
37234
37274
37254
37228
37199
37242
37323
37273
37265
37309
37311
37304
37264
37286
37354
37304
37309
37370
37390
37412
37404
37430
37482
37426
37420
37444
37423
37428
37410
37419
37463
37411
37403
37414
37405
37444
37431
37399
37417
37405
37454
37467
37421
37460
37481
37468
37505
37521
37567
37566
37538
37582
37585
37597
37653
37605
37584
37592
37592
37635
37613
37571
37587
37569
37607
37615
37576
37641
37691
37667
37646
37609
37657
37700
37703
37740
37734
37745
37762
37676
37710
37785
37732
37693
37690
37701
37731
37719
37747
37728
37678
37714
37710
37686
37719
37702
37720
37728
37701
37712
37698
37719
37756
37678
37692
37746
37697
37661
37647
37646
37648
37584
37597
37619
37605
37636
37613
37576
37586
37533
37519
37507
37475
37499
37475
37454
37505
37482
37451
37413
37379
37395
37380
37411
37457
37357
37347
37428
37426
37399
37388
37431
37452
37339
37334
37422
37455
37464
37428
37428
37482
37445
37439
37465
37478
37494
37445
37436
37466
37396
37422
37465
37385
37352
37365
37373
37416
37440
37481
37479
37491
37560
37528
37525
37625
37610
37583
37595
37614
37655
37627
37610
37659
37639
37659
37675
37650
37692
37712
37711
37748
37735
37753
37748
37730
37797
37812
37796
37833
37813
37822
37857
37878
37878
37802
37820
37907
37832
37803
37846
37823
37815
37815
37829
37861
