7078
7111
7198
7325
7487
7692
7945
8235
8541
8851
9168
9495
9826
10137
10403
10619
10818
11022
11199
11324
11412
11469
11493
11491
11474
11438
11375
11296
11199
11079
10940
10793
10646
10501
10368
10266
10197
10143
10091
10025
9930
9823
9724
9630
9535
9446
9365
9296
9247
9221
9215
9226
9252
9285
9309
9331
9370
9434
9506
9571
9627
9678
9725
9755
9757
9757
9768
9780
9783
9780
9771
9748
9703
9635
9568
9505
9434
9358
9288
9217
9146
9077
9008
8928
8823
8705
8599
8516
8451
8389
8327
8257
8174
8088
8011
7942
7875
7804
7750
7711
7673
7627
7574
7534
7505
7469
7447
7448
7446
7442
7440
7439
7434
7400
7334
7258
7185
7107
7028
6966
6919
6874
6841
6831
6832
6849
6892
6962
7071
7238
7460
7729
8038
8372
8705
9029
9341
9637
9914
10155
10356
10532
10701
10840
10932
11006
11067
11094
11090
11058
11004
10919
10796
10659
10516
10366
10218
10078
9956
9861
9773
9671
9577
9496
9410
9316
9222
9127
9018
8898
8809
8771
8757
8738
8705
8681
8685
8717
8762
8801
8849
8903
8940
8965
9003
9064
9121
9167
9222
9283
9342
9401
9443
9457
9461
9448
9416
9386
9349
9286
9201
9108
9011
8903
8793
8688
8578
8467
8352
8232
8108
7993
7902
7828
7763
7701
7615
7515
7439
7381
7332
7296
7262
7226
7196
7169
7139
7100
7051
7006
6967
6932
6898
6848
6781
6723
6678
6633
6565
6469
6380
6321
6277
6265
6296
6341
6409
6532
6721
6968
7251
7554
7862
8159
8448
8733
9019
9299
9552
9770
9961
10131
10283
10414
10517
10613
10703
10754
10749
10692
10624
10566
10494
10394
10276
10141
9981
9804
9632
9483
9360
9227
9071
8911
8755
8601
8453
8325
8214
8106
8005
7929
7894
7906
7943
7974
8008
8064
8143
8218
8277
8345
8436
8538
8647
8771
8894
8987
9056
9109
9138
9156
9175
9178
9166
9138
9072
8967
8852
8739
8629
8531
8442
8355
8269
8187
8114
8031
7925
7806
7704
7630
7561
7484
7412
7353
7299
7229
7133
7030
6933
6833
6741
6668
6597
6533
6481
6441
6417
6396
6373
6346
6304
6267
6239
6212
6195
6173
6136
6098
6076
6085
6133
6218
6343
6515
6741
7016
7324
7657
8010
8380
8745
9078
9375
9641
9876
10091
10299
10485
10637
10764
10855
10899
10917
10924
10900
10831
10729
10609
10484
10363
10233
10086
9913
9731
9571
9438
9315
9200
9097
8999
8891
8768
8640
8522
8420
8332
8249
8176
8124
8089
8066
8056
8080
8143
8222
8307
8393
8466
8533
8619
8751
8900
9015
9093
9151
9193
9198
9160
9106
9066
9022
8962
8911
8881
8842
8771
8683
8584
8470
8363
8278
8214
8152
8070
7965
7857
7758
7652
7524
7412
7329
7239
7141
7056
6976
6910
6864
6799
6699
6600
6521
6448
6401
6379
6346
6293
6226
6159
6095
6030
5966
5909
5862
5822
5805
5821
5861
5929
6030
6165
6330
6517
6740
7007
7300
7597
7900
8219
8544
8877
9212
9537
9854
10148
10402
10622
10805
10939
11033
11092
11103
11058
10974
10879
10781
10676
10573
10480
10385
10284
10190
10102
10005
9898
9794
9697
9597
9490
9374
9250
9114
8972
8833
8703
8593
8520
8481
8446
8412
8404
8430
8464
8494
8548
8638
8750
8867
8978
9084
9183
9256
9303
9346
9387
9421
9438
9431
9400
9343
9267
9195
9131
9055
8960
8856
8771
8713
8665
8623
8599
8566
8496
8399
8289
8167
8042
7907
7753
7592
7444
7331
7247
7189
7170
7171
7171
7168
7152
7116
7070
7022
6965
6897
6828
6765
6718
6678
6628
6569
6504
6436
6365
6292
6235
6203
6188
6206
6295
6469
6698
6957
7242
7550
7890
8264
8651
9028
9380
9706
10008
10277
10501
10674
10797
10886
10964
11026
11058
11066
11070
11067
11025
10929
10801
10657
10518
10406
10306
10205
10123
10059
9994
9920
9828
9712
9589
9470
9365
9275
9195
9132
9066
8984
8906
8841
8790
8761
8754
8762
8797
8858
8922
8978
9038
9110
9181
9240
9289
9337
9380
9414
9443
9462
9473
9485
9501
9507
9489
9454
9401
9301
9169
9048
8937
8838
8767
8721
8683
8639
8576
8496
8406
8293
8154
8019
7895
7781
7691
7631
7593
7565
7537
7498
7449
7409
7387
7373
7348
7309
7267
7227
7196
7179
7160
7115
7036
6937
6839
6762
6707
6659
6613
6567
6530
6521
6547
6627
6787
7029
7327
7637
7938
8229
8525
8835
9148
9467
9783
10069
10321
10531
10700
10831
10926
10996
11048
11069
11049
10994
10914
10825
10746
10675
10591
10494
10396
10289
10168
10053
9946
9829
9708
9590
9468
9339
9215
9100
8990
8894
8824
8776
8740
8721
8719
8720
8727
8739
8757
8790
8834
8875
8912
8956
9005
9060
9132
9195
9227
9249
9279
9312
9345
9370
9364
9325
9276
9222
9168
9113
9053
8982
8898
8801
8712
8645
8578
8493
8407
8331
8245
8151
8068
7997
7915
7822
7734
7654
7581
7513
7461
7427
7400
7374
7337
7283
7236
7204
7178
7140
7079
7027
6996
6956
6894
6825
6766
6729
6705
6668
6617
6577
6561
6554
6557
6607
6706
6846
7040
7286
7566
7866
8172
8474
8764
9040
9296
9546
9809
10057
10251
10386
10461
10498
10526
10549
10565
10562
10541
10492
10405
10289
10142
9981
9833
9707
9599
9494
9385
9276
9175
9082
8992
8903
8811
8715
8612
8514
8433
8364
8306
8266
8253
8265
8291
8341
8417
8492
8549
8600
8659
8723
8796
8889
8986
9065
9137
9204
9249
9265
9265
9271
9281
9278
9259
9222
9157
9069
8985
8910
8832
8746
8656
8577
8506
8432
8361
8290
8206
8104
8002
7909
7828
7759
7695
7632
7565
7494
7432
7383
7341
7294
7234
7165
7103
7053
7004
6958
6918
6870
6808
6750
6705
6662
6611
6555
6516
6510
6545
6619
6717
6844
7017
7236
7495
7794
8128
8456
8741
8990
9225
9458
9687
9917
10139
10353
10538
10656
10717
10751
10765
10755
10719
10676
10646
10611
10538
10415
10274
10157
10045
9915
9791
9686
9568
9419
9261
9117
8987
8861
8724
8586
8467
8363
8283
8243
8234
8245
8279
8344
8431
8516
8602
8705
8795
8850
8901
8970
9052
9122
9145
9124
9090
9072
9067
9056
9042
9020
8981
8936
8891
8836
8776
8726
8679
8631
8581
8529
8468
8392
8299
8180
8055
7952
7866
7802
7752
7692
7613
7522
7430
7340
7250
7163
7084
7013
6952
6906
6865
6822
6786
6764
6746
6722
6695
6674
6651
6635
6638
6646
6667
6706
6758
6839
6972
7156
7377
7618
7878
8167
8484
8816
9153
9486
9801
10075
10301
10487
10641
10769
10867
10922
10932
10914
10890
10855
10807
10741
10658
10566
10459
10329
10196
10073
9954
9829
9681
9502
9321
9175
9072
8991
8907
8817
8727
8646
8584
8548
8533
8536
8570
8633
8700
8761
8809
8837
8866
8920
8988
9050
9095
9122
9150
9183
9214
9236
9252
9266
9284
9294
9282
9268
9250
9206
9132
9036
8941
8848
8731
8592
8457
8358
8299
8261
8220
8178
8145
8109
8062
8005
7947
7896
7852
7816
7776
7707
7618
7536
7462
7392
7338
7297
7255
7205
7146
7081
7016
6948
6886
6844
6829
6847
6898
6992
7141
7348
7602
7874
8149
8431
8717
9005
9294
9579
9862
10119
10337
10531
10692
10810
10917
11020
11083
11097
11093
11088
11080
11066
11028
10955
10861
10752
10632
10508
10366
10208
10052
9890
9724
9568
9429
9309
9195
9083
8991
8915
8846
8790
8767
8760
8740
8731
8761
8821
8890
8961
9032
9104
9189
9286
9376
9454
9520
9565
9579
9574
9559
9538
9513
9480
9446
9423
9404
9386
9360
9306
9223
9124
9016
8913
8819
8721
8630
8569
8529
8488
8448
8412
8352
8257
8137
8019
7931
7860
7772
7667
7574
7494
7418
7363
7326
7261
7176
7104
7043
6995
6980
7004
7062
7139
7217
7317
7455
7629
7838
8056
8264
8488
8738
8985
9233
9497
9767
10039
10306
10534
10710
10866
11027
11179
11324
11465
11580
11665
11714
11697
11605
11476
11352
11232
11093
10928
10757
10615
10518
10453
10386
10284
10164
10060
9970
9871
9765
9676
9596
9517
9469
9454
9441
9421
9400
9376
9347
9330
9357
9436
9527
9582
9607
9644
9705
9774
9835
9890
9939
9980
10019
10063
10105
10119
10102
10064
10025
9998
9965
9885
9769
9657
9529
9388
9268
9170
9103
9054
8990
8924
8872
8812
8741
8677
8616
8533
8434
8354
8284
8209
8126
8051
7990
7936
7902
7884
7854
7799
7742
7724
7726
7706
7650
7562
7466
7381
7312
7259
7229
7245
7327
7469
7645
7842
8071
8329
8610
8913
9234
9578
9927
10235
10492
10716
10936
11168
11378
11526
11617
11665
11677
11669
11639
11595
11557
11516
11452
11356
11263
11175
11062
10954
10866
10756
10611
10455
10311
10199
10111
10026
9923
9796
9648
9500
9387
9307
9245
9191
9164
9191
9272
9371
9446
9499
9538
9551
9566
9620
9701
9765
9791
9801
9825
9872
9908
9925
9943
9959
9951
9907
9849
9790
9716
9639
9568
9481
9385
9309
9229
9121
8992
8876
8805
8762
8730
8718
8720
8726
8707
8628
8516
8436
8393
8359
8323
8268
8193
8106
8002
7889
7795
7737
7710
7682
7627
7562
7534
7527
7504
7475
7441
7380
7290
7186
7099
7072
7109
7199
7352
7560
7793
8050
8349
8664
8934
9162
9393
9657
9932
10169
10387
10604
10805
10986
11129
11212
11265
11312
11343
11374
11394
11349
11250
11157
11065
10927
10746
10566
10404
10267
10175
10111
10046
9989
9939
9869
9748
9578
9404
9243
9088
8961
8887
8859
8863
8877
8892
8906
8911
8927
8957
8984
9012
9067
9141
9205
9262
9325
9407
9490
9531
9518
9473
9406
9329
9273
9249
9225
9188
9161
9155
9136
9089
9044
9011
8973
8919
8849
8774
8706
8641
8572
8497
8411
8324
8242
8152
8052
7954
7867
7785
7693
7598
7525
7468
7431
7414
7392
7362
7337
7326
7308
7274
7261
7272
7266
7214
7159
7149
7195
7288
7402
7532
7698
7901
8110
8331
8599
8900
9189
9463
9743
10015
10254
10447
10581
10669
10760
10861
10921
10921
10890
10843
10766
10653
10517
10375
10259
10161
10065
10002
9961
9898
9809
9709
9629
9581
9515
9400
9271
9151
9042
8954
8891
8846
8802
8753
8721
8722
8721
8681
8616
8548
8485
8424
8401
8456
8577
8742
8927
9097
9214
9243
9202
9130
9063
9041
9064
9107
9158
9189
9195
9190
9171
9121
9032
8908
8745
8536
8314
8144
8027
7906
7777
7680
7596
7507
7433
7365
7276
7169
7066
6995
6960
6920
6876
6860
6861
6862
6861
6860
6841
6775
6671
6561
6483
6437
6395
6355
6352
6405
6490
6598
6770
7033
7359
7699
8019
8303
8569
8824
9074
9326
9572
9814
10039
10215
10330
10421
10508
10548
10535
10500
10453
10406
10357
10316
10281
10204
10065
9884
9682
9490
9349
9262
9190
9096
9000
8904
8781
8651
8527
8417
8323
8228
8141
8088
8055
8013
7979
7979
7983
7988
8023
8076
8130
8203
8285
8355
8416
8475
8537
8580
8587
8564
8518
8460
8415
8385
8348
8306
8266
8216
8156
8094
8022
7950
7902
7862
7798
7722
7646
7558
7457
7371
7297
7219
7133
7040
6945
6862
6796
6739
6677
6601
6505
6394
6305
6263
6258
6267
6267
6244
6194
6114
6028
5969
5927
5893
5881
5891
5916
5971
6067
6188
6330
6508
6741
7022
7316
7613
7909
8194
8474
8732
8969
9211
9439
9626
9774
9882
9946
9981
10010
10029
10015
9974
9917
9824
9691
9551
9420
9287
9150
9019
8898
8783
8672
8566
8468
8386
8308
8217
8120
8032
7948
7851
7750
7653
7556
7476
7432
7403
7383
7384
7405
7463
7532
7576
7620
7691
7769
7828
7874
7917
7949
7971
7996
8024
8031
8015
8001
7980
7928
7851
7769
7686
7608
7528
7428
7307
7177
7036
6891
6749
6610
6485
6394
6313
6202
6081
5987
5916
5871
5844
5795
5714
5617
5523
5434
5335
5246
5189
5150
5123
5108
5090
5065
5033
4995
4951
4900
4838
4781
4744
4723
4723
4753
4814
4910
5043
5218
5445
5706
5973
6249
6535
6821
7114
7409
7686
7938
8160
8357
8505
8581
8595
8577
8552
8517
8449
8369
8298
8204
8079
7964
7869
7768
7664
7578
7503
7429
7357
7287
7204
7101
7003
6909
6795
6657
6512
6368
6240
6135
6051
6000
5970
5950
5934
5933
5962
6007
6068
6142
6205
6268
6336
6384
6405
6424
6453
6479
6502
6510
6498
6469
6421
6352
6251
6134
6042
5960
5877
5814
5759
5696
5649
5629
5617
5572
5478
5371
5280
5190
5074
4928
4778
4639
4495
4363
4252
4161
4109
4085
4057
4014
3966
3933
3896
3816
3707
3602
3515
3431
3328
3226
3137
3054
2991
2951
2928
2920
2927
2939
2954
2988
3062
3179
3351
3612
3946
4315
4705
5101
5490
5871
6231
6544
6798
7008
7177
7322
7441
7505
7509
7466
7390
7291
7194
7098
6981
6852
6711
6572
6454
6321
6157
6005
5896
5814
5737
5658
5587
5513
5399
5237
5059
4900
4754
4625
4530
4465
4427
4422
4448
4488
4544
4615
4670
4724
4809
4911
5020
5139
5231
5265
5263
5257
5268
5311
5384
5451
5478
5450
5384
5324
5271
5191
5071
4922
4759
4591
4457
4399
4403
4416
4387
4301
4171
4036
3958
3933
3913
3858
3765
3668
3581
3490
3392
3285
3191
3143
3139
3139
3124
3103
3066
3018
2992
2979
2946
2866
2735
2601
2523
2486
2438
2369
2315
2312
2363
2466
2621
2811
3025
3274
3554
3840
4153
4501
4856
5207
5552
5890
6195
6425
6560
6635
6714
6790
6828
6828
6782
6684
6556
6430
6292
6133
5993
5873
5746
5604
5443
5281
5129
4967
4801
4656
4509
4327
4126
3947
3804
3690
3592
3512
3475
3469
3452
3432
3438
3493
3590
3687
3763
3846
3946
4048
4162
4289
4418
4545
4643
4715
4789
4850
4877
4881
4859
4823
4781
4738
4717
4720
4723
4718
4697
4648
4567
4475
4381
4256
4078
3864
3650
3454
3289
3167
3101
3072
3040
2993
2943
2902
2874
2856
2845
2832
2806
2770
2708
2594
2425
2227
2022
1846
1750
1715
1692
1690
1741
1826
1919
2036
2203
2418
2662
2943
3296
3695
4085
4474
4864
5216
5523
5785
5995
6173
6326
6442
6526
6585
6600
6582
6559
6531
6504
6470
6401
6305
6207
6098
5963
5808
5642
5464
5263
5053
4860
4695
4541
4377
4201
4033
3881
3719
3545
3409
3338
3298
3287
3330
3392
3445
3500
3578
3702
3852
3979
4103
4262
4446
4626
4789
4930
5027
5052
5010
4941
4860
4772
4711
4670
4614
4520
4383
4232
4107
4005
3894
3754
3599
3445
3292
3166
3114
3118
3127
3144
3160
3139
3080
3018
2964
2884
2775
2650
2525
2429
2373
2341
2310
2264
2216
2187
2161
2095
2009
1955
1934
1923
1925
1949
1989
2048
2165
2386
2703
3068
3455
3856
4273
4699
5122
5531
5911
6248
6515
6682
6762
6782
6762
6727
6692
6676
6682
6700
6732
6768
6791
6782
6727
6635
6510
6358
6200
6033
5824
5559
5259
4976
4762
4610
4477
4335
4204
4095
3986
3863
3763
3743
3780
3821
3869
3930
4006
4097
4193
4306
4440
4556
4631
4687
4752
4810
4826
4818
4833
4895
4987
5076
5125
5124
5084
5015
4941
4868
4795
4734
4703
4670
4572
4412
4254
4143
4068
3982
3865
3720
3550
3367
3206
3090
3014
2973
2954
2925
2873
2801
2710
2622
2579
2584
2620
2675
2719
2724
2688
2618
2515
2393
2285
2224
2204
2219
2300
2469
2720
3027
3354
3680
4000
4330
4670
5012
5346
5650
5918
6161
6380
6576
6746
6872
6961
7022
7054
7062
7047
7004
6935
6846
6741
6644
6558
6465
6356
6226
6067
5891
5716
5536
5360
5204
5066
4939
4817
4708
4613
4535
4465
4397
4354
4334
4319
4318
4334
4357
4399
4467
4545
4617
4690
4777
4873
4963
5045
5114
5167
5208
5236
5256
5266
5246
5205
5158
5103
5045
5002
4981
4953
4893
4814
4757
4715
4657
4581
4495
4409
4336
4281
4225
4140
4037
3944
3857
3765
3667
3570
3477
3373
3272
3201
3156
3108
3052
2991
2928
2862
2788
2716
2649
2595
2565
2537
2507
2491
2499
2543
2628
2756
2932
3166
3452
3763
4085
4425
4770
5112
5445
5747
6008
6240
6443
6614
6755
6856
6899
6890
6866
6837
6774
6670
6537
6388
6235
6083
5948
5837
5730
5611
5481
5350
5223
5103
4973
4837
4730
4637
4528
4417
4316
4234
4163
4103
4051
4015
4011
4038
4096
4179
4281
4395
4518
4649
4782
4896
4988
5064
5126
5182
5232
5264
5262
5235
5216
5218
5219
5193
5143
5076
4993
4901
4793
4669
4545
4428
4323
4231
4143
4060
3988
3919
3838
3741
3632
3514
3415
3345
3290
3227
3143
3044
2945
2862
2788
2713
2632
2534
2444
2382
2319
2237
2163
2123
2102
2082
2072
2094
2154
2266
2443
2674
2946
3261
3619
4004
4392
4775
5138
5462
5756
6021
6240
6410
6526
6590
6619
6628
6622
6592
6533
6455
6366
6272
6180
6071
5941
5805
5662
5510
5362
5233
5140
5069
4986
4876
4742
4605
4469
4331
4190
4051
3937
3856
3790
3727
3682
3687
3749
3840
3942
4054
4169
4278
4379
4469
4574
4691
4785
4855
4907
4924
4905
4872
4848
4834
4817
4798
4760
4698
4631
4562
4481
4381
4264
4141
4020
3906
3791
3685
3602
3522
3444
3380
3309
3225
3143
3061
2980
2894
2796
2692
2576
2457
2343
2226
2107
2000
1904
1812
1732
1655
1583
1534
1528
1577
1681
1831
2030
2285
2588
2940
3343
3769
4189
4576
4910
5192
5435
5662
5879
6073
6241
6380
6482
6530
6535
6546
6586
6637
6666
6642
6546
6401
6247
6096
5951
5825
5724
5621
5472
5280
5077
4899
4760
4612
4435
4266
4141
4065
3987
3904
3853
3830
3851
3921
4016
4101
4138
4138
4147
4204
4301
4399
4504
4641
4787
4923
5068
5219
5349
5421
5429
5415
5380
5314
5261
5239
5207
5115
4974
4828
4704
4603
4508
4421
4370
4331
4263
4185
4125
4063
3967
3849
3749
3665
3573
3454
3318
3212
3134
3024
2886
2760
2638
2517
2440
2421
2444
2512
2606
2686
2768
2898
3101
3386
3736
4118
4505
4880
5240
5566
5848
6098
6326
6540
6733
6907
7070
7216
7322
7377
7393
7370
7319
7283
7251
7168
7048
6949
6884
6848
6809
6719
6588
6438
6259
6050
5829
5631
5485
5362
5230
5117
5022
4933
4880
4874
4877
4863
4850
4878
4946
5013
5068
5120
5163
5207
5270
5355
5466
5566
5628
5680
5736
5788
5858
5954
6059
6125
6118
6082
6067
6067
6057
6014
5912
5773
5642
5511
5373
5256
5160
5079
4992
4891
4797
4684
4549
4435
4361
4307
4244
4184
4164
4176
4167
4106
4010
3923
3883
3884
3877
3831
3749
3672
3662
3755
3933
4166
4447
4793
5200
5625
6028
6382
6685
6969
7253
7501
7718
7922
8108
8298
8488
8640
8726
8760
8776
8768
8746
8742
8745
8708
8633
8533
8409
8288
8168
8029
7878
7752
7665
7579
7470
7371
7271
7141
7004
6901
6838
6774
6690
6600
6529
6501
6527
6613
6754
6908
7020
7092
7152
7205
7256
7298
7336
7411
7536
7688
7831
7927
7963
7943
7874
7772
7648
7511
7406
7371
7367
7331
7250
7141
7017
6904
6825
6753
6685
6651
6655
6662
6633
6556
6445
6332
6250
6204
6172
6137
6100
6064
6029
5985
5958
5952
5933
5905
5896
5889
5860
5801
5727
5656
5573
5475
5383
5310
5282
5342
5499
5702
5919
6183
6521
6912
7332
7777
8226
8642
9006
9313
9567
9782
9964
10102
10183
10226
10251
10271
10304
10358
10412
10444
10454
10441
10429
10420
10389
10347
10284
10179
10047
9933
9831
9715
9619
9565
9510
9411
9275
9142
9036
8966
8944
8954
8964
8952
8909
8861
8820
8801
8842
8923
8991
9027
9037
9051
9105
9193
9284
9377
9470
9556
9625
9674
9710
9726
9712
9666
9624
9600
9577
9534
9462
9380
9291
9199
9091
8946
8773
8621
8534
8471
8402
8366
8372
8373
8338
8300
8272
8226
8152
8061
7978
7912
7864
7849
7866
7881
7863
7810
7728
7656
7631
7637
7645
7625
7571
7519
7496
7478
7425
7338
7256
7198
7164
7173
7221
7299
7417
7585
7787
7997
8217
8443
8677
8956
9292
9644
9951
10212
10451
10650
10815
10962
11078
11181
11292
11399
11500
11594
11670
11711
11718
11716
11715
11699
11622
11498
11380
11283
11208
11163
11152
11137
11064
10955
10859
10777
10698
10637
10583
10507
10406
10306
10234
10210
10233
10277
10298
10278
10260
10279
10312
10355
10414
10469
10519
10566
10625
10698
10780
10864
10925
10957
10977
10968
10937
10922
10901
10833
10714
10595
10519
10455
10374
10307
10245
10165
10083
10020
9969
9916
9834
9727
9626
9546
9480
9420
9389
9399
9407
9380
9324
9256
9194
9133
9059
8978
8903
8841
8811
8812
8800
8760
8731
8750
8800
8829
8807
8753
8704
8655
8590
8534
8515
8535
8576
8624
8676
8713
8732
8748
8770
8833
8936
9061
9236
9444
9652
9885
10162
10447
10725
11007
11274
11512
11736
11944
12109
12236
12342
12396
12397
12405
12423
12389
12308
12240
12198
12156
12078
11978
11893
11803
11711
11639
11563
11476
11380
11293
11255
11246
11208
11150
11112
11101
11105
11116
11128
11122
11107
11110
11111
11083
11050
11034
11022
11014
11005
10984
10981
11037
11138
11238
11331
11433
11516
11540
11510
11448
11357
11270
11224
11191
11154
11127
11103
11065
11005
10932
10864
10807
10752
10693
10625
10539
10442
10359
10310
10297
10306
10307
10283
10268
10253
10191
10118
10075
10026
9946
9843
9743
9665
9610
9576
9551
9541
9549
9549
9531
9504
9475
9426
9380
9375
9383
9365
9335
9332
9353
9353
9316
9249
9188
9144
9081
9019
8990
8960
8917
8906
8942
9028
9164
9323
9499
9704
9936
10197
10472
10755
11055
11356
11641
11893
12115
12313
12481
12599
12647
12639
12621
12612
12586
12522
12442
12360
12263
12175
12131
12105
12061
12007
11940
11833
11697
11582
11509
11461
11429
11405
11369
11317
11261
11201
11131
11053
10980
10932
10901
10883
10888
10928
10990
11057
11134
11209
11282
11369
11459
11524
11561
11584
11593
11586
11574
11572
11570
11562
11547
11513
11452
11374
11300
11235
11199
11204
11234
11277
11299
11265
11194
11114
11018
10890
10747
10615
10494
10382
10293
10242
10225
10244
10271
10255
10204
10167
10145
10114
10082
10042
9989
9952
9926
9875
9793
9702
9613
9540
9505
9483
9444
9408
9382
9335
9278
9237
9221
9216
9184
9112
9017
8924
8864
8861
8900
8945
8968
8966
8967
8953
8898
8833
8785
8749
8731
8747
8816
8956
9168
9441
9746
10043
10335
10638
10939
11220
11471
11666
11806
11900
11966
12024
12055
12052
12033
12007
11962
11881
11771
11649
11533
11452
11393
11326
11275
11254
11228
11201
11190
11172
11148
11130
11112
11088
11039
10952
10850
10752
10667
10598
10557
10543
10541
10531
10508
10512
10555
10608
10656
10695
10721
10754
10813
10889
10983
11087
11160
11181
11158
11088
10974
10854
10773
10725
10682
10629
10568
10528
10521
10531
10552
10549
10474
10352
10239
10149
10073
10016
9989
9956
9862
9717
9575
9452
9341
9243
9147
9042
8959
8930
8923
8916
8920
8930
8946
8962
8948
8895
8819
8760
8759
8806
8871
8938
8989
9004
8984
8960
8939
8897
8807
8691
8596
8538
8516
8520
8506
8432
8317
8194
8058
7921
7821
7778
7773
7794
7850
7947
8090
8304
8585
8882
9145
9389
9654
9935
10206
10451
10658
10846
11024
11163
11245
11279
11269
11220
11162
11119
11086
11060
11032
10988
10915
10815
10686
10521
10362
10257
10182
10089
9989
9910
9819
9694
9550
9407
9280
9174
9095
9027
8963
8912
8876
8868
8905
8982
9063
9117
9147
9175
9219
9303
9417
9544
9675
9793
9898
9976
9994
9950
9890
9846
9800
9760
9745
9715
9634
9514
9406
9349
9341
9331
9261
9138
9012
8896
8779
8692
8646
8598
8538
8489
8446
8399
8368
8354
8313
8228
8120
8002
7892
7823
7807
7837
7895
7932
7919
7887
7883
7916
7962
7987
7976
7937
7870
7782
7679
7552
7404
7257
7141
7070
7018
6974
6942
6903
6869
6877
6933
7021
7113
7179
7222
7261
7314
7398
7515
7664
7851
8094
8379
8685
9010
9325
9586
9779
9922
10046
10164
10259
10312
10332
10332
10296
10214
10089
9941
9815
9732
9662
9559
9414
9255
9095
8934
8803
8743
8736
8735
8740
8763
8773
8735
8650
8553
8474
8413
8353
8290
8241
8208
8178
8153
8145
8168
8232
8318
8412
8502
8568
8624
8675
8699
8724
8773
8820
8845
8856
8862
8871
8890
8916
8941
8946
8901
8793
8653
8537
8473
8422
8351
8264
8166
8074
8001
7937
7873
7794
7718
7659
7596
7515
7435
7380
7359
7353
7321
7247
7163
7106
7062
7003
6926
6834
6756
6704
6648
6576
6497
6435
6423
6429
6398
6336
6278
6234
6217
6219
6216
6218
6217
6189
6148
6096
6055
6036
6015
5987
5957
5942
5962
6040
6186
6375
6580
6800
7044
7312
7586
7842
8088
8308
8473
8579
8644
8684
8705
8735
8803
8891
8964
8998
8991
8983
8994
8984
8916
8804
8666
8501
8337
8216
8160
8130
8077
7989
7878
7758
7629
7498
7378
7279
7210
7169
7138
7113
7129
7176
7204
7218
7230
7232
7230
7237
7258
7300
7379
7492
7591
7623
7599
7569
7576
7613
7631
7606
7547
7469
7366
7250
7169
7126
7074
7015
6974
6938
6888
6812
6723
6652
6597
6545
6523
6528
6512
6454
6374
6285
6207
6127
6034
5969
5938
5897
5842
5788
5731
5687
5659
5616
5546
5461
5368
5261
5170
5113
5055
4991
4943
4904
4868
4850
4841
4821
4776
4721
4665
4605
4550
4498
4461
4434
4394
4356
4344
4368
4417
4480
4573
4704
4858
5013
5175
5363
5561
5728
5868
6012
6190
6398
6592
6761
6930
7073
7159
7199
7225
7258
7265
7226
7173
7140
7120
7087
7021
6914
6802
6714
6637
6559
6460
6336
6213
6097
5989
5890
5823
5792
5784
5803
5830
5833
5817
5788
5741
5697
5662
5622
5580
5531
5482
5433
5390
5389
5434
5497
5574
5661
5748
5846
5956
6067
6167
6226
6213
6154
6089
6018
5914
5785
5670
5576
5507
5459
5412
5375
5348
5304
5246
5167
5059
4941
4820
4695
4578
4471
4361
4275
4237
4229
4204
4141
4063
4003
3962
3923
3909
3910
3890
3859
3828
3785
3721
3632
3549
3478
3410
3364
3316
3247
3185
3156
3151
3156
3162
3147
3111
3068
3017
2950
2869
2783
2716
2693
2694
2696
2708
2741
2812
2941
3128
3354
3615
3897
4174
4438
4688
4904
5068
5192
5300
5383
5434
5480
5544
5604
5638
5653
5647
5611
5569
5551
5548
5534
5479
5375
5269
5180
5066
4917
4769
4629
4470
4305
4160
4019
3894
3791
3712
3694
3747
3843
3945
4025
4074
4069
4002
3905
3809
3716
3640
3621
3676
3781
3914
4059
4173
4239
4299
4378
4456
4517
4547
4534
4495
4442
4378
4307
4218
4113
4037
3989
3918
3805
3669
3547
3453
3385
3345
3324
3284
3201
3080
2940
2795
2663
2568
2502
2448
2414
2409
2437
2491
2549
2592
2593
2547
2483
2412
2325
2218
2102
2017
2000
2018
2022
2002
1958
1910
1886
1882
1861
1799
1713
1629
1562
1513
1483
1499
1593
1766
1987
2225
2449
2645
2824
3022
3260
3507
3727
3912
4059
4189
4331
4462
4566
4682
4831
4976
5063
5066
4997
4889
4762
4616
4457
4298
4148
4032
3962
3927
3906
3871
3810
3745
3669
3565
3459
3365
3272
3185
3108
3020
2913
2816
2773
2781
2804
2824
2838
2852
2860
2885
2956
3059
3160
3251
3338
3424
3518
3596
3643
3655
3629
3594
3589
3609
3616
3578
3500
3411
3355
3329
3287
3196
3053
2904
2783
2675
2596
2555
2510
2448
2413
2427
2445
2420
2354
2248
2103
1945
1797
1672
1572
1489
1429
1396
1363
1331
1305
1270
1228
1179
1122
1072
1029
992
975
974
991
1038
1086
1099
1089
1083
1093
1111
1117
1119
1165
1286
1446
1627
1849
2117
2437
2794
3144
3465
3737
3954
4149
4337
4484
4570
4612
4641
4685
4726
4730
4704
4682
4666
4632
4577
4534
4504
4466
4440
4406
4310
4156
3984
3813
3658
3527
3431
3356
3258
3155
3100
3077
3038
2971
2915
2898
2902
2925
2978
3031
3050
3049
3057
3084
3152
3239
3314
3400
3506
3608
3689
3754
3808
3828
3800
3752
3721
3718
3722
3699
3638
3570
3510
3439
3354
3279
3234
3197
3142
3066
2958
2829
2704
2584
2466
2365
2288
2203
2119
2075
2058
2037
2012
1989
1951
1890
1819
1752
1690
1628
1578
1537
1497
1464
1433
1401
1379
1354
1295
1219
1159
1104
1048
1018
1002
986
1003
1086
1207
1342
1500
1672
1867
2105
2366
2630
2912
3208
3509
3829
4166
4496
4791
5019
5193
5328
5398
5399
5376
5338
5267
5186
5137
5115
5080
5010
4923
4830
4727
4616
4500
4373
4223
4042
3840
3647
3477
3331
3221
3132
3039
2954
2907
2901
2903
2882
2849
2833
2831
2828
2827
2827
2821
2820
2840
2876
2922
2994
3109
3227
3320
3421
3534
3622
3662
3663
3658
3664
3663
3636
3592
3571
3590
3624
3652
3670
3665
3613
3498
3361
3261
3204
3151
3067
2936
2776
2632
2520
2422
2327
2233
2168
2151
2163
2186
2206
2210
2201
2179
2120
2015
1900
1794
1700
1649
1652
1681
1721
1766
1785
1769
1718
1628
1515
1399
1289
1192
1132
1120
1150
1209
1291
1392
1521
1714
1983
2289
2619
2992
3379
3749
4116
4470
4764
4972
5104
5184
5235
5284
5327
5339
5325
5301
5282
5252
5188
5100
5000
4872
4725
4601
4505
4418
4332
4251
4186
4150
4146
4155
4138
4068
3966
3850
3727
3613
3522
3457
3407
3365
3334
3338
3381
3436
3499
3546
3564
3571
3581
3607
3675
3785
3899
3972
3984
3949
3887
3806
3724
3658
3598
3540
3510
3523
3545
3550
3533
3493
3433
3353
3256
3148
3059
3022
3018
2994
2934
2868
2833
2821
2799
2770
2741
2694
2634
2582
2539
2504
2452
2360
2249
2161
2120
2110
2084
2037
2005
1973
1940
1930
1934
1949
1998
2071
2127
2141
2119
2072
1999
1921
1859
1814
1781
1762
1761
1792
1892
2049
2216
2398
2637
2942
3281
3607
3912
4194
4420
4583
4730
4898
5058
5179
5259
5285
5253
5215
5222
5272
5328
5346
5310
5221
5088
4939
4777
4603
4432
4283
4163
4070
3992
3914
3865
3830
3768
3705
3650
3583
3515
3445
3373
3330
3319
3331
3339
3330
3325
3338
3379
3440
3520
3646
3805
3950
4044
4089
4113
4131
4157
4199
4237
4234
4196
4173
4171
4159
4141
4108
4018
3889
3775
3683
3594
3490
3375
3269
3180
3116
3063
2999
2931
2862
2795
2749
2722
2682
2629
2574
2498
2416
2364
2335
2307
2271
2243
2219
2172
2114
2074
2042
1999
1939
1863
1798
1782
1807
1850
1889
1907
1918
1917
1901
1896
1893
1878
1869
1901
1999
2159
2384
2650
2920
3208
3525
3849
4153
4401
4584
4738
4902
5060
5157
5184
5180
5189
5225
5265
5281
5249
5167
5038
4879
4710
4535
4355
4194
4077
4014
3992
3970
3935
3907
3868
3790
3701
3644
3604
3553
3521
3529
3563
3604
3627
3622
3601
3579
3570
3564
3531
3492
3502
3573
3672
3753
3801
3807
3781
3740
3691
3639
3600
3586
3596
3611
3617
3621
3648
3712
3776
3778
3716
3642
3598
3579
3552
3498
3435
3393
3355
3264
3123
2975
2833
2693
2568
2495
2478
2479
2478
2485
2514
2554
2569
2525
2443
2365
2324
2308
2280
2223
2135
2030
1928
1840
1781
1746
1720
1703
1705
1712
1718
1722
1713
1710
1744
1822
1966
2190
2471
2759
3039
3323
3600
3854
4088
4316
4535
4743
4943
5139
5344
5542
5697
5789
5832
5846
5813
5750
5687
5615
5543
5480
5400
5287
5136
4960
4799
4682
4584
4477
4380
4300
4218
4123
4020
3920
3824
3728
3639
3567
3515
3513
3552
3603
3682
3768
3836
3903
3952
3987
4050
4132
4194
4237
4297
4360
4401
4448
4500
4518
4487
4440
4419
4413
4379
4308
4217
4116
4009
3908
3835
3808
3814
3838
3866
3860
3787
3689
3611
3542
3485
3444
3393
3326
3258
3199
3124
3024
2907
2773
2630
2495
2384
2305
2256
2236
2258
2319
2379
2416
2437
2427
2375
2311
2261
2213
2169
2147
2132
2118
2132
2179
2248
2333
2420
2478
2518
2594
2754
3000
3300
3613
3905
4185
4479
4781
5076
5356
5600
5781
5913
6010
6058
6051
6011
5989
6012
6047
6060
6054
6031
5957
5824
5658
5499
5368
5257
5157
5063
4959
4849
4776
4749
4713
4639
4532
4399
4258
4140
4053
4012
4028
4080
4154
4251
4354
4424
4442
4440
4456
4479
4492
4515
4551
4581
4601
4619
4651
4701
4760
4824
4891
4965
5022
5049
5078
5112
5109
5046
4930
4802
4689
4592
4509
4419
4320
4220
4122
4052
4016
3988
3960
3935
3911
3875
3814
3743
3673
3601
3539
3481
3425
3383
3344
3286
3215
3136
3051
2970
2919
2915
2923
2907
2873
2826
2776
2753
2774
2809
2828
2840
2858
2873
2868
2870
2908
2972
3069
3210
3403
3643
3887
4113
4334
4550
4767
5006
5269
5524
5739
5914
6078
6262
6447
6595
6719
6833
6921
6969
6977
6945
6875
6778
6657
6515
6376
6254
6136
6009
5897
5825
5776
5732
5678
5617
5570
5518
5422
5286
5136
4988
4857
4770
4742
4735
4735
4762
4796
4814
4815
4813
4834
4899
5019
5184
5367
5542
5698
5836
5939
5991
5996
5961
5893
5819
5752
5696
5660
5626
5588
5570
5561
5552
5541
5513
5454
5368
5283
5217
5177
5155
5133
5099
5040
4944
4802
4647
4511
4383
4290
4240
4186
4095
3990
3928
3918
3937
3970
4015
4056
4043
3973
3896
3842
3819
3807
3777
3716
3631
3538
3435
3339
3272
3213
3164
3167
3229
3314
3402
3522
3708
3951
4222
4507
4792
5058
5300
5512
5721
5971
6259
6548
6789
6961
7081
7178
7279
7382
7464
7514
7525
7512
7465
7391
7336
7279
7169
7006
6810
6606
6417
6266
6182
6151
6140
6147
6164
6165
6136
6081
6004
5887
5740
5619
5561
5538
5503
5473
5478
5502
5526
5533
5534
5556
5602
5669
5753
5847
5935
6001
6055
6104
6134
6149
6173
6217
6248
6248
6234
6198
6122
6027
5942
5863
5770
5645
5523
5442
5382
5321
5274
5232
5160
5065
4980
4924
4890
4869
4862
4858
4831
4776
4708
4628
4539
4467
4436
4445
4455
4436
4385
4331
4307
4303
4286
4252
4224
4199
4158
4092
4005
3925
3875
3839
3805
3769
3703
3609
3534
3487
3453
3440
3465
3542
3671
3836
4035
4276
4561
4880
5213
5543
5861
6155
6413
6649
6884
7114
7309
7450
7544
7599
7620
7625
7611
7570
7508
7437
7351
7248
7128
6993
6855
6725
6612
6512
6418
6333
6245
6148
6041
5917
5794
5691
5603
5512
5416
5327
5255
5209
5199
5229
5288
5370
5470
5571
5667
5764
5868
5988
6134
6276
6369
6403
6400
6384
6372
6362
6332
6283
6233
6173
6123
6102
6094
6090
6087
6051
5983
5909
5819
5703
5573
5452
5365
5301
5236
5185
5149
5102
5031
4925
4806
4701
4598
4494
4420
4388
4368
4348
4357
4384
4383
4335
4263
4194
4138
4108
4088
4050
3989
3923
3877
3849
3816
3795
3805
3836
3886
3948
4018
4090
4140
4189
4293
4462
4667
4895
5164
5475
5789
6080
6361
6638
6885
7094
7280
7456
7627
7782
7904
7978
8005
8004
7974
7922
7853
7763
7675
7594
7515
7433
7325
7200
7081
6951
6798
6646
6522
6426
6353
6275
6175
6089
6038
6004
5974
5957
5939
5910
5905
5930
5962
5988
6024
6093
6161
6194
6220
6286
6391
6490
6547
6563
6577
6607
6635
6657
6660
6632
6579
6503
6410
6330
6279
6245
6225
6202
6154
6100
6073
6061
6010
5901
5765
5640
5547
5471
5402
5345
5300
5257
5196
5126
5072
5030
4984
4936
4892
4856
4829
4810
4783
4742
4697
4653
4612
4565
4508
4455
4411
4384
4361
4337
4351
4386
4391
4384
4399
4421
4411
4353
4267
4193
4165
4198
4308
4498
4756
5078
5453
5843
6225
6603
6979
7333
7658
7945
8163
8319
8441
8530
8594
8649
8694
8706
8690
8662
8618
8546
8441
8322
8194
8065
7946
7823
7689
7558
7451
7377
7311
7228
7133
7051
6983
6911
6842
6794
6757
6713
6663
6616
6578
6542
6521
6551
6638
6759
6872
6951
7034
7128
7205
7280
7338
7363
7392
7425
7454
7476
7463
7436
7406
7355
7297
7256
7233
7188
7103
6997
6868
6727
6597
6479
6369
6292
6258
6237
6217
6191
6133
6050
5966
5885
5823
5764
5683
5605
5547
5501
5455
5397
5340
5300
5256
5200
5134
5061
5003
4968
4953
4954
4952
4931
4898
4859
4803
4741
4704
4675
4631
4593
4573
4567
4585
4637
4715
4809
4944
5126
5336
5586
5882
6208
6558
6894
7192
7473
7738
7977
8198
8411
8612
8784
8916
9018
9088
9125
9120
9058
8950
8835
8728
8627
8538
8468
8407
8341
8266
8159
8026
7905
7810
7733
7659
7580
7498
7403
7304
7230
7200
7201
7212
7217
7216
7214
7214
7210
7193
7174
7180
7215
7253
7285
7326
7399
7475
7529
7572
7597
7604
7618
7640
7649
7638
7613
7591
7561
7509
7450
7371
7280
7215
7164
7089
6984
6879
6804
6742
6678
6628
6603
6591
6546
6444
6315
6206
6125
6032
5937
5875
5831
5779
5727
5684
5646
5622
5610
5588
5574
5583
5586
5560
5515
5462
5403
5360
5341
5320
5282
5237
5196
5161
5111
5046
4990
4955
4952
4973
5016
5090
5191
5323
5503
5731
5993
6271
6544
6823
7120
7420
7716
8006
8282
8531
8752
8934
9060
9147
9217
9274
9304
9299
9258
9185
9104
9022
8929
8815
8681
8543
8411
8301
8222
8165
8105
8032
7952
7863
7782
7730
7694
7663
7629
7566
7475
7393
7324
7238
7154
7103
7103
7152
7213
7258
7305
7371
7451
7536
7619
7708
7786
7837
7877
7915
7945
7956
7944
7922
7896
7855
7800
7745
7688
7620
7554
7503
7455
7387
7287
7167
7055
6965
6898
6839
6757
6648
6532
6412
6292
6200
6148
6117
6093
6055
5999
5936
5859
5786
5744
5725
5708
5680
5643
5602
5554
5507
5483
5485
5485
5480
5471
5443
5409
5397
5391
5362
5313
5257
5178
5081
5001
4962
4957
4966
4997
5070
5183
5346
5563
5814
6095
6396
6698
7000
7305
7576
7815
8056
8304
8533
8722
8873
8963
9003
9036
9056
9040
9004
8966
8908
8827
8737
8638
8522
8399
8292
8193
8074
7954
7862
7799
7758
7704
7616
7513
7427
7369
7313
7242
7175
7120
7082
7084
7110
7131
7174
7235
7295
7364
7421
7447
7467
7507
7551
7590
7622
7644
7681
7739
7800
7864
7912
7921
7905
7894
7904
7918
7900
7837
7761
7685
7609
7529
7441
7354
7268
7163
7040
6915
6771
6614
6475
6374
6321
6293
6252
6185
6107
6056
6032
6001
5963
5935
5913
5880
5821
5760
5715
5662
5615
5598
5607
5622
5608
5563
5535
5517
5472
5415
5369
5355
5375
5389
5346
5240
5105
4993
4950
4979
5046
5137
5268
5456
5715
6020
6322
6599
6864
7148
7454
7755
8059
8353
8603
8801
8931
8995
9026
9047
9041
8992
8901
8784
8677
8578
8468
8356
8254
8160
8072
7980
7870
7758
7666
7586
7498
7393
7269
7134
7004
6882
6761
6648
6567
6501
6443
6437
6482
6552
6643
6745
6836
6911
7005
7140
7278
7396
7506
7628
7744
7814
7833
7830
7803
7737
7633
7517
7408
7313
7240
7194
7167
7125
7058
7008
6992
6979
6964
6956
6923
6840
6746
6680
6623
6543
6448
6381
6346
6300
6203
6062
5930
5854
5833
5842
5850
5828
5771
5680
5565
5463
5402
5356
5292
5209
5131
5081
5043
5028
5058
5122
5177
5190
5190
5199
5192
5153
5106
5101
5145
5199
5255
5343
5481
5667
5901
6182
6494
6820
7150
7446
7709
7970
8207
8400
8573
8752
8937
9094
9201
9275
9314
9316
9281
9197
9094
8992
8865
8724
8587
8449
8312
8162
8011
7889
7805
7762
7754
7733
7660
7570
7510
7475
7431
7354
7279
7218
7145
7082
7054
7059
7063
7052
7047
7062
7090
7115
7134
7172
7243
7316
7367
7410
7464
7522
7559
7561
7555
7562
7546
7506
7483
7468
7434
7385
7337
7289
7233
7193
7159
7090
6997
6910
6822
6723
6631
6553
6472
6393
6329
6270
6197
6111
6027
5936
5839
5756
5682
5604
5529
5484
5482
5510
5544
5569
5565
5520
5458
5410
5379
5362
5355
5343
5323
5295
5246
5185
5135
5094
5053
5035
5060
5138
5272
5450
5660
5896
6155
6437
6751
7099
7462
7821
8152
8441
8689
8895
9059
9173
9227
9242
9263
9304
9319
9282
9213
9131
9051
8982
8922
8869
8814
8733
8621
8503
8400
8307
8216
8120
8021
7930
7860
7802
7741
7688
7651
7618
7570
7506
7442
7403
7391
7390
7407
7449
7501
7552
7593
7616
7635
7659
7705
7776
7848
7926
8027
8113
8147
8149
8135
8101
8053
8001
7955
7912
7869
7821
7757
7685
7614
7545
7478
7417
7357
7282
7195
7115
7033
6931
6819
6712
6620
6556
6487
6395
6298
6207
6125
6055
5985
5925
5873
5813
5758
5723
5707
5695
5661
5607
5552
5493
5447
5436
5438
5427
5385
5298
5175
5059
4984
4947
4939
4954
5005
5106
5241
5412
5649
5951
6285
6627
6952
7243
7508
7774
8039
8287
8539
8787
8989
9144
9269
9359
9393
9379
9359
9346
9313
9246
9166
9089
9007
8902
8776
8646
8526
8419
8328
8252
8154
8019
7872
7743
7645
7565
7483
7408
7336
7246
7151
7069
7028
7042
7090
7147
7207
7261
7292
7312
7350
7404
7471
7554
7651
7740
7802
7849
7874
7860
7811
7762
7752
7770
7794
7808
7795
7747
7660
7544
7428
7331
7245
7157
7060
6979
6908
6823
6739
6676
6629
6578
6513
6436
6365
6312
6265
6217
6169
6116
6077
6052
6023
5969
5894
5822
5760
5731
5724
5706
5673
5607
5515
5426
5348
5280
5217
5159
5120
5092
5065
5050
5046
5024
4982
4953
4953
4982
5040
5130
5258
5424
5643
5920
6229
6543
6853
7163
7474
7779
8049
8267
8454
8624
8764
8872
8945
8980
8997
8999
8980
8931
8842
8721
8585
8447
8308
8154
7995
7852
7712
7574
7460
7377
7306
7238
7169
7096
7006
6899
6792
6676
6561
6478
6436
6421
6409
6410
6446
6513
6581
6639
6714
6813
6923
7020
7103
7175
7231
7267
7284
7293
7305
7295
7252
7212
7192
7180
7169
7157
7141
7103
7032
6937
6832
6736
6662
6605
6556
6507
6460
6426
6387
6315
6237
6184
6129
6039
5948
5878
5785
5668
5561
5468
5387
5330
5297
5273
5256
5259
5267
5254
5215
5163
5113
5071
5037
4995
4943
4879
4806
4751
4727
4720
4703
4670
4653
4661
4681
4736
4854
5035
5282
5578
5878
6147
6412
6696
6971
7215
7417
7599
7789
7966
8126
8284
8418
8519
8584
8592
8560
8517
8460
8396
8328
8231
8103
7978
7858
7733
7618
7522
7422
7313
7228
7156
7073
6973
6846
6709
6591
6485
6388
6305
6237
6190
6157
6138
6133
6143
6169
6210
6265
6342
6444
6553
6654
6757
6848
6908
6938
6950
6967
6988
7006
7032
7059
7071
7069
7053
7036
7006
6939
6855
6776
6701
6626
6553
6487
6420
6338
6243
6144
6030
5913
5816
5737
5677
5631
5582
5524
5465
5406
5326
5226
5130
5048
4975
4906
4838
4782
4724
4677
4678
4716
4744
4742
4719
4672
4588
4484
4403
4378
4397
4418
4409
4375
4338
4316
4322
4390
4548
4791
5093
5433
5788
6143
6504
6858
7196
7509
7780
8004
8185
8323
8411
8459
8493
8519
8539
8553
8549
8530
8494
8432
8337
8216
8082
7939
7791
7650
7520
7402
7310
7234
7150
7051
6948
6853
6765
6680
6597
6507
6421
6356
6318
6305
6307
6317
6342
6378
6407
6443
6502
6580
6673
6773
6860
6933
6998
7062
7136
7223
7296
7336
7353
7351
7324
7267
7177
7071
6978
6893
6804
6722
6643
6572
6517
6458
6394
6340
6284
6196
6078
5933
5784
5667
5566
5474
5424
5410
5409
5425
5430
5386
5308
5223
5127
5019
4923
4876
4889
4933
4957
4939
4888
4805
4704
4624
4593
4613
4653
4671
4634
4569
4538
4541
4552
4578
4640
4740
4868
5032
5244
5514
5838
6192
6566
6928
7249
7522
7736
7898
8031
8161
8294
8398
8473
8537
8599
8666
8716
8722
8696
8643
8542
8395
8247
8119
7986
7840
7708
7628
7590
7552
7510
7475
7435
7372
7317
7284
7240
7164
7072
6981
6892
6799
6708
6619
6528
6478
6513
6613
6728
6824
6891
6964
7073
7199
7301
7350
7345
7302
7256
7245
7251
7233
7187
7141
7125
7141
7142
7101
7051
7020
6980
6899
6795
6704
6613
6513
6432
6359
6264
6152
6063
6008
5970
5942
5894
5811
5730
5673
5634
5609
5580
5535
5493
5473
5446
5405
5390
5405
5421
5404
5345
5276
5205
5140
5094
5056
5001
4912
4803
4702
4612
4555
4543
4553
4595
4692
4817
4954
5130
5378
5705
6084
6459
6781
7038
7253
7455
7658
7864
8060
8215
8336
8454
8543
8578
8589
8588
8571
8550
8512
8436
8355
8293
8227
8144
8038
7933
7836
7733
7629
7518
7415
7327
7239
7155
7081
7018
6939
6828
6713
6620
6553
6502
6454
6420
6392
6376
6399
6449
6531
6648
6764
6857
6937
7016
7097
7159
7175
7156
7144
7144
7142
7152
7176
7170
7140
7117
7075
6985
6864
6743
6656
6597
6521
6412
6301
6223
6175
6136
6108
6090
6089
6092
6083
6066
6021
5929
5829
5738
5646
5570
5516
5481
5440
5372
5315
5278
5217
5114
4995
4895
4843
4847
4866
4844
4784
4713
4612
4496
4421
4409
4446
4518
4621
4740
4837
4906
4990
5121
5297
5505
5727
5933
6113
6269
6410
6550
6705
6879
7070
7235
7367
7483
7565
7604
7606
7608
7616
7604
7585
7563
7535
7506
7457
7366
7264
7184
7103
6976
6793
6598
6440
6315
6181
6029
5888
5767
5649
5548
5481
5410
5333
5295
5303
5346
5408
5476
5558
5633
5679
5722
5800
5896
5977
6030
6052
6070
6093
6096
6081
6071
6082
6085
6062
6039
6009
5960
5908
5870
5830
5763
5668
5553
5449
5380
5332
5278
5195
5101
5030
4973
4927
4895
4840
4737
4601
4473
4389
4353
4328
4278
4212
4154
4108
4084
4083
4073
4025
3947
3853
3748
3666
3624
3591
3560
3566
3603
3652
3727
3831
3944
4050
4151
4249
4364
4524
4728
4953
5175
5369
5535
5695
5865
6052
6244
6398
6504
6597
6685
6751
6796
6841
6885
6895
6872
6829
6755
6668
6589
6492
6355
6205
6081
5985
5915
5852
5748
5601
5452
5323
5200
5075
4977
4924
4904
4907
4931
4966
5011
5045
5048
5037
5032
5036
5053
5093
5152
5224
5309
5386
5419
5414
5417
5439
5462
5490
5506
5475
5422
5375
5325
5270
5215
5154
5107
5093
5084
5038
4955
4860
4761
4661
4554
4450
4369
4303
4237
4165
4079
3994
3938
3911
3901
3909
3931
3941
3933
3911
3869
3812
3737
3642
3538
3431
3342
3271
3205
3147
3095
3049
3003
2964
2953
2961
2988
3066
3194
3340
3526
3778
4067
4359
4633
4889
5136
5379
5613
5826
6008
6171
6324
6457
6570
6670
6750
6804
6845
6887
6912
6905
6857
6767
6648
6505
6359
6245
6148
6049
5948
5833
5722
5654
5623
5593
5527
5422
5317
5250
5217
5169
5082
4988
4929
4907
4917
4945
4968
4987
5032
5104
5164
5205
5246
5299
5363
5427
5484
5517
5518
5511
5521
5524
5504
5472
5442
5417
5386
5337
5274
5204
5123
5021
4921
4855
4823
4809
4779
4727
4686
4658
4624
4591
4571
4557
4522
4447
4354
4286
4245
4214
4201
4205
4202
4179
4126
4043
3959
3878
3795
3737
3708
3689
3656
3616
3600
3598
3590
3593
3611
3640
3692
3779
3904
4060
4245
4452
4666
4894
5148
5417
5694
5990
6284
6521
6696
6845
7004
7177
7326
7429
7500
7545
7541
7487
7418
7356
7302
7258
7209
7124
7009
6885
6776
6692
6619
6546
6458
6374
6313
6273
6248
6213
6137
6029
5929
5854
5801
5768
5744
5728
5737
5775
5818
5841
5849
5869
5927
6010
6078
6103
6088
6049
6017
6006
6005
6006
5997
5995
6014
6025
6032
6049
6063
6061
6038
5992
5925
5847
5758
5656
5555
5458
5366
5286
5216
5139
5052
4975
4940
4928
4878
4779
4666
4563
4491
4449
4399
4317
4218
4120
4037
3982
3945
3911
3872
3836
3835
3878
3931
3968
3980
3973
3968
3964
3943
3901
3864
3863
3898
3938
3969
4005
4057
4136
4265
4462
4706
4971
5248
5539
5823
6061
6239
6395
6562
6730
6880
6986
7057
7126
7175
7206
7247
7291
7307
7270
7195
7094
6987
6906
6849
6790
6699
6586
6479
6367
6257
6186
6157
6119
6035
5919
5806
5731
5693
5664
5633
5585
5542
5547
5588
5642
5706
5772
5830
5882
5919
5947
5984
6017
6034
6035
6045
6093
6150
6190
6222
6234
6202
6145
6103
6076
6033
5973
5913
5842
5763
5694
5601
5483
5384
5300
5208
5122
5054
4979
4871
4734
4607
4545
4529
4498
4446
4403
4397
4425
4445
4418
4346
4249
4138
4021
3898
3787
3738
3753
3772
3763
3765
3804
3839
3831
3782
3710
3640
3593
3577
3577
3583
3600
3628
3664
3704
3783
3919
4081
4254
4441
4640
4843
5041
5240
5442
5643
5856
6078
6273
6412
6504
6570
6618
6661
6691
6692
6673
6652
6605
6523
6426
6323
6224
6133
6026
5906
5807
5749
5691
5596
5486
5389
5278
5159
5068
4989
4898
4800
4708
4647
4627
4631
4640
4667
4715
4768
4846
4974
5136
5310
5481
5639
5760
5813
5811
5784
5742
5693
5636
5581
5552
5536
5508
5476
5436
5366
5278
5184
5103
5051
4995
4922
4854
4798
4737
4654
4555
4467
4416
4387
4363
4346
4316
4264
4203
4160
4124
4070
4006
3929
3850
3787
3714
3626
3560
3532
3512
3496
3489
3482
3479
3480
3474
3465
3454
3409
3326
3233
3165
3144
3164
3216
3290
3407
3569
3746
3933
4132
4355
4611
4890
5160
5387
5569
5715
5842
5966
6071
6162
6272
6378
6446
6485
6495
6468
6425
6382
6314
6219
6124
6032
5936
5824
5682
5527
5385
5242
5089
4942
4831
4763
4711
4681
4677
4677
4673
4684
4721
4763
4776
4750
4710
4684
4696
4739
4801
4893
4989
5054
5100
5147
5205
5244
5236
5214
5190
5140
5074
5032
5006
4972
4943
4938
4937
4920
4902
4885
4850
4796
4737
4671
4614
4586
4559
4496
4411
4320
4216
4109
4020
3934
3843
3774
3733
3715
3718
3721
3680
3601
3528
3452
3353
3238
3128
3035
2958
2881
2802
2728
2664
2605
2550
2501
2460
2431
2434
2488
2572
2653
2730
2840
3028
3289
3593
3911
4206
4452
4676
4908
5125
5302
5453
5607
5758
5889
5990
6055
6104
6164
6213
6215
6162
6077
5980
5880
5790
5718
5671
5649
5633
5591
5501
5373
5247
5140
5037
4926
4825
4757
4720
4710
4703
4660
4572
4464
4378
4340
4328
4307
4279
4263
4261
4265
4259
4250
4258
4285
4349
4468
4617
4735
4791
4794
4768
4735
4703
4690
4713
4765
4813
4826
4794
4727
4660
4602
4527
4436
4354
4283
4210
4147
4094
4038
3961
3882
3818
3751
3696
3675
3678
3693
3693
3644
3546
3435
3354
3328
3341
3363
3357
3311
3243
3150
3052
2991
2976
2981
2964
2918
2890
2887
2867
2810
2715
2617
2572
2578
2579
2553
2521
2513
2569
2698
2875
3081
3305
3529
3737
3940
4143
4344
4543
4742
4958
5199
5431
5622
5752
5834
5891
5909
5891
5868
5847
5829
5805
5767
5727
5664
5564
5462
5372
5267
5143
5019
4902
4784
4667
4569
4516
4499
4475
4432
4375
4316
4284
4285
4295
4296
4282
4274
4305
4372
4451
4520
4596
4690
4798
4898
4963
5007
5043
5052
5045
5034
5028
5030
5014
4964
4898
4810
4705
4615
4524
4403
4278
4201
4171
4148
4109
4034
3929
3814
3688
3549
3411
3294
3199
3121
3070
3066
3114
3184
3238
3280
3330
3383
3419
3440
3459
3478
3495
3512
3508
3442
3304
3141
2989
2851
2745
2670
2601
2519
2423
2342
2318
2342
2365
2366
2354
2347
2374
2469
2634
2859
3137
3435
3711
3950
4185
4424
4646
4864
5067
5211
5311
5428
5555
5649
5723
5789
5832
5838
5800
5731
5653
5572
5487
5388
5290
5214
5125
5002
4889
4817
4752
4657
4533
4391
4247
4133
4039
3946
3857
3781
3728
3707
3728
3774
3811
3817
3815
3853
3938
4041
4139
4209
4229
4195
4123
4053
4035
4060
4089
4100
4095
4096
4105
4101
4095
4100
4086
4029
3934
3831
3761
3729
3699
3637
3542
3438
3345
3271
3206
3134
3065
3024
3016
3010
2960
2882
2828
2812
2796
2749
2665
2565
2468
2368
2258
2147
2054
1986
1931
1879
1836
1816
1830
1863
1893
1916
1919
1887
1826
1752
1691
1675
1692
1717
1756
1804
1849
1900
1969
2061
2177
2324
2504
2715
2962
3248
3550
3819
4050
4278
4499
4690
4835
4938
5007
5028
4995
4937
4884
4816
4700
4554
4426
4344
4303
4265
4203
4112
4019
3942
3855
3733
3574
3398
3239
3111
2999
2897
2806
2727
2681
2678
2705
2743
2780
2799
2810
2847
2890
2932
2982
3033
3111
3234
3371
3475
3516
3501
3476
3465
3458
3453
3457
3478
3496
3492
3471
3429
3352
3243
3144
3094
3088
3082
3023
2902
2776
2676
2572
2458
2354
2266
2221
2210
2183
2115
2022
1953
1932
1929
1909
1884
1868
1846
1834
1833
1808
1743
1649
1555
1460
1370
1317
1304
1292
1250
1197
1172
1201
1282
1365
1407
1426
1458
1524
1642
1812
1996
2148
2278
2434
2641
2864
3082
3316
3578
3843
4070
4221
4309
4381
4435
4440
4419
4424
4448
4435
4356
4252
4175
4104
3997
3868
3764
3693
3627
3544
3436
3322
3206
3062
2915
2814
2745
2664
2565
2478
2427
2421
2456
2512
2562
2586
2605
2654
2732
2800
2846
2875
2872
2842
2813
2806
2841
2907
2952
2963
2968
2993
3035
3064
3053
3000
2907
2801
2741
2733
2738
2741
2756
2780
2778
2715
2606
2503
2416
2327
2233
2127
2017
1922
1822
1702
1593
1513
1465
1460
1493
1544
1598
1627
1603
1540
1479
1441
1414
1357
1255
1130
1028
975
937
889
830
771
744
739
719
697
707
755
835
964
1155
1395
1683
2003
2327
2655
2970
3239
3476
3713
3927
4086
4215
4319
4377
4402
4414
4409
4381
4338
4295
4241
4179
4095
3986
3880
3795
3724
3630
3510
3393
3301
3231
3160
3091
3020
2927
2805
2661
2533
2450
2382
2328
2311
2318
2332
2350
2379
2422
2481
2540
2592
2649
2715
2790
2885
3001
3116
3207
3269
3302
3313
3310
3280
3238
3200
3164
3115
3026
2926
2847
2769
2687
2616
2573
2536
2486
2442
2415
2407
2391
2336
2248
2152
2073
2001
1924
1863
1806
1725
1649
1612
1593
1572
1541
1495
1446
1394
1333
1291
1266
1239
1231
1252
1268
1250
1201
1145
1099
1078
1073
1063
1059
1057
1048
1054
1115
1254
1455
1687
1935
2207
2500
2794
3078
3349
3610
3850
4047
4203
4341
4474
4590
4674
4719
4733
4740
4741
4719
4668
4588
4494
4393
4282
4160
4028
3911
3823
3738
3632
3523
3440
3385
3332
3264
3196
3130
3079
3048
3007
2936
2861
2801
2751
2705
2651
2613
2628
2674
2726
2808
2909
2984
3046
3131
3218
3259
3241
3199
3164
3132
3106
3094
3101
3142
3194
3241
3288
3325
3332
3303
3268
3231
3160
3057
2958
2860
2748
2654
2579
2498
2407
2312
2209
2101
2021
1962
1884
1804
1755
1741
1731
1696
1631
1557
1499
1445
1378
1326
1301
1283
1257
1224
1164
1081
1016
979
943
896
856
838
842
860
898
966
1077
1231
1417
1616
1841
2134
2484
2849
3183
3453
3663
3843
4037
4265
4488
4664
4807
4935
5039
5109
5144
5128
5061
4960
4826
4674
4543
4457
4408
4381
4356
4319
4267
4187
4080
3971
3856
3721
3558
3366
3180
3045
2953
2888
2844
2800
2757
2715
2672
2665
2688
2726
2796
2890
2967
3004
3014
3028
3057
3104
3168
3215
3236
3263
3301
3310
3290
3270
3266
3267
3254
3225
3183
3137
3074
2997
2939
2898
2873
2868
2859
2806
2693
2539
2387
2255
2131
2020
1922
1827
1743
1674
1630
1597
1550
1505
1488
1476
1445
1409
1365
1315
1265
1220
1193
1156
1096
1033
974
917
853
793
760
732
690
663
665
680
723
824
969
1123
1274
1450
1674
1932
2198
2455
2691
2891
3071
3254
3444
3632
3803
3945
4042
4112
4207
4329
4447
4532
4552
4516
4462
4397
4319
4240
4141
4002
3838
3662
3490
3344
3220
3097
2947
2774
2619
2496
2390
2294
2210
2138
2076
1998
1910
1857
1835
1833
1871
1932
1996
2078
2176
2283
2391
2501
2597
2674
2741
2798
2849
2891
2921
2937
2943
2939
2903
2826
2753
2712
2688
2679
2659
2609
2568
2526
2443
2325
2196
2075
1976
1898
1823
1742
1672
1629
1604
1582
1560
1533
1487
1433
1392
1367
1340
1286
1200
1120
1070
1050
1047
1048
1067
1091
1081
1026
941
855
805
787
788
790
788
817
879
958
1078
1239
1409
1599
1834
2105
2404
2732
3085
3436
3731
3934
4060
4146
4233
4335
4434
4503
4523
4504
4465
4406
4329
4257
4208
4165
4087
3965
3817
3670
3547
3416
3248
3082
2941
2805
2695
2613
2522
2419
2305
2186
2081
2002
1955
1929
1917
1908
1900
1915
1961
2035
2125
2244
2406
2599
2778
2921
3027
3074
3074
3065
3063
3082
3118
3154
3166
3147
3110
3052
2997
2953
2890
2810
2732
2676
2635
2577
2498
2409
2323
2243
2161
2078
2000
1928
1854
1775
1684
1575
1459
1370
1303
1226
1151
1098
1060
1024
986
960
940
902
864
840
806
774
753
712
641
570
544
565
615
722
895
1108
1380
1707
2042
2373
2717
3061
3376
3653
3905
4144
4372
4578
4773
4964
5121
5216
5251
5250
5242
5227
5196
5159
5119
5068
4992
4882
4744
4599
4454
4300
4159
4054
3954
3828
3689
3551
3426
3333
3267
3200
3118
3051
3004
2968
2975
3014
3050
3088
3123
3150
3192
3249
3307
3397
3527
3645
3713
3737
3763
3812
3847
3844
3827
3834
3865
3896
3898
3858
3803
3760
3714
3653
3595
3530
3437
3311
3188
3121
3090
3050
3015
2967
2870
2736
2585
2436
2309
2225
2173
2111
2026
1939
1872
1841
1820
1789
1763
1770
1808
1849
1867
1868
1872
1889
1893
1842
1745
1655
1583
1501
1424
1381
1394
1500
1698
1940
2207
2505
2801
3071
3345
3615
3863
4103
4343
4571
4797
5023
5247
5467
5654
5791
5898
5990
6047
6058
6030
5968
5886
5806
5715
5606
5491
5376
5260
5133
4987
4842
4722
4618
4529
4461
4403
4348
4297
4250
4204
4147
4075
3987
3899
3837
3804
3792
3794
3823
3886
3969
4055
4139
4227
4324
4415
4489
4549
4611
4668
4708
4723
4708
4695
4704
4716
4715
4703
4678
4634
4580
4526
4452
4371
4305
4236
4130
4001
3880
3776
3678
3567
3457
3368
3302
3250
3194
3125
3045
2987
2954
2895
2812
2747
2705
2678
2657
2642
2634
2624
2602
2554
2483
2419
2379
2347
2296
2221
2157
2130
2108
2062
2015
1994
1998
2039
2147
2334
2572
2836
3133
3461
3797
4102
4379
4653
4926
5193
5432
5642
5847
6070
6301
6511
6692
6818
6861
6849
6823
6770
6657
6493
6314
6144
5983
5808
5614
5431
5284
5177
5113
5090
5075
5040
4968
4874
4782
4695
4603
4488
4347
4218
4131
4075
4033
4000
3993
4040
4126
4205
4280
4371
4478
4613
4761
4894
5025
5158
5287
5386
5436
5440
5401
5340
5260
5146
5029
4953
4919
4895
4852
4789
4708
4605
4502
4417
4335
4258
4213
4199
4193
4172
4123
4045
3959
3871
3761
3635
3524
3445
3388
3341
3298
3255
3230
3210
3170
3107
3029
2950
2874
2810
2749
2680
2634
2623
2608
2579
2551
2519
2493
2489
2517
2569
2647
2776
2954
3161
3406
3691
3989
4296
4611
4900
5167
5441
5703
5923
6090
6218
6339
6457
6551
6621
6668
6680
6662
6635
6601
6546
6465
6367
6262
6148
6019
5883
5760
5640
5491
5320
5159
4998
4846
4744
4677
4601
4519
4445
4385
4343
4315
4315
4342
4382
4439
4510
4592
4706
4837
4928
4973
5018
5093
5179
5228
5234
5225
5227
5244
5282
5322
5320
5294
5284
5298
5328
5362
5381
5369
5305
5193
5045
4891
4759
4633
4493
4365
4265
4174
4089
3997
3900
3830
3777
3731
3684
3617
3529
3437
3347
3271
3228
3217
3214
3204
3208
3222
3222
3201
3155
3092
3025
2984
2999
3036
3052
3054
3065
3104
3180
3296
3430
3582
3779
4012
4271
4552
4825
5092
5383
5680
5940
6150
6320
6459
6588
6738
6889
6998
7053
7069
7075
7072
7031
6956
6884
6824
6745
6637
6522
6403
6282
6175
6071
5965
5885
5836
5777
5664
5493
5304
5132
4982
4882
4862
4910
4991
5083
5185
5298
5411
5514
5609
5700
5794
5878
5924
5925
5929
5967
6016
6039
6010
5960
5936
5934
5926
5926
5926
5903
5861
5801
5728
5665
5603
5513
5394
5264
5130
4988
4861
4792
4777
4789
4803
4799
4770
4715
4639
4560
4498
4449
4406
4377
4351
4311
4266
4220
4175
4130
4084
4012
3900
3774
3653
3535
3416
3306
3215
3162
3161
3178
3179
3173
3174
3205
3302
3488
3730
3972
4223
4504
4824
5190
5558
5879
6165
6416
6614
6773
6930
7100
7260
7401
7536
7686
7851
8002
8117
8190
8195
8122
8007
7883
7754
7608
7464
7355
7281
7209
7119
7009
6889
6764
6619
6464
6319
6179
6051
5956
5889
5821
5745
5682
5657
5681
5756
5870
5980
6044
6074
6114
6188
6279
6368
6449
6514
6572
6630
6683
6736
6771
6781
6784
6781
6763
6729
6708
6705
6677
6592
6465
6324
6166
6012
5914
5880
5879
5871
5838
5808
5783
5734
5656
5545
5395
5228
5070
4933
4849
4836
4848
4829
4761
4663
4587
4554
4528
4481
4419
4366
4318
4268
4227
4189
4151
4123
4089
4036
3995
3986
3999
4017
4036
4082
4153
4231
4348
4542
4790
5050
5311
5604
5950
6315
6643
6927
7196
7470
7732
7952
8114
8229
8308
8357
8381
8377
8364
8358
8347
8331
8306
8251
8169
8086
7994
7892
7799
7734
7680
7591
7464
7318
7170
7047
6944
6825
6679
6523
6373
6250
6189
6184
6197
6235
6323
6427
6493
6535
6582
6635
6693
6758
6806
6829
6847
6856
6842
6815
6805
6839
6893
6925
6921
6878
6815
6748
6667
6577
6498
6423
6347
6291
6259
6227
6174
6108
6061
6032
5984
5911
5821
5714
5615
5554
5512
5461
5415
5359
5277
5195
5131
5091
5083
5092
5099
5102
5087
5018
4895
4768
4667
4579
4514
4486
4485
4489
4457
4387
4292
4182
4077
4006
4003
4066
4162
4294
4461
4633
4820
5055
5341
5655
5988
6337
6677
6972
7235
7507
7766
7977
8146
8283
8381
8434
8459
8462
8446
8407
8329
8219
8085
7938
7813
7726
7657
7580
7488
7399
7315
7204
7062
6923
6815
6729
6640
6544
6447
6359
6279
6200
6144
6121
6106
6092
6114
6185
6274
6341
6370
6393
6445
6504
6565
6634
6673
6663
6635
6609
6599
6610
6628
6649
6654
6634
6615
6615
6626
6614
6562
6486
6411
6355
6313
6261
6171
6041
5917
5834
5788
5738
5642
5520
5429
5372
5302
5199
5099
5015
4935
4866
4809
4745
4671
4596
4527
4460
4402
4370
4332
4274
4241
4243
4232
4189
4143
4110
4068
4010
3953
3899
3847
3820
3834
3895
4006
4158
4339
4542
4773
5031
5308
5601
5914
6242
6558
6848
7126
7394
7635
7835
7989
8112
8209
8261
8274
8263
8231
8195
8157
8102
8028
7937
7825
7700
7565
7422
7268
7107
6943
6795
6681
6591
6502
6410
6321
6240
6166
6080
5982
5911
5893
5906
5942
5998
6048
6083
6126
6175
6202
6209
6235
6302
6388
6489
6621
6755
6860
6922
6948
6952
6924
6871
6812
6754
6704
6660
6620
6579
6522
6446
6353
6257
6190
6132
6046
5941
5829
5717
5614
5523
5445
5366
5280
5182
5077
4992
4933
4877
4806
4731
4661
4589
4517
4457
4412
4376
4348
4335
4336
4320
4276
4231
4198
4165
4128
4092
4066
4045
4026
4017
4025
4048
4089
4163
4276
4432
4635
4891
5195
5533
5890
6245
6579
6880
7145
7378
7598
7816
8005
8158
8300
8447
8575
8662
8699
8690
8656
8597
8488
8335
8178
8034
7877
7704
7543
7393
7238
7094
6982
6907
6880
6888
6896
6888
6860
6823
6792
6748
6682
6609
6541
6486
6450
6438
6460
6496
6531
6574
6634
6703
6764
6813
6863
6936
7039
7145
7220
7258
7274
7281
7275
7250
7208
7140
7049
6979
6959
6944
6876
6767
6658
6570
6513
6461
6388
6296
6177
6046
5942
5851
5739
5614
5519
5462
5434
5431
5421
5381
5327
5273
5206
5128
5061
5025
5009
4990
4958
4904
4818
4730
4654
4565
4456
4342
4242
4163
4109
4093
4101
4116
4144
4180
4208
4248
4353
4526
4710
4886
5074
5289
5547
5850
6194
6558
6905
7219
7515
7790
8021
8222
8421
8621
8803
8943
9039
9083
9064
8989
8864
8702
8537
8421
8351
8266
8172
8102
8042
7968
7902
7846
7773
7682
7566
7420
7258
7108
6982
6871
6777
6700
6647
6615
6584
6559
6554
6574
6607
6637
6669
6719
6775
6819
6860
6909
6958
7007
7080
7175
7255
7313
7359
7374
7350
7299
7220
7127
7059
7026
6977
6885
6765
6638
6514
6382
6253
6163
6094
6022
5966
5941
5934
5934
5927
5915
5897
5849
5789
5738
5701
5680
5672
5676
5681
5649
5569
5476
5377
5283
5212
5133
5022
4892
4778
4693
4618
4529
4435
4368
4353
4383
4420
4427
4396
4335
4254
4185
4129
4084
4080
4115
4184
4324
4551
4824
5101
5364
5619
5879
6158
6482
6838
7199
7558
7888
8147
8349
8521
8662
8772
8860
8927
8970
8987
8983
8950
8882
8787
8671
8542
8398
8240
8095
7973
7870
7785
7692
7574
7462
7376
7287
7176
7073
6998
6930
6844
6769
6736
6712
6666
6611
6571
6558
6564
6574
6590
6612
6629
6664
6750
6870
6991
7085
7131
7148
7179
7235
7305
7350
7340
7297
7257
7224
7179
7116
7058
7031
7017
6969
6878
6771
6667
6553
6424
6289
6144
5987
5821
5676
5589
5558
5557
5566
5550
5506
5458
5413
5372
5314
5223
5118
5001
4863
4718
4581
4468
4384
4337
4341
4378
4402
4378
4332
4315
4314
4306
4316
4347
4356
4328
4293
4281
4278
4256
4218
4196
4229
4336
4499
4713
4979
5270
5562
5871
6226
6622
7034
7420
7715
7930
8127
8307
8431
8489
8509
8526
8538
8520
8473
8403
8321
8246
8157
8057
7964
7863
7748
7623
7489
7347
7191
7031
6887
6756
6620
6466
6309
6193
6123
6055
5965
5868
5781
5697
5611
5561
5589
5668
5755
5855
5952
6031
6126
6262
6408
6526
6602
6652
6714
6787
6834
6841
6826
6813
6799
6757
6691
6632
6587
6558
6518
6451
6362
6239
6088
5930
5766
5607
5477
5375
5310
5278
5240
5180
5130
5109
5082
5007
4887
4740
4604
4508
4442
4410
4424
4467
4506
4538
4568
4566
4502
4398
4292
4189
4074
3958
3868
3788
3701
3623
3561
3535
3563
3612
3655
3719
3836
4004
4198
4419
4704
5068
5483
5913
6332
6724
7094
7439
7738
7966
8129
8280
8420
8516
8565
8577
8585
8597
8604
8597
8556
8482
8378
8236
8058
7858
7665
7492
7317
7133
6962
6824
6710
6595
6458
6305
6148
6001
5889
5811
5726
5642
5593
5560
5530
5535
5598
5687
5766
5842
5928
6029
6143
6273
6420
6546
6624
6689
6755
6799
6820
6817
6821
6829
6795
6712
6616
6537
6482
6437
6373
6294
6235
6184
6096
5975
5842
5708
5590
5472
5350
5245
5149
5051
4947
4841
4733
4625
4542
4496
4447
4367
4273
4188
4116
4040
3976
3937
3887
3808
3714
3649
3626
3608
3590
3587
3590
3616
3679
3766
3848
3904
3970
4073
4216
4433
4734
5073
5391
5679
5977
6300
6628
6929
7209
7485
7732
7938
8116
8255
8358
8449
8533
8586
8581
8535
8499
8482
8457
8412
8345
8247
8107
7956
7822
7696
7572
7442
7299
7151
7024
6925
6842
6778
6703
6589
6449
6300
6152
6021
5920
5865
5868
5908
5957
6023
6132
6283
6442
6611
6785
6923
7034
7146
7242
7315
7373
7418
7439
7431
7429
7446
7444
7392
7310
7232
7142
7039
6959
6891
6795
6677
6563
6443
6318
6198
6098
6045
6041
6038
6003
5961
5911
5826
5721
5638
5595
5584
5578
5546
5481
5380
5244
5109
5014
4947
4874
4787
4704
4627
4540
4456
4402
4385
4390
4396
4408
4430
4457
4521
4634
4762
4900
5065
5274
5539
5851
6204
6576
6927
7246
7560
7877
8188
8488
8763
9001
9196
9347
9461
9546
9615
9663
9668
9626
9565
9509
9438
9339
9227
9096
8942
8777
8602
8435
8313
8242
8196
8146
8070
7971
7852
7707
7562
7450
7363
7278
7197
7131
7089
7087
7120
7184
7289
7433
7597
7746
7858
7967
8100
8240
8374
8497
8595
8662
8711
8727
8685
8617
8570
8552
8527
8457
8344
8221
8120
8040
7954
7857
7757
7666
7577
7467
7358
7268
7171
7068
6973
6884
6793
6701
6622
6542
6458
6386
6331
6281
6226
6168
6108
6048
5988
5943
5907
5859
5803
5750
5712
5686
5657
5618
5563
5498
5454
5437
5438
5460
5491
5551
5661
5802
5983
6222
6506
6828
7180
7531
7847
8151
8462
8764
9043
9298
9516
9675
9799
9914
9998
10034
10039
10036
10035
10032
10010
9977
9936
9868
9784
9710
9640
9546
9443
9362
9289
9198
9085
8943
8789
8670
8606
8560
8497
8431
8386
8351
8307
8255
8217
8210
8228
8250
8279
8319
8344
8351
8359
8365
8359
8374
8436
8523
8604
8673
8712
8710
8695
8693
8718
8736
8696
8595
8473
8365
8277
8203
8129
8041
7954
7893
7851
7797
7711
7599
7497
7449
7443
7423
7370
7290
7191
7099
7007
6907
6821
6740
6648
6570
6518
6474
6413
6346
6297
6272
6265
6241
6176
6080
5990
5918
5845
5765
5680
5602
5537
5480
5450
5469
5547
5689
5883
6095
6308
6541
6790
7065
7383
7731
8089
8433
8748
9039
9313
9549
9739
9906
10053
10175
10275
10352
10403
10418
10402
10371
10323
10267
10179
10031
9843
9638
9447
9289
9147
9018
8901
8774
8661
8600
8570
8545
8508
8434
8337
8262
8219
8195
8197
8211
8199
8155
8117
8100
8121
8194
8301
8420
8521
8574
8586
8602
8652
8732
8814
8883
8928
8912
8839
8749
8653
8558
8467
8361
8244
8140
8060
8024
8010
7965
7892
7808
7716
7633
7558
7484
7412
7338
7256
7160
7050
6954
6882
6817
6758
6703
6650
6600
6543
6473
6396
6312
6243
6189
6133
6073
6006
5948
5906
5873
5855
5836
5814
5796
5761
5712
5668
5641
5610
5563
5542
5581
5682
5839
6055
6322
6612
6888
7127
7350
7595
7882
8186
8472
8741
8994
9226
9435
9612
9756
9874
9952
9967
9922
9846
9766
9679
9576
9488
9444
9425
9376
9260
9093
8901
8711
8569
8487
8417
8315
8197
8090
7996
7890
7762
7631
7504
7383
7274
7195
7165
7195
7283
7395
7488
7569
7663
7768
7881
7999
8113
8216
8306
8383
8462
8537
8571
8563
8525
8484
8445
8381
8281
8174
8094
8046
8005
7960
7913
7855
7788
7721
7643
7546
7448
7370
7308
7261
7201
7113
7006
6881
6747
6609
6478
6361
6264
6203
6161
6112
6068
6047
6042
6045
6057
6087
6109
6099
6067
6016
5951
5885
5832
5793
5757
5726
5727
5774
5875
6041
6239
6445
6682
6942
7214
7499
7767
8010
8268
8555
8842
9108
9363
9614
9843
10006
10096
10161
10239
10303
10323
10323
10311
10260
10158
10032
9924
9825
9698
9544
9390
9248
9102
8943
8788
8646
8520
8428
8346
8247
8164
8098
8009
7889
7760
7641
7567
7549
7564
7602
7645
7680
7726
7798
7909
8040
8162
8278
8405
8519
8597
8670
8745
8774
8747
8698
8653
8615
8565
8486
8402
8331
8248
8156
8073
7985
7894
7792
7667
7539
7436
7353
7256
7135
7005
6873
6753
6681
6665
6664
6627
6548
6471
6433
6410
6367
6304
6224
6144
6092
6056
6001
5931
5872
5833
5824
5849
5894
5927
5926
5925
5956
6028
6150
6314
6493
6682
6893
7142
7441
7763
8081
8380
8646
8890
9143
9421
9713
9996
10257
10489
10665
10779
10845
10859
10844
10796
10695
10562
10424
10284
10145
10030
9946
9878
9804
9705
9612
9560
9529
9483
9410
9306
9174
9033
8927
8866
8822
8767
8704
8645
8591
8565
8562
8555
8578
8676
8811
8905
8952
9008
9070
9119
9178
9248
9305
9361
9430
9488
9526
9555
9564
9555
9558
9572
9568
9532
9475
9414
9360
9312
9261
9212
9142
9015
8853
8697
8554
8441
8363
8286
8187
8079
7960
7810
7656
7535
7437
7327
7211
7114
7036
6993
6993
7022
7069
7114
7143
7156
7176
7210
7249
7283
7297
7287
7256
7215
