44439
44456
44410
44421
44406
44407
44457
44412
44421
44462
44478
44518
44493
44514
44606
44556
44519
44517
44512
44563
44552
44538
44599
44585
44606
44641
44659
44693
44630
44606
44702
44696
44684
44679
44663
44697
44694
44732
44800
44725
44729
44795
44798
44825
44827
44829
44860
44822
44868
44916
44900
44931
44938
44962
45013
44950
44972
45047
45078
45124
45097
45073
45121
45101
45123
45136
45119
45166
45166
45175
45240
45209
45212
45196
45125
45123
45089
45042
45033
44945
44902
44850
44772
44768
44695
44594
44577
44515
44481
44434
44381
44393
44331
44281
44313
44248
44211
44182
44127
44146
44131
44108
44135
44085
44070
44048
44008
44046
44031
44012
44067
44039
44026
44021
44018
44066
44038
44041
44143
44130
44112
44119
44136
44203
44199
44204
44248
44180
44191
44251
44239
44233
44214
44255
44342
44303
44299
44309
44284
44327
44336
44330
44365
44331
44362
44399
44386
44393
44356
44378
44466
44418
44414
44446
44431
44450
44438
44442
44495
44466
44499
44532
44512
44540
44530
44534
44604
44589
44608
44626
44616
44666
44671
44687
44738
44684
44721
44813
44838
44856
44816
44802
44843
44790
44799
44838
44834
44853
44817
44793
44799
44704
44698
44711
44634
44592
44541
44494
44479
44373
44308
44259
44214
44224
44151
44085
44093
44015
44001
44012
43948
43906
43861
43873
43924
43849
43833
43862
43837
43817
43774
43795
43845
43782
43844
43920
43844
43822
43852
43862
43883
43883
43942
43948
43937
44012
43994
43960
44037
44033
44000
43966
43985
44080
44064
44042
44116
44097
44094
44113
44129
44197
44194
44185
44233
44195
44201
44211
44195
44255
44258
44228
44263
44258
44289
44298
44287
44335
44318
44321
44382
44332
44351
44404
44394
44426
44430
44435
44500
44488
44495
44514
44548
44601
44545
44544
44641
44601
44607
44659
44656
44693
44705
44701
44743
44748
44803
44796
44737
44786
44798
44770
44795
44767
44765
44734
44678
44676
44616
44584
44600
44486
44435
44415
44327
44303
44287
44255
44227
44127
44105
44101
44068
44074
44029
44021
44064
43974
43943
43973
43961
43965
43925
43910
43949
43905
43932
43979
43951
43935
43907
43951
44037
43987
44007
44068
44050
44048
44032
44049
44118
44100
44123
44148
44151
44217
44215
44203
44267
44256
44259
44246
44219
44265
44255
44247
44301
44270
44285
44300
44272
44312
44322
44320
44350
44315
44362
44402
44376
44420
44425
44407
44463
44478
44505
44493
44490
44579
44594
44611
44697
44668
44663
44677
44669
44723
44730
44727
44783
44780
44830
44847
44814
44877
44907
44885
44894
44878
44949
44969
44912
44976
45034
45030
45048
45032
45066
45051
44989
45000
44964
44935
44945
44833
44778
44763
44704
44677
44590
44503
44501
44447
44422
44380
44325
44332
44259
44192
44218
44172
44164
44156
44114
44142
44129
44112
44163
44139
44133
44119
44093
44120
44089
44082
44119
44034
44043
44135
44152
44136
44095
44141
44233
44178
44180
44225
44208
44210
44184
44192
44272
44275
44297
44286
44253
44309
44304
44268
44306
44298
44320
44310
44277
44335
44348
44352
44409
44360
44339
44376
44440
44508
44444
44399
44446
44399
44420
44465
44438
44482
44539
44566
44567
44496
44544
44605
44595
44631
44610
44574
44635
44655
44678
44670
44686
44779
44771
44761
44828
44792
44811
44857
44845
44874
44872
44870
44921
44910
44940
44930
44866
44880
44859
44825
44842
44781
44759
44725
44647
44621
44555
44511
44504
44384
44350
44365
44308
44257
44175
44145
44199
44146
44092
44047
44030
44083
44026
43942
43969
43942
43915
43884
43862
43881
43835
43848
43912
43800
43750
43810
43835
43853
43833
43846
43907
43883
43920
43941
43890
43913
43942
43963
43987
43931
43972
44024
43995
43997
43983
44002
44063
44034
44076
44112
44066
44086
44113
44144
44189
44136
44141
44170
44168
44189
44143
44139
44210
44162
44159
44208
44220
44229
44183
44202
44294
44246
44221
44241
44250
44296
44289
44300
44359
44317
44341
44382
44355
44374
44392
44441
44508
44453
44464
44516
44526
44550
44522
44532
44603
44567
44594
44648
44634
44625
44585
44587
44618
44528
44527
44548
44465
44408
44347
44307
44328
44276
44227
44142
44073
44111
44064
43974
43952
43876
43854
43828
43760
43753
43706
43664
43687
43623
43591
43589
43588
43609
43545
43524
43601
43565
43559
43588
43576
43575
43537
43552
43606
43536
43547
43601
43587
43619
43642
43659
43701
43682
43729
43745
43699
43737
43743
43731
43792
43792
43795
43783
43799
43879
43846
43819
43910
43910
43905
43917
43920
43932
43872
43878
43973
43934
43932
43971
43967
44008
44031
44065
44120
44078
44093
44118
44110
44171
44195
44209
44255
44217
44240
44264
44244
44297
44319
44324
44361
44330
44374
44399
44357
44396
44431
44459
44517
44488
44501
44513
44508
44567
44556
44539
44595
44567
44561
44538
44479
44482
44440
44400
44409
44320
44276
44249
44185
44157
44081
44032
44049
43965
43921
43893
43834
43835
43805
43788
43817
43749
43725
43721
43694
43723
43693
43656
43667
43613
43646
43686
43649
43658
43640
43621
43661
43635
43649
43675
43694
43747
43711
43701
43780
43752
43765
43824
43833
43810
43732
43758
43882
43866
43868
43887
43860
43895
43909
43902
43924
43896
43938
43957
43930
43992
44014
44005
44040
44020
44058
44083
44058
44086
44072
44075
44132
44087
44088
44127
44134
44159
44153
44203
44264
44170
44185
44261
44236
44256
44291
44303
44338
44336
44368
44360
44350
44415
44417
44446
44507
44412
44410
44491
44501
44531
44542
44545
44584
44573
44613
44609
44565
44609
44592
44537
44545
44485
44441
44385
44332
44347
44286
44233
44241
44141
44083
44036
43951
43962
43944
43875
43876
43857
43844
43798
43790
43842
43754
43685
43760
43750
43743
43729
43671
43685
43689
43698
43745
43697
43690
43717
43729
43744
43692
43729
43841
43770
43724
43775
43822
43870
43840
43827
43886
43866
43887
43905
43901
43977
43993
43951
43940
43902
43962
43999
43961
43988
43995
43995
44040
44020
44057
44075
44033
44053
44056
44085
44158
44124
44134
44158
44145
44187
44187
44180
44212
44161
44181
44241
44272
44326
44305
44294
44342
44293
44305
44356
44372
44422
44415
44419
44485
44453
44447
44470
44486
44515
44463
44469
44561
44525
44542
44611
44621
44625
44585
44575
44604
44530
44523
44509
44413
44392
44381
44347
44309
44209
44201
44189
44101
44063
44013
43992
43994
43877
43842
43853
43810
43801
43754
43711
43730
43688
43688
43671
43629
43667
43659
43641
43684
43644
43627
43613
43589
43627
43633
43664
43697
43601
43638
43721
43677
43694
43740
43735
43743
43752
43808
43784
43740
43804
43801
43792
43855
43822
43831
43876
43903
43960
43934
43896
43940
43933
43972
44001
43980
43986
43945
43948
44019
43976
43980
44019
44006
44006
43972
43992
44074
44045
44058
44091
44087
44135
44150
44164
44204
44173
44241
44294
44247
44275
44303
44291
44310
44303
44346
44342
44307
44351
44347
44367
44460
44430
44406
44393
44371
44419
44424
44433
44504
44469
44440
44415
44392
44412
44330
44250
44270
44214
44168
44121
44062
44054
43971
43889
43883
43802
43771
43753
43691
43667
43601
43564
43593
43527
43500
43480
43433
43462
43451
43419
43436
43390
43391
43392
43370
43393
43349
43318
43360
43317
43330
43351
43318
43346
43341
43322
43368
43369
43395
43387
43379
43468
43485
43468
43512
43489
43503
43504
43466
43493
43509
43551
43597
43511
43522
43583
43567
43603
43629
43610
43594
43550
43611
43645
43602
43627
43651
43691
43732
43665
43708
43767
43725
43765
43810
43793
43801
43802
43846
43847
43839
43878
43841
43876
43993
43944
43945
44019
44021
44024
44014
44032
44073
44030
44068
44107
44090
44138
44141
44114
44156
44163
44186
44152
44097
44122
44080
44035
44061
43977
43902
43853
43801
43786
43711
43668
43681
43568
43495
43451
43371
43362
43344
43318
43310
43234
43247
43251
43176
43170
43168
43170
43188
43107
43085
43091
43068
43071
43016
43007
43069
43000
42957
42976
43004
43056
43037
43045
43109
43061
43073
43122
43120
43152
43159
43169
43192
43129
43166
43238
43245
43269
43254
43263
43323
43294
43320
43349
43323
43344
43343
43356
43396
43342
43372
43418
43395
43431
43445
43432
43448
43415
43453
43490
43489
43520
43496
43512
43588
43545
43565
43611
43596
43641
43667
43662
43684
43663
43697
43690
43652
43729
43756
43733
43776
43779
43804
43811
43817
43870
43829
43814
43898
43890
43926
43967
43920
43896
43868
43870
43886
43789
43764
43767
43705
43672
43618
43591
43590
43477
43427
43393
43307
43292
43267
43225
43203
43129
43152
43150
43053
43029
43018
43009
43023
42963
42975
42983
42940
42958
42940
42927
42979
42948
42941
42944
42936
42956
42920
42946
43033
42970
42968
43033
43035
43044
43036
43053
43102
43077
43138
43184
43144
43178
43202
43188
43188
43151
43202
43240
43228
43279
43282
43287
43365
43364
43370
43346
43303
43356
43382
43405
43455
43407
43423
43448
43414
43446
43470
43497
43554
43521
43540
43575
43593
43653
43629
43602
43662
43663
43715
43770
43770
43785
43747
43759
43863
43856
43853
43856
43844
43896
43911
43931
43971
43910
43944
44021
44018
44022
43992
43985
44023
43964
43938
43903
43849
43887
43882
43825
43786
43702
43712
43703
43609
43581
43554
43524
43509
43424
43432
43425
43331
43316
43305
43280
43288
43247
43263
43244
43188
43228
43220
43178
43207
43192
43204
43192
43157
43176
43149
43176
43286
43256
43237
43277
43309
43336
43288
43296
43369
43317
43332
43387
43366
43369
43366
43384
43431
43388
43402
43420
43406
43452
43429
43397
43465
43479
43480
43455
43460
43542
43517
43491
43574
43573
43576
43575
43560
43612
43598
43570
43624
43641
43700
43716
43684
43742
43766
43759
43799
43791
43835
43842
43802
43857
43874
43862
43906
43893
43913
43929
43945
44019
43995
43973
44062
44068
44062
44060
44074
44140
44134
44150
44213
44149
44146
44166
44110
44123
44130
44082
44031
43947
43948
43920
43835
43808
43734
43680
43709
43655
43630
43607
43554
43561
43528
43502
43514
43430
43415
43428
43393
43405
43389
43384
43422
43374
43388
43410
43381
43399
43396
43412
43455
43397
43422
43458
43412
43426
43457
43498
43545
43494
43505
43525
43515
43571
43569
43552
43605
43579
43558
43553
43590
43678
43646
43615
43676
43652
43674
43698
43648
43659
43700
43765
43825
43773
43799
43817
43751
43769
43800
43809
43829
43800
43857
43900
43893
43951
43952
43941
44006
44005
44021
44010
43986
44045
44028
43992
44057
44080
44114
44110
44098
44170
44160
44120
44172
44173
44190
44196
44193
44235
44210
44227
44316
44283
44293
44330
44293
44270
44238
44240
44258
44149
44105
44097
44041
44021
43962
43911
43902
43805
43768
43753
43704
43693
43628
43585
43613
43546
43517
43505
43468
43478
43420
43360
43397
43375
43364
43347
43333
43360
43313
43314
43394
43338
43316
43349
43361
43407
43407
43406
43448
43413
43430
43428
43382
43442
43493
43506
43524
43468
43484
43512
43502
43529
43504
43511
43583
43540
43535
43555
43539
43571
43570
43586
43642
43607
43632
43666
43645
43673
43679
43699
43757
43723
43742
43755
43712
43734
43743
43771
43843
43831
43872
43893
43852
43892
43917
43926
43972
43958
43990
43985
43935
43983
44017
44036
44066
44014
44063
44134
44117
44111
44075
44079
44158
44157
44189
44204
44184
44235
44226
44179
44177
44112
44086
44053
44005
44026
43974
43898
43888
43811
43774
43738
43673
43661
43603
43554
43555
43461
43429
43415
43347
43327
43299
43296
43316
43234
43236
43263
43226
43241
43228
43198
43211
43182
43215
43223
43179
43189
43164
43165
43215
43171
43194
43208
43160
43232
43290
43248
43239
43259
43324
43309
43291
43376
43365
43326
43381
43375
43411
43452
43442
43465
43452
43463
43504
43444
43480
43543
43518
43535
43554
43563
43565
43495
43536
43594
43583
43618
43631
43648
43693
43653
43683
43711
43675
43708
43732
43755
43800
43752
43762
43791
43794
43843
43844
43865
43935
43890
43886
43903
43892
43957
43978
43969
44011
43997
44013
44018
44028
44101
44073
44016
44019
43949
43951
43972
43932
43926
43884
43836
43816
43710
43667
43639
43580
43578
43519
43447
43442
43377
43345
43295
43237
43287
43282
43218
43188
43124
43145
43143
43077
43097
43094
43052
43036
42975
42996
43008
42962
42981
42979
42987
43031
42975
42975
42994
42974
43010
43013
43022
43071
43032
43053
43086
43082
43138
43141
43126
43175
43159
43162
43149
43139
43199
43190
43182
43237
43192
43197
43244
43259
43287
43256
43255
43312
43276
43309
43348
43304
43301
43295
43304
43359
43336
43354
43371
43372
43433
43433
43435
43483
43444
43484
43536
43497
43485
43466
43475
43532
43513
43561
43619
43621
43645
43611
43610
43702
43707
43727
43739
43718
43733
43695
43698
43789
43772
43761
43751
43712
43720
43675
43649
43689
43613
43529
43465
43429
43452
43363
43255
43259
43227
43229
43201
43129
43129
43086
43028
43023
42954
42938
42924
42881
42906
42894
42876
42882
42796
42795
42833
42821
42845
42822
42795
42815
42771
42788
42799
42766
42806
42815
42816
42868
42849
42874
42895
42878
42898
42863
42868
42961
42949
42952
42961
42944
42980
42973
42983
43052
43026
43025
43017
42985
43037
43057
43058
43091
43055
43086
43105
43065
43103
43128
43135
43168
43130
43157
43195
43193
43218
43205
43240
43308
43227
43219
43280
43283
43308
43317
43340
43381
43334
43362
43381
43336
43375
43414
43433
43465
43423
43455
43502
43512
43550
43529
43540
43610
43569
43585
43622
43587
43581
43557
43550
43583
43528
43517
43501
43445
43443
43388
43329
43326
43242
43196
43155
43088
43080
43036
43017
43057
42981
42927
42891
42851
42882
42855
42806
42810
42756
42764
42776
42753
42785
42754
42715
42764
42776
42814
42806
42757
42793
42804
42818
42871
42832
42856
42888
42866
42901
42921
42939
42979
42942
42985
43017
42988
43058
43108
43093
43096
43067
43093
43085
43060
43118
43111
43097
43151
43139
43194
43228
43178
43203
43215
43194
43227
43231
43273
43290
43295
43338
43284
43277
43392
43382
43363
43402
43451
43488
43438
43461
43558
43499
43486
43532
43525
43556
43570
43575
43610
43585
43619
43642
43635
43690
43687
43687
43749
43721
43731
43745
43728
43776
43778
43769
43821
43805
43815
43803
43749
43738
43679
43655
43685
43595
43549
43519
43435
43414
43370
43316
43330
43303
43293
43235
43162
43169
43112
43068
43124
43096
43071
43038
43000
43038
43014
42970
42978
42934
42976
43013
42966
42969
42968
42988
43060
43052
43072
43068
43029
43070
43085
43100
43145
43079
43064
43096
43114
43156
43137
43152
43228
43179
43171
43209
43220
43250
43217
43205
43264
43245
43277
43310
43296
43330
43324
43314
43337
43300
43365
43421
43372
43376
43380
43381
43430
43424
43455
43463
43456
43509
43509
43537
43607
43553
43575
43616
43570
43597
43627
43614
43640
43655
43704
43693
43680
43759
43750
43726
43786
43771
43800
43829
43802
43824
43810
43799
43852
43834
43846
43855
43842
43861
43793
43734
43747
43650
43587
43569
43524
43478
43368
43316
43341
43246
43196
43186
43128
43098
43033
42988
43005
42944
42916
42869
42797
42829
42843
42824
42804
42689
42657
42693
42710
42727
42670
42656
42693
42624
42656
42720
42667
42649
42676
42720
42749
42688
42704
42719
42689
42740
42776
42806
42848
42786
42782
42796
42774
42805
42792
42779
42830
42820
42841
42830
42788
42844
42868
42849
42861
42828
42876
42901
42851
42865
42869
42880
42923
42873
42878
42905
42897
42921
42902
42920
42987
42928
42919
42964
42974
42990
42959
42981
43067
43043
43066
43078
43033
43097
43152
43124
43112
43106
43179
43207
43185
43211
43183
43211
43324
43290
43258
43278
43299
43333
43276
43234
43282
43254
43255
43248
43196
43181
43113
43061
43074
42994
42936
42871
42791
42805
42758
42665
42659
42634
42612
42561
42529
42545
42445
42372
42413
42346
42303
42306
42296
42321
42285
42240
42259
42224
42241
42243
42204
42234
42235
42236
42279
42245
42274
42309
42291
42314
42294
42281
42327
42306
42335
42355
42336
42386
42376
42324
42344
42349
42404
42434
42431
42476
42464
42475
42527
42456
42465
42535
42537
42547
42532
42543
42601
42556
42531
42532
42543
42590
42570
42598
42681
42616
42605
42663
42674
42705
42715
42741
42791
42750
42777
42814
42795
42820
42811
42815
42884
42871
42886
42910
42917
42948
42922
42955
43032
42957
42962
43039
43037
43042
43031
43043
43100
43063
43029
42986
42969
43035
42986
42891
42897
42850
42796
42742
42707
42693
42582
42535
42581
42482
42418
42410
42351
42316
42272
42250
42261
42199
42205
42206
42149
42152
42131
42114
42137
42087
42093
42087
42045
42097
42112
42077
42099
42095
42116
42097
42085
42173
42193
42181
42213
42177
42224
42273
42233
42238
42243
42267
42339
42348
42389
42363
42293
42376
42455
42445
42452
42457
42534
42570
42553
42574
42537
42551
42651
42632
42642
42678
42665
42685
42667
42663
42718
42705
42736
42751
42736
42813
42854
42858
42891
42859
42886
42908
42902
42965
42975
42977
43040
43033
43069
43092
43078
43137
43155
43157
43207
43185
43212
43252
43284
43365
43355
43324
43382
43394
43436
43442
43405
43442
43429
43386
43385
43328
43330
43313
43233
43211
43140
43052
43041
42981
42954
42930
42891
42864
42765
42750
42817
42718
42661
42688
42674
42669
42639
42642
42692
42638
42606
42590
42563
42568
42507
42491
42563
42533
42536
42559
42540
42560
42550
42567
42630
42598
42611
42618
42587
42644
42660
42631
42666
42676
42700
42675
42657
42736
42739
42732
42801
42782
42786
42794
42773
42807
42803
42806
42847
42793
42813
42881
42908
42937
42902
42898
42963
42923
42918
42940
42938
42977
42968
42986
43074
43052
43046
43060
43069
43122
43115
43130
43198
43159
43187
43258
43268
43278
43248
43273
43369
43363
43386
43388
43338
43376
43395
43387
43433
43448
43500
43494
43443
43480
43478
43474
43530
43496
43485
43468
43426
43449
43404
43333
43334
43270
43219
43155
43094
43111
43062
43015
43043
42980
42956
42955
42923
42922
42872
42854
42904
42845
42813
42802
42778
42808
42791
42773
42792
42733
42762
42815
42786
42777
42770
42816
42888
42832
42837
42873
42861
42894
42908
42934
42989
42948
42964
42994
42997
43067
43073
43041
43070
43064
43103
43104
43066
43114
43131
43136
43162
43099
43120
43173
43165
43188
43179
43186
43230
43192
43229
43261
43226
43267
43298
43300
43321
43282
43304
43323
43316
43366
43364
43371
43428
43388
43420
43470
43454
43490
43513
43532
43573
43549
43600
43616
43558
43606
43656
43671
43713
43705
43735
43723
43697
43774
43785
43758
43808
43799
43802
43792
43770
43779
43697
43650
43710
43655
43591
43551
43506
43496
43424
43388
43421
43345
43306
43275
43197
43194
43184
43155
43131
43038
43044
43064
43026
43044
43025
42994
43021
42995
43024
43041
43009
43015
42976
42972
43021
42960
42977
43038
43031
43042
43019
43015
43075
43058
43062
43062
43057
43107
43098
43113
43167
43104
43133
43207
43191
43198
43194
43191
43219
43189
43229
43261
43248
43283
43245
43205
43276
43305
43342
43344
43328
43370
43356
43375
43457
43409
43394
43417
43414
43454
43459
43478
43541
43523
43566
43595
43562
43614
43645
43631
43652
43647
43706
43712
43662
43715
43737
43727
43769
43766
43811
43827
43794
43819
43811
43827
43888
43838
43856
43923
43929
43925
43869
43859
43910
43840
43802
43792
43740
43700
43628
43611
43618
43477
43418
43424
43360
43317
43271
43258
43282
43206
43168
43137
43092
43109
43056
42999
43022
42976
42965
42966
42959
42989
42919
42849
42896
42890
42894
42882
42858
42900
42895
42909
42974
42934
42955
42999
42974
42985
42991
43016
43047
42979
43014
43069
43043
43077
43099
43085
43087
43040
43065
43087
43083
43122
43094
43095
43179
43154
43148
43163
43162
43206
43197
43201
43261
43223
43222
43238
43232
43277
43274
43278
43331
43300
43330
43357
43323
43358
43370
43368
43416
43412
43452
43469
43453
43491
43466
43469
43570
43572
43570
43569
43570
43629
43624
43629
43699
43665
43668
43697
43690
43701
43670
43689
43769
43715
43685
43687
43660
43656
43598
43549
43531
43407
43364
43375
43333
43295
43214
43168
43171
43077
43055
43046
42967
42951
42929
42892
42883
42819
42823
42821
42787
42812
42767
42708
42728
42689
42688
42699
42702
42752
42711
42663
42704
42692
42724
42748
42727
42758
42743
42734
42787
42768
42790
42805
42794
42856
42857
42826
42857
42847
42884
42904
42899
42956
42942
42920
42987
42998
43032
43037
43012
43065
43087
43111
43172
43130
43132
43152
43143
43188
43172
43142
43194
43195
43215
43222
43224
43277
43253
43247
43307
43274
43319
43376
43341
43364
43392
43394
43417
43409
43476
43508
43485
43530
43545
43569
43617
43551
43569
43647
43663
43674
43644
43660
43722
43664
43658
43690
43671
43655
43587
43562
43608
43539
43477
43420
43346
43332
43278
43237
43232
43124
43095
43109
43058
43010
42919
42870
42904
42850
42821
42795
42754
42768
42724
42681
42696
42649
42673
42680
42607
42618
42634
42621
42625
42590
42625
42631
42590
42628
42642
42650
42671
42608
42651
42704
42663
42700
42757
42774
42780
42736
42765
42776
42749
42786
42771
42766
42832
42821
42853
42884
42851
42846
42830
42875
42957
42910
42931
42977
42946
42964
42969
42956
42989
42996
43057
43046
42978
43031
43066
43062
43100
43097
43150
43176
43161
43218
43229
43237
43301
43271
43271
43291
43295
43332
43320
43354
43443
43401
43412
43468
43469
43481
43473
43499
43535
43459
43500
43591
43581
43579
43566
43575
43619
43565
43534
43498
43454
43465
43403
43351
43370
43288
43236
43201
43148
43159
43100
43013
43017
42994
42996
42964
42915
42936
42899
42874
42894
42796
42769
42804
42784
42766
42733
42769
42842
42769
42747
42786
42796
42823
42807
42820
42880
42835
42842
42866
42853
42907
42929
42936
42983
42959
42984
43015
43029
43085
43050
43012
43071
43078
43120
43126
43074
43104
43128
43158
43221
43193
43209
43211
43178
43232
43259
43265
43304
43268
43286
43306
43309
43377
43368
43331
43380
43393
43439
43448
43427
43487
43481
43453
43517
43530
43549
43536
43521
43576
43563
43559
43624
43601
43640
43692
43673
43692
43682
43690
43776
43788
43795
43792
43811
43887
43871
43883
43964
43905
43879
43907
43904
43918
43863
43793
43778
43708
43700
43681
43607
43579
43522
43492
43504
43417
43403
43402
43328
43311
43294
43284
43307
43239
43202
43163
43132
43195
43201
43187
43225
43189
43203
43195
43138
43182
43212
43203
43226
43209
43252
43277
43268
43315
43305
43303
43355
43311
43337
43407
43426
43457
43438
43430
43469
43441
43508
43565
43508
43498
43519
43568
43617
43554
43565
43604
43610
43669
43668
43655
43710
43691
43686
43689
43706
43753
43693
43668
43756
43738
43738
43761
43761
43813
43817
43810
43838
43806
43873
43940
43915
43928
43932
43953
44010
43975
43988
44004
44001
44075
44085
44063
44113
44121
44166
44181
44167
44223
44224
44222
44268
44227
44245
44269
44245
44298
44326
44307
44281
44178
44148
44114
44044
44057
44022
43934
43866
43765
43774
43756
43640
43610
43590
43556
43566
43538
43558
43529
43447
43446
43425
43415
43428
43349
43374
43412
43336
43315
43311
43294
43308
43284
43315
43315
43287
43330
43332
43353
43412
43364
43404
43446
43376
43382
43431
43456
43473
43439
43472
43471
43444
43525
43551
43531
43568
43555
43572
43553
43515
43583
43603
43587
43630
43620
43645
43650
43641
43715
43703
43653
43704
43728
43759
43729
43683
43744
43755
43748
43801
43782
43804
43818
43799
43850
43856
43848
43901
43894
43938
43978
43972
44001
43981
44003
44099
44075
44073
44109
44135
44192
44178
44181
44249
44212
44207
44225
44218
44253
44235
44224
44253
44181
44162
44150
44079
44056
44012
43972
43937
43809
43786
43789
43709
43674
43624
43568
43564
43515
43511
43459
43368
43390
43382
43324
43296
43228
43247
43263
43212
43205
43170
43167
43227
43183
43170
43163
43124
43139
43124
43134
43197
43145
43123
43134
43139
43187
43174
43179
43238
43189
43198
43255
43276
43298
43247
43227
43297
43291
43314
43314
43277
43333
43360
43349
43380
43374
43423
43421
43354
43374
43388
43396
43415
43351
43400
43473
43449
43458
43464
43488
43549
43506
43490
43505
43540
43605
43558
43539
43624
43599
43597
43648
43683
43705
43647
43662
43792
43803
43813
43833
43838
43904
43917
43910
43936
43895
43938
43996
43997
44026
44011
44018
44085
44053
44048
44036
43992
44006
43940
43838
43823
43785
43768
43700
43619
43639
43586
43475
43418
43344
43373
43372
43270
43238
43209
43172
43176
43117
43098
43068
43021
43024
42963
42933
42979
42916
42892
42878
42826
42862
42876
42846
42865
42865
42909
42899
42853
42886
42875
42877
42937
42890
42892
42932
42936
42967
42962
42988
43056
43014
43042
43101
43082
43062
43021
43051
43158
43158
43186
43208
43174
43179
43157
43168
43243
43223
43236
43252
43238
43274
43253
43242
43305
43289
43296
43292
43266
43313
43313
43315
43378
43358
43369
43376
43364
43435
43457
43443
43459
43417
43461
43516
43516
43561
43579
43617
43683
43636
43644
43660
43631
43692
43730
43723
43759
43764
43806
43800
43764
43798
43765
43728
43742
43665
43649
43634
43542
43513
43481
43438
43428
43355
43327
43283
43217
43216
43162
43124
43151
43086
43072
43052
42976
42992
42999
42976
43001
42972
42946
42885
42858
42924
42894
42854
42907
42884
42898
42907
42870
42899
42900
42894
42946
42944
42979
42976
42935
42983
43008
43030
43090
43044
43037
43072
43099
43134
43102
43130
43220
43170
43179
43223
43177
43167
43175
43209
43274
43258
43280
43271
43219
43245
43238
43237
43295
43285
43327
43341
43297
43335
43341
43311
43337
43338
43393
43415
43398
43442
43425
43419
43491
43471
43481
43505
43510
43566
43570
43575
43625
43589
43618
43657
43636
43671
43685
43697
43747
43735
43792
43826
43793
43835
43865
43883
43917
43870
43883
43873
43795
43789
43762
43709
43680
43582
43551
43532
43489
43493
43426
43366
43387
43329
43298
43262
43205
43223
43194
43154
43170
43125
43144
43163
43127
43132
43097
43082
43123
43073
43073
43087
43072
43117
43103
43077
43135
43134
43136
43123
43131
43204
43174
43149
43232
43232
43244
43262
43267
43326
43333
43341
43385
43328
43332
43361
43343
43381
43405
43431
43456
43376
43396
43459
43459
43493
43509
43533
43568
43497
43501
43534
43526
43580
43593
43590
43636
43601
43592
43604
43637
43710
43683
43684
43780
43764
43774
43802
43786
43815
43822
43839
43883
43833
43858
43908
43913
43959
43957
43960
44016
43998
44032
44055
44037
44101
44124
44115
44158
44133
44120
44106
44113
44165
44090
44014
44050
43996
43936
43882
43822
43817
43757
43703
43685
43563
43522
43526
43477
43468
43432
43391
43379
43309
43333
43356
43299
43285
43268
43277
43304
43223
43228
43261
43223
43234
43238
43242
43262
43199
43219
43265
43269
43314
43288
43253
43300
43295
43319
43335
43334
43373
43349
43364
43441
43404
43440
43491
43453
43487
43526
43510
43497
43464
43513
43527
43500
43541
43523
43516
43581
43552
43556
43569
43548
43590
43614
43661
43728
43642
43596
43640
43707
43770
43719
43706
43805
43785
43757
43768
43795
43846
43809
43810
43901
43884
43900
43938
43928
43950
43946
43978
44058
44018
44009
44044
44085
44152
44131
44119
44155
44099
44137
44196
44170
44205
44214
44155
44118
44076
44099
44062
43978
43963
43877
43789
43790
43728
43707
43678
43605
43597
43551
43491
43480
43412
43411
43382
43288
43293
43298
43272
43267
43206
43213
43200
43141
43166
43165
43161
43208
43166
43155
43150
43134
43176
43155
43143
43206
43180
43189
43217
43217
43248
43221
43215
43262
43220
43262
43329
43312
43318
43318
43339
43366
43299
43339
43396
43359
43374
43401
43430
43465
43409
43424
43462
43471
43512
43472
43438
43489
43467
43480
43500
43497
43542
43544
43571
43637
43576
43574
43630
43648
43676
43657
43673
43734
43685
43705
43759
43759
43793
43784
43776
43829
43835
43898
43935
43917
43964
43972
43978
44034
44021
44062
44076
44025
44061
44087
44084
44093
44046
44085
44105
44046
44040
43995
43929
43909
43820
43773
43737
43685
43663
43564
43507
43544
43473
43434
43412
43347
43340
43299
43249
43255
43202
43183
43145
43081
43080
43033
43015
43059
42990
42970
42996
42995
43032
43017
42999
43020
42977
43028
43082
43031
42998
42982
43043
43142
43091
43066
43081
43082
43118
43098
43097
43153
43117
43134
43154
43130
43176
43186
43160
43168
43134
43173
43180
43136
43187
43219
43224
43263
43224
43221
43213
43198
43263
43275
43280
43332
43282
43280
43331
43369
43410
43382
43412
43504
43452
43448
43500
43497
43505
43485
43512
43610
43601
43597
43599
43603
43663
43655
43668
43748
43722
43734
43760
43741
43777
43788
43800
43850
43822
43850
43865
43816
43819
43800
43787
43796
43703
43677
43669
43596
43553
43483
43438
43437
43344
43312
43284
43198
43172
43136
43108
43119
43061
43067
43042
42946
42951
42971
42968
42973
42918
42943
42943
42885
42920
42935
42917
42933
42895
42924
42954
42958
43015
42988
42947
43001
43009
43045
43054
43027
43067
43079
43105
43160
43109
43140
43204
43192
43208
43204
43207
43248
43226
43271
43280
43213
43238
43269
43277
43298
43252
43287
43340
43348
43378
43350
43350
43406
43355
43371
43412
43394
43437
43477
43493
43499
43443
43512
43581
43538
43529
43523
43549
43622
43614
43654
43673
43651
43712
43726
43706
43754
43762
43801
43817
43822
43883
43859
43839
43898
43880
43925
43970
43939
43968
43986
43987
44017
43978
43975
43946
43878
43855
43778
43731
43744
43639
43585
43561
43490
43464
43402
43338
43353
43324
43321
43285
43235
43267
43239
43211
43253
43205
43187
43171
43121
43131
43131
43155
43180
43078
43081
43132
43099
43108
43117
43112
43129
43104
43159
43191
43171
43227
43238
43233
43287
43267
43269
43268
43276
43358
43342
43287
43316
43310
43350
43370
43358
43429
43442
43411
43433
43415
43452
43463
43430
43469
43476
43484
43528
43463
43451
43490
43527
43594
43555
43494
43532
43530
43564
43605
43629
43668
43631
43654
43736
43671
43680
43749
43746
43777
43795
43795
43824
43813
43865
43893
43894
43966
43962
43942
43998
43983
43996
44010
44008
44061
44048
44038
44091
44061
44079
44095
44054
44065
44034
43980
43958
43868
43841
43805
43725
43721
43673
43599
43574
43489
43454
43431
43407
43441
43388
43322
43320
43257
43275
43291
43227
43226
43209
43178
43218
43215
43213
43167
43138
43191
43173
43172
43228
43165
43182
43249
43234
43246
43264
43301
43352
43303
43308
43322
43305
43355
43379
43408
43454
43385
43396
43461
43474
43485
43443
43447
43522
43498
43511
43526
43504
43562
43582
43567
43597
43588
43631
43633
43594
43644
43657
43662
43725
43701
43701
43711
43719
43777
43771
43791
43874
43837
43842
43890
43898
43921
43901
43924
44002
43961
43961
43995
44012
44090
44122
44141
44191
44154
44179
44209
44180
44202
44209
44241
44289
44223
44236
44271
44230
44234
44238
44246
44254
44154
44112
44085
44014
43990
43934
43899
43893
43765
43694
43665
43601
43575
43514
43478
43503
43443
43427
43399
43328
43341
43327
43283
43276
43223
43240
43230
43168
43189
43186
43183
43243
43219
43207
43195
43189
43229
43179
43163
43262
43265
43259
43239
43224
43319
43354
43324
43349
43362
43420
43398
43324
43379
43423
43428
43466
43438
43452
43462
43453
43487
43446
43440
43533
43517
43513
43543
43560
43590
43550
43559
43643
43603
43603
43643
43628
43628
43616
43670
43754
43683
43664
43706
43717
43749
43744
43770
43842
43807
43824
43865
43873
43934
43943
43936
43977
43955
43983
43991
43962
44023
44036
44008
44049
44073
44143
44144
44088
44130
44150
44136
44130
44043
44035
44015
43917
43900
43887
43851
43822
43712
43661
43623
43566
43548
43465
43405
43398
43301
43311
43339
43251
43213
43190
43147
43133
43095
43112
43069
42990
43025
43021
42977
42971
42917
42947
42977
42934
42930
42907
42914
42964
42912
42925
42969
42964
42986
42965
42969
43042
43023
43030
43044
43041
43088
43082
43088
43133
43074
43093
43138
43110
43131
43133
43126
43176
43171
43193
43201
43208
43255
43213
43213
43309
43280
43269
43290
43285
43328
43330
43323
43336
43269
43297
43369
43383
43406
43401
43435
43474
43377
43396
43488
43483
43476
43453
43453
43499
43484
43524
43531
43492
43554
43594
43601
43638
43610
43637
43649
43622
43662
43651
43631
43673
43635
43621
43602
43564
43582
43535
43486
43494
43409
43365
43325
43241
43213
43140
43053
43024
42949
42935
42908
42839
42837
42795
42743
42741
42679
42683
42674
42602
42608
42606
42597
42621
42573
42568
42549
42505
42541
42529
42504
42547
42530
42544
42533
42498
42560
42598
42620
42670
42630
42641
42674
42687
42747
42739
42726
42785
42773
42797
42824
42815
42840
42816
42834
42923
42895
42890
42900
42880
42919
42919
42913
42959
42949
43000
43021
42978
43014
43042
43050
43054
42987
43033
43077
43039
43101
43170
43172
43176
43168
43242
43264
43227
43270
43281
43298
43367
43342
43361
43383
43359
43406
43436
43467
43525
43479
43470
43484
43499
43575
43586
43586
43627
43572
43578
43617
43614
43632
43600
43580
43581
43463
43415
43410
43361
43354
43303
43235
43215
43136
43111
43077
43010
43001
42938
42886
42916
42873
42862
42838
42785
42819
42811
42770
42778
42734
42732
42716
42678
42709
42693
42696
42756
42693
42657
42693
42748
42808
42769
42770
42854
42803
42779
42827
42870
42909
42863
42857
42942
42934
42963
42998
42985
43010
42983
42952
42990
42977
43010
43030
43018
43068
43072
43081
43136
43089
43095
43131
43138
43191
43199
43205
43241
43181
43198
43264
43293
43335
43301
43282
43337
43307
43317
43339
43342
43416
43435
43438
43508
43502
43503
43504
43522
43587
43560
43557
43634
43600
43615
43655
43641
43685
43701
43694
43746
43762
43803
43803
43790
43836
43818
43829
43876
43772
43726
43725
43661
43648
43627
43578
43545
43465
43445
43383
43281
43291
43261
43183
43170
43133
43149
43139
43090
43090
43026
42994
43051
42997
42955
42955
42968
43024
43018
43030
43067
42971
42956
42996
42975
42994
42998
42999
43044
43032
43060
43050
43019
43088
43121
43128
43160
43121
43170
43212
43177
43224
43251
43230
43265
43289
43330
43297
43251
43312
43326
43345
43411
43356
43352
43389
43389
43431
43433
43421
43430
43377
43432
43509
43514
43543
43516
43484
43527
43527
43571
43580
43544
43582
43584
43590
43646
43608
43615
43628
43610
43665
43681
43687
43757
43753
43766
43792
43817
43848
43789
43802
43886
43818
43831
43919
43915
43921
43936
43954
43969
43910
43932
43935
43861
43837
43788
43754
43774
43701
43651
43599
43520
43481
43386
43328
43350
43276
43250
43237
43176
43185
43169
43129
43126
43058
43034
43008
42966
42975
42937
42940
42988
42885
42839
42873
42874
42881
42849
42860
42924
42880
42885
42909
42882
42892
42891
42928
42976
42911
42957
43030
42995
43005
43024
43024
43045
43037
43098
43104
43051
43086
43095
43099
43143
43095
43099
43118
43111
43156
43152
43149
43199
43175
43211
43239
43195
43204
43206
43221
43265
43220
43244
43271
43244
43290
43315
43323
43365
43342
43367
43360
43318
43393
43452
43472
43514
43488
43505
43499
43461
43504
43517
43538
43600
43567
43586
43597
43556
43608
43650
43650
43662
43631
43673
43663
43586
43620
43628
43567
43533
43467
43443
43369
43274
43284
43230
43138
43129
43077
43041
42978
42904
42906
42846
42784
42794
42737
42737
42729
42654
42644
42620
42591
42613
42582
42600
42607
42576
42581
42541
42552
42617
42550
42541
42576
42545
42539
42529
42552
42609
42573
42591
42622
42622
42674
42654
42622
42690
42724
42762
42751
42727
42784
42770
42739
42769
42736
42778
42834
42828
42860
42848
42833
42895
42884
42872
42860
42887
42974
42953
42939
43003
42956
42959
43014
43029
43055
43030
43021
43062
43015
43036
43088
43109
43168
43168
43167
43226
43199
43202
43222
43230
43275
43272
43323
43422
43370
43363
43397
43373
43396
43422
43463
43526
43493
43502
43511
43480
43494
43466
43458
43479
43374
43344
43372
43334
43280
43170
43104
43128
43055
42987
42934
42885
42868
42781
42749
42806
42747
42727
42741
42702
42686
42646
42633
42653
42574
42558
42564
42537
42580
42588
42572
42601
42568
42571
42578
42574
42610
42594
42633
42714
42645
42655
42729
42717
42721
42731
42764
42829
42807
42816
42823
42819
42859
42819
42808
42904
42904
42912
42933
42952
43012
42980
42947
43022
43030
43035
43019
43013
43089
43088
43071
43136
43132
43147
43163
43170
43222
43207
43205
43246
43190
43232
43308
43287
43299
43318
43341
43374
43340
43392
43437
43420
43460
43483
43514
43563
43513
43545
43599
43605
43680
43713
43686
43676
43648
43724
43765
43728
43769
43772
43744
43790
43794
43785
43707
43636
43686
43663
43591
43569
43479
43447
43425
43357
43332
43264
43223
43267
43210
43153
43120
43109
43126
43044
43002
43060
42992
42950
42986
43023
43041
42969
42962
43047
42997
42970
42992
43001
43042
43026
43018
43070
43041
43057
43092
43108
43162
43150
43156
43230
43206
43215
43223
43198
43251
43274
43281
43328
43301
43313
43316
43304
43372
43381
43375
43434
43416
43432
43460
43461
43478
43435
43457
43551
43507
43520
43587
43595
43621
43613
43618
43671
43643
43658
43696
43735
43812
43798
43795
43875
43854
43858
43878
43874
43924
43934
43952
44008
43972
44007
44052
44035
44073
44078
44065
44095
44075
44127
44174
44184
44243
44222
44195
44279
44293
44274
44240
44244
44291
44197
44109
44145
44097
44054
44000
43904
43880
43845
43809
43784
43665
43644
43671
43630
43587
43527
43547
43595
43489
43472
43511
43475
43496
43496
43447
43457
43457
43465
43432
43443
43509
43437
43401
43492
43463
43469
43525
43520
43527
43524
43561
43620
43562
43573
43631
43639
43644
43609
43645
43734
43681
43680
43720
43709
43748
43779
43806
43842
43795
43833
43876
43874
43945
43957
43915
43943
43959
44015
44020
44003
44064
44050
44032
44106
44098
44105
44128
44152
44218
44213
44224
44275
44215
44251
44324
44301
44310
44312
44318
44370
44357
44377
44384
44407
44509
44490
44441
44520
44545
44539
44506
44513
44610
44623
44636
44697
44644
44667
44719
44667
44639
44627
44642
44667
44575
44527
44487
44429
44435
44362
44265
44258
44208
44179
44124
44060
44073
43999
43905
43916
43884
43872
43834
43773
43787
43759
43747
43792
43724
43687
43688
43683
43717
43684
43668
43721
43684
43698
43728
43712
43737
43728
43738
43798
43775
43808
43830
43786
43810
43827
43852
43907
43877
43902
43926
43901
43932
43937
43956
43999
43939
43970
44033
44030
44070
44061
44021
44044
44046
44091
44095
44071
44120
44122
44150
44229
44189
44204
44226
44176
44201
44230
44235
44272
44267
44309
44307
44272
44329
44339
44342
44410
44406
44455
44487
44450
44471
44476
44484
44510
44455
44508
44574
44541
44550
44577
44631
44696
44631
44609
44621
44629
44682
44652
44613
44631
44574
44584
44577
44486
44466
44423
44344
44321
44269
44241
44160
44066
44063
44009
43961
43947
43819
43785
43803
43743
43718
43679
43636
43635
43591
43614
43613
43574
43620
43611
43555
43532
43462
43488
43526
43502
43523
43517
43523
43558
43498
43526
43582
43572
43609
43618
43620
43663
43639
43663
43674
43661
43727
43744
43740
43766
43707
43724
43767
43761
43786
43769
43779
43856
43839
43842
43822
43781
43855
43908
43909
43924
43897
43957
43986
43928
43941
43961
43987
44018
43956
44001
44079
44075
44084
44056
44048
44107
44097
44125
44145
44147
44222
44239
44248
44308
44286
44315
44341
44324
44382
44412
44417
44445
44403
44440
44484
44467
44480
44460
44478
44545
44479
44443
44435
44395
44387
44331
44297
44315
44215
44140
44085
44012
43990
43924
43885
43902
43804
43744
43711
43667
43695
43660
43583
43568
43528
43545
43526
43463
43483
43475
43466
43495
43441
43457
43463
43391
43395
43414
43434
43464
43406
43419
43449
43443
43486
43477
43475
43530
43492
43497
43528
43527
43545
43520
43554
43638
43577
43573
43621
43615
43645
43642
43636
43685
43686
43729
43730
43689
43732
43738
43733
43767
43720
43743
43785
43780
43820
43826
43838
43879
43840
43889
43931
43885
43924
43993
44042
44047
43963
44007
44072
44049
44079
44088
44075
44108
44103
44152
44170
44156
44215
44214
44214
44282
44252
44251
44289
44336
44416
44389
44357
44401
44351
44333
44330
44294
44293
44244
44213
44221
44127
44105
44105
44024
43967
43898
43864
43878
43792
43744
43711
43652
43640
43601
43602
43624
43518
43511
43534
43450
43423
43437
43454
43477
43421
43409
43390
43378
43445
43415
43365
43413
43409
43427
43417
43382
43439
43445
43414
43444
43448
43515
43528
43462
43491
43535
43576
43620
43561
43579
43624
43616
43634
43601
43596
43670
43673
43716
43739
43711
43753
43764
43767
43830
43815
43812
43798
43792
43860
43856
43854
43916
43893
43937
44000
43993
44017
44016
44028
44069
44015
44028
44082
44113
44169
44147
44135
44195
44170
44193
44231
44237
44296
44304
44307
44358
44321
44336
44379
44395
44426
44379
44369
44449
44428
44437
44443
44389
44380
44355
44350
44366
44268
44239
44235
44175
44154
44103
44069
44088
44004
43943
43905
43863
43846
43757
43731
43791
43719
43679
43676
43639
43661
43647
43608
43611
43580
43617
43606
43537
43573
43592
43581
43608
43564
43558
43575
43606
43674
43637
43626
43722
43713
43721
43750
43749
43781
43770
43792
43872
43840
43844
43868
43859
43888
43871
43871
43920
43882
43914
43960
43951
43995
43986
43951
43996
44015
44051
44024
43986
44068
44084
44053
44088
44087
44133
44141
44091
44125
44145
44170
44233
44215
44261
44300
44267
44290
44297
44315
44372
44349
44392
44434
44427
44497
44537
44549
44580
44537
44570
44609
44597
44635
44631
44644
44723
44703
44705
44720
44726
44771
44738
44714
44741
44661
44642
44640
44568
44543
44489
44426
44418
44362
44352
44311
44236
44236
44184
44134
44158
44099
44071
44047
44008
44047
44038
44011
44036
43995
44018
44046
44009
43990
43948
43979
44053
43977
43969
44024
44026
44062
44074
44073
44091
44054
44106
44131
44077
44115
44148
44151
44175
44138
44159
44178
44171
44210
44191
44209
44288
44241
44240
44272
44263
44306
44294
44257
44310
44336
44360
44339
44334
44392
44356
44354
44443
44415
44437
44486
44466
44494
44501
44491
44531
44529
44560
44548
44529
44611
44636
44638
44688
44663
44709
44745
44707
44743
44775
44787
44815
44780
44826
44850
44811
44860
44896
44910
44951
44921
44951
44969
44936
44961
44951
44949
44979
44897
44875
44863
44790
44767
44719
44661
44633
44541
44535
44523
44437
44407
44366
44341
44351
44246
44187
44193
44210
44220
44108
44045
44110
44074
44048
44039
44018
44064
44049
44011
44047
44030
44033
44010
43970
43989
43946
43936
44008
43982
44009
44062
44050
44056
44024
44020
44094
44085
44095
44109
44116
44163
44134
44134
44197
44142
44141
44179
44174
44220
44232
44226
44255
44224
44261
44305
44306
44330
44298
44309
44369
44292
44290
44367
44395
44409
44362
44353
44418
44398
44428
44457
44433
44467
44473
44488
44551
44521
44533
44554
44562
44636
44634
44605
44650
44632
44653
44689
44711
44744
44697
44712
44804
44743
44726
44785
44813
44853
44829
44802
44820
44771
44799
44825
44771
44741
44672
44624
44621
44506
44438
44406
44367
44387
44331
44253
44255
44202
44173
44137
44100
44121
44063
44016
44042
43976
43964
43961
43898
43908
43904
43873
43874
43826
43835
43825
43788
43830
43834
43844
43902
43849
43840
43865
43866
43901
43876
43873
43940
43906
43904
43924
43930
43979
43954
43937
44011
44004
44003
43995
43993
44061
44037
43998
44074
44098
44106
44088
44084
44136
44105
44108
44192
44151
44149
44184
44163
44176
44181
44204
44234
44174
44229
44305
44272
44273
44284
44317
44367
44327
44360
44394
44366
44396
44406
44430
44494
44461
44485
44516
44492
44512
44504
44517
44561
44504
44538
44596
44567
44573
44580
44615
44669
44608
44596
44578
44515
44531
44499
44421
44408
44368
44352
44284
44194
44180
44101
44025
44014
43929
43931
43936
43845
43812
43791
43757
43739
43668
43680
43682
43642
43674
43638
43568
43583
43558
43551
43517
43489
43544
43512
43471
43527
43503
43491
43509
43535
43576
43520
43508
43577
43532
43556
43613
43581
43574
43569
43591
43665
43657
43663
43657
43657
43718
43702
43697
43754
43703
43714
43764
43767
43815
43817
43790
43802
43769
43804
43833
43822
43862
43852
43864
43931
43889
43903
43952
43956
43981
43956
43958
44047
44045
44049
44066
44086
44125
44086
44115
44217
44168
44173
44236
44223
44218
44218
44266
44333
44287
44304
44331
44306
44350
44370
44366
44387
44349
44389
44396
44315
44306
44291
44269
44270
44174
44118
44078
44034
44047
43975
43891
43880
43798
43761
43737
43686
43692
43659
43637
43660
43598
43601
43591
43497
43484
43492
43489
43491
43439
43492
43522
43448
43439
43444
43456
43482
43424
43452
43508
43498
43491
43461
43512
43598
43515
43500
43562
43566
43584
43587
43617
43673
43619
43620
43652
43655
43679
43645
43655
43731
43691
43695
43718
43696
43738
43746
43729
43762
43750
43779
43771
43734
43791
43806
43813
43875
43849
43859
43881
43883
43928
43901
43887
43954
43931
43933
43958
43989
44076
44075
44059
44114
44105
44142
44166
44148
44202
44212
44189
44197
44161
44229
44298
44284
44307
44311
44333
44385
44336
44354
44384
44351
44355
44322
44300
44333
44262
44201
44148
44093
44080
44002
43967
44017
43941
43880
43834
43753
43735
43713
43719
43754
43677
43663
43675
43642
43659
43639
43620
43648
43594
43595
43607
43587
43614
43579
43563
43630
43595
43560
43552
43578
43648
43602
43562
43640
43641
43644
43644
43634
43687
43687
43693
43748
43700
43708
43756
43767
43793
43783
43825
43902
43829
43807
43843
43841
43869
43866
43886
43947
43912
43933
43968
43961
43999
43991
43984
44029
44004
44052
44099
44067
44069
44051
44076
44175
44160
44145
44152
44186
44263
44233
44214
44299
44291
44298
44320
44319
44351
44325
44338
44432
44419
44430
44453
44453
44510
44509
44504
44573
44569
44587
44592
44587
44634
44585
44523
44561
44540
44532
44493
44421
44411
44360
44320
44326
44243
44230
44212
44101
44058
44051
44062
44065
43959
43942
43974
43963
43963
43903
43876
43920
43874
43881
43894
43842
43843
43837
43853
43899
43849
43865
43896
43878
43901
43892
43901
43939
43893
43950
44010
43959
43965
43992
44011
44031
43987
44035
44081
44065
44098
44088
44085
44137
44110
44142
44181
44156
44163
44147
44176
44248
44196
44202
44250
44251
44276
44276
44315
44378
44311
44317
44354
44322
44334
44355
44406
44465
44415
44450
44502
44479
44510
44534
44562
44611
44561
44572
44605
44620
44689
44685
44669
44725
44727
44785
44810
44767
44809
44831
44826
44856
44830
44867
44881
44858
44916
44898
44829
44849
44833
44809
44740
44692
44726
44651
44559
44553
44467
44436
44422
44350
44323
44285
44270
44282
44192
44166
44142
44067
44087
44086
44036
44032
44005
44025
43995
43945
43992
43958
43893
43935
43941
43959
43942
43913
43962
43952
43939
43980
43933
43959
44003
43975
43999
44021
44050
44088
44027
44040
44080
44086
44142
44153
44163
44210
44171
44206
44247
44226
44264
44266
44240
44255
44224
44254
44263
44240
44300
44309
44302
44361
44344
44350
44355
44358
44416
44393
44387
44478
44478
44493
44488
44442
44476
44493
44516
44590
44589
44630
44646
44614
44664
44681
44681
44719
44681
44707
44755
44765
44800
44773
44789
44882
44852
44845
44865
44869
44918
44898
44856
44857
44782
44770
44753
44683
44683
44660
44617
44579
44445
44396
44375
44308
44295
44248
44199
44191
44109
44093
44070
43993
43995
43971
43923
43922
43866
43862
43858
43820
43806
43741
43747
43826
43770
43770
43795
43735
43740
43766
43780
43799
43757
43782
43801
43797
43854
43837
43817
43870
43854
43895
43935
43915
43939
43943
43973
44033
43991
44021
44054
44007
44025
44033
44020
44045
44036
44094
44103
44060
44125
44151
44128
44165
44169
44203
44208
44198
44238
44199
44190
44252
44207
44238
44302
44273
44282
44318
44374
44416
44347
44368
44403
44377
44420
44450
44471
44520
44484
44499
44535
44558
44612
44583
44584
44654
44598
44591
44640
44658
44691
44662
44648
44696
44653
44644
44614
44536
44536
44495
44427
44414
44351
44329
44278
44195
44187
44128
44066
44068
43983
43936
43921
43879
43844
43753
43744
43812
43727
43683
43698
43662
43648
43632
43663
43703
43612
43607
43643
43609
43610
43595
43596
43642
43618
43648
43659
43629
43685
43699
43691
43745
43739
43757
43755
43746
43801
43780
43771
43844
43824
43831
43848
43839
43891
43887
43862
43907
43899
43935
43985
44013
44033
43977
44004
44083
43983
43968
44045
44042
44055
44066
44076
44113
44096
44127
44127
44117
44205
44218
44189
44222
44214
44271
44298
44263
44307
44319
44306
44347
44346
44390
44396
44377
44462
44493
44475
44513
44497
44512
44504
44489
44561
44555
44520
44563
44543
44546
44532
44479
44460
44376
44324
44355
44286
44247
44209
44130
44119
44084
44033
44000
43883
43840
43828
43790
43805
43769
43733
43752
43687
43672
43663
43610
43609
43576
43563
43602
43548
43550
43564
43539
43579
43591
43597
43632
43578
43587
43622
43634
43694
43677
43646
43690
43692
43746
43747
43680
43736
43795
43801
43821
43794
43824
43835
43828
43887
43869
43851
43923
43908
43911
43929
43938
43989
43977
43991
44069
44015
43994
44048
44098
44119
44045
44056
44176
44157
44152
44183
44180
44214
44215
44241
44318
44300
44323
44350
44337
44370
44361
44373
44438
44402
44424
44480
44504
44558
44540
44527
44595
44586
44601
44604
44603
44693
44702
44655
44675
44665
44706
44726
44707
44727
44658
44591
44617
44563
44535
44499
44428
44417
44359
44301
44301
44217
44183
44179
44152
44148
44085
44072
44125
44043
44007
44022
43991
43977
43930
43927
43988
43945
43937
43938
43917
43960
43934
43895
43951
43963
43985
43978
43975
44034
43994
43964
44059
44086
44108
44104
44088
44148
44138
44109
44167
44172
44201
44217
44210
44246
44224
44240
44300
44219
44202
44242
44240
44292
44320
44326
44360
44322
44326
44328
44333
44398
44378
44366
44438
44417
44434
44466
44465
44513
44494
44472
44553
44571
44566
44536
44547
44635
44617
44596
44647
44610
44658
44711
44667
44709
44767
44776
44806
44808
44837
44804
44786
44888
44901
44875
44937
44935
44953
44952
44925
44967
44951
44919
44937
44874
44859
44829
44743
44723
44676
44618
44603
44508
44467
44445
44408
44411
44338
44289
44328
44270
44237
44219
44186
44223
44202
44159
44180
44145
44156
44160
44129
44138
44096
44100
44168
44119
44128
44167
44138
44151
44153
44170
44227
44205
44230
44241
44214
44247
44236
44244
44319
44299
44310
44329
44329
44396
44393
44360
44392
44374
44414
44458
44463
44489
44454
44468
44547
44491
44486
44527
44519
44537
44529
44543
44591
44551
44592
44642
44614
44633
44649
44687
44749
44704
44721
44752
44738
44786
44801
44803
44829
44774
44812
44876
44877
44906
44893
44906
44988
44957
44937
44957
44991
45027
44971
44992
45093
45032
45028
45081
45058
45067
45066
45042
45031
44969
44977
44956
44888
44884
44825
44760
44754
44664
44620
44575
44491
44484
44456
44425
44421
44325
44310
44320
44279
44276
44214
44151
44176
44156
44172
44167
44127
44135
44091
44082
44142
44079
44049
44059
44062
44118
44111
44087
44119
44096
44137
44158
44118
44156
44183
44208
44263
44238
44272
44291
44258
44304
44319
44314
44353
44331
44354
44357
44324
44367
44374
44388
44451
44410
44414
44434
44427
44481
44484
44476
44521
44501
44535
44541
44496
44555
44605
44614
44622
44563
44605
44651
44623
44655
44684
44727
44774
44694
44698
44763
44795
44855
44849
44844
44904
44893
44931
44959
44939
44973
44963
44963
45021
45002
45046
45091
45066
45074
45045
45031
45059
44980
44947
44936
44889
44872
44805
44764
44763
44654
44619
44575
44434
44394
44385
44333
44306
44269
44291
44257
44194
44221
44176
44112
44112
44047
44062
44095
44049
44027
43996
44015
44076
44006
43966
43951
43925
43975
43979
43955
43965
43925
43982
44046
44038
44065
44055
44062
44119
44088
44109
44127
44106
44174
44191
44156
44181
44176
44203
44215
44238
44306
44263
44248
44339
44318
44320
44358
44378
44441
44426
44383
44409
44385
44407
44426
44431
44480
44447
44434
44511
44495
44519
44558
44558
44606
44603
44601
44672
44669
44686
44687
44671
44714
44697
44704
44796
44800
44841
44861
44810
44831
44853
44876
44923
44874
44871
44876
44868
44935
44946
44925
44922
44840
44858
44874
44777
44722
44673
44633
44622
44522
44463
44409
44345
44338
44254
44187
44216
44151
44097
44059
44031
44070
44018
43935
43938
43897
43896
43882
43842
43870
43837
43803
43846
43812
43804
43801
43785
43830
43817
43809
43847
43789
43807
43861
43862
43901
43902
43897
43933
43895
43916
43945
43942
43987
43977
43983
44051
44014
44004
44013
44015
44075
44063
44035
44073
44063
44115
44126
44063
44109
44157
44158
44178
44150
44181
44210
44215
44240
44181
44182
44275
44229
44220
44274
44292
44325
44309
44317
44382
44356
44381
44427
44441
44483
44450
44435
44516
44532
44581
44599
44566
44608
44621
44614
44640
44619
44700
44759
44703
44690
44685
44707
44760
44701
44669
44632
44581
44617
44586
44500
44473
44408
44385
44319
44212
44194
44150
44105
44097
44005
44001
44012
43933
43889
43830
43796
43832
43796
43782
43768
43753
43783
43734
43710
43744
43667
43678
43738
43713
43713
43704
43702
43736
43711
43742
43738
43695
43761
43785
43756
43784
43786
43840
43863
43854
43902
43871
43849
43929
43919
43899
43888
43902
43971
43953
43957
44045
44023
44025
44039
44018
44055
44064
44072
44112
44070
44095
44126
44114
44167
44177
44172
44218
44203
44231
44233
44206
44271
44293
44286
44334
44329
44374
44397
44367
44390
44379
44402
44491
44473
44494
44525
44514
44556
44572
44597
44638
44562
44565
44625
44657
44713
44698
44688
44744
44714
44709
44673
44598
44631
44636
44584
44556
44469
44433
44401
44350
44329
44236
44193
44214
44094
44043
44070
44042
44010
43943
43920
43958
43911
43919
43923
43868
43870
43846
43824
43853
43812
43827
43838
43808
43831
43810
43805
43866
43853
43903
43945
43915
43940
43938
43934
43992
43993
44033
44049
44033
44076
44059
44052
44112
44085
44111
44152
44138
44156
44144
44163
44223
44174
44190
44232
44210
44221
44223
44267
44334
44276
44286
44329
44316
44347
44347
44352
44413
44396
44415
44431
44432
44484
44470
44488
44591
44572
44561
44563
44559
44631
44651
44656
44707
44673
44684
44710
44717
44765
44743
44748
44841
44821
44809
44834
44865
44914
44879
44898
44992
44938
44916
44950
44944
44943
44884
44844
44858
44786
44776
44771
44692
44638
44565
44539
44554
44444
44397
44388
44336
44325
44275
44231
44239
44185
44203
44211
44162
44186
44168
44122
44144
44114
44098
44057
44043
44135
44145
44121
44154
44108
44118
44148
44136
44164
44153
44164
44228
44188
44193
44226
44243
44310
44298
44264
44308
44311
44345
44344
44310
44354
44365
44374
44403
44354
44433
44512
44452
44456
44499
44509
44516
44493
44554
44567
44518
44547
44542
44542
44586
44545
44583
44623
44611
44698
44746
44706
44697
44699
44767
44747
44679
44744
44776
44763
44807
44814
44870
44878
44838
44901
44925
44904
44924
44888
44910
44925
44915
44982
44997
45016
45107
45090
45064
45043
45033
45074
45042
45031
45060
44937
44862
44840
44770
44726
44642
44578
44596
44549
44510
44429
44339
44358
44336
44297
44294
44199
44165
44154
44102
44092
44037
44001
44044
44010
44004
43986
43938
43952
43931
43939
44010
43975
43973
43993
43990
44029
44024
44032
44063
43990
44016
44083
44072
44103
44131
44156
44187
44137
44170
44212
44188
44199
44170
44172
44243
44223
44228
44215
44177
44250
44297
44290
44291
44246
44294
44332
44292
44297
44284
44299
44353
44311
44347
44390
44347
44356
44385
44435
44477
44402
44415
44440
44396
44432
44484
44518
44533
44462
44505
44579
44580
44601
44573
44562
44613
44593
44648
44703
44678
44685
44675
44702
44777
44738
44743
44762
44742
44772
44745
44702
44711
44650
44644
44634
44571
44532
44426
44340
44338
44259
44227
44197
44114
44084
44033
44001
44008
43916
43884
43862
43794
43796
43769
43719
43707
43642
43657
43669
43627
43637
43610
43611
43691
43661
43622
43593
43593
43661
43624
43579
43657
43661
43634
43616
43653
43734
43688
43665
43742
43711
43722
43761
43737
43749
43750
43760
43800
43766
43803
43821
43772
43797
43812
43832
43910
43910
43919
43912
43901
43944
43914
43899
43934
43869
43904
43963
43918
43940
43993
44013
44017
43971
44019
44060
44048
44079
44064
44080
44146
44108
44153
44216
44188
44221
44294
44394
44494
44473
44498
44521
44509
44560
44550
44524
44579
44572
44585
44596
44616
44685
44635
44573
44608
44560
44537
44518
44460
44434
44354
44298
44301
44192
44122
44097
44060
44047
43944
43858
43892
43849
43784
43723
43697
43719
43646
43615
43663
43571
43534
43582
43590
43582
43522
43517
43582
43534
43515
43525
43515
43541
43510
43499
43544
43499
43526
43577
43563
43577
43541
43509
43565
43586
43639
43651
43622
43661
43663
43684
43750
43690
43672
43694
43690
43730
43723
43726
43792
43774
43785
43792
43777
43825
43814
43794
43831
43798
43836
43879
43850
43853
43827
43843
43933
43921
43920
43932
43947
44011
44000
44002
44068
44025
44024
44048
44040
44091
44113
44137
44200
44178
44208
44240
44224
44249
44233
44246
44315
44284
44308
44344
44328
44372
44372
44339
44355
44327
44344
44325
44259
44243
44183
44152
44163
44042
43977
43959
43892
43857
43799
43768
43792
43698
43614
43585
43592
43604
43515
43512
43600
43503
43431
43449
43430
43409
43383
43428
43478
43364
43336
43401
43426
43445
43414
43419
43486
43459
43468
43470
43436
43480
43490
43486
43528
43507
43544
43572
43558
43609
43622
43641
43710
43672
43662
43679
43684
43713
43672
43680
43771
43742
43747
43783
43779
43818
43828
43846
43887
43830
43849
43897
43895
43927
43923
43932
43980
43937
43964
44006
43992
44024
44032
44055
44111
44071
44095
44135
44131
44190
44215
44229
44277
44231
44225
44249
44283
44360
44335
44312
44369
44341
44365
44405
44411
44485
44507
44483
44498
44465
44482
44476
44432
44436
44380
44332
44323
44215
44199
44209
44122
44066
44008
43964
43971
43913
43888
43836
43762
43772
43734
43710
43780
43759
43732
43705
43680
43702
43659
43660
43736
43665
43610
43638
43684
43728
43684
43682
43738
43675
43697
43761
43738
43753
43790
43838
43882
43851
43917
43946
43873
43903
43954
43954
43949
43907
43952
43972
43940
43983
44000
44025
44081
44029
44055
44119
44111
44106
44066
44083
44183
44168
44158
44186
44218
44241
44168
44171
44261
44204
44204
44264
44256
44273
44277
44288
44334
44315
44347
44345
44308
44379
44412
44407
44456
44442
44457
44470
44487
44553
44529
44523
44595
44548
44545
44597
44615
44638
44613
44633
44695
44628
44635
44689
44668
44651
44597
44568
44592
44500
44413
44346
44311
44341
44267
44173
44157
44065
44027
44024
43990
43974
43897
43862
43906
43847
43827
43828
43783
43777
43743
43743
43800
43749
43733
43735
43709
43722
43686
43680
43744
43728
43771
43789
43726
43763
43830
43878
43925
43887
43897
43921
43939
43990
43959
43968
44043
43998
44017
44057
44009
44025
44056
44073
44113
44105
44143
44125
44084
44173
44206
44163
44176
44158
44173
44183
44210
44281
44237
44222
44314
44294
44291
44311
44305
44361
44373
44363
44416
44407
44409
44390
44386
44468
44484
44498
44547
44478
44497
44570
44570
44581
44562
44577
44668
44680
44704
44702
44684
44736
44736
44750
44819
44772
44765
44781
44758
44781
44751
44706
44705
44633
44619
44594
44514
44488
44415
44342
44333
44242
44183
44144
44109
44117
44025
43938
43956
43899
43864
43844
43816
43831
43775
43739
43783
43737
43736
43744
43705
43728
43711
43678
43705
43679
43686
43676
43657
43716
43705
43687
43741
43716
43731
43759
43756
43800
43798
43809
43861
43812
43826
43854
43824
43855
43875
43892
43933
43892
43914
43931
43901
43931
43932
43950
44031
44026
44045
44031
43979
44036
44070
44059
44081
44047
44064
44093
44118
44168
44110
44089
44183
44179
44194
44214
44188
44205
44189
44204
44298
44296
44293
44296
44318
44392
44381
44394
44481
44447
44450
44470
44447
44494
44514
44514
44570
44569
44578
44557
44547
44610
44572
44517
44533
44453
44429
44449
44426
44395
44292
44232
44256
44163
44076
44015
43954
43937
43862
43822
43865
43806
43773
43732
43650
43653
43650
43640
43650
43585
43591
43589
43519
43514
43501
43503
43547
43499
43498
43498
43452
43459
43455
43501
43581
43523
43520
43559
43551
43578
43575
43587
43644
43629
43680
43709
43672
43728
43757
43735
43765
43770
43798
43774
43753
43834
43838
43819
43859
43821
43851
43895
43876
43899
43881
43863
43910
43899
43921
43923
43910
43975
43975
43969
44047
44055
44079
44075
44044
44091
44088
44077
44125
44100
44129
44169
44175
44233
44235
44235
44295
44267
44268
44284
44302
44382
44374
44351
44419
44419
44427
44414
44406
44491
44494
44455
44489
44470
44469
44431
44367
44373
44305
44218
44213
44155
44128
44069
43966
43941
43883
43810
43769
43668
43666
43665
43592
43592
43563
43500
43509
43489
43475
43423
43394
43430
43364
43330
43411
43381
43365
43369
43341
43365
43362
43362
43387
43336
43374
43408
43364
43397
43427
43422
43439
43417
43478
43529
43519
43529
43490
43508
43591
43544
43553
43620
43630
43632
43605
43634
43701
43647
43672
43733
43704
43692
43698
43761
43829
43758
43760
43794
43776
43821
43821
43781
43813
43836
43883
43868
43853
43940
43939
43908
43964
43954
43971
43992
44000
44058
44046
44041
44108
44092
44127
44165
44151
44197
44211
44219
44271
44246
44258
44266
44259
44321
44319
44311
44371
44342
44338
44331
44297
44311
44267
44230
44241
44148
44100
44063
43984
43970
43919
43844
43817
43733
43697
43662
43614
43620
43562
43524
43540
43458
43463
43492
43436
43438
43425
43380
43386
43374
43400
43370
43325
43371
43358
43349
43401
43357
43373
43414
43410
43462
43480
43486
43536
43510
43517
43536
43561
43620
43576
43552
43630
43623
43660
43703
43678
43680
43652
43651
43724
43719
43738
43757
43750
43772
43754
43800
43875
43788
43790
43861
43841
43848
43856
43854
43877
43863
43916
43936
43918
43975
43975
43970
44034
44023
44057
44092
44079
44105
44106
44152
44241
44193
44193
44244
44256
44287
44281
44320
44422
44402
44405
44428
44432
44480
44470
44470
44529
44500
44534
44577
44560
44586
44581
44566
44568
44473
44453
44459
44403
44359
44279
44239
44221
44083
44054
44074
43992
43950
43930
43917
43905
43802
43767
43753
43727
43765
43735
43707
43755
43710
43676
43650
43636
43693
43668
43628
43677
43660
43662
43657
43647
43710
43709
43701
43745
43715
43760
43801
43772
43828
43875
43877
43896
43862
43875
43882
43895
43971
43954
43935
43987
43955
43987
44020
43977
44009
44043
44050
44069
44033
44067
44088
44075
44128
44117
44099
44153
44139
44166
44193
44177
44197
44178
44210
44299
44254
44257
44300
44295
44321
44316
44329
44402
44399
44442
44465
44424
44428
44412
44447
44544
44516
44515
44534
44526
44567
44567
44584
44651
44611
44626
44684
44706
44726
44674
44673
44755
44711
44681
44678
44644
44622
44550
44515
44495
44351
44335
44358
44253
44202
44182
44132
44104
44056
44051
43983
43903
43923
43869
43816
43866
43833
43807
43777
43745
43794
43779
43742
43777
43750
43754
43750
43734
43777
43750
43734
43800
43787
43814
43838
43825
43885
43895
43874
43913
43901
43918
43921
43928
44003
43988
43963
44025
44019
44045
44049
43997
44016
44038
44082
44152
44113
44132
44165
44142
44162
44158
44170
44216
44169
44198
44257
44259
44275
44241
44238
44299
44263
44283
44331
44332
44347
44313
44333
44431
44409
44412
44440
44450
44507
44506
44520
44608
44592
44583
44596
44637
44735
44734
44727
44789
44758
44773
44797
44779
44826
44846
44854
44888
44848
44876
44888
44836
44851
44830
44777
44754
44667
44643
44596
44493
44465
44419
44375
44366
44261
44218
44190
44110
44072
43995
43945
43973
43918
43900
43895
43860
43853
43798
43804
43874
43797
43758
43773
43764
43794
43793
43797
43813
43721
43723
43783
43798
43823
43790
43784
43858
43848
43867
43877
43860
43911
43907
43900
43973
43971
43968
43953
43949
44018
44013
44017
44079
44034
44050
44100
44090
44118
44133
44167
44219
44160
44162
44194
44194
44239
44239
44254
44316
44276
44288
44332
44340
44358
44307
44298
44375
44361
44396
44438
44419
44452
44473
44506
44556
44503
44532
44584
44575
44611
44622
44647
44713
44683
44700
44719
44701
44746
44754
44780
44873
44866
44870
44866
44845
44881
44848
44818
44856
44787
44727
44673
44615
44616
44552
44483
44464
44359
44323
44296
44200
44155
44093
44039
44036
43979
43988
43966
43875
43865
43835
43789
43795
43741
43727
43709
43693
43753
43730
43696
43750
43712
43666
43641
43651
43714
43688
43680
43736
43672
43675
43740
43750
43768
43760
43787
43852
43802
43806
43855
43884
43928
43908
43920
43980
43925
43940
43977
43948
43993
44023
44012
44048
44062
44097
44063
44016
44076
44085
44088
44134
44076
44090
44141
44121
44118
44115
44165
44229
44171
44211
44278
44241
44251
44275
44286
44298
44263
44334
44382
44340
44361
44371
44388
44450
44435
44473
44494
44462
44493
44508
44544
44607
44557
44583
44640
44623
44626
44603
44613
44681
44635
44602
44582
44542
44517
44428
44398
44424
44293
44219
44214
44152
44097
44021
43985
43985
43874
43821
43802
43757
43757
43690
43618
43630
43590
43578
43532
43463
43504
43515
43494
43508
43456
43470
43486
43458
43484
43461
43441
43496
43477
43487
43514
43523
43539
43484
43505
43606
43556
43552
43603
43603
43634
43633
43624
43663
43647
43673
43670
43646
43706
43706
43693
43755
43740
43733
43724
43719
43772
43755
43760
43830
43790
43803
43840
43818
43846
43866
43887
43918
43861
43888
43934
43921
43948
43949
43983
44067
44042
44052
44078
44073
44108
44088
44084
44145
44128
44175
44221
44196
44224
44241
44268
44315
44274
44316
44361
44327
44341
44342
44354
44416
44395
44409
44413
44388
44408
44352
44300
44320
44236
44171
44140
44105
44088
43971
43877
43888
43795
43700
43642
43618
43644
43563
43485
43521
43481
43441
43402
43365
43387
43339
43300
43328
43268
43270
43296
43269
43276
43264
43277
43312
43242
43260
43301
43264
43285
43315
43346
43389
43343
43357
43386
43390
43434
43409
43397
43463
43442
43457
43483
43478
43521
43517
43526
43593
43567
43581
43602
43592
43640
43635
43625
43679
43666
43691
43699
43675
43727
43747
43767
43816
43759
43759
43782
43783
43860
43871
43822
43837
43835
43876
43885
43882
43946
43949
43968
44028
43974
44011
44080
44053
44071
44098
44116
44155
44144
44197
44229
44217
44257
44239
44248
44338
44310
44279
44284
44317
44388
44354
44328
44380
44334
44327
44312
44231
44220
44190
44117
44062
43970
43957
43924
43816
43750
43684
43691
43724
43585
43523
43558
43546
43525
43459
43424
43438
43362
43348
43356
43324
43335
43304
43291
43338
43303
43325
43347
43319
43350
43345
43327
43360
43340
43386
43425
43417
43464
43459
43450
43496
43463
43484
43528
43545
43591
43555
43537
43624
43633
43634
43625
43624
43689
43682
43682
43745
43709
43728
43762
43739
43769
43770
43760
43796
43778
43815
43842
43831
43873
43868
43886
43964
43930
43934
43965
43958
43980
43968
43994
44055
43997
44020
44099
44105
44105
44096
44159
44241
44185
44216
44267
44231
44278
44325
44300
44301
44319
44398
44396
44373
44475
44504
44482
44534
44530
44544
44524
44477
44493
44435
44371
44406
44370
44325
44249
44166
44163
44100
44034
44027
43932
43890
43865
43793
43775
43747
43737
43744
43647
43643
43668
43617
43611
43600
43596
43616
43555
43564
43577
43547
43580
43559
43524
43566
43561
43591
43615
43635
43706
43693
43683
43737
43696
43714
43746
43719
43766
43810
43833
43864
43834
43882
43901
43853
43900
43938
43956
44014
44016
44057
44050
43993
44034
44054
44071
44143
44118
44102
44107
44140
44218
44201
44207
44277
44213
44194
44238
44255
44307
44325
44356
44424
44388
44399
44415
44395
44443
44461
44478
44527
44488
44524
44563
44527
44536
44547
44601
44690
44659
44676
44692
44652
44690
44724
44751
44799
44764
44790
44813
44790
44823
44810
44794
44818
44751
44744
44727
44627
44576
44500
44425
44408
44314
44242
44170
44113
44132
44064
43979
43960
43859
43819
43811
43774
43792
43757
43711
43737
43699
43682
43652
43616
43652
43635
43627
43667
43590
43576
43628
43636
43627
43570
43582
43646
43580
43600
43668
43650
43655
43668
43711
43779
43743
43753
43773
43780
43842
43816
43775
43834
43852
43890
43890
43856
43891
43884
43887
43938
43900
43939
43978
43939
43979
44007
43987
43991
43973
44025
44038
44019
44095
44128
44141
44187
44141
44157
44196
44187
44206
44197
44233
44307
44252
44264
44323
44330
44363
44357
44361
44423
44411
44441
44464
44469
44547
44555
44541
44601
44601
44624
44613
44582
44650
44675
44673
44714
44667
44642
44611
44563
44566
44510
44465
44448
44320
44285
44265
44145
44096
44052
43956
43893
43835
43833
43769
43687
43710
43655
43569
43569
43502
43463
43455
43451
43455
43368
43340
43396
43323
43314
43337
43284
43307
43333
43305
43318
43321
43341
43313
43312
43372
43326
43332
43450
43432
43448
43506
43497
43513
43512
43524
43577
43542
43527
43508
43509
43599
43610
43601
43659
43636
43646
43663
43651
43687
43677
43686
43752
43718
43735
43768
43747
43756
43743
43768
43822
43766
43796
43856
43841
43872
43889
43904
43970
43971
43996
44002
44000
44054
44028
44028
44108
44083
44100
44133
44111
44146
44164
44180
44229
44195
44206
44219
44213
44269
44259
44253
44321
44308
44321
44325
44299
44333
44299
44246
44269
44228
44196
44137
44060
44039
43960
43895
43885
43769
43725
43716
43622
43535
43455
43455
43503
43414
43371
43373
43334
43301
43242
43260
43321
43226
43189
43214
43199
43220
43198
43174
43223
43200
43171
43139
43158
43243
43212
43196
43281
43246
43219
43220
43217
43283
43296
43286
43347
43356
43386
43393
43393
43451
43427
43410
43473
43443
43454
43492
43490
43509
43476
43474
43536
43499
43510
43556
43567
43599
43579
43590
43651
43613
43648
43694
43653
43659
43680
43711
43740
43674
43705
43764
43758
43785
43785
43807
43869
43835
43870
43933
43940
43966
43953
43976
44050
44011
44020
44053
44050
44105
44124
44140
44203
44185
44205
44220
44204
44233
44210
44213
44276
44232
44230
44227
44164
44167
44143
44079
44031
43935
43910
43848
43734
43739
43722
43637
43579
43505
43515
43508
43445
43421
43357
43346
43400
43321
43291
43309
43289
43303
43273
43238
43257
43216
43231
43231
43194
43245
43272
43282
43313
43261
43290
43336
43327
43361
43365
43379
43440
43412
43429
43440
43414
43473
43501
43499
43530
43499
43536
43580
43573
43580
43550
43584
43648
43570
43602
43687
43656
43661
43677
43673
43703
43698
43712
43680
43681
43780
43765
43726
43786
43775
43795
43824
43821
43854
43832
43827
43874
43838
43882
43926
43891
43932
43968
43965
43986
43991
44081
44119
44082
44120
44137
44157
44216
44196
44249
44286
44234
44250
44277
44304
44357
44339
44379
44387
44333
44365
44376
44355
44344
44254
44238
44226
44150
44101
44016
43978
44015
43929
43847
43790
43740
43741
43679
43630
43619
43505
43490
43523
43476
43458
43433
43419
43443
43395
43403
43401
43362
43386
43371
43369
43418
43359
43338
43344
43336
43384
43393
43416
43472
43428
43457
43492
43441
43454
43496
43558
43620
43573
43597
43639
43620
43632
43627
43662
43714
43628
43632
43708
43729
43750
43718
43711
43790
43798
43812
43796
43774
43841
43857
43855
43886
43845
43905
43971
43932
43939
43953
43981
44054
44047
44063
44074
44089
44157
44139
44144
44226
44190
44195
44234
44235
44285
44296
44299
44352
44333
44350
44369
44379
44444
44441
44451
44510
44462
44492
44550
44524
44539
44569
44609
44625
44531
44548
44590
44527
44482
44424
44379
44358
44241
44189
44160
44088
44035
43918
43848
43880
43820
43774
43721
43633
43618
43586
43574
43597
43508
43478
43488
43468
43474
43420
43391
43441
43405
43397
43392
43365
43394
43377
43373
43425
43404
43465
43510
43447
43440
43456
43479
43507
43457
43495
43547
43541
43571
43576
43615
43677
43603
43594
43627
43612
43643
43649
43654
43699
43681
43726
43753
43717
43733
43726
43749
43827
43793
43789
43797
43777
43807
43797
43815
43893
43878
43911
43943
43915
43935
43923
43927
44003
44001
44011
44003
44002
44092
44095
44062
44120
44138
44175
44171
44143
44207
44218
44210
44260
44237
44249
44262
44259
44321
44326
44325
44371
44326
44343
44382
44367
44381
44353
44330
44336
44247
44227
44196
44069
44001
43948
43901
43865
43749
43718
43698
43617
43584
43524
43476
43477
43387
43348
43331
43282
43269
43218
43213
43260
43177
43151
43169
43148
43167
43139
43110
43157
43158
43178
43140
43078
43134
43147
43127
43187
43199
43212
43198
43204
43287
43279
43265
43325
43288
43296
43338
43347
43397
43403
43403
43426
43357
43374
43430
43442
43490
43486
43484
43544
43522
43521
43521
43510
43543
43521
43546
43640
43601
43599
43639
43632
43651
43647
43675
43723
43651
43658
43709
43706
43735
43738
43762
43830
43806
43827
43846
43829
43881
43906
43936
43997
43957
43977
44026
44030
44057
44044
44067
44132
44090
44131
44197
44159
44140
44137
44177
44223
44148
44143
44142
44057
44027
43975
43902
43881
43803
43743
43682
43633
43605
43484
43437
43468
43342
43291
43291
43188
43142
43141
43114
43078
43011
43033
43034
42991
42998
42953
42944
42998
42923
42902
42941
42933
42912
42851
42862
42945
42898
42887
42909
42900
42936
42933
42938
43003
42990
43009
43027
43032
43097
43082
43056
43111
43113
43160
43192
43163
43171
43165
43208
43281
43227
43251
43297
43254
43258
43276
43289
43309
43276
43337
43359
43286
43305
43333
43332
43355
43334
43390
43446
43452
43476
43444
43469
43545
43481
43494
43570
43571
43588
43584
43585
43633
43616
43647
43684
43702
43752
43722
43738
43852
43834
43811
43823
43843
43897
43883
43898
43972
43927
43926
43953
43934
43945
43919
43892
43882
43784
43772
43755
43640
43581
43541
43506
43468
43352
43342
43333
43231
43178
43108
43038
43031
42986
42993
42971
42906
42909
42878
42864
42896
42821
42805
42813
42772
42780
42755
42734
42778
42759
42765
42759
42746
42799
42784
42780
42851
42834
42861
42886
42860
42903
42927
42939
42986
42963
42987
43001
42988
43041
43057
43077
43116
43053
43090
43171
43157
43142
43129
43183
43273
43227
43220
43231
43208
43251
43269
43283
43330
43288
43299
43333
43345
43381
43340
43333
43427
43422
43425
43443
43457
43524
43515
43507
43577
43553
43545
43577
43633
43704
43660
43652
43742
43727
43756
43798
43771
43797
43817
43836
43892
43877
43901
43915
43900
43924
43903
43934
44019
43961
43948
43974
43935
43922
43869
43802
43772
43684
43650
43590
43482
43449
43400
43365
43349
43223
43180
43159
43070
43060
43049
43009
43002
42950
42944
42928
42898
42896
42823
42827
42921
42884
42911
42951
42880
42869
42888
42873
42867
42842
42897
42939
42965
43032
42990
42962
43050
43048
43056
43086
43096
43119
43087
43116
43203
43151
43160
43218
43210
43226
43224
43233
43276
43260
43317
43335
43277
43323
43364
43357
43381
43369
43400
43398
43388
43457
43453
43453
43531
43507
43506
43536
43556
43597
43551
43534
43625
43640
43668
43680
43670
43731
43731
43717
43791
43817
43857
43866
43869
43954
43963
43957
44022
44016
44051
44074
44046
44079
44071
44070
44158
44185
44209
44192
44168
44232
44234
44226
44276
44217
44171
44143
44096
44068
43977
43935
43956
43834
43735
43674
43594
43576
43534
43485
43460
43370
43373
43365
43274
43262
43265
43257
43257
43188
