28377
28952
30552
30089
28350
28673
30070
29759
29073
29726
29817
28503
28437
30176
30381
28563
28154
29414
29468
28647
29150
29854
28903
28278
29538
29955
28314
27864
29502
29896
28587
28753
30054
29630
28663
29403
29905
28568
27961
29477
30111
28774
28652
29994
29563
28152
28951
30522
29612
28045
29067
30364
29010
27882
29285
30278
29270
28986
30151
29891
28338
28693
29932
29127
28300
29888
31056
29540
28371
29575
30138
28888
28938
30420
30086
28642
29365
31049
30414
28856
29084
29567
28791
28912
30501
30624
28940
28764
30150
29973
28873
29555
30487
29350
28510
30126
30952
29055
28411
30576
31440
29838
29159
30074
29932
28894
29441
30599
29977
29237
30332
31109
29892
29126
30285
30671
29313
29257
30605
30203
28706
29200
30659
30144
28850
29385
30087
28976
28270
29366
29803
28703
28625
29924
29725
28213
28380
29503
29015
28365
29464
29982
28411
27982
29976
30685
28860
27865
28666
28693
27813
28395
29510
28498
27072
28088
29402
28267
27000
28109
29102
28160
27965
29176
28941
27726
28288
29390
28234
26589
27453
28767
27893
27154
28068
28046
26684
26971
28686
28396
26696
27288
29030
28536
27444
28254
28820
27532
27069
28447
28500
26786
26747
28359
28332
27171
27766
28933
27902
26830
28487
29662
27490
25770
27263
28382
27212
27168
28783
28590
27339
28439
29866
28164
26400
28087
29428
27670
27163
29252
29491
27759
27690
28613
27860
26791
27738
28867
27986
27383
28930
29908
28462
27487
28693
28981
27323
27282
28954
28777
27486
28188
29621
29134
28000
28136
28149
27284
27502
28755
28546
27220
27570
29149
28939
27678
28290
29436
28574
27717
28825
29343
27956
27645
29026
29186
28251
28634
29451
28692
27733
28584
29533
28577
27850
29137
29839
28459
27863
29329
29796
28454
28440
29611
28828
27396
28555
30431
29557
27920
28823
29932
28649
27903
29203
29442
28125
28140
29261
28898
27778
28204
28857
27982
27526
28714
29141
27942
27822
29299
29159
27302
27232
28611
28189
26917
27577
28668
27913
27396
28628
28757
26930
26641
28379
28460
26723
26882
28493
27953
26472
27326
28430
26722
24945
26337
27988
26930
26058
27380
27817
26425
26456
27852
26944
24905
25892
27765
26839
26194
28001
28358
26339
26171
28056
27717
25477
25762
27875
27736
26325
26868
27990
27342
26837
28037
28116
26194
25876
27560
27523
26006
26620
28429
27736
26013
26727
27925
26784
25864
27287
27952
26311
25989
27944
28238
26495
26595
28211
27865
26765
27786
28357
26261
25487
27841
28861
27136
26576
27867
27608
26351
27480
29028
27495
25784
27025
28331
27425
26857
27699
27291
26013
27191
28934
27461
25653
27120
28873
28152
27389
27953
27668
26533
26896
28219
28112
27155
27576
28674
28206
27107
27394
27925
27323
27062
27993
28183
26816
26567
28446
29056
27179
26437
27818
28056
27077
27796
28898
27739
26810
28368
29310
27749
26755
28043
28819
27717
27310
28228
27953
26978
28088
29741
28331
26089
27164
28779
27420
26594
28343
28694
26951
27128
28905
28134
25751
26117
27994
27795
27246
28412
28635
26980
26758
28237
27851
26003
26367
28170
27878
26295
26502
27578
26932
26167
27407
27951
26094
25593
27597
27803
25902
26188
27813
27183
26177
27162
27565
26186
25892
27273
27286
25859
26290
28015
27670
26279
26519
26957
25790
25187
26763
27744
26321
25488
27004
28048
27084
26629
27436
26684
24861
25765
27872
26951
25115
26242
28043
27357
26303
27012
27235
25904
25595
26831
26936
25673
25916
27695
27642
26131
26602
27622
26250
25551
27815
28567
26120
25666
28128
28424
26374
26310
27638
26903
25627
26820
27960
26444
25614
27439
28295
26824
26143
27153
27401
26536
26801
27963
27664
26725
27616
29015
28046
26253
26640
27492
26676
26551
27984
28037
26691
27022
28447
27766
26048
26612
27916
27289
26947
28421
28550
26508
26216
28325
28558
26577
26589
28311
27925
26452
27107
28254
27437
27055
28656
28937
26897
26353
28023
28279
26953
27388
28736
27872
26701
28031
29103
27400
26173
27739
28550
26907
26655
28524
28590
27084
27584
29006
27994
26461
27627
28708
27074
26437
28338
28637
26826
26902
28481
27723
25693
26261
27876
26966
25582
27064
28938
27745
26099
27266
28212
26532
25798
27165
26951
25558
26635
28443
27251
25615
26949
28097
26242
25050
26659
27167
25315
25264
27218
26971
25263
25977
27507
26303
24618
25801
27068
25601
24675
26280
27109
26055
25815
26681
26502
25799
26503
27125
25724
24707
26076
27273
26385
25602
26352
26574
25567
25687
26919
26649
25243
25435
26796
26636
25682
26403
27143
25974
25476
26712
26649
25319
25966
27673
26969
25152
25514
26750
26349
25749
26552
26910
25785
25604
26906
26739
25070
25161
26667
26597
25930
27151
27964
26015
24757
26543
27490
25562
24713
26629
27314
25744
25842
27428
26790
25373
26441
27810
26580
25157
26228
27399
26394
25713
26961
27490
26240
26090
27543
27142
25011
25269
27193
26964
25910
26651
27225
26344
26502
27966
27639
25766
25709
27162
27130
26098
26521
27575
27221
26745
27589
27884
26610
25918
26710
27045
26220
26236
27460
27543
26580
27084
27935
26469
25105
26673
27690
25984
25790
27947
27970
26107
26222
27489
26828
25463
26073
27119
26244
25378
26419
27287
26496
26045
26813
26644
25446
25892
27382
26937
25473
25929
27219
26560
25400
26256
26838
25203
24564
26218
26513
24818
24887
26752
26561
24939
25578
26962
25928
25024
26484
26729
24554
24492
26907
26910
24673
24647
26178
25707
24674
25994
27053
25190
23977
25743
26440
24304
23566
25566
26076
24542
25088
26860
25738
23832
25058
26851
25654
23949
24815
25886
24959
24622
25975
26233
25091
25183
26122
25393
24059
24818
26213
25854
25359
26171
26282
25064
25013
26296
25962
24310
24561
26021
25645
24495
24960
25565
24907
25252
27042
27058
24986
24223
25527
26183
25160
24722
25756
25953
24963
25331
26406
25396
24146
25547
26676
25265
24808
26201
26124
25159
25839
26608
25542
24524
25333
26199
25504
24974
25895
26548
25994
26115
27173
26452
24412
24825
26707
26148
24608
25518
27059
26363
25510
26702
27258
25792
25535
26860
26246
24405
25159
27250
26815
25393
26176
26973
25492
24851
26599
26887
24797
24709
26951
27129
25428
25586
26670
25754
24780
26230
27119
25396
24727
26418
26743
25353
25453
26464
25570
24314
25550
26841
25230
23891
25653
27066
25506
24404
25970
26599
24699
24144
25719
25745
24359
24866
26214
25106
23219
23922
25114
24253
24066
25725
25621
23499
23317
24915
24760
23590
24180
25120
24277
23643
24920
25553
23843
22931
24655
25700
24325
23564
24615
24922
24162
24572
25330
24430
23757
25078
25818
24398
23533
24564
24860
23921
24544
26007
25234
23834
24695
25843
24778
23640
24689
25638
24467
23589
24598
25163
24242
24288
25631
25131
23150
23488
24988
24265
23517
25069
25806
24361
24099
25479
25049
23285
23722
25254
24599
23475
24770
26181
25051
24052
25269
25765
24353
24282
25762
25178
23172
23844
26102
26076
25146
25982
26380
24635
23858
25616
26327
24606
24152
25748
25973
24908
25322
26290
25385
24181
25026
25869
24751
24289
25730
26335
25508
25545
26319
25832
24714
24922
25625
25177
24660
25563
26614
26209
25628
26249
26364
25125
24914
26358
26782
25577
25434
26806
26755
25233
25305
26438
25843
24818
25736
26664
25571
24947
26315
26676
25111
24972
26391
25878
24305
25238
26671
25227
23747
25125
26389
25325
24366
24926
25056
24490
25184
26105
24940
23704
24941
26182
24821
23671
25128
25846
24219
24168
25838
24980
22842
23728
25599
24297
22237
23405
25191
24303
23467
24670
24734
22857
22860
24979
24938
22739
22601
24433
24652
23566
23757
24309
23461
23065
24351
24781
23362
22751
23926
24608
23809
23455
24135
23988
23276
24039
24836
23344
22202
23872
24654
22656
22331
24532
24815
23341
23712
24955
24132
22662
23283
24557
24239
23843
24622
24805
23986
24272
25343
24487
22645
23210
24782
23999
22735
23899
25293
24446
23542
24280
24177
22672
22990
24829
24486
22838
23669
25778
25499
24121
24455
24752
23324
22904
24633
25193
23743
23758
25378
25009
23198
23456
24656
23872
23210
25040
25868
23703
22874
24687
24939
23341
23414
24761
24550
23631
24442
25632
24792
23615
24348
25203
24222
23455
24542
25020
23951
24152
25201
24175
22840
24096
25627
24853
23884
24588
25020
24122
23822
24755
24939
23835
23759
25250
25280
23519
23462
24900
24547
23536
24506
25327
23952
23219
24491
24660
23031
22718
24079
24290
23142
23179
24179
23726
22751
23632
24544
23167
22173
23666
24155
22342
22301
24103
23752
22415
23314
24363
22957
21615
22747
23805
22687
22028
23325
23771
22342
22094
23604
23358
21235
21175
22839
22726
21870
22877
23843
22752
22140
23495
23517
21272
20798
22791
23274
21984
22336
23740
23067
21849
22917
23738
21811
20640
22454
23362
21736
21557
23470
23602
22048
22063
22937
22234
21325
22209
22875
21811
21682
23400
23811
22397
22081
22915
22337
21127
21945
23269
22366
21427
23032
24367
22728
21351
22851
23495
21527
21344
23341
23026
21295
22085
23625
22768
21739
22835
23343
21984
22083
23923
23687
21805
22093
23634
22977
21514
22033
22804
22039
21944
23251
23051
21356
21690
23436
23009
21584
22351
23862
23407
22255
22789
23782
22960
21916
23014
24092
22706
21563
23041
23993
22585
22014
22972
22728
22084
23199
24160
23025
22143
23252
23760
22476
22449
24118
23997
22196
22586
24591
23788
21246
21881
24024
23229
21915
23267
24158
22733
22474
24084
23781
21576
21312
22812
22819
21847
22421
23246
22026
21026
22555
23601
21879
20728
22169
22951
21651
21402
22703
22537
21375
22005
22985
21718
20467
21742
22616
21017
20395
22072
22496
21172
21261
22388
21542
19941
20721
22020
21056
20334
21775
22605
21706
21572
22440
22018
20839
21219
21993
21010
20073
21339
22612
21593
20685
21921
22220
20257
20042
22182
22191
20167
20555
22656
22272
20622
21310
22458
21291
20519
22057
22432
20519
20386
22401
22450
20853
21218
22438
21407
19960
21174
22684
21391
20025
21474
22816
21611
20787
21989
22059
20623
21221
22833
21995
20808
21824
22456
21290
21035
22340
22502
21255
21213
22182
21680
20460
21224
22946
22530
21029
21446
22291
21395
21132
22671
22837
21167
21177
22940
22983
21549
21608
22421
21798
21289
22427
22820
21305
20933
22551
22923
21518
21300
22528
22713
21804
21943
22727
22215
21503
22414
23095
21714
20634
21811
22730
21850
21776
23142
23242
22254
22594
23332
22200
20862
21827
23001
21907
20976
22248
23011
21588
20940
22339
22462
20747
20932
22560
21997
20702
21798
22997
21638
20656
22224
22505
20046
19584
21706
21657
20224
21413
22871
21401
20237
21523
21858
20273
20171
21745
21611
19957
20291
22083
21718
20140
20719
21663
20005
18795
20800
21931
20076
19824
21900
21657
19703
20198
21575
20199
18504
19946
21392
19766
18777
20667
21630
20297
19923
20842
20282
18938
19694
21302
20796
19461
19895
20889
20545
20262
21179
21241
19868
19716
21154
21288
19790
19649
21229
21454
20134
20083
20881
20379
19989
20982
20935
19496
20000
22033
21721
19798
19974
21365
20879
19698
20393
21183
19927
19199
20869
21896
20558
19711
20748
21119
20258
20730
22027
21297
19802
20480
21881
21233
19994
20537
21255
20606
20671
21938
21763
20266
20358
21550
20857
19422
20433
21933
20984
20155
21482
21928
20534
20686
22418
21890
19813
20345
22132
21294
20002
21337
22326
21043
20976
22602
22245
20363
20288
21578
21735
20835
20947
22094
21897
20704
21534
22987
21404
19555
21413
23103
21352
20427
21902
21965
21029
21973
22899
21401
19932
20951
22226
21416
20497
21296
21929
21225
21342
22516
21554
19117
19675
21973
21463
19980
20994
22168
21374
20951
21774
21665
20468
19968
20266
20232
19892
20359
21379
21021
19777
20115
20922
19918
19301
20718
20989
19246
19175
20748
20388
18954
19597
20933
20306
19340
20104
20546
19371
19301
20889
21014
19670
19773
20934
20560
19472
20061
21015
20233
19596
20734
21300
20001
19524
20885
21063
19535
19648
21147
20564
18859
19599
21468
20871
19335
20161
21298
20382
20242
21839
21419
19180
19645
22096
21695
19393
19792
21771
21469
20353
21257
22036
20691
20236
22052
22471
20507
19991
21548
21710
20548
21166
22410
21386
20203
21429
22248
20479
19425
21138
22153
20898
20763
22209
21947
20675
21380
22516
21244
19733
20966
22521
21672
20824
21621
21729
20780
21192
22342
21505
19887
20493
21736
20988
20363
21846
22702
21305
20755
22313
22462
20443
20119
21799
21797
20492
21236
22932
22415
21309
22301
23192
21808
20848
22151
22915
21686
21256
22445
22538
21527
21903
22596
21331
20400
22041
22902
21130
20709
22556
22609
21023
21456
22891
21883
20017
20822
22467
21637
20462
21673
22873
21724
20572
21205
21321
20238
20633
21918
21065
19566
20522
22011
21060
19671
20408
21157
20336
20498
22075
21667
19334
19154
21197
21317
19627
19888
21210
20379
19268
20373
21004
19573
19447
21265
21328
19593
19497
20733
20538
19682
20442
21259
19974
19014
20619
21763
20194
19150
20588
21134
19762
19954
21320
20470
19200
20550
21838
20205
18665
20121
21726
20957
20345
21241
21064
19621
19947
21604
21110
19323
19906
21427
20706
19926
21351
21923
20067
19596
21776
22236
19852
19040
20709
21110
20111
20721
21987
21193
20197
21385
22114
20458
19753
21434
21801
20033
19940
21571
21463
20428
21205
22000
20508
19230
20488
21562
20523
20212
21667
21899
20669
20758
21708
20926
19678
20566
21561
20352
19703
21330
22159
21047
20891
21976
21369
19907
20978
22629
21274
19759
21562
23399
21984
20451
21547
22270
20852
20365
21575
21399
20037
20640
22351
21960
20692
21289
21953
20703
20126
21503
21550
19569
19495
21648
21972
20447
20559
21643
20851
19784
20848
21419
19623
19027
20965
21553
19951
19609
20874
20844
19821
20289
20967
19591
18544
20113
21489
20340
19310
20357
20877
19699
19637
20823
20335
18962
19626
20899
19840
18234
19011
20194
19459
19043
20273
20341
18656
18744
20951
21133
18977
18629
20112
19993
19103
20021
20819
19432
18794
20600
21161
19123
18558
20244
20210
18849
19880
21361
19918
18637
20196
21053
19303
18402
19809
20420
19330
19477
20938
20548
18941
19450
20962
20066
18457
19484
20780
19639
19253
21222
21550
19307
18937
21110
21256
19086
19020
20532
20137
19595
21015
21504
20105
19958
20833
19699
18057
19156
20884
19993
18843
20367
21864
20603
19502
20772
21356
19783
19283
20681
20743
19259
19582
21333
21130
19825
20367
21232
20036
19124
20535
21073
19053
18470
20700
21473
19751
19461
21153
21213
19763
20191
21496
20627
19504
20662
21723
20651
19865
20797
20916
19556
19629
21087
20832
19448
20077
21803
21433
20047
20517
21221
20161
19849
21210
21019
19378
19839
21595
21096
19437
19721
20858
20308
19012
19206
20176
19844
19238
20231
20900
19480
18579
19492
19484
18465
19232
20410
19205
18126
19752
20889
19137
17880
19390
20419
19338
19086
19892
19019
17836
19191
20777
19431
17727
18704
19522
18166
18063
19653
19221
17799
18837
20268
19035
17494
18323
19388
18780
18509
19600
19696
18206
18041
19703
19743
17797
17560
19234
19517
18570
18927
19730
18979
18429
19609
19715
17690
17424
19566
19748
18059
18824
20699
19588
17907
19326
20811
19187
17721
19132
20037
18554
18313
20104
20189
18681
18883
19943
19054
17844
18978
20138
18717
17514
18891
20135
19392
18958
19763
19499
18215
18633
19921
19237
17955
18758
20044
19498
18799
19606
19822
18603
18622
20085
19994
18653
19174
20768
20147
18603
19388
20566
19277
18311
19902
20490
18561
18230
20371
20916
19400
19110
19958
19519
18609
19299
20191
19555
19157
19988
20091
19275
19422
20159
19748
19173
20168
20942
19529
18399
19840
21416
20687
19523
19833
19999
19280
19716
20867
20223
18904
19522
20578
19568
18371
19399
20332
19125
18392
19481
19536
18020
18236
20140
19783
17417
17202
18812
18746
17934
19078
20146
18555
17296
18970
19850
17554
16416
18440
19205
17550
17685
19443
18841
17158
17900
18983
17503
16252
17839
18986
17535
17076
18915
19135
17153
16893
18343
17816
16331
17406
18756
17342
16556
18425
19017
17319
17119
18462
17764
15822
16361
18091
17515
16390
17757
19401
18560
17454
18278
18714
17354
16759
17796
17991
17106
17661
19300
19110
17837
18298
18889
17306
16509
18287
18763
16992
17251
19334
19007
17237
17647
18959
18443
17530
18302
18944
17656
16876
18469
19633
18565
18062
19160
18715
17009
17745
19347
18176
16892
18404
19568
18251
17381
18320
18527
17621
18048
19035
18063
16923
18388
20127
19038
17374
18064
18943
18057
17924
19328
19099
17265
17665
19946
19753
17527
17598
19293
18927
17836
18849
19811
18608
18050
19568
20074
18654
18168
19038
18938
18206
18928
19863
18896
17954
19078
19903
18618
17766
18791
19118
18313
19002
20017
18550
17142
18662
20071
18599
17159
18241
19230
18372
18281
19579
19233
17390
17693
19736
19391
17152
17207
18705
18173
17177
18154
18803
17640
17512
19039
18713
16538
16615
18768
18854
17082
17153
18507
17817
16429
17428
18504
16938
16002
17733
18212
16484
16840
18991
18589
16663
16998
18151
17268
16256
17268
17852
16635
16681
18468
18487
16906
17041
18122
17054
15250
15958
17522
16831
15812
17161
18559
17549
16802
18147
18174
16271
16751
18608
17238
15239
16944
18870
17353
16090
17844
18717
16869
16394
18176
18050
16122
16471
18452
18597
17666
17690
17654
16930
17130
18444
18689
17234
16754
18401
19078
17412
16657
17939
18274
17380
17857
18701
17599
16744
18271
19337
17902
16801
17817
18354
17497
17880
19172
18400
16980
18262
20306
19303
17095
17444
18663
18007
17570
18738
18869
17619
18052
19835
19394
17447
17851
19394
18787
17831
18401
18227
17230
17975
19270
18716
18004
18793
19328
18732
18642
19454
19325
17785
17531
19630
20478
18320
17092
18756
19766
18751
18676
19691
19207
18252
19060
19573
17825
16776
18449
19413
18013
17845
19588
19465
17674
17896
19279
18305
16583
17521
18725
17449
16844
18380
18586
17237
17532
18622
17690
16370
17319
18406
17285
16475
17984
18935
17528
16909
18474
18503
16243
16050
18057
17816
16053
16964
18899
17835
16001
17076
18583
17394
16131
17368
18364
16908
15789
16895
17888
17647
17782
17994
16875
16115
17520
18581
17347
16678
18081
18587
17321
17111
18271
18059
16711
17011
18174
17499
16453
17630
18988
17806
16496
17588
18204
16739
16707
18239
17523
15888
17105
19014
18157
16884
18090
19243
17932
16764
17824
18682
17768
17572
19011
18963
17039
16879
18438
18249
17092
17834
18942
18250
17755
18669
18737
17613
17708
18926
18924
17976
18065
18412
17579
17294
18691
19294
17936
17151
18132
18621
17860
18001
19042
18699
17660
18295
19395
18394
16916
17668
18729
17971
17747
19004
18932
17555
17968
19544
18887
16799
16869
18446
18597
18067
18656
19095
18499
18823
20149
19399
16894
16717
18742
18907
17385
17724
19258
18709
17501
18694
19835
18033
16663
18198
18973
17638
17837
19414
18979
17699
18065
18236
16833
16415
17994
18466
16859
16689
18767
19162
17214
16952
18689
18301
16131
16429
18163
17512
16273
17373
18385
17151
16542
18083
18394
16619
16540
18076
17521
15994
16783
18132
17388
16443
17104
17361
16335
16357
17690
17646
16184
16268
17884
17866
16478
16763
17810
17027
16222
17250
17425
15768
15830
17917
18116
16465
16527
17820
17282
15966
16790
18170
17271
16130
17356
18614
17570
16472
17132
17372
16462
16890
18247
17732
16537
17355
18648
17943
16745
17181
17822
17231
17029
17722
17404
16422
17129
18637
17971
16164
16562
18109
17860
17110
18084
18946
17827
17125
18440
18582
16603
16523
18302
17798
16410
17574
18591
17235
17035
18719
18343
16245
16404
18208
18112
16788
17483
19165
18440
16782
17673
18874
17019
15507
17585
18938
17185
17122
19512
19448
17389
17445
18512
17678
16576
17518
18617
17762
17005
18223
18965
17400
16629
18230
18197
15731
15760
18011
17666
16212
17406
18685
17457
16727
17918
17690
15705
15803
17737
17525
15854
16430
18068
17488
16248
16821
17233
15956
15647
17422
18058
16304
15528
16969
17427
16070
15829
16821
16565
15987
17155
17785
15962
14906
16381
17101
15945
15957
17220
16464
14660
15529
17226
16045
14608
16094
17495
16234
15282
16598
17277
15951
15518
16694
16563
15105
15557
17385
16830
15003
15943
17651
16495
15476
17238
17892
15772
15240
17228
17202
14798
14520
16481
16905
16261
17136
17803
16334
15655
17414
18003
15982
15154
16736
17283
16224
16456
17423
16821
16384
17766
18152
16165
15190
16716
17419
16200
16227
17660
17348
16057
16777
17931
16536
14915
16247
17791
16734
16122
17686
18064
16486
16409
17794
17099
15170
15832
17636
16866
15469
16748
18328
17294
16323
17730
18234
16428
16304
18193
17729
15761
16655
18625
17563
15812
16831
17986
16757
16165
17881
18397
16582
16345
18286
18306
16454
16829
18541
17571
15728
16858
18288
16858
15885
17423
17996
16617
16315
17210
16749
15642
16429
17807
17140
16093
17033
17948
16718
15682
16652
16944
15549
15647
17092
16425
14811
15664
17334
16705
15365
15761
16286
15507
15410
16525
16362
14889
14888
16203
16136
15202
15739
16554
15642
14857
15883
16443
15289
15027
16368
16568
15359
15303
16229
15942
15123
15641
16171
15252
14982
16438
16875
15307
14580
15729
16297
15724
16031
16690
15804
15085
16558
17699
16086
14524
15667
16746
15655
15367
16961
17099
15506
15789
17525
16598
13902
14211
16685
16993
15979
16467
16956
15938
15762
17197
17162
15230
14830
16348
16827
16301
16884
17582
16648
15998
17125
17419
15780
15448
17125
17304
15883
16329
17817
17098
15899
17083
18148
16509
15172
16633
17702
16308
15697
17083
17314
16187
16623
17873
17020
15524
16386
17578
16359
15494
17387
18796
17449
16527
17717
17649
15607
15572
17502
17385
15960
16748
18348
17700
16627
17523
17895
16410
16540
18483
17918
15566
16057
18225
17895
16378
16735
17474
16665
16135
17236
17724
16230
15574
17367
18274
16547
15549
16489
16417
15552
16617
17664
15929
14588
16426
17818
16211
15183
16646
16993
15574
16149
17695
16338
14431
15580
17136
16226
15264
16148
16504
15482
15802
17302
16838
15250
15957
17880
17498
15635
15424
16284
16273
16285
16953
16463
14904
15198
17206
17095
14869
14672
16398
16398
15425
16243
17109
15984
15504
17113
17583
15833
15228
16555
16783
15784
16303
17494
16760
15783
16871
17734
16396
15472
16767
17538
16297
15931
17407
17579
16105
16500
18363
17568
15366
16129
17661
16485
15935
17839
18102
16406
16907
18681
17530
15125
15842
17781
16987
15708
17122
18345
16672
15468
17174
18185
16648
16212
17662
17339
15608
16103
17818
17563
16642
17149
17288
16049
15917
17291
17197
15627
15963
17890
17967
16719
17060
17993
17176
16193
17080
17737
16526
16055
17523
18160
17141
16823
17426
17024
16494
17737
18673
17208
16120
17346
18142
17149
16816
17594
17008
15737
16702
18054
16601
15102
16591
17968
16714
15584
16394
17056
16387
15802
16346
16990
16412
15888
16901
17162
15564
15454
16952
16458
15321
16507
17276
15785
15643
17451
17403
15693
15686
16837
16441
15264
15752
16871
16161
15152
16413
17684
16157
14592
15742
16633
15486
15537
17132
16805
15370
16156
17548
16296
14528
15372
16431
15477
15434
17082
16892
15185
15698
17372
16455
14550
15372
16853
15889
15166
16763
17261
15440
15167
17032
16932
14753
14645
16543
16816
15851
16437
17470
16648
15741
16505
16593
15072
15083
16891
16791
15129
15841
17842
17353
15974
16732
17498
16036
15018
16423
17306
15964
15603
17520
18300
16820
16070
16634
16114
15316
16658
17859
16344
15295
16962
18042
16843
16137
16762
16451
15562
16527
17972
17139
15843
16716
17775
16853
16136
17421
18330
17282
16463
17152
17483
16652
16609
17766
17781
16707
17069
18009
17045
15976
17137
18056
16626
15804
17358
18059
16595
16260
17620
17456
16254
17005
17970
16687
15914
17367
17904
16483
15899
16712
16709
16006
16597
17507
16539
15320
16232
17330
16106
14740
15831
17107
16371
15847
16629
16517
15573
16093
17200
16374
14989
15626
16438
15527
15433
16848
16356
14282
14691
16765
16293
14360
14895
16544
15899
14699
15807
17113
16201
15328
16079
16027
14529
14401
15983
16430
15333
15238
16186
15757
14736
15742
16972
15463
13867
15324
16681
15379
14916
16656
16786
15069
15485
17377
16469
14133
14873
16791
15947
14915
16509
17549
16165
15743
17253
17086
15211
15550
17088
15966
14310
15758
17566
16458
15100
15999
16615
15513
15409
16875
16945
15585
15971
17762
17556
16047
16426
17257
15910
14973
16589
17321
15578
15245
17092
17035
15130
15501
17404
16833
15124
15981
17407
16358
15624
17354
17842
15495
14626
16694
17399
15997
16439
17892
16640
15047
16585
18249
16898
15465
16536
17375
16315
16203
17569
17345
15858
16258
17668
17104
15984
17017
17976
16484
15514
17087
17777
15957
15378
17319
17680
15526
15046
16690
16745
15635
16296
17211
16043
15213
16495
16840
14942
14226
15728
16243
15317
15678
16621
15690
14772
16220
17285
15663
14530
15819
16059
14522
15078
16837
15811
14194
15493
16958
15726
14359
15201
16251
15689
15193
16023
16306
15134
15060
16617
16257
14093
14456
16236
15200
13726
15559
17344
15733
14421
16092
16636
14341
13911
16010
15918
14371
15542
17261
16029
14801
16122
16890
15541
15007
15994
15719
14278
14828
16728
16467
14950
15529
16886
16046
14836
15833
16598
15094
14446
16257
17191
16003
15522
16232
15698
14681
15720
16861
15494
14374
15770
16876
16069
15670
16288
15820
14771
15583
16965
16231
15045
15955
17146
16460
15883
16892
16857
15115
15207
17263
17225
15317
15600
17518
17262
15737
16153
17034
15967
15304
16889
17544
15705
15107
17089
17785
16164
15774
17022
16828
15724
16518
17642
16541
15621
17042
17910
16371
15286
16226
16702
15951
16201
16885
15701
14417
15578
17055
16283
15226
15911
16238
15175
15419
16960
16581
14934
15268
16512
15647
14212
15122
16453
15688
14969
15989
16264
14920
14984
16727
16387
14100
14024
15508
14750
13480
14975
16483
15292
14795
16771
17084
14442
13377
15131
15631
14205
14436
15962
15524
14394
15333
16223
14697
13521
14904
15806
14561
14381
15987
16023
14570
14718
15713
14823
13669
14925
16197
14940
14012
15325
15903
14706
14791
16341
16017
14298
14703
15918
14583
13059
14720
16795
16070
15111
16300
16805
15080
14468
16100
16502
14933
14766
16365
16514
15260
15352
16114
15356
14587
15764
16771
15581
14611
15830
16768
15975
15905
16869
16278
15151
16087
16762
15063
14432
16302
16739
14991
14954
16733
16503
15013
16002
17475
15829
14195
15892
17624
16552
15286
15877
16436
15919
15914
16433
15964
15347
16108
16890
16139
15350
15955
16485
15987
16005
17067
17280
16086
15797
17062
16973
15197
15248
16941
16798
15826
16795
17624
16224
15553
17066
17240
15104
14482
16107
16438
15316
15787
16937
16138
15337
16669
17285
15267
13948
15416
16548
15681
15452
16218
15569
14535
15463
16473
15183
13922
15155
16325
15176
14246
14987
15203
14695
15397
16263
15154
13818
14761
16051
15242
14286
15229
15921
14656
14077
15669
16043
14113
13874
15712
15534
13934
14603
16072
15369
14513
15370
15433
13809
13535
15150
15434
13984
14032
15624
15518
14165
14670
15859
14816
13534
14853
16104
14736
13874
15510
16419
15265
14922
15674
14779
13480
14996
16765
15092
13254
14866
16658
15541
14445
15532
15886
14405
14303
15609
15087
13820
15000
16799
15971
14363
14857
15666
14901
14670
15798
15653
14169
14417
16072
15885
14453
14787
15912
15341
14602
15622
16330
15258
15055
16671
16761
14746
14487
16228
16208
14974
15754
16628
15013
14174
16163
17135
15454
14685
16059
16463
15204
15247
16654
16241
14597
15318
17181
16022
13771
14892
16765
15617
14739
16317
16625
15051
15382
17142
16577
14552
14590
15711
15220
14599
15712
16332
15065
14797
16574
16751
14544
14065
15790
15939
14880
15655
16736
15609
14564
15505
15856
14357
13716
14901
15345
14292
14234
15523
15518
14327
14639
15723
15042
14082
15117
15808
14280
13614
15203
15549
13881
13986
15719
14722
12363
13531
15670
14302
13027
14992
16125
14607
13958
14694
14084
12951
13988
15526
14621
13243
14381
15931
14890
13252
13787
14702
14024
13554
14330
14391
13489
13938
15491
15352
14058
14398
15165
14127
13692
15289
15243
12895
12816
15163
15434
13828
13979
15211
14726
13706
14568
15655
14673
13653
14695
15493
14359
13891
15245
15479
14260
14693
15981
15209
14258
15452
16277
15001
14321
15489
15773
14403
14232
15501
15305
13885
14202
15619
15095
13688
14476
15858
15097
14255
15249
15552
14185
14232
16109
16201
14198
13707
15036
15260
14563
15176
16081
15256
14423
15381
15809
14338
13952
15714
16298
14870
14611
15732
15332
14203
15132
16121
14317
12896
14675
15641
13872
13922
16187
16030
14324
14983
16133
14566
12922
14192
15412
14072
13446
15168
15719
14192
13942
15117
14578
13002
13640
15265
14685
13419
14253
15412
14594
13828
14802
14976
13436
13364
14959
14601
12658
12924
14834
14836
13655
14018
14434
13062
12604
14239
14479
13038
13528
15059
14574
13788
14535
14792
13972
13993
14892
14864
13735
13465
14719
15230
13955
13408
14542
14615
13361
13790
15199
14367
12789
13770
15503
14708
13214
13866
14591
13475
13232
14740
14881
13620
14122
15654
14881
12956
13348
14748
14327
13712
14581
14726
13512
13832
15645
15340
13353
13626
15267
14756
13886
15122
15449
13498
13359
15619
15854
13861
13595
14948
14836
14002
14909
15846
14605
13713
15120
15772
14018
13136
14634
15397
14490
14831
16280
15789
14388
15140
16332
14846
13070
14328
15904
14906
14234
15523
15717
14512
15083
16637
15633
13406
13828
15457
14848
13711
14703
15701
14798
14472
15798
15636
13677
13804
15790
15455
13524
14002
15708
15055
13523
14039
15062
14526
14013
14704
14763
13609
13586
14962
14981
13671
13902
14969
14084
12973
14172
14910
13414
13226
14991
14999
13652
14118
15012
13584
12126
13491
14866
13377
12173
13835
15088
13639
12578
13668
14016
12884
13258
14565
13650
12112
13121
14666
13891
12955
14021
14444
12913
12698
14190
13812
12217
12873
14279
13473
12391
13185
13925
13253
12896
13706
14082
13294
13126
14203
14273
12963
13078
14585
14383
12915
12867
13071
11966
12080
14264
14937
13294
12895
14233
14005
12647
13487
14953
13693
12247
13842
15526
14201
12569
13322
14175
13484
13498
14493
14020
12970
14057
15571
14396
12482
13112
14439
13874
13467
14752
14979
13246
13008
14816
14542
12043
12043
14442
14626
13097
13668
15055
14224
13336
14708
15330
13460
12797
14592
14939
13389
13788
15469
14815
13472
14593
15789
14379
13178
14477
15108
13356
12849
14724
15124
13494
13533
15045
14380
12693
13792
15711
14897
13887
15239
15915
14309
13775
15261
15291
13567
13694
15266
14758
13205
13871
15236
14424
13485
14827
15524
13712
13078
14681
14649
13149
13910
15661
14939
13466
13908
14328
13143
12821
14279
14557
13045
12961
14519
14478
13046
13176
14199
13656
12781
13664
14377
13085
12438
14087
14769
12954
12248
13872
14052
12502
13135
14921
14020
12519
13678
14880
13587
12537
13633
14158
12955
12894
14320
14129
12597
13082
14905
14461
12711
13164
14280
13315
12660
13873
13827
12279
12878
14944
14522
12504
12542
13839
13706
13241
14157
14528
13039
12568
14380
14947
13033
12356
13784
13811
12512
13334
15095
14217
12682
13998
15498
13778
12051
13531
14830
13784
13774
15106
14389
12990
14075
15347
13921
12465
13637
14693
13513
13084
14749
15236
13749
13524
14851
14633
13115
13280
14344
13830
13256
14598
15491
14002
13080
14550
14871
12862
12770
14808
14479
12794
13933
15738
14613
13319
14485
15111
13576
13113
14735
15050
13318
13130
15012
15376
14087
14420
15499
14185
12551
13867
15304
14000
13167
14679
15233
13906
13576
14256
13537
12626
13999
15287
13694
12233
13697
15174
14285
13368
13908
13899
12929
13192
14215
13518
12160
12921
14408
13555
12046
12980
14152
13026
12471
14015
14191
12426
12329
13673
13041
11467
12218
13735
13124
12308
13328
13579
11833
11537
13506
14009
12438
12092
13229
13214
12387
13072
14182
13315
12257
13568
14737
13058
11636
13041
13762
12164
12074
13767
13439
12037
12889
14236
13171
11783
12651
13653
12936
12815
14034
13917
12608
13050
14499
13837
12172
12664
13939
13387
12924
14433
15231
13709
12960
14294
14287
12285
12197
14102
14100
12794
13514
14798
13943
13209
14534
14786
12604
11985
14077
14666
13032
13062
14529
14155
13185
14123
14930
13692
12884
14181
14912
13533
12854
14195
14688
13489
13563
14933
14255
12547
13416
14696
13278
12567
14768
15831
14254
13662
14662
14221
12779
13311
14702
14014
12855
14130
15791
14761
13303
14269
14956
13512
13514
15436
14678
11812
12099
14794
15017
13481
13777
14622
13557
12772
14130
14808
13374
12952
14399
14569
13154
12978
13777
13249
12425
13355
14236
13111
12236
13192
13507
12274
12204
13567
13325
11897
12543
13953
12894
11552
12935
14367
13009
11551
12580
13581
12608
12164
13309
13563
12671
12924
13729
12788
11485
12326
13435
12661
12337
13707
13687
11716
11608
13728
13897
11869
11707
13256
13005
11914
12784
13700
12428
11727
13384
14060
12311
11674
13088
13286
12417
13436
14696
13382
12178
13527
14299
12592
11657
13025
13501
12060
11982
13720
13928
12606
12718
13517
12328
11038
12511
13915
12352
11150
12706
13717
12584
12293
13510
13362
11964
12238
13447
12956
12121
13030
13756
12775
12459
13803
13921
12260
12085
13616
13633
12410
12877
14144
13516
12373
13008
13666
12627
12117
13518
14175
12680
12035
13716
14528
13220
12928
13883
12982
11590
12987
14409
12710
11527
13495
14716
13123
12234
13301
13207
12023
12862
14164
12660
11077
12690
14396
13146
11882
13003
13585
12248
12184
13531
12876
11133
11695
13221
12795
11807
12358
12802
11880
11659
12763
12817
11677
11813
12962
12717
11764
12255
13002
12162
11385
12161
12435
11064
10618
11996
12239
10692
10480
12005
12305
11434
11952
12913
11971
10965
12133
12960
11349
10350
12037
13099
11741
11068
11941
11610
10594
11622
13065
11774
9953.3
11073
12747
11995
11292
12224
12160
10975
11436
12690
11946
10591
11411
12756
12094
11229
12204
12884
11674
11311
13023
13133
10794
10460
12469
12338
10722
11657
13452
12612
11326
12126
12533
11145
10967
12736
12962
11134
11029
13035
13409
12111
12454
13325
11655
10203
12122
13484
11674
11012
12675
12661
11404
12150
13345
12356
11143
11975
12840
11804
11093
12392
13356
12509
12174
13194
12927
11444
11960
13493
12645
11158
12176
13573
12790
12081
13195
13517
12046
11842
13368
13357
11781
11849
13312
13340
12523
12920
13162
11902
11551
13167
13665
12158
11905
13307
13195
11732
11811
12814
12290
11385
12290
13244
12122
11262
12778
13919
12481
11156
11893
12342
11697
12218
13111
11997
11100
12955
14570
13054
11209
11926
12924
11994
11323
12237
12439
11396
11573
12772
12116
10352
10784
12320
11838
10778
11595
12302
11004
10290
11750
12324
10863
10718
12332
12335
11109
11688
12769
11674
10607
11953
12765
10965
10074
11801
12442
10984
11141
12944
12714
11269
12050
13298
11763
10139
11510
12521
10915
10505
12318
12593
11485
12075
13080
11877
10545
11668
12839
11721
10988
12401
13010
11575
11256
12722
12505
10639
10925
12565
11952
10713
11769
12825
11837
11497
12962
13093
11259
10916
12591
12848
11265
11301
13329
13817
12425
12147
12532
11337
10461
11845
12716
11537
11335
12809
12851
11504
11671
12566
11705
10922
12514
13503
11639
10657
12660
13814
12359
11707
12959
13007
11648
11956
13238
12551
11432
12506
13639
12476
11533
12875
13709
12508
12249
13460
12982
11320
11970
13898
13384
11610
12072
13188
12202
11387
12633
13137
11904
12007
13534
13015
11073
11479
13112
12474
11411
12692
13514
11779
10919
12363
12680
11142
10911
12226
12283
11205
11643
13043
12645
11355
11853
12617
11146
9798.2
11111
12257
11105
10582
11841
11925
10744
11260
12674
11831
10159
10827
11910
11023
10792
12234
12011
10250
10722
12582
11799
9633.1
10273
12186
11544
10161
11012
11995
11201
11020
12281
12069
10389
10648
12239
11681
10251
11227
12701
11683
10483
11516
12155
10659
10038
11620
12309
11221
11292
12612
12379
11270
11813
12614
11454
10454
11855
13125
12106
11473
12858
13299
11741
11468
12932
12564
10883
11633
13085
11813
10706
12462
13605
12107
11252
12312
12407
11183
11506
12953
12539
11174
11881
13419
12826
11707
12664
13260
11545
11006
12941
13245
11284
11263
13258
13349
11909
12188
13181
12385
11625
12820
13381
11803
11393
13348
13858
11993
11705
13358
13172
11818
12739
13998
12740
11848
13285
13823
12389
12066
13325
13353
12186
12420
13360
12491
11207
12055
13320
12458
11137
11498
11897
11320
11895
13260
12539
10918
11630
13076
12006
10210
10972
12634
12167
10964
11487
12222
11172
10660
12424
12736
10097
9402
11578
11735
10272
11115
12273
11078
10626
12260
12276
10240
10052
11733
11607
10131
10749
12318
11630
10470
11534
12330
10650
9671.1
11459
12460
10807
10182
11961
12390
10737
10812
12448
11583
9544.9
10626
12316
10737
9405.1
11148
12075
10653
10618
12204
11681
9647.7
9969.8
11680
11267
10185
11386
12663
11334
10276
11941
12780
10820
10130
11906
11985
10314
10895
12641
11715
10058
11168
12351
10610
9472.3
11428
12396
10581
10225
12191
12476
10976
10969
11933
11463
10817
11985
12880
11439
10334
11764
12834
11498
10707
12046
12457
11143
11206
12368
11663
10476
11598
12998
12035
10945
11939
12537
11438
11555
12911
12222
10592
11479
13193
12349
10776
11485
12540
11767
11419
12569
12524
11226
11759
13397
12688
10802
11278
12716
12062
11168
12239
12626
10807
10221
11977
12331
10553
10317
11978
12176
11022
11448
12434
11144
9492.4
10485
11857
10824
9952.7
11623
12780
11371
10480
11415
11409
10370
10960
12203
11156
9392.6
10102
11517
10880
10221
11273
11540
10158
10017
11274
10660
8832.9
9544.4
11296
10177
8393.2
9611.2
11395
10806
10191
11334
11591
9980.3
9526.4
10954
11192
9738.5
9747
11487
11576
10111
10391
11375
10034
8726.8
10253
11428
9983.3
9313.4
10827
11388
10530
10874
11734
10649
9316
10282
11303
10339
10058
11537
11847
10683
10724
11662
11211
10343
11179
12021
10702
9572.8
10959
12392
11547
10583
11213
11257
9975.4
10136
11808
11653
9757.3
9651
11219
11096
10004
11035
12162
10820
10313
12075
11964
9959.6
10363
12132
11541
10281
11132
12033
11039
10491
11809
12299
10716
10095
11547
11854
10188
9829.5
11304
11657
10915
11485
12272
11121
10137
11476
12501
11167
10320
11601
12053
11053
11670
13043
11919
10379
11708
13339
12102
10400
10921
11550
10826
11214
12799
12369
10563
11000
12648
11800
9927.6
10762
12357
11418
10402
11762
12536
11132
10803
12220
11728
9479.1
9657.7
11712
11523
10084
10936
12389
11420
10345
11538
12016
10104
9504.3
11266
11371
9709.1
10272
11896
10809
9221.7
10485
11818
10335
8984.5
10353
11510
10248
9538.1
11006
11460
9849.1
9576.6
11077
10702
8769
9085.8
10660
10176
9403.1
10690
11511
10280
9914.5
11254
10968
8996.2
9270.4
11285
10936
9205.4
9924.8
11638
10860
9408
10270
11119
9811.8
9435
11180
11355
9619.4
9760.6
11426
11114
9634.4
9955.1
11073
10836
10507
11252
11139
9678.3
9671.5
11422
11777
10451
10248
11091
10703
9861.3
10685
11688
10711
9798
11053
11856
10135
9003.7
10512
11440
10393
10453
11708
11182
10062
11173
12509
11318
9988.6
11052
11847
10542
10149
11393
11045
9548.4
10354
12237
11488
9639.8
10343
11716
10863
10265
11546
11666
10373
10835
12188
11543
10322
10753
11356
10672
10216
11132
11792
10888
10479
11962
12261
10028
9566.4
12063
12625
10677
10816
12422
11701
10585
11999
12924
10872
9420
11094
12444
11274
10665
11731
11348
9591.6
9990.2
11757
11037
9158
10024
11730
10775
9635
10967
11925
10718
10323
11578
11230
9418.1
9817.1
11373
10449
9068.8
10532
12109
10921
9893.3
11136
11367
9297.9
8779.4
10625
10913
9421.3
9716.5
11234
10753
9439.6
9977.1
10667
9478.6
8767.8
10124
10757
9474
9280.6
10793
10853
9301.6
9134.1
9938.3
9202.7
8397.4
9758.1
10753
9479.2
9098.3
10821
11187
9617.6
9455.7
10714
10322
9111.4
10020
11245
10059
9068.6
10495
11313
9805
8945.9
9979
10305
9433
9743
10765
10109
9113.9
10403
12020
10944
9416.8
10447
11320
9662.7
9032.8
11080
11654
9711.5
9384.8
11017
10777
9127
9596.9
10938
10073
9202.1
10913
12106
10530
9707.1
11311
11674
9607.1
8723.8
10154
11061
10746
10979
11119
9925.7
9583.2
11498
12645
11140
9769.9
10405
10852
10141
10408
11503
10948
9668
10385
11752
10875
9344.8
10068
11340
10878
10611
11623
11532
10188
10304
11575
11322
10199
10653
11483
10583
9817.5
11140
12088
10609
9666.9
11309
11921
9885.3
9412.1
11191
10957
9417.3
10352
11675
10324
9345.5
10955
11430
9232.5
8624.7
10775
11395
9896.4
10036
11187
10290
9169.6
10145
10834
9624.1
8950.5
10100
10760
9658.3
9179.1
10695
11491
10054
9310
10408
10153
8326.4
8473.4
9898.6
9243.1
8133.3
9460.5
10989
10146
9168.6
9826.6
9663.4
8195.4
8680.6
10491
9839.4
8092.3
8918.5
10575
9942.6
8856.6
9530.7
9811.8
8581.3
8703.1
10422
10193
8308.5
8598
10460
10172
8570.8
8858.5
9790.4
9052.5
8736.8
10335
10728
8847.1
8456.7
10284
10439
8666
8713.8
10145
9508
8257.5
9584.7
10874
9199
7989.7
9789.5
11005
9551.9
8558.1
9519.9
9895.5
9043.8
9290
10380
9865.1
8772.3
9773.9
11116
9800.8
8387.4
9988.6
11193
9508.9
8954.1
10487
9967.8
8250.2
9206.6
10895
10029
8657.9
9313
10335
10000
9543.8
9892.1
9718.2
8653.8
8758.5
10270
10310
8814.6
9080.3
10496
9698.8
8303.5
9578
11167
10101
9086.3
10411
11006
9215.9
8469.6
10053
10618
9464.2
9571.4
10665
10205
9555.6
10845
11609
9793.7
8621.3
10304
11457
10238
9939.3
11357
11162
9583.8
9928.5
11216
10160
8467.1
9527.1
11112
10121
9098.3
10241
10879
9842.3
9758.2
10916
10733
9584.1
9929.8
10650
9569.6
8700.9
10089
11234
10210
9474.8
10375
10356
8963.2
9146.8
10587
10054
8516.7
9195.4
10667
10050
9184.9
10257
10694
8805.6
7939.3
9642
10208
8265
7626.2
9387.3
9949.4
8695.6
8804.9
10050
9520.2
8329.7
9164.1
10116
8917.8
8093.5
9353.2
9956.2
8912
8910
9994.3
9349.5
8012.9
9078.6
10467
8962
7536.3
9341
10885
9130.2
7777
9453.7
10198
8368.8
8340.7
10342
9868.6
8057.4
9067.9
10878
9947.6
8467.5
9163.9
9984
9152.6
8723.3
9668.6
9691.8
8444.6
8784.7
10728
10772
8868.3
8540.4
9672.8
9371.5
8569.7
9640.3
10639
9292.3
8359.3
10187
11502
9870.4
8597.7
9745.6
10408
9659.7
9947.1
10613
9469.4
8561.6
10017
10959
9340.4
8455.2
10030
10590
9415.7
9889.9
10908
9139.5
7503
9418.4
11215
9533.1
7904.8
9316.3
10558
9354.5
8806.5
10255
10440
8898.5
9348.4
11519
10985
8549.5
9066
11152
10396
8852.2
9685.5
10104
8524.7
8691
11049
10867
8135.9
8111.1
10651
10812
9268.2
10059
11447
10149
8823.1
10091
10786
8846.6
7751.2
9455.2
10676
9630
9196.1
10478
10691
9654.3
10239
11494
10306
8641
9716.5
10829
9268.6
8381.7
10071
10561
8726.4
8547.7
10330
9814.5
7650.3
8311.2
10179
9180.8
7762
8912.2
9774.3
8661.8
8505.1
9772.5
9364.2
7708.3
8172.9
9696.7
8935.3
7566.1
8703.9
10067
8752.8
7533.7
9058.9
10066
8430.5
7828.7
9463.7
9372.7
7478
7863.3
9812.3
9448.1
7836.4
8191.4
9251.7
8670.3
8076.4
9174.6
9817.3
8509.4
7802.8
9037.6
9481.2
8259.5
8224.5
9453.7
8983.9
7714.1
8648.2
9895.5
8586.8
7375.8
8853.9
9952.3
8464.2
7666.3
9262.3
9771.9
8278.6
8303.4
9673.4
9256.9
8364.4
9303.6
9889.4
8495.8
7630.1
8707.5
9527.3
8774.5
8277
9191.5
9614.3
8495.5
8398.7
10079
9846.5
7511.2
7660
9681.1
9329
8357.3
9666.1
10249
8562.7
8503
10680
10649
8253.7
8063
9925
9820.6
8674.8
9652
10667
9204.8
8331.6
10051
10691
8647
7860.2
9554.2
9988.6
8750.1
9298.6
10937
10419
9246.5
10060
10532
8638.8
7648.9
9477.2
10378
8814.6
8656.2
10500
10294
8221.6
8264.5
9812.5
9275.8
7794.8
8652.4
10173
9457.7
8604.8
9705.8
10163
8596.9
8076.1
9480.8
9412.3
7551.7
7667.8
9586.1
9439.1
7777.8
8272.5
10015
9610.4
8344.1
9067.9
9684.1
8206.4
7826.2
9516.7
9366.5
7486
7877
9620.9
9220.2
7981.7
8334.2
8563.3
7346.7
7183.8
8943.4
9534.8
8112.9
7801.8
9085.8
8972.5
7629.5
7974.3
9110.2
8265.9
7142.9
8168.3
8756.7
7155.9
6839.7
8844.9
9174.8
7246.4
6984.8
8655.2
8750.6
7543.9
8135.6
9382.2
8376.6
7138.7
8521.7
10008
8762.8
7402.8
8428
9127.1
7835.5
7644.2
9240.5
9197.4
7506.9
7567.6
8982.3
8703.8
7500.4
7932.3
8697.3
7969.1
7728.1
8913.2
8958.6
7822.2
8393.3
9943.5
9378.5
7816.3
8286.8
9591.8
9173
8436.6
9311.5
9839.4
8425.7
7655.7
9032.8
9654.4
8251.5
7909.3
9526.6
10041
9050.3
9231
10034
9136.1
8155.2
9345.2
10442
9169.1
7897.3
8742.1
9443
8510.6
8314.5
9559.4
9651.1
8550.4
8899.6
9910.9
8691.6
6925.3
7993.4
9743.5
8914.7
7920.6
9227.8
10175
9154.7
8980.4
10186
9420.3
7257.3
7894.7
10006
9336.2
7897.1
9131.9
10277
8867.9
8261.4
10081
10448
8267.2
7713.6
9547.2
9828.9
8437.6
8919.1
10531
9910.3
8526.6
9416.9
10345
8715.4
7570
9040.9
9653
8101.2
8183.5
10193
9977.6
7993
8505.7
10326
9235
7229.2
8228.7
9504
8137.4
7565.6
9353.2
9698.3
8090.4
8025.7
9229.2
8624.3
7085.2
7519.5
8679.8
7850.6
6779.2
8124.8
9771.5
8953.1
7723.5
8269.6
8330.5
7076
7531.2
9056.1
8108.5
6443.7
7401.9
8730.8
7924.3
7217.8
8015.4
8108.8
6953.9
6930.4
8333.4
8591.5
7223.8
6829.3
7985.6
8166.4
7166.5
7416.4
8298.4
7550.7
6742.5
7790.8
8282.4
6781.6
6395.9
8220.3
8855.3
7272.2
6513.3
7368.1
7502.1
6957.7
7847.6
9167.7
8503.8
7262.6
7896.3
8788.8
7819.8
7013.5
8128.4
8749.5
7752.1
7690.9
8684.8
8298.8
7477.1
8378.8
9305.4
8167.6
6850.3
7449.2
8401.6
8146.1
8077.4
8764.9
8525.6
7529.5
7875.4
8942.6
8269.5
6848.5
7388.2
8600.3
8094.7
7591.2
8775.9
9304.6
8033.3
7863.6
9439.4
9197.1
6985.8
7034
9147.3
9009.8
7307.9
7915.4
9502.8
8814.6
7883.9
9174.8
9594.1
7246.2
6440.3
8910.2
9852.4
7900.5
7508.9
9087.6
8948.3
7871.8
8717.8
9490.8
7839.3
6763.6
8454.3
9363.5
7831.3
7761.9
9877.6
10013
8198.5
8392.9
9828.6
8791.9
6833.1
7740.6
9514.3
8582.9
7322.2
8716.1
10057
8881
7954.6
8977.9
8981
7296.1
7432.9
9150.4
8712.1
7089.9
7814.6
9505.7
9113.1
7963.8
8153.1
8232.5
7247.1
7222.2
8348.8
8036.9
6610.4
7192.8
9196.4
9030
7316.8
7543.6
8674.7
7717.8
6554.4
7552
8078
6596.6
6446.2
8493.3
8972
7313.5
7163.8
8605.7
8400.6
7282.7
7765.8
7949.4
6400.3
6327.8
8272.5
8455.7
6850.5
6742.2
7734.2
7285
6267.2
6987.2
8285.5
7656.5
6390.7
7266.6
8820.1
7896.7
5994.7
6263.3
7293.9
7000.8
7148.6
8304.7
7986.5
6589.6
7051.3
8521
7943.3
6482.8
7080.8
8203
7580.2
7303.6
8456.7
8188.3
6531.3
6955.7
8716.6
8067.8
6102.8
6531.3
8172.7
7853.7
7008.7
7986.5
8627.8
7090
6435.4
8356.7
9062.1
6982.8
6351.2
8276.9
8555.4
7213.4
8103.4
9593.4
8189.6
6645.8
7884.2
8728
7003.4
6029.7
7562.5
8422.3
7314.7
7109.1
8209.5
7888.9
6759.6
7574.9
8881.5
7777.3
6386.4
7756
9286.2
8118.4
7017.7
8035.9
8492.2
7503.6
7748.2
8956.8
8142.4
6417.2
7188.5
8812
7990.4
6868.4
8135.2
9219.9
8202.5
7808.5
9064.1
8972.6
7204.8
7079.2
8646.7
8719.1
7568
7896.3
8904.3
8359.9
7590.1
8272.3
8558.7
7449.6
7453
8996.4
9026.4
7573
7922.6
9495.5
8998.8
7572.7
8318.5
9403.9
7972.3
6698.1
8204
9085.1
7281.8
6656.6
8442.6
8821.6
7497
7871.5
9206.6
8257.1
6593.6
7427.1
8608.7
7333.3
6429.5
8129.2
9074.6
7475.9
6807.5
8208.9
8102.4
6331.1
6805.7
8607
7614
5679
6865.1
8869.7
8028.3
6553.2
7279.6
8068.8
7019.1
6475.5
7736.8
8057.2
6361.2
5967
7893.9
8182.9
6047.1
5812
7609
7370.7
6123.1
7150.8
8109.2
6625.4
6115.9
8161
8660.2
6432.1
5751.8
7471.6
7635.3
6185.2
6671.7
8096.5
7402
6482.5
7732.1
8532.2
6913.5
5761.9
6715.5
7069.7
6185.6
6675.3
7755.2
6830
5914.6
7386.9
8402.9
6652.1
5188.6
6492.4
8064.4
7790.3
7509.3
8182.9
7948.3
6849.9
7185.9
8266.3
7321.9
5610
6306.4
7764
7192.4
6718.7
8023.3
8174.4
6452.3
6480.8
8297.3
7753.9
5398
5813.7
8016.6
7589.8
6207.1
7552.2
8967.7
7504.6
6518.3
8166.6
8691.2
6672.2
6201.1
8227.2
8646.3
7006.3
7072.1
8532.3
8177.4
7123.8
7839.2
8347.6
6793.7
6004.7
7583.4
8236
6864.7
6912.6
8535.7
8332.9
7050.8
7719.9
8863.3
7850.4
6718.3
7872.1
8886.9
7589.5
6745.8
8212.1
9074.7
7914.4
7682.2
9004.7
8513.7
6371.2
6600.6
8599.4
8162.9
6281
7096.3
9272.6
8741.8
7096.9
7918.3
8896.8
7440.8
6981.1
8934.7
9084.8
7244.8
7676.9
9470.7
8755.4
7016.6
7351.3
8075
7133.2
6662.4
7983.3
8354.8
6772.6
6404.5
8004.2
8287.3
6885.3
6967.6
8238.2
7703.8
6543.1
7585.4
8746.9
7467.6
6413.9
7622.1
8267.5
6977.7
6487.9
7572.1
7655.6
6668.9
7145.6
8332.5
7513.3
6049.1
6803.8
8117.9
7142.4
5765.2
6541.3
7296.9
6350.4
6287
7474
6987.8
5713.1
6736.9
8371.7
7492
5976.9
6697.1
7786.9
7118.7
6797.5
8069.3
8189
6436.3
6375.5
8598.4
8780.2
6386.7
5981.3
7583
7319.5
6615.4
8180.4
8737.7
6508.2
6008.7
8351.5
8778.2
6725.5
6567.4
8260.4
7992.5
6661.8
7743.1
9314
7990
6482.5
7994.3
9249.6
7307.6
5841.2
7514.6
8599
7284.4
7338
9284.2
9145.8
7327.4
7608.6
8882.1
7746.2
6069.2
7124.2
8571.7
7537.4
6788
8460.2
9207.7
7367.6
6696.4
8431.6
8603.7
6794.9
7146
8864.8
7970.9
6484.7
7820.9
9147.3
7955.3
7506.1
9272.3
9446.5
7227
6812
8647.2
8749.5
7345.9
8018
9629.7
8792
7277.8
8050.3
8737.8
7209.7
6824.5
8858
8933.4
6522.7
6681.9
9424
9727
7859.7
7994.3
9259.1
8376.8
7160.6
8411.6
9493.6
8152.4
7560.3
9134.1
9524.5
8064.1
7785.9
8907.3
8968.9
8104
8362.4
9241.1
8756.1
7850.2
8685
9879.2
8953.3
7697.2
8596.7
9395.2
8274.9
8036.8
9375.9
9168.9
7766.7
8268.2
9695.2
9221.1
8000.8
8281.8
8696.4
7897.2
7840.7
9110.7
9001
7258.8
7166.4
8897.7
8866.9
7160.3
7380.4
8669
7860.7
7134.7
8795.3
9282.6
7298.9
7214.2
9463.6
9821.5
8108.3
7222.8
7242.9
7114.2
7498.6
8680.6
8980.8
7523
6769.3
8615.7
9697.2
7149.3
5254.7
7272.1
8537.9
6904.9
6978.4
8703.8
7848.5
6457.3
7904.5
9069.9
7420.2
6123.3
7114.4
7820.2
7091.2
7232.6
8502.8
8192.7
6523.7
6821.5
8738.7
8516.7
6501
6550
8267.4
8197.6
6947.7
7295.4
8278.1
7753.2
7125.1
7856.5
7834.6
6373.3
6536.9
8439.1
8514.4
7107.7
7513.6
8812.6
8366
7704.5
8655
8930.7
7212.5
6479.3
7897.5
8333.4
7056.7
7149.1
8638.9
8608.1
7556.9
7883.2
8564.3
7777.7
7098
8107.5
8771.4
7547.5
6927.1
8560.7
9553.8
8191.1
7570.4
8805.5
8411.1
6531.8
7092.7
8670.8
7704.8
6856
8696
9646.9
7864.4
7058.3
8464.9
8621.7
7109.2
7358.7
8964.8
8510.9
7029.5
7682.6
9049.6
8509.7
7866.4
8947.7
9173.9
7514.9
7419.2
9167.4
8799.9
6861.6
7510.5
9603.1
9135.5
7609.8
8392.5
9372.7
7943.8
7158.8
9008.8
9598.2
7476.4
6888.4
8752.3
9277.5
8118.3
8110.4
9020.7
8831.1
8173.7
8688.8
9345.5
8367.3
7259.5
8259.5
9459.4
8364.2
7235.2
8177.2
8583.4
7649.5
8309
9587.4
8330.7
6914.7
8393.4
9767.4
8278.6
6959.1
8057
8657.8
7517.8
7744.8
9289
8618.6
6796.6
7603.8
9329.4
8082.4
5897.4
6658.1
8270.2
7493.3
6695.1
8096.4
8744.5
7164.8
6670.8
8246.8
8583.6
7186.8
7074.2
8045.4
7464.9
6441.3
7447.2
8682.9
7775.8
6928
8075.9
8453.6
6650.5
6135.1
7865.3
8063.8
6531.2
6906
8348.7
7679.5
6590.2
7446
7826.8
6064.2
5265.6
7083.2
8343.7
7503.5
7158.4
7731.1
6907.9
5754.4
6960.8
8633.2
7501.5
5515.6
6150.3
7690.1
7166.1
6297.3
7174.7
7999.7
7495.1
7387.3
8011.6
7448
6162.2
6498.5
7585.6
7218.2
6722.4
7781.8
8507.5
7619.1
7214.9
7990.1
7673.9
6290
6544.5
8064.2
7830.4
6304.2
6666.3
8358.5
8011.3
6569.4
7439.9
8680.5
7036.8
5727.8
7467.1
8234.1
6606.1
6889.2
8904.7
8460.2
6725.9
7228.8
8357.4
7523
6781.5
8136.2
9029.4
7700.1
6904.8
7991.3
8373.1
7481.7
7687
8766.9
8398.1
7377.9
7992
8886.9
7775.4
6615.5
7893
9316.1
8231.5
7111.5
8279.9
8798.9
7176.6
6931.4
8444.8
8079.8
6665.6
7584.2
9079
8117.4
6822.8
7738.7
8594.1
7580.2
7262.4
8722.8
8887
7125.7
7086.4
9177.5
9191.1
6892.6
6754.4
8690.1
8737.8
7835.2
8783.7
9396.7
8025.7
7807.1
9408.6
9303.5
7424.4
7188.8
8449.2
8479.8
7924.8
8695.1
8949.9
7075
6159.5
8034.3
9044
7179.7
6071.3
7615.7
8369.5
6942.8
6696.3
8348.6
8566.8
7225.3
7447.8
8596.4
7595.9
5999.2
6956
8232.5
7307.1
6957.3
8314.3
8103.4
6486.3
6957.6
8543.1
7795.2
6101.9
6649
7720.5
6850.2
6390.1
7947.8
8472.4
6979.6
6713
7885.5
7165.3
5267.4
5928.4
7936.2
7468.5
6046
6990.6
8290.3
7306.9
6511.1
7697.5
7925.1
6109.6
5690.8
7495.1
7944.4
6370.1
6294.3
8047
8162.2
6719.1
6934.6
7939.4
6806.2
5528.7
6936.9
8183
6884.2
6406.5
8245.5
8682.9
6972
6837.7
8312.9
7780.7
6156.6
7137.4
8873.9
7619.3
5805
6925.5
8601.8
8113.2
7606.7
8346.7
7664.1
5807.3
6572.8
8747.6
7992.5
6174.7
7357.7
9188.3
8163.4
6639.3
7200.9
7537.6
6371.1
6613.7
8707.7
8926.8
6900.6
6488.5
7954.2
7735.6
6280.8
7030.7
8589.4
7619.1
6362.2
7641.3
8526.3
7027.4
6472.2
7907.5
8020.4
6602.8
6730.5
7997.3
7739.7
6940.7
7749.7
8353.7
7119.8
6783.9
8552.7
8946.5
6934.7
6296.1
8089.1
8737.2
7471.9
7521.8
8883.9
8352
6709.7
7399.2
9106
8167.2
6397.8
7285.3
8412.6
7392.1
7472.7
9360.8
9067.2
7190.6
7791.4
9494.4
8643.7
6909.4
7382.1
8360.7
7714.4
7502.6
8852.1
8906.9
7118.7
7161.8
9409.8
9613
7398
7066.6
8735.8
8594.5
7266.8
7900.2
8923.2
7716.5
6683.4
8067.5
8944.8
7361.3
6401.3
7510.6
7770.3
6736.5
7212.1
8476.9
7801.1
6787
7899.3
8830.8
7371.8
6320.5
7557.9
8003.3
6631.4
6794.9
8374.6
7873
6355.3
7123.9
8417.1
7197
5812.9
7054.4
8074.4
6710.5
6280
7897.5
7993.5
6466.9
6718.5
7973.5
7115.7
5583.6
6375.8
7786.1
7234.1
6663
7931.1
8619.3
7376.9
6865.8
7807.8
7287.8
5484.4
5920.1
7803.6
7207.9
5311.5
6003.7
7899.4
7605.8
6612.3
7302
7745.1
6426.1
5933.9
7508.5
8217.2
6845.1
6396.6
7858.7
8120.9
6689.2
6816.5
8123.2
7267.8
5811.9
7057
8388.3
6998.6
6173.6
7763.2
8136.5
6501.9
6753.8
8796.3
8397.6
6413.8
7105.9
8633.7
7154.1
5620.3
7296.7
8770.4
7448.5
6499.2
7689.1
8204.5
7139.7
7140.3
8223.5
7672.7
6192.7
6780.2
8452.9
8155.4
7031.7
7691.6
8371.7
7331.7
7272.2
8803.3
8337.4
6291.2
6711.6
8656
8343.2
6883.1
7235
8199.5
7731.8
7237.8
8067.2
8361.9
7099.2
6893.6
8717.7
9099.7
7039.5
6655.4
8761.1
9057.1
7243.9
7288.2
8630.2
7950.3
6917.7
8322.5
9334.2
7367.9
6187.1
8073.2
8673.8
6813.7
7121.9
9042
8118
6479
7862.2
9229.3
7619.2
6228.4
7489.5
8517.7
7426
6869.3
8085.9
8457.6
7358.4
7479.7
8800.7
8409.6
6871.2
7234.7
8445.7
7805.8
7005.7
8143.8
8852.7
7582
7243.7
8895.9
8998
6729.7
6066.6
7817.8
8296.4
7104.7
7341.7
8638.8
8207.9
6963.4
7272.6
7728.9
6677.6
6312.2
7561.6
7631.2
6472.6
7088.2
8517.3
7914.8
6913.8
7666.1
7980.9
6413
5689.2
7011.9
7453.6
6159.2
6210.4
7901.3
7880
6263.9
6479.6
7939.9
7209.5
5566.7
6416.8
7762.2
6616.2
5687.6
7219.6
8099.6
6826.5
6494.6
7745.4
7440.9
5775.3
6175.4
7864.1
7278.1
5608.6
6361.4
8150.4
7754.2
6576.2
7067.5
7397.7
6139.9
6036.1
7780.9
7840.8
5910.9
5865.6
7808.4
7916.3
6305
6333.3
7281.3
6538.6
5919.9
7314.3
7833
6229.6
6004.3
7771.2
7984.4
6505.3
6368.2
7123.1
6426.8
5702.1
7093.8
8226.6
6795.8
5694.6
7206.8
8186.8
6598.6
5761.8
7253.8
7588.7
6022.7
6187.9
7849.2
7539.3
6394.2
7335.2
8530.4
7508.3
6396.2
7230.8
7800.2
6786.9
6656.4
7879.9
7663.2
6247.3
6776.3
8577.6
8231.5
6570.6
6834.7
7856
7225.2
6955.4
8529.1
8971.1
7387.9
7317
9111.8
8780.4
6458.4
6494
8390.3
8032.2
6555.4
7443.9
8712.6
7526.7
6686
8413
9126.3
6985.9
6068
7752
8061.3
6746.8
7530.2
9169.2
8180
6867.6
8188.4
9101.5
7233.5
6214
8013.9
8717.1
7113.5
7252.1
9220.1
8936.5
7256.1
7860.3
9009.4
7403.8
5671
6999.9
8241.5
6869
6514.5
8432.8
8535.5
6646.8
6824.6
8495.2
7960.3
6203.7
6541.8
7844.3
7299.1
6245.6
7056
8107
7378.9
6795.5
7767.8
7693.2
5849
5705.1
7522.6
7420.1
5578.7
5833.7
7507.5
6994.3
5555
6435.8
7558.7
6079.2
5010.3
6669.9
7392.9
5683.8
5456.1
7202.1
7158.3
5652.9
5961
7067.1
6249.9
5208.7
6239
6960.3
5589.9
5170.1
6960.6
7591.3
6125.7
5566.8
6408
6184.7
5095.4
5560
6878.6
6327.8
4848.5
5495.3
7220
6898.8
5885.7
6773.5
7317.9
5848.1
5668.8
7402.5
7135.3
5234.8
5859.7
7960.7
7239.8
4993.7
5312.9
6670.2
5945.2
5343.7
6619
6775.4
5390.6
5939.8
7822.2
7323.4
5453.2
5719.6
7015.5
6606.5
6021
7008.7
7253.8
5847.2
5949.6
7880.1
7876
5792
5457.6
7006.1
7172.6
6272.4
6888.8
7754.9
6601.9
5620.7
6952.6
7615
5574.7
4570
6542.8
7429.4
6073.2
6363.5
7790.2
6796.9
5550.2
7163.7
8515.3
6853.5
5421.1
6695
7824.2
6866.5
6317.7
7286
7430.6
6509.2
6855.1
7770.7
6634.4
4982.1
5903.5
7383.8
6556
5884.3
7322.4
7897.7
6663.4
6788.9
8194.5
7527.1
5508.2
5643.4
7173.5
6977.8
5962
6663.9
7667.6
6774.9
6084.6
7579.5
8414.2
6721.6
5846.9
7386.4
7947.1
6703.9
7086.8
8876.6
8385.6
6560.7
7138.7
8382.4
6624
4594
6021.7
7590
6127.4
5323.4
7364.9
8400.7
6991.9
6431.9
7092.3
6185.4
4896.4
6301.6
8073.4
6855.1
5480.4
6929
8244.8
7030.9
5884
6366.6
6320.2
5398.5
5904.9
7114.5
6383.8
5060.2
5814.6
7041.6
6368.2
5434
6070.7
6524.9
5640.1
5365.5
6121.5
5816.4
4858.2
5550.2
6931.5
6564.6
5459.7
5617.7
5937.9
5270.3
5283.5
6552.3
6717.2
5355.3
5272.6
6663.7
6267.5
4221.1
4336.9
6255.8
6099
4772.9
5739.5
7090.6
5823.4
4679.1
6141.1
7031
5414.1
4660.3
6239.2
6746.6
5317.5
5286.9
6694.5
6357.6
5208.2
6356.2
7885.1
6332.8
4178.1
5161.6
6768.5
6061.6
5665.3
6814.8
6559.7
5174.2
5655.7
6842.7
6111.1
5080.6
5933.3
6821.5
6111.2
5881.9
7089.6
7206.3
5774.8
5767.2
7284.9
7025
5158.2
5176.4
6824.7
6914.4
5952
6529.4
7474.1
6505.6
5633.2
7024.5
7724
5647
4635.1
6578.7
7395.6
5994.7
6198
7764.8
7190.9
5859.6
6851.6
7830
6086.1
4849.6
6588.7
7540.9
6052.2
6088.5
7860.2
7489.9
6101.4
7035.5
8272.4
6959.6
5396.5
6237.2
7447
6662.3
5748.8
6775.7
7855.4
7121.5
6516.4
7292.5
7156.8
5906.9
6340.4
7448.8
6424.3
5565.4
7295.5
8361.6
6804.5
6241.9
8037.2
8355
6417.5
6249.7
8074.2
7845.9
5928.9
6145.4
7786.3
7781.1
7196
7937.6
8155.5
6684.3
6197.1
7719.9
8319
7121
6935.2
8058.5
7815.2
6649.1
7201.8
8427.5
7686.4
6394.3
7033.2
7828.7
6744.8
6144
7723.1
8676.5
7343.5
6352
7169.2
7605.8
6806.5
6755.1
7507
6959.6
5743.1
6274.7
7610.7
7237.2
6427.3
7327.8
7878.2
6497.1
6003.3
7216.1
7049.9
5624.1
6108.2
7704
7182.8
5592.7
5947.2
6947.2
6301.1
5773.5
6541.7
6277
4977.3
5477
6943.6
6190.2
4461.6
5015.8
6489.5
6044.7
5279.5
6188.6
6557.1
5146
4898.4
6535.5
6612.1
4810.5
4877.2
6762.4
6753.7
5426.2
6076.5
7216.8
6026.8
4940
6433.3
7476.7
5904.6
4985.4
6379.2
6667.3
5146.2
5574.7
7665.1
7445
5801.3
6281.5
7431.8
6221.7
4640.1
5505.8
6676.4
5840.8
5346.2
6726.1
7264.9
6029.9
5964.7
7365.5
6983.6
5160.9
5532.1
7280.5
6799.7
5312.8
5965
7211.4
6639.4
6126
7240.1
7472.1
5819.7
5399.8
6961
7315.9
6121.1
6354.7
7730.3
7333.7
6042.4
6604.4
7488.1
6412.9
5743.8
7075.4
7292.2
5692.3
6082.3
8399.3
8412.4
6639
7125.7
8472.8
6920.3
5279.9
7295.8
8946
6829.1
5657.7
8085.4
9321
7365.6
6324.1
7535.9
7841.7
6914.6
7419.3
8591.7
7833
6656.6
7492.4
8447.7
7492.5
6849.3
7931.6
7988.3
6385.8
6533.9
8311
8089.4
6644.3
7228.6
8513.9
7858.2
6995.2
7935.8
8486
7222.2
6726
7800.7
7771.3
6707.5
7325.1
8719.1
8058.7
6789.4
7637.7
8681.5
7536.7
6651.4
7879
8317.4
6796.8
6630.6
8375.8
8533.1
7076.2
7334.9
8506.1
7511.7
6352
7813.1
8628.1
6576.6
5856.6
7869.2
8140.3
6019.5
5696.6
7677.9
8470.4
7272.7
6587.6
7108.7
6889.7
5956.5
6600.5
8006
7079.8
5219.5
5884.3
7301.9
6867.4
6908.1
8342.1
7970.5
6066.1
6306.3
7791
6822.5
4793.3
5394.1
6951.6
6320
5572
6726.6
6967.8
5311.5
5318.8
7341.5
7325.7
5189
5087.8
6912.9
6802.4
5228.5
5660.1
7220.3
6892.5
6090.8
7151.5
7588.3
5513.2
4588.1
6467.2
7111
5691.1
6059.9
7650.6
6881.3
5508
6742.5
7961.9
6214
4659.8
6041.1
7053.6
5792.3
5728.9
7489
7309.7
5442.8
5556.3
6899.9
6272.4
5058.2
6047.9
7143.8
6103.4
5697.1
7365.1
7938.7
6616.8
6262.5
6970.6
6454.3
5459.3
6129.1
7200.9
6512.3
5550.5
6467.5
7623.4
6926.6
6113.7
6834.2
6902.6
5442.6
5541.6
7561.7
7721.6
5868.9
5926.1
7832.5
7790.2
6093.3
6126.4
7139.9
6429.5
5585.7
6723.1
7457.1
6169
5825.4
7544.7
7959.1
6331.3
6096.1
7427.8
7145.1
6097.1
7169.7
8244.9
6687.2
5640
7538
8818.7
7291.3
6406.2
7776.6
8069.2
6669.7
6878.2
8031.3
6940.3
5462.6
6644.4
8139.8
7194.1
6065.9
6972.2
7786.2
7055.4
6906.9
7827.3
7683
6966.2
7750.7
8705.7
7728.1
6539
7274.5
8221.4
7574.3
7043.9
7887.9
8103
6845.6
6717.7
8364.7
8379.2
6106.5
5458.9
7192.3
7889.3
7214.8
7401.5
7630.5
6557.4
6474.4
8360.5
8424
5714.5
5203.5
7640.9
7694.8
5666.2
6486
8166
6666
5443.2
7437.9
8363.5
6026
4820
6806.8
8115.6
6821.2
5968.8
6756.5
6723.1
5875.5
6585.6
7611.8
6188.1
4427.9
5550.6
7117.7
6154.3
5289.3
6564.1
7020.5
5490.1
5190.3
6555.9
6170.1
4396.1
4883.9
6440.8
5576.2
4338
5651.4
6876.6
5897.9
5559.1
6949.6
6941
5202.1
5122.9
6590.3
6195.3
4568
5270.2
7353.6
7101.6
5606.7
6208
7122.6
5606
4565
6123.6
6641.7
5063.5
5243.8
6946.9
6648
5542.4
6307.2
7007.9
5602.6
4469.9
5645.3
6786
5758
4782.5
5915.9
6992.8
6205.8
5567
6150.3
5960.4
5148.1
6015.3
7189.8
5946.7
4500.2
5956.6
7828.7
6843.1
5426.9
6223.4
6432.3
4767.2
4934.9
6836.6
6360.8
4825.2
5937.3
7426.8
6264.2
5115.1
6256.3
6917.4
5650.8
5483.5
7273.1
7611.4
5906.9
5813.6
7619.7
7437.1
5507.2
5959.8
7893.3
7310.9
5893.9
6873.9
7679.1
6151.1
5641.2
7364
7590.4
5650
5175.4
6574.7
6793.3
5976.9
6549.9
7373.4
6380.7
5613.1
6889.6
7619.4
6177.3
5287.5
6432.8
7106.5
6293.5
6262.5
7236.8
6925.5
5948.8
6864.9
8149.5
6717.3
5034.8
6524.3
7904.3
6439.7
6021.7
7592.4
7048.3
5486.9
6784.6
8430.4
6941.6
5093.2
6002.8
7577.1
7228.5
6233.9
6559.8
7173.2
6631.4
6531.2
7833.2
7682.7
5507.4
5408.8
7665.8
7854.1
6237.1
6574.8
7653.2
6590.3
5666.4
7141.8
7837.7
5768.2
4634.1
6173.4
6789.2
5648.2
6026
7392.9
6780
5741.8
6659.4
7227.3
5609.8
4703.1
6259
7148.7
5654.1
4917
6433.3
7139
5911.8
5599.9
6586.8
6128.8
4961.2
5846.9
6866.6
5472.7
4592.7
6333.4
7319.2
5930.7
5345.3
6323.4
5814.9
4191.8
4863.8
6567.2
5704.8
4144.8
5134.2
6412.9
5405.6
4524.4
5524.8
5821.8
4459.3
4341.3
5898.4
6022.9
4628.1
4780.1
6219.8
6036.3
4907.8
5375.4
6040.1
4870.2
4255.8
5728.8
6156.1
4671.9
4714.6
6282.7
5929.5
4435.1
5117.4
6619.3
5839.7
4611.1
5636.2
6525.9
5232.6
4702.2
6197.1
6508.5
5064.8
4957.4
6318.9
6397.4
5405.4
5819.5
6953.6
6129.3
4448.4
5216.3
7202
6707.5
5286.1
6287.6
7223.8
5679.8
5077.1
6474.1
6262
5033.7
6129.2
7658.3
6644.4
5484.6
6587
7265
5803.5
5359.9
7111.9
7342.4
5166.4
4772.2
6950
7286.9
5142.8
4822.3
6572.2
6641.2
5558.7
6214.1
7079.7
6092.9
5795.5
7567.8
7795.6
5323.5
4489
6406.4
7003.1
6032.6
6717
7538.6
6062.1
5396
7320.9
7910.7
5770.5
4861.6
6506.6
7252.6
6089.5
5975.9
7230.8
7101.6
6035.7
6708
7990.1
7129.2
5709.1
6501.1
7692.1
6935.8
6325.7
7494.5
8008.7
6858
6806.6
8274
8095.4
6436.6
6653.7
7760.1
6702
5576.6
7026.3
8208.1
6987.6
6418.1
7788.2
7683.4
5654.6
5704.9
7805
7807.6
6176.1
6634.7
8100.3
7425.3
6314.7
7188.6
7560.1
5733.2
5154.4
6947.2
7127.1
5465
6141.8
8293.9
7780.8
6016.5
6422.3
7152
5714.2
4612.9
5993.5
7001.2
5815.4
5428
7053.7
7500.6
6000.3
5621.2
6522.9
5919.2
4804.8
5952.1
7163.8
5745.5
4694.2
6167.9
6934.4
5604.4
5186.9
6221.5
5975
4771
5340
6635.7
5816
4329.1
4949.7
6155.7
5636.7
4962.5
5631.1
5677.4
4512.3
4728.1
6134.7
5559.6
3815.5
4583
6712.2
6172.6
4220
4767.3
6196.7
5233.4
4348.9
5916.4
6393.1
4208.9
3680.7
5889.3
6478.8
4686.4
4224.8
5213.8
4858.3
4341.7
5868
6721.6
4863.4
3944.1
5757.8
6438.4
4655.7
4063.3
5383.9
5398.4
4555.3
5899
7431.9
5772.7
3872.3
5279.5
6903.5
5498.8
3964.2
5026
6054
5107.7
4674.3
5667.8
5597.1
4605.2
5348.4
6798.2
5901.9
4073.6
4614
6098.4
5740.2
5207.8
6366.3
6874.4
5481.6
5045.5
6410.4
6521.4
4956.8
4871.7
6434.3
6630.1
5564.7
6044.1
7343.9
6369
4728.2
6003.7
7360.5
5040.7
3348.2
5709.2
7162.5
5681.5
5851.8
7430.8
6608.9
5473.3
6836.5
7469.7
5335.7
4327
6190.9
6964.4
5558.2
5789.6
7453
6787.6
5161.7
6047.5
7411.8
6296
5085
6289.6
7242.8
5745.4
4814.3
6552.8
7798
6504
5768
7105.9
7252.8
5579.2
5662
7127.6
6583.6
5491.7
6615.3
7623.6
6540.4
6096.2
7401.9
7341.2
5362.7
4925.4
6526.1
6882.6
5685.8
5819.4
7074.4
6734.3
5481.5
5730.1
6236
5348.6
5388.6
7152.5
7087.3
4992.6
5142.3
7357.1
7418.3
5718.7
5695.8
6506.5
5634.6
4773.8
5944.6
6579.5
4908.7
4068.6
5557.7
6155.2
4847.6
4705.8
6014.6
5678.3
4187.8
4709.9
6042
5198.2
4043.4
5153.8
6260.8
5214.3
4310.9
5081
5266.5
4386.1
5030.2
6564.1
5810.4
4030
4719.2
6417.8
5729.8
4231.1
4945.6
6095.4
5420.4
5054.1
6082.2
5729.8
3996.7
4396.9
6382.4
6012.8
3977.9
4182.1
5848.4
5593.8
4541
5266.6
5954
4753.1
4309.7
6030.1
6638.9
4814.2
3932.6
5213.8
5721.2
4904.8
5330.4
6500.9
5831.5
4639.9
5539.7
6600.9
5187.5
3627.2
4590.8
5787
5093.2
4763.2
5896.9
5862.7
4469
4973.2
6824.7
5989.6
3541.8
3783.4
5292.5
4878.8
4787.1
6464.3
6599.8
5005.5
5587.5
7571.6
6609.4
4275.1
5305.2
7437.7
6230.6
4790.6
6658.6
7888.9
5810.9
4597.9
6068.2
6299.9
4508.7
4481.8
6070.8
5725.9
4545
5649.4
6997.3
5964.1
5285.1
6826.5
7091.9
4871.6
4483
6780.1
7022.1
4813.2
4904.7
7156.5
7415.7
6229.5
6439.3
6811.8
5599.5
4837.9
6071.1
6936.1
5824
5143.8
6390.3
7085.8
6078.7
5961.7
7151.3
6646.6
4901.2
5330
6796.5
6063.3
4925.8
6016.3
7079.5
6131.7
5701.6
7029.8
7154.8
5588.8
5709.5
7145.9
6460.6
4949.7
5839.3
7276.2
6557.4
5744.2
6772.2
7266.6
5951.8
5554.5
6866.1
6923.8
5415.6
5545.2
7268
7159.5
5429
5336.2
6388.7
5981.6
5389.6
6606.6
7388.8
5962
5167.1
6574
7055.9
5442.1
5050.4
6404.1
6232.5
5128.8
6167.3
7348.9
5764.4
4338.6
5663.8
6658.7
5261.4
4288
5231.1
5628.5
4724.6
4884.8
6084
5783.8
4599.1
5225.8
6491
5529.5
4093.1
4931.3
5731.8
4726.5
5010
6862.5
6432.4
4575.5
5299
6967.9
5784.8
3896.4
4958.8
6630.7
5640.4
4476.9
5692.3
6518.6
5211.5
4912.1
6640.3
6703.4
4386.8
3722.7
5531.6
6253.9
5242.5
5093.6
5699.3
5240
4909.7
6004.2
6028.1
4001.2
3735.5
5995.6
6267.8
4389
4820.2
6669.6
6016
4656.1
5650.8
6656.7
5339.6
4226.1
5319.3
6238.8
5375.2
5083.9
6429.3
6680.8
5083.4
4700.7
5976.4
5820.9
4590
5268.7
6434.3
5474.5
4849.4
6599.3
7585.9
6215.2
5701.5
6937.3
6617.4
4738.9
4988.5
6665.5
6009.6
4335.7
5148.6
6658.1
5821.9
4842.3
6079.8
6595.3
4779.6
4392
6225
6113.1
4333.9
5134.7
7372.8
7006.9
5476.1
5978.8
6687.1
5404.6
4834.2
6678.8
7535.5
5916.4
5250.2
6543
6843.9
5819.6
5789.9
6474
6074.8
5319
5696.7
6200.5
5707.3
5623.3
6662.4
6877.2
5800.8
5755.6
6880.2
6643.4
5630.8
6575.9
7919.3
6680.6
5082.3
6140.4
7513.4
6477.3
5317.9
6277.5
7081.7
6225.6
6053.6
7029.9
6603.7
5254.8
5810.1
7225.5
6497.3
4905.9
5338.6
6321.1
5640.2
5260.3
6502.6
6619.8
4899.3
4846.7
6933.9
7101.4
4960.2
4671.4
6276.6
6129.8
5085.4
5900
6501.9
4945.7
4332.6
6056.8
6470.3
4469.9
3775.5
5211.5
5459.4
4461.6
5108.9
6336.8
5477.1
4390.4
5362.6
6142.8
5029.8
4524.8
5761.6
5890.1
4235.1
4037.9
5661.8
5679.7
4106.2
4448.6
6193.2
5663
3851.4
4432.8
5967
5328.4
4451
5492.5
6067.7
4936.4
4776.1
5995.6
5550.7
3766
4118.8
5789.4
5471
4498.8
5351.5
6027.8
4946.3
4584.4
5760.9
5690
4148.2
4124.4
5394.3
5046.1
3935.6
4894.5
6416.9
5599.9
4295.2
5187.2
6061.7
4716.8
3923.6
5353
5833.6
4363.1
4340.4
6020.3
5895.6
4359.9
4870.2
6283.1
5286.5
3922.4
5060.3
5697.4
3950.2
3775.5
6071
6592.2
5082.9
5040.5
5992.8
5313.4
4395
5530.4
6543.4
5158.9
4030
5285.5
6228
5064.6
4129
4800.2
5415.6
5234.1
5422.1
5827.4
4973.7
3597
4194.7
6171.2
6259.2
4770.9
4901.8
5959.4
5413.9
4853.8
6069.3
6617.1
5230.5
4834.6
6302.9
6470
4903.3
4861.1
6150.3
5820.7
5031.3
5992.3
6365.6
4723.9
4388.5
6299.7
6806
5169.7
4699.1
5755.4
5602
4624.5
5215.7
6212.7
5559.5
5148.9
6621.4
7240.7
5466.4
4568.2
5983
6476
5639.5
6558.3
7804.2
6077.7
4191.6
5570.2
7061.2
5561.3
4008.1
5041.3
6193.1
5630.9
5574.2
6706.7
6409.9
4667.3
4574.6
5862.5
5261.5
3524.2
4067
5698.4
5522.9
5200.6
6227.2
6063.2
4546
5019.9
6831.9
6219.6
4089.6
4151.2
5499.7
4898.2
3527.3
4316.4
5729.6
4984.2
4051.3
5405.7
6167.8
4052.4
2903.9
4769.6
5461.2
3745.8
3596.8
5067.8
4856.6
4016.3
4934.3
5651.8
4385
3605.9
4848.8
5436.3
4049.2
3557
5054.4
5576
4337.4
4247.1
5425.3
4836.3
3173.5
3591.7
4676.1
3720.6
3017.7
4672.7
5837.2
4828.1
4298.7
5097.8
4699.1
3373.7
4060
5697.7
5033.5
3646.2
4791.9
6543.8
5714.8
4174.7
4601.4
5126.7
4094.6
3833.1
4967.1
4651
3181.1
3808.3
5657
5333.5
3975.9
4685.2
5929
5054.7
4087.7
5085.5
5555.6
4213.1
4056.5
5743.9
6063.9
4749.6
4767.2
5816.9
5287.4
4315.8
5313.9
6318.7
5113.7
4240.6
5623.7
6527.3
5395.2
4785
5668.7
5691.3
4792
5369
6521.3
5635.3
4290
5245.9
6576.7
5569.9
4445.8
5522.2
6128.1
4878.2
4999.8
6557.5
5996.6
4533.9
5688.3
7273.6
5895.9
4141.3
5199.9
6503.1
5541.4
5005.7
6466.6
6786.1
5160.4
5267.7
7364.1
7184.7
4741.2
4574.3
6493.3
6528.2
5539.7
6315.5
6724.2
4979.3
4564.1
6888.8
7738.1
5685.1
4785.2
6049.1
6006.3
4895.3
5842.7
7195.6
6078.7
5079.3
6487.3
7090.1
5163.2
4344
6222.8
7192
5883.8
5427.2
6333.2
5902.5
4912.1
6055.8
7478.8
6051.7
4065.7
4955.5
6517.3
5778.2
4950.8
5980
6343.8
4983.2
4736.2
5923.4
5445.6
3813.1
4503.1
6240.4
5441.3
3934.6
4918.5
6182.8
5188.5
4389.2
5412.5
5306.8
3386.2
3371.4
5268.8
5058.8
3480.3
4259.4
5742.8
4647.5
3305.3
4502.2
5523.6
4100.5
3139.1
4306.7
4589
3154.2
3370.7
5376.5
5467.5
3795.5
3842.6
4998.1
4313
3297.1
4604.5
5779.2
4255.3
3121.6
4804.2
5876.2
4202.1
3392.1
4910.9
4858.7
2897.4
3266.8
5172.4
4526.5
3001
3920.6
5199.8
4513.6
3963.3
4789.9
4775.2
3693
4093.7
5289.9
4428.5
2896.3
3637.1
5058.6
4606.1
3761.2
4247.4
4520.6
3798.8
3978
5100.2
4753.8
3341.2
3839
5646.7
5262.7
3397.7
3684.1
5013.5
4295.3
3657.4
5258
5592.1
3258.5
2825.2
5335.1
5978.4
3893.2
3488.3
5249.3
5409.1
4192.7
4641
5385.1
3938.8
2891.3
4622.1
5944.3
4445.1
3160.8
4146.4
4771.3
4018.2
4394.2
5611.7
4964.5
3599.3
4129.4
4889.7
3724.1
3014.5
4656.3
5561.7
4111.2
3806.9
5633.9
5927
4402.6
4558.9
6013.8
5466.6
3689.5
3883.6
5352
5484.5
5008.5
5571.5
5845.3
4802.2
4554.3
5791.2
5616.9
3718.6
3727.2
5619.6
5643.4
4362.9
4964.9
6073.6
5284
4686.6
5880.8
6193.3
4508.6
3839.6
5124.4
5423.4
4179.9
4369.8
6093.7
6165.4
4749.3
4894.3
5732
4468.5
3170.4
4608.3
5861.3
4665.7
4353.7
6069
6148.6
4304
4120.8
5250.8
4405.8
2748.9
3629.8
5397.6
4875.5
3922.6
4886.3
5608.4
4628.1
4349.2
5391.3
5000.3
3242.7
3341.3
4890.3
4597.2
3206
3853.1
5418.1
4909.3
3683
4175.1
4487.8
3199.1
3226.3
4967.5
4542.7
2368.6
2942.8
5437.8
5173.8
3201.6
3783.9
5080.2
3484.6
2163.4
3956.3
4672.2
2689.4
2560.5
4543.6
4622.4
3566.5
4170.8
4879.7
3839
3016.2
4056.5
4912.8
3700
2570.6
3816.5
5113.4
3965.1
2863.9
3837.5
4156.5
3042.1
3500
4810.2
3940.3
2761.3
3892.5
4916.6
3886.2
3380.5
4597.4
4807.2
3598.1
4035.9
5786.7
5323.1
3421.8
3882.1
5719.2
5145.4
3368
3904.7
5155.4
4339.1
3743.6
5167.4
5546.8
3896.6
3735
5467.3
5456.3
3716.5
3723
5013.2
4621.7
3772.5
4783.9
5494.8
4125.5
3554.8
5088.7
5445.4
3653.3
3131.1
4680.7
5206
4344.2
4611.6
5384
4449.4
3440.2
4527
5386.5
3899.6
2868
4255.7
5037.2
3825.9
3756.5
5340.6
5408.8
4299.3
5052.1
6307.8
4866.6
3078.9
4367.5
5708.8
4324.6
3941.7
6060.7
6457.8
4690.7
4648.6
5873.8
5212.5
3922.1
4771.8
6091.6
5261.4
4031.7
4837.5
5953
5320.5
4850.7
5957.1
6057.5
4439.4
4449.2
6068.9
5665.2
4175.8
5084.7
6660.7
5905.3
4969
5945
6174
4459.9
4203.8
5973.4
5810.3
3804.1
4179.1
6255.2
6101.2
4658.3
4820.2
5366.2
4473.9
3713.6
4433.9
4897.2
3946.4
3625.4
5127.4
5976.6
4711.5
3852.3
4625.2
4639.6
3691.1
4175.1
5052.4
4013.1
3111.5
4350.3
5165.5
3973.2
3449.2
4590.2
4608.1
3248.1
3536.4
4894.1
4122.8
2555.4
3397.8
4903.7
4130.7
2961.8
3794.4
4508.6
3327.1
2747.6
4104.1
4598
3201.1
2947.1
4520.8
4569.5
2957.9
3248.7
4587.4
3636.6
2703.8
4413.3
5060.2
3055.5
2884.7
5025.9
4891
2745.6
2823.9
4582.2
4460.7
3282.2
3911.3
4913.2
3866.7
2870
4057.7
4828.8
3252.7
2167.7
3260.8
3838.9
3027.7
3389.5
4574
3889.2
2591
3360.4
4418.8
3273.6
2043.8
3023.9
3977.6
3167.6
2991.8
4298.8
4335.3
2991.9
3340.4
4851.7
4114.7
2270.2
3097.6
5001.9
4365.9
3184.3
4213.2
4983.2
3775.5
3424.5
4763.4
4717.8
3105.2
3227.3
4907
4895
3643.4
3878.4
4790
4574
4527.4
5362.9
5042.2
3387.5
3005
4296.9
4784
3858.1
3792.9
5019.3
4978.5
3634.3
3985.7
5075.5
3562.4
1999.6
3865.8
5221.8
3255.6
2827.6
5628.7
6460.8
4415.1
4132.1
5640.6
4956
3167.4
4013.6
5488.7
4319.4
3281.6
4832.9
5702.8
4314.8
4094.7
5617.5
5195.5
3190
3684.6
5631.6
5027.9
3588.6
4671.2
5897.9
4723.1
3927
5218.6
5534.2
3971.5
3938.5
5693.9
5477.6
3465.3
3621.7
5546.3
5384.4
3822.8
4231.1
5233.5
4111.3
3324.2
5109.7
6077
4260
3407
5029.3
5308.8
3526.2
3660.4
5192.5
4007.4
2354
4117.4
5262.8
2816.2
1962.3
4357.9
4977
3459.6
3481.3
4218.4
3416
2875.5
4230.2
4999.3
3341.4
2152.1
3873.8
5416.9
3838.5
2337.6
3794.9
4798.2
3276.8
2918.8
4435.2
4012.5
2347.6
3186.7
4953.8
4175.8
2605.5
3229.7
4458
3996.9
3263.4
3668.3
3637.3
2688.8
3167.9
4973.9
4657.3
2398.3
2258.4
3955.1
3822.1
2914.9
3955.1
4702.8
3328.5
3049.6
4958.2
5174.8
3052.9
2741.8
4402.4
4017.2
2427.8
3467.5
5139.4
3853.4
2418.3
3968.6
5217.4
3485.2
2223.9
3598.2
4267.4
3146.1
3521.9
5018.3
4336.9
3051.6
4156.8
5289
3827.9
2461.8
3648.7
4851.2
3746.5
2708
3921.3
4892.4
3622.9
3170.6
5057.4
5169.4
2688.5
2579.9
4702.1
4244
2586.1
3599
4891.1
3782.5
3044.6
4170.5
4352.6
3154.2
3483.3
4978.9
4562.5
3184.1
3981.9
5502.5
4605.4
3109
3814.5
4346.9
2620.4
2143.4
4480.9
5280.1
3507.2
3460.6
5224.4
5117.1
4027.2
4764.2
5509.1
4036.9
2918.2
4225
5076.1
3787.8
3420.5
4998.3
5443.2
4297.5
4257.2
5225.8
4946.1
4023.8
4492.1
5357.6
4691.8
3888.8
4898.7
6052.4
5270.7
4133.8
4379.8
4513
3795.2
4145.2
5296.7
4692.7
3215.4
3993.3
5894.8
5373.6
3592.4
3981.1
5081.7
4293
3895.6
5414
5623.6
3818.5
3707.6
5422.8
5228.6
3504
3800.9
5129.4
4241
2899.9
4033.9
5271.9
4153.8
3392.2
4794.3
5408.4
3964.4
3447.3
4602.7
4706.7
3836
4340
5063.8
3985.1
3183.8
4288.9
4456.4
2450.4
1899.7
3989.6
4729.7
3158.9
3048.9
4485
3968.6
2462.2
3307.2
4698.9
3374.3
1843.9
3304.3
4797.2
3773.8
3379.8
4611.5
4042.6
2306
3157.5
4899.4
3552.4
1250.6
2076
3964.5
3455.3
2653.9
3646.4
3810.4
2425.6
2665.9
4319.7
3907.8
1932.9
1750.7
3001.7
3013.5
2310.5
2936.7
3833.1
3182.4
2644.8
3787.5
4038.5
2077.8
1568
3646.3
4136.1
2513.9
2804.4
4496.3
4035.8
2719.1
3311.2
4024.9
2922.1
2244.3
3428.8
3922.4
2712
2523.7
3875.6
4095.6
3262
3764.9
4683.4
3655.1
2311.8
3154.3
4170.8
3060.4
2291.4
3874.1
4924.7
3599.9
2919.1
4300.6
4522
2804.8
2665.7
4254.2
4107
2811.6
3560.5
5002.5
4102.7
2814.4
3984.6
5063.5
3576.6
2565.7
3836.2
4205.2
2901.9
3059.3
4450.3
4089.6
2956
3703.7
4568.2
3387.3
2879.9
4516
4654.1
2631.4
2655.2
4716.1
4756.8
3288.9
3613.4
4590
3733.1
3074.6
4548.1
5097.6
3062.4
2249.3
4209.8
5070.2
3532.2
3004.1
4217.6
4309.9
3493.8
4272.7
5226.5
3905.8
2733.2
4198.3
5391.5
3870.2
2642.7
3949.6
4910.3
3889
3647.6
4845
4714.1
3572.2
4242.6
5605
4666.1
3031.8
3767.5
4981.5
4154.4
3597.5
4731.3
4714.3
3290.2
3620.8
5080.6
4470.6
2799.4
3003.5
4094.1
3777.1
3165.1
3864.6
4394.9
3665.2
3624.8
4779.4
4424
2498.5
2566.7
4547
4525.5
2850.6
3209.7
4578
3625.8
2185.9
3328.2
4461.5
2629.2
1031.2
2592.3
3946.3
2664.7
1939
3127.1
3216.8
2092.1
2745.3
3975.4
2468
691.13
2373.9
4150.8
2692
1881.9
3600.3
3770.5
2222.5
2791.3
4265
3137.1
1204.4
1739.8
3153.1
2775.2
2111.2
3105
3800.4
2633.8
2237.7
3885.2
4078.3
1890.4
1555.8
3468.3
3337.1
1765.2
2554.2
4026.1
3117.6
2145.9
3208
3584.1
2019.1
1609.1
3067.4
3126.2
1646.9
1999
3701.8
3346.2
1821.5
2286.5
3497.6
2794.9
1946.3
2988.8
3420.8
1869.5
1594.9
3520.3
4109.7
2692.9
2400
3398.5
3055.2
1957.9
2517.6
3473.3
2595.7
1692.2
2729.9
3571.2
2661.9
2384.3
3648.7
3573.4
1925.7
2121.5
3772.6
3274.9
1671.2
2578.1
4503.3
3861.6
2180.1
2581.1
3432.1
2752.8
2805.3
4135.1
3637.9
1998.3
2788.1
4567.9
3884.1
2318.1
2623.5
3370.8
2781.3
2409.6
3428.8
3921
2873.9
2748.8
4549.1
5028.2
2982.4
2178.4
3747.6
4062.6
2875.4
3352.3
4458.5
3606.4
2830.6
4041.7
4678.1
3400
2864.2
3857
3827.8
2900.2
3682.3
4991.3
4113.9
2992.8
4111.1
5071.3
3712.7
2533
3494.3
4389.9
3665.9
3329.8
4402.8
4797.6
3905.5
4028.2
5187.5
4550
2755
3193.8
4716.3
4202.5
3459.2
4643
5181.7
3899.6
3772.9
5033.2
4434.1
2473.3
2716.3
4378.4
3999.9
2739.8
3745.4
5249.2
4194.6
2806.9
3883.1
4631.5
2756.9
1846.2
3571.8
3906.2
2276.3
2865.5
4894.9
4056.6
1955.8
2703.8
4277.6
3104.4
1648.9
2809.9
3594.2
1976.8
1564.7
3579.4
4126.2
2631.7
2729.1
4029.8
3017.8
1140.1
2071.2
3628.4
2319.4
912.08
2403.5
3690.2
2434.9
1858.4
3333.1
3207.1
1097.2
1239.7
3228.5
2889.7
1515
2539.6
3774.6
2612.7
1614
2551.3
2891.2
1642.5
1462.1
2994.9
3322.1
1761.2
1466.9
3145.2
3482.8
2146.8
2495.2
3915.4
3001.6
1388.9
2298.8
3470.3
2440.5
2012.9
3699.6
3999
1899.8
1314.9
2829.2
2642.8
1188.2
2096.6
3753.6
2762.1
1485.8
2815.9
4020.3
2769.2
1847.8
2920.2
3276.2
2343.7
2864.2
4051.7
2987.2
1484.4
2459.8
3656.6
2538.3
1691.3
3272.6
4442
3474.4
3214.3
4434.1
4054
2238.9
2593.9
4631.9
4480
2621.1
2540.1
3402
2852.7
2662.3
3724.4
3237.2
1724.1
2694.4
4678.7
3936.8
2131.5
2649.7
4012
3571.7
2862.9
3955.1
4877
3639.5
2740.4
4197.4
4878.4
2833.1
1877.2
3762.9
4544.5
3250.4
3433.7
4785.9
4281.2
3273.7
4089.7
4661.3
3224.3
2237.1
3304.4
4007.1
2976.4
2636.8
4060.7
4645.3
3658.8
3860.2
5017.3
3827.9
1892.8
3244.4
5293.5
4217.5
3151.9
4562.4
5019.4
3694.4
4152.6
5871.7
5045.4
2976.8
3659.5
5378.1
4535.2
3377.5
4623.3
5416.8
4008.7
3624.2
5003.3
4599.3
2538.3
2805.8
4873
4704.8
3226.1
4175
5987.8
5069.9
3485.5
4536.8
5608.8
3942
2908.9
4591.7
5078.2
3242.1
3119.8
4748
4433.9
3133.6
3886.6
4731
3055.6
1674.1
3162.9
4373
3015.7
2337
3889.6
4206.9
2531.5
2584.6
4295.7
3660
1704
2641.6
4491
3112.1
1212.7
2513.1
3953.3
2552.6
1728.3
3520.7
3877.6
1886
2189.6
4238.5
3255
1271.1
2574.8
4237.9
2958
1670
2497.4
3055.7
2415.2
2610.1
3678.4
3296.9
1763.2
2067.9
3936.6
3735.7
1725.2
1799.6
3418.2
3075.5
2075.4
3075.7
3686.4
2043.2
1525
3549.5
4198
2266.6
1697.1
3184.5
3098.2
1867.2
2745.6
3941.2
2622.6
1599.6
3179.1
4110.7
2621.3
1956.2
3382.4
3865.8
2831.4
3042.9
4063.7
3281.8
2213
3495.2
4775
3248.4
1740.1
3093.4
4299.9
3047.9
2514.3
4012.5
4229
2913.3
3396.6
4902.1
3877.6
1771.8
2489.1
4467.1
4153.3
3229.1
4135.4
4675.3
3493.3
3207.8
4265.6
3813
2082.1
2229
3933.2
4047.4
2807.9
3091.3
4445.8
4114.3
3112.9
4098.7
4983.8
3193.5
2013.3
3731.5
4506.6
3068
3220.7
4768.9
4263.8
3055
3968.6
4853.3
3481.6
2648.1
4191.8
4826.2
3157.6
2862.2
4818.2
5236.1
3711.8
3712.8
4971.2
4379.4
3071.9
3999
5184.4
3808.7
2597.3
4292.9
5814.6
4597.5
3712.5
4958.2
4896.3
2659.1
2317.1
4147
4029.8
2419.6
3260.5
5235.1
4344.9
2680.1
4014.7
5112.9
3071.2
2540.5
4863.1
4401.5
1733.2
2524.3
4781.9
3992.5
2754.3
3791.9
4353
3013.4
2449.6
3639.2
4036.3
2660.8
2232.4
3883.7
4554.9
3056.2
2537.7
3651.7
3384.9
2214
2960.2
3954.4
2709.9
1794.1
3281.2
4140
2696.6
2040.9
3226.3
3201.8
1965.1
2684.1
4167.8
3024.2
1315.9
2475.2
3985.8
2651.1
1361.1
2833.3
3695.5
2112.9
1931
3656.4
3112.8
1145.7
2098.1
4368.5
3724.5
1715.8
1951.1
3141.2
2875.9
2718.5
3862.3
3822.3
2041.4
2022.4
4213.8
4356.2
1875.6
1169.9
2680.3
2792.6
2139.4
3336.2
4223.1
2763.7
2038.5
3493
3626.9
1574.9
1155.8
2995.7
3426.9
2291.3
2795.3
4119.8
3307.7
2162.5
3497.3
4559.8
2429.5
634.79
2498.5
4550.1
3694.8
2706.6
3346.2
3339.6
2674.5
3673.9
4814.3
3209.7
1325.2
2519.7
3900.6
2431.4
1469.3
3322.4
4295.4
2810.4
2560.6
4050.6
3327.2
1085.9
1789.9
3739.7
2691
1537.7
3708.4
5227.2
3397.3
2318.9
3729.9
3872.6
2122
2175.4
3923.3
3621.1
1859.2
2374
4267.1
4070.8
2955.2
3664.4
4312.8
2793.5
1965.3
3755.8
4744.5
3109.1
2471.2
4333.1
4953.2
3277.5
3020
4317.9
3600
2245.8
3676.5
4962.7
3078.8
1964
4054.7
5344.8
4023.9
3319
4153.5
4034.7
3051.6
3522.1
4610.1
3930.2
2821
3659.1
4703.5
3704.4
2866.3
3979
4169.8
2670.7
3188.9
5155.4
4249
2067.5
2819.8
4527.8
3854.6
2722.4
3322.4
3817.5
3015
2876.1
3936.4
3844.2
2329.5
2240.8
3848.8
3962.5
2424.1
2462
3692.5
3236.8
2407.6
3415.5
3974.3
2677.1
2399.9
3699.8
3491.5
1867.9
1871.2
2998.3
2580.9
1796
2990.5
4021.1
2434.8
945.01
2127.4
3214.5
1902
984.28
2258.5
2919.6
2006.8
2220.1
3297.2
2565.2
1367.1
2340.5
3461.3
2214.3
1042
2195.4
2949
1715.2
1591.3
3258.2
3230.1
1600.3
1996.3
3634.5
2827.9
926.89
1639.3
3175.2
2228.8
1188.8
2711.2
3770.2
2270.5
1553.1
3082.7
3272
1264.5
922.59
2707.7
2945.9
1745.2
2168.6
3254
2557
1867.3
3011.1
3320
1439.3
942.63
2986.2
3604.8
2002.8
1941.2
