37982
37922
37862
37800
37744
37697
37651
37606
37566
37534
37506
37474
37431
37388
37358
37336
37307
37277
37258
37247
37238
37225
37199
37161
37118
37075
37028
36969
36895
36808
36721
36641
36567
36494
36423
36353
36287
36238
36204
36180
36167
36168
36186
36224
36290
36390
36520
36678
36856
37052
37264
37489
37729
37973
38210
38440
38669
38890
39097
39286
39454
39598
39717
39806
39870
39915
39936
39931
39903
39862
39815
39772
39737
39714
39710
39722
39736
39745
39754
39766
39771
39760
39736
39717
39709
39702
39682
39656
39633
39607
39581
39566
39562
39554
39535
39507
39474
39444
39421
39402
39387
39373
39362
39352
39346
39350
39361
39374
39394
39416
39434
39446
39449
39442
39426
39403
39374
39342
39310
39283
39247
39194
39129
39058
38983
38911
38849
38788
38716
38635
38553
38477
38404
38336
38282
38244
38213
38184
38152
38107
38047
37981
37913
37850
37796
37752
37713
37674
37632
37591
37555
37515
37468
37421
37381
37351
37329
37310
37292
37271
37239
37191
37129
37062
36997
36937
36879
36817
36752
36680
36600
36524
36459
36406
36360
36316
36276
36236
36196
36161
36138
36137
36161
36212
36289
36403
36554
36734
36944
37182
37432
37683
37926
38159
38381
38592
38789
38978
39157
39323
39466
39584
39669
39724
39763
39793
39809
39811
39801
39779
39745
39710
39678
39651
39632
39622
39620
39618
39605
39585
39566
39547
39525
39504
39477
39441
39398
39353
39312
39276
39244
39215
39198
39192
39194
39206
39219
39226
39241
39268
39296
39322
39347
39373
39390
39394
39394
39393
39395
39397
39392
39385
39383
39376
39359
39340
39322
39293
39246
39192
39138
39090
39045
38991
38933
38874
38810
38740
38670
38604
38542
38490
38441
38395
38356
38320
38284
38253
38226
38194
38153
38110
38066
38020
37967
37909
37851
37801
37755
37720
37698
37685
37665
37635
37601
37566
37527
37481
37429
37376
37323
37284
37260
37245
37234
37221
37202
37173
37130
37072
37007
36948
36897
36849
36811
36787
36775
36789
36833
36911
37027
37179
37361
37568
37799
38046
38289
38532
38782
39032
39264
39472
39659
39830
39980
40103
40198
40274
40343
40399
40438
40464
40478
40478
40464
40442
40420
40407
40400
40390
40378
40368
40367
40375
40382
40382
40377
40372
40373
40377
40370
40349
40326
40309
40297
40287
40269
40243
40220
40203
40188
40175
40168
40172
40182
40188
40189
40186
40178
40170
40176
40193
40201
40199
40205
40216
40219
40220
40219
40207
40186
40163
40142
40119
40085
40049
40016
39982
39939
39886
39831
39781
39737
39701
39669
39623
39558
39489
39424
39359
39300
39256
39220
39187
39160
39141
39129
39114
39094
39062
39018
38965
38905
38844
38785
38729
38682
38643
38607
38580
38565
38561
38555
38531
38496
38461
38420
38372
38321
38273
38232
38195
38152
38097
38039
37987
37943
37906
37869
37836
37824
37844
37895
37973
38083
38224
38399
38610
38841
39081
39334
39588
39829
40056
40274
40483
40677
40860
41038
41196
41327
41436
41529
41610
41678
41724
41747
41763
41783
41804
41824
41846
41874
41905
41926
41938
41954
41975
41991
41996
41991
41979
41960
41944
41936
41936
41935
41924
41908
41887
41861
41829
41793
41759
41735
41723
41720
41713
41706
41705
41706
41707
41715
41728
41735
41739
41744
41755
41774
41791
41805
41818
41826
41822
41806
41782
41756
41733
41706
41672
41633
41589
41538
41483
41427
41368
41316
41272
41224
41168
41107
41040
40972
40907
40852
40803
40758
40723
40702
40685
40668
40660
40664
40672
40673
40660
40631
40588
40541
40498
40457
40420
40388
40362
40329
40287
40246
40210
40180
40149
40120
40101
40087
40062
40021
39977
39931
39887
39854
39836
39831
39828
39814
39785
39742
39699
39674
39677
39713
39776
39869
39991
40139
40308
40497
40705
40935
41183
41442
41709
41972
42223
42457
42672
42865
43037
43194
43333
43453
43556
43641
43714
43782
43854
43935
44019
44088
44133
44160
44176
44186
44195
44203
44211
44214
44213
44209
44206
44199
44189
44180
44172
44165
44160
44158
44154
44148
44136
44121
44109
44096
44083
44070
44058
44050
44046
44038
44025
44019
44022
44029
44044
44067
44085
44089
44086
44081
44073
44059
44047
44029
44000
43971
43946
43916
43881
43849
43815
43773
43721
43661
43598
43543
43500
43467
43442
43415
43375
43323
43263
43194
43119
43046
42980
42921
42866
42812
42759
42713
42676
42647
42623
42598
42573
42546
42510
42465
42410
42351
42292
42238
42197
42166
42133
42096
42055
42014
41978
41946
41916
41879
41835
41790
41738
41679
41615
41547
41481
41419
41355
41287
41220
41166
41131
41108
41088
41081
41103
41156
41237
41354
41506
41682
41879
42090
42314
42555
42801
43041
43275
43503
43720
43925
44112
44274
44414
44539
44648
44740
44811
44858
44888
44907
44917
44922
44918
44912
44912
44916
44919
44920
44921
44928
44944
44961
44967
44958
44937
44919
44908
44899
44883
44858
44827
44792
44758
44720
44679
44646
44621
44590
44551
44517
44496
44489
44495
44508
44521
44526
44533
44544
44552
44553
44548
44538
44522
44499
44478
44454
44430
44404
44374
44338
44299
44261
44227
44185
44133
44077
44015
43950
43891
43840
43784
43713
43633
43557
43493
43434
43373
43319
43271
43221
43171
43127
43087
43045
42997
42935
42865
42794
42725
42664
42616
42578
42545
42517
42488
42454
42417
42367
42307
42249
42197
42145
42095
42043
41991
41945
41901
41845
41781
41719
41660
41604
41554
41508
41464
41418
41369
41315
41253
41188
41127
41073
41038
41018
41017
41042
41102
41203
41339
41508
41706
41928
42162
42400
42644
42890
43129
43357
43567
43759
43934
44092
44232
44352
44455
44540
44600
44634
44650
44648
44636
44630
44631
44622
44600
44573
44544
44515
44492
44472
44448
44428
44422
44422
44418
44407
44394
44378
44349
44313
44286
44269
44251
44222
44183
44141
44100
44068
44048
44034
44017
43996
43979
43976
43980
43986
43996
44009
44024
44038
44046
44052
44054
44041
44011
43977
43949
43928
43912
43900
43889
43874
43844
43799
43748
43693
43626
43547
43455
43349
43244
43151
43075
43017
42974
42933
42888
42844
42798
42739
42668
42591
42521
42459
42399
42341
42292
42250
42204
42158
42116
42080
42047
42008
41971
41939
41907
41872
41835
41797
41763
41732
41691
41632
41565
41502
41444
41383
41314
41235
41156
41088
41030
40976
40929
40893
40857
40807
40754
40716
40696
40687
40697
40739
40818
40934
41082
41252
41440
41649
41875
42105
42344
42588
42819
43034
43235
43422
43592
43741
43860
43949
44016
44067
44110
44140
44154
44157
44150
44133
44112
44094
44086
44080
44062
44031
44000
43979
43969
43959
43947
43937
43931
43924
43917
43906
43877
43824
43758
43694
43632
43570
43512
43459
43416
43392
43389
43400
43411
43424
43446
43479
43517
43560
43606
43644
43667
43671
43663
43657
43654
43640
43618
43596
43579
43563
43540
43515
43498
43479
43443
43387
43322
43252
43181
43119
43064
43009
42957
42903
42845
42789
42739
42690
42634
42571
42509
42451
42398
42342
42274
42204
42134
42064
42000
41945
41888
41824
41749
41669
41589
41515
41453
41400
41349
41299
41259
41227
41197
41164
41127
41086
41043
40995
40940
40879
40820
40767
40714
40662
40609
40551
40487
40425
40365
40299
40231
40173
40126
40081
40043
40030
40058
40127
40221
40337
40484
40658
40848
41063
41297
41532
41761
41988
42212
42431
42643
42845
43027
43188
43332
43456
43555
43626
43677
43715
43736
43748
43756
43765
43774
43775
43768
43754
43733
43714
43705
43699
43691
43688
43691
43688
43668
43634
43603
43579
43550
43515
43481
43444
43403
43359
43315
43272
43235
43208
43187
43163
43137
43116
43102
43091
43074
43054
43039
43026
43010
42991
42973
42959
42939
42907
42874
42835
42788
42746
42710
42670
42622
42574
42535
42495
42446
42396
42349
42297
42231
42157
42084
42014
41945
41878
41813
41747
41683
41626
41570
41510
41447
41387
41328
41265
41202
41138
41077
41023
40966
40905
40851
40803
40755
40703
40649
40592
40536
40484
40435
40390
40347
40301
40257
40217
40176
40138
40103
40064
40014
39955
39892
39822
39747
39675
39608
39543
39485
39435
39388
39343
39299
39261
39236
39221
39223
39250
39307
39406
39545
39705
39880
40073
40279
40487
40690
40889
41082
41261
41417
41548
41659
41755
41840
41912
41973
42023
42060
42086
42104
42113
42107
42080
42036
41990
41948
41914
41888
41865
41847
41827
41796
41752
41704
41657
41606
41558
41519
41481
41438
41398
41361
41317
41265
41219
41185
41155
41123
41092
41060
41026
40998
40975
40952
40930
40912
40904
40913
40933
40952
40957
40950
40941
40926
40895
40858
40830
40807
40772
40725
40681
40643
40607
40566
40513
40454
40388
40307
40214
40122
40036
39951
39870
39797
39739
39689
39637
39588
39547
39509
39466
39413
39356
39298
39239
39177
39114
39057
39010
38966
38922
38884
38845
38799
38745
38691
38645
38597
38541
38478
38413
38361
38320
38276
38224
38169
38121
38084
38056
38030
38002
37969
37924
37861
37783
37698
37611
37524
37438
37349
37261
37177
37104
37052
37027
37041
37093
37175
37283
37406
37542
37694
37861
38045
38243
38445
38646
38838
39010
39160
39295
39416
39520
39597
39651
39696
39729
39743
39742
39737
39732
39723
39706
39683
39657
39627
39595
39563
39534
39504
39468
39432
39395
39349
39298
39248
39197
39148
39103
39057
39009
38958
38906
38863
38826
38791
38754
38716
38680
38648
38627
38621
38618
38613
38611
38605
38588
38569
38562
38567
38575
38583
38588
38588
38582
38563
38529
38482
38420
38358
38308
38262
38202
38127
38057
37994
37930
37865
37798
37728
37657
37595
37542
37495
37444
37383
37315
37252
37192
37131
37064
36998
36937
36877
36823
36773
36733
36699
36664
36621
36570
36508
36441
36373
36307
36244
36187
36140
36101
36064
36026
35986
35948
35918
35893
35864
35829
35791
35755
35721
35678
35613
35536
35467
35408
35344
35278
35219
35154
35086
35033
35002
34985
34978
34982
35017
35091
35191
35311
35451
35611
35784
35961
36135
36308
36486
36662
36826
36975
37107
37222
37320
37391
37434
37450
37440
37416
37379
37327
37273
37225
37186
37159
37136
37116
37098
37074
37037
36995
36959
36931
36909
36887
36864
36838
36807
36775
36747
36720
36684
36640
36595
36559
36531
36507
36480
36453
36428
36402
36376
36355
36344
36342
36347
36357
36375
36403
36433
36456
36468
36467
36454
36433
36416
36403
36389
36379
36381
36390
36393
36391
36378
36344
36301
36263
36223
36168
36094
36019
35950
35875
35801
35741
35696
35656
35606
35548
35494
35449
35412
35374
35330
35281
35234
35195
35158
35113
35071
35037
35003
34972
34941
34900
34851
34807
34771
34737
34706
34676
34647
34620
34594
34565
34533
34496
34449
34389
34324
34260
34203
34153
34103
34047
33989
33932
33880
33840
33818
33816
33833
33872
33939
34043
34186
34364
34566
34780
34992
35192
35380
35555
35717
35872
36021
36155
36268
36360
36436
36501
36549
36585
36609
36628
36643
36646
36633
36610
36587
36561
36526
36492
36462
36432
36407
36385
36361
36337
36318
36295
36260
36212
36155
36096
36040
35995
35967
35948
35930
35907
35879
35850
35830
35816
35800
35779
35760
35755
35768
35788
35799
35797
35785
35770
35747
35721
35703
35700
35699
35689
35672
35653
35629
35605
35585
35561
35528
35493
35458
35421
35380
35335
35296
35260
35214
35158
35100
35043
34988
34942
34907
34873
34839
34812
34792
34774
34748
34714
34681
34651
34627
34599
34548
34479
34419
34378
34352
34335
34322
34301
34259
34209
34167
34128
34088
34058
34040
34021
33992
33953
33905
33855
33800
33739
33682
33638
33599
33557
33520
33490
33454
33409
33368
33341
33336
33361
33419
33508
33626
33768
33930
34106
34301
34504
34699
34888
35081
35276
35465
35645
35809
35957
36085
36192
36279
36352
36410
36449
36461
36451
36433
36409
36383
36360
36341
36324
36308
36292
36271
36242
36211
36188
36178
36177
36173
36158
36136
36108
36069
36029
35990
35951
35913
35876
35838
35803
35784
35780
35784
35794
35808
35825
35848
35872
35891
35904
35915
35927
35933
35931
35935
35950
35960
35958
35953
35950
35950
35948
35937
35920
35902
35882
35854
35814
35769
35720
35673
35624
35570
35515
35468
35424
35375
35322
35266
35212
35161
35115
35085
35064
35040
35016
34988
34960
34937
34909
34870
34825
34779
34732
34684
34641
34604
34570
34527
34477
34430
34393
34369
34350
34332
34315
34299
34283
34260
34226
34186
34149
34111
34071
34038
34007
33970
33933
33898
33864
33832
33814
33808
33814
33839
33889
33960
34055
34176
34317
34473
34649
34834
35021
35211
35400
35582
35756
35916
36063
36195
36318
36436
36541
36626
36693
36742
36771
36782
36784
36782
36774
36757
36734
36715
36708
36705
36699
36685
36669
36650
36631
36617
36609
36596
36573
36544
36513
36483
36457
36429
36390
36343
36306
36288
36277
36263
36253
36249
36252
36257
36264
36272
36277
36277
36280
36289
36299
36309
36322
36341
36361
36381
36400
36407
36392
36366
36333
36293
36250
36207
36168
36130
36085
36033
35979
35925
35875
35825
35778
35734
35682
35630
35589
35551
35509
35469
35439
35411
35380
35342
35294
35242
35197
35159
35120
35076
35027
34989
34969
34953
34929
34893
34853
34815
34779
34742
34708
34683
34671
34657
34635
34611
34590
34567
34531
34483
34427
34375
34330
34284
34240
34204
34171
34143
34121
34106
34094
34091
34100
34119
34151
34213
34310
34429
34564
34719
34893
35076
35263
35457
35652
35838
36010
36173
36323
36456
36577
36693
36793
36862
36909
36938
36951
36952
36944
36925
36888
36837
36783
36735
36699
36662
36618
36582
36555
36524
36488
36463
36458
36463
36460
36441
36409
36369
36324
36277
36231
36186
36149
36122
36103
36093
36090
36094
36105
36119
36132
36142
36147
36145
36140
36137
36143
36160
36191
36234
36267
36281
36279
36268
36252
36234
36218
36206
36190
36167
36133
36093
36049
35998
35943
35901
35868
35824
35774
35726
35681
35638
35598
35560
35519
35476
35430
35381
35320
35256
35201
35160
35133
35111
35088
35063
35036
35007
34976
34943
34909
34881
34859
34844
34833
34824
34810
34789
34764
34739
34704
34657
34606
34558
34521
34494
34473
34457
34445
34426
34386
34334
34289
34258
34240
34249
34292
34366
34461
34582
34729
34886
35051
35233
35425
35625
35839
36053
36255
36439
36604
36746
36860
36953
37035
37101
37145
37178
37206
37219
37218
37215
37210
37197
37175
37147
37124
37106
37083
37047
36998
36946
36899
36857
36824
36799
36779
36765
36761
36757
36739
36703
36654
36602
36550
36503
36463
36431
36418
36417
36424
36440
36458
36471
36489
36520
36558
36599
36638
36667
36681
36684
36679
36664
36641
36622
36613
36608
36599
36586
36574
36565
36552
36536
36516
36489
36456
36410
36353
36291
36227
36161
36098
36048
36008
35978
35958
35933
35903
35875
35851
35823
35784
35732
35676
35622
35577
35545
35517
35485
35457
35435
35402
35362
35329
35309
35296
35280
35263
35244
35215
35184
35158
35129
35094
35063
35039
35006
34960
34915
34883
34865
34856
34861
34878
34908
34950
35003
35070
35161
35282
35435
35615
35815
36019
36226
36439
36648
36846
37039
37220
37379
37523
37662
37796
37912
38007
38087
38146
38179
38188
38184
38177
38174
38171
38167
38155
38133
38106
38077
38048
38026
38017
38021
38033
38047
38060
38076
38093
38099
38093
38073
38038
37990
37936
37885
37843
37818
37814
37822
37831
37840
37857
37884
37908
37918
37918
37918
37917
37917
37924
37937
37946
37943
37933
37920
37899
37873
37843
37813
37787
37767
37757
37757
37761
37754
37726
37679
37621
37561
37508
37466
37430
37395
37360
37321
37273
37228
37193
37158
37122
37090
37061
37033
37004
36965
36914
36865
36830
36795
36756
36727
36716
36714
36707
36697
36684
36667
36645
36626
36609
36594
36578
36552
36514
36473
36432
36382
36326
36265
36203
36154
36119
36092
36071
36055
36057
36086
36141
36218
36319
36452
36616
36799
36992
37193
37397
37597
37796
37995
38188
38375
38552
38719
38872
39003
39119
39227
39325
39411
39477
39525
39552
39553
39539
39529
39530
39537
39542
39533
39515
39504
39497
39487
39481
39485
39499
39514
39520
39514
39502
39491
39485
39482
39481
39483
39481
39478
39478
39474
39461
39443
39423
39401
39386
39386
39397
39416
39441
39466
39487
39505
39515
39518
39514
39506
39498
39487
39480
39478
39468
39453
39443
39442
39442
39428
39391
39330
39258
39186
39118
39054
38999
38956
38924
38892
38851
38811
38781
38759
38730
38685
38634
38590
38555
38527
38497
38466
38440
38415
38385
38360
38339
38311
38270
38225
38177
38118
38061
38023
37995
37964
37941
37929
37913
37895
37876
37848
37808
37768
37739
37723
37703
37664
37615
37579
37551
37528
37515
37522
37549
37589
37646
37737
37862
38019
38205
38407
38610
38810
39013
39218
39419
39618
39824
40033
40226
40394
40548
40693
40815
40906
40971
41016
41044
41062
41068
41066
41065
41065
41068
41074
41078
41086
41097
41106
41112
41117
41125
41140
41154
41163
41166
41167
41160
41143
41121
41094
41064
41038
41020
41008
40991
40969
40946
40925
40911
40910
40919
40932
40941
40940
40937
40942
40955
40971
40979
40976
40976
40984
40987
40984
40975
40969
40963
40945
40907
40861
40819
40782
40746
40708
40669
40632
40594
40552
40506
40456
40401
40349
40296
40243
40202
40173
40140
40108
40083
40062
40038
40005
39968
39930
39886
39833
39780
39734
39695
39664
39635
39602
39564
39521
39480
39444
39411
39383
39355
39323
39284
39240
39194
39155
39125
39098
39062
39016
38965
38913
38864
38825
38797
38770
38744
38724
38715
38729
38771
38847
38954
39087
39242
39409
39592
39797
40016
40242
40471
40700
40928
41147
41349
41534
41703
41853
41973
42067
42141
42202
42254
42296
42320
42327
42332
42345
42361
42363
42354
42350
42354
42356
42360
42369
42389
42416
42443
42461
42458
42440
42420
42403
42385
42364
42344
42328
42312
42295
42278
42263
42253
42247
42246
42244
42237
42224
42213
42215
42221
42229
42236
42243
42250
42256
42257
42260
42273
42288
42296
42297
42294
42290
42281
42253
42209
42163
42123
42080
42032
41987
41946
41902
41848
41783
41718
41658
41597
41539
41497
41463
41428
41399
41382
41361
41321
41274
41234
41200
41162
41123
41089
41056
41015
40969
40923
40881
40841
40800
40756
40710
40668
40625
40571
40518
40476
40441
40411
40383
40356
40331
40297
40253
40214
40187
40158
40111
40053
39992
39924
39855
39792
39736
39683
39635
39594
39570
39569
39597
39662
39761
39888
40042
40219
40410
40614
40838
41070
41304
41539
41772
41999
42218
42416
42594
42746
42855
42931
42997
43051
43082
43092
43092
43084
43070
43054
43044
43051
43069
43088
43114
43146
43167
43177
43188
43199
43201
43200
43201
43198
43187
43172
43150
43117
43073
43030
43001
42979
42953
42933
42925
42920
42923
42937
42952
42961
42968
42977
42986
42997
43013
43030
43038
43044
43052
43054
43044
43020
42984
42950
42922
42895
42864
42820
42769
42720
42678
42645
42617
42581
42527
42460
42388
42309
42227
42152
42080
42006
41941
41891
41851
41817
41782
41748
41716
41685
41654
41616
41570
41516
41454
41392
41338
41294
41264
41249
41240
41228
41212
41186
41154
41126
41105
41092
41082
41068
41053
41039
41023
40999
40964
40926
40892
40864
40840
40809
40760
40692
40614
40543
40489
40454
40433
40415
40385
40348
40313
40291
40300
40350
40437
40553
40700
40871
41066
41275
41490
41717
41953
42185
42410
42623
42822
43014
43196
43359
43502
43628
43734
43810
43860
43904
43945
43973
43986
43991
43994
43999
43999
43991
43986
43985
43977
43961
43947
43936
43930
43923
43914
43909
43907
43894
43872
43853
43840
43829
43822
43806
43780
43760
43756
43759
43762
43766
43772
43772
43770
43780
43804
43828
43839
43851
43870
43887
43893
43889
43886
43884
43874
43851
43821
43796
43778
43757
43728
43696
43662
43623
43581
43536
43487
43436
43385
43337
43291
43242
43184
43118
43049
42978
42902
42818
42738
42676
42632
42599
42570
42544
42518
42487
42456
42422
42377
42330
42291
42250
42187
42108
42030
41968
41919
41878
41839
41804
41778
41748
41706
41662
41618
41570
41522
41473
41416
41354
41296
41243
41189
41131
41069
41009
40952
40894
40835
40775
40721
40683
40665
40667
40696
40756
40845
40967
41131
41334
41566
41814
42067
42314
42552
42787
43019
43242
43447
43623
43776
43915
44038
44149
44253
44340
44410
44471
44524
44552
44554
44541
44513
44477
44452
44446
44450
44455
44461
44470
44483
44492
44491
44487
44487
44479
44462
44434
44398
44359
44334
44321
44304
44284
44259
44232
44210
44196
44192
44205
44226
44242
44248
44251
44251
44240
44217
44191
44171
44166
44174
44189
44209
44229
44236
44226
44215
44207
44192
44158
44109
44053
43997
43942
43877
43805
43740
43687
43638
43582
43504
43408
43313
43228
43143
43053
42964
42876
42791
42708
42631
42566
42519
42484
42449
42409
42369
42331
42295
42261
42228
42200
42176
42148
42116
42083
42047
42002
41933
41844
41748
41661
41585
41509
41425
41342
41273
41223
41187
41150
41106
41061
41017
40977
40936
40893
40845
40790
40738
40690
40634
40572
40514
40458
40415
40409
40444
40520
40638
40795
40979
41183
41403
41643
41897
42155
42419
42683
42928
43146
43340
43514
43677
43825
43944
44034
44110
44178
44230
44259
44265
44255
44226
44187
44146
44110
44089
44085
44094
44107
44122
44134
44126
44096
44059
44034
44022
44009
43981
43932
43874
43819
43770
43730
43700
43676
43657
43643
43630
43621
43616
43615
43617
43621
43627
43630
43634
43638
43648
43666
43678
43674
43659
43645
43635
43628
43626
43626
43617
43594
43550
43492
43427
43354
43278
43209
43141
43069
42997
42924
42854
42786
42719
42658
42595
42526
42454
42387
42331
42284
42234
42181
42122
42047
41961
41872
41786
41708
41634
41568
41519
41490
41474
41454
41425
41393
41360
41318
41269
41212
41148
41083
41019
40957
40891
40812
40731
40658
40591
40537
40494
40446
40395
40347
40302
40264
40233
40198
40152
40096
40027
39945
39862
39790
39736
39709
39713
39749
39828
39954
40118
40309
40520
40755
41007
41260
41515
41770
42018
42251
42454
42628
42778
42914
43045
43167
43270
43341
43380
43405
43424
43428
43418
43408
43399
43390
43381
43368
43347
43314
43274
43230
43182
43142
43109
43073
43033
42985
42927
42873
42832
42799
42763
42717
42658
42601
42557
42525
42505
42500
42502
42504
42501
42502
42514
42536
42559
42579
42595
42610
42623
42628
42634
42637
42623
42589
42548
42511
42477
42430
42373
42324
42278
42227
42174
42122
42065
42000
41932
41860
41779
41689
41600
41525
41465
41409
41353
41294
41234
41176
41120
41071
41018
40954
40892
40836
40778
40717
40658
40612
40574
40546
40531
40515
40490
40465
40438
40397
40350
40310
40273
40234
40198
40165
40121
40064
40011
39964
39909
39847
39788
39736
39697
39668
39633
39587
39530
39466
39399
39328
39258
39201
39160
39133
39116
39116
39145
39207
39305
39444
39618
39819
40034
40255
40475
40699
40928
41154
41362
41555
41747
41932
42094
42226
42332
42423
42503
42562
42596
42620
42642
42660
42668
42670
42666
42643
42602
42562
42533
42511
42495
42487
42484
42478
42462
42437
42403
42361
42319
42275
42227
42174
42121
42078
42040
41999
41962
41935
41924
41924
41929
41938
41949
41956
41962
41971
41975
41971
41966
41967
41968
41966
41959
41955
41957
41963
41963
41956
41941
41912
41872
41826
41773
41715
41651
41578
41498
41414
41334
41271
41223
41176
41126
41079
41038
40997
40951
40902
40850
40794
40728
40658
40591
40533
40477
40417
40359
40306
40259
40219
40177
40124
40075
40031
39986
39945
39913
39885
39852
39813
39773
39732
39693
39653
39613
39565
39501
39433
39373
39319
39269
39222
39171
39123
39083
39047
39009
38962
38899
38828
38752
38679
38623
38594
38593
38618
38666
38745
38858
39002
39170
39353
39543
39723
39897
40079
40271
40465
40658
40837
40991
41127
41260
41395
41523
41635
41726
41792
41828
41839
41829
41804
41772
41738
41707
41673
41625
41569
41517
41472
41422
41370
41330
41304
41286
41266
41237
41201
41156
41111
41068
41024
40980
40935
40889
40847
40816
40789
40769
40771
40795
40830
40865
40890
40905
40914
40919
40923
40927
40933
40940
40940
40930
40915
40906
40910
40919
40922
40911
40883
40837
40778
40710
40644
40590
40548
40508
40456
40389
40316
40253
40193
40127
40066
40006
39934
39847
39760
39682
39607
39539
39490
39452
39412
39371
39339
39309
39270
39232
39198
39161
39118
39079
39047
39014
38980
38953
38934
38917
38897
38877
38855
38828
38786
38729
38666
38609
38563
38525
38492
38463
38435
38400
38349
38279
38193
38107
38043
38002
37978
37979
38013
38083
38185
38318
38478
38663
38867
39086
39314
39546
39771
39978
40169
40344
40501
40649
40790
40908
40991
41050
41102
41145
41182
41212
41226
41225
41212
41188
41160
41129
41088
41042
41005
40982
40974
40976
40970
40944
40907
40871
40840
40810
40779
40748
40712
40672
40632
40599
40567
40531
40499
40476
40457
40438
40419
40403
40390
40386
40398
40416
40430
40443
40464
40491
40519
40545
40565
40576
40579
40580
40573
40558
40536
40502
40455
40410
40370
40328
40281
40232
40186
40147
40097
40028
39960
39904
39855
39802
39741
39673
39602
39535
39477
39434
39402
39372
39348
39327
39304
39279
39252
39219
39182
39149
39124
39102
39072
39025
38968
38917
38871
38821
38768
38725
38697
38677
38657
38635
38606
38576
38543
38503
38465
38430
38391
38346
38304
38269
38241
38218
38201
38195
38208
38247
38318
38422
38556
38715
38894
39091
39302
39523
39750
39983
40212
40423
40609
40773
40920
41052
41163
41253
41327
41387
41432
41465
41498
41522
41528
41525
41519
41507
41494
41485
41482
41474
41463
41460
41460
41460
41461
41462
41464
41467
41472
41471
41454
41430
41416
41409
41391
41363
41341
41338
41349
41363
41370
41361
41338
41316
41301
41285
41269
41259
41260
41267
41277
41293
41319
41347
41367
41381
41394
41405
41411
41410
41399
41379
41349
41300
41236
41173
41120
41073
41031
40997
40970
40945
40909
40867
40833
40800
40760
40716
40674
40633
40596
40560
40522
40488
40457
40425
40388
40342
40295
40253
40212
40172
40142
40117
40096
40081
40066
40047
40025
39993
39955
39918
39886
39847
39794
39738
39691
39651
39616
39589
39566
39543
39518
39489
39462
39443
39434
39435
39453
39491
39546
39620
39722
39852
40011
40197
40401
40617
40839
41064
41289
41514
41729
41925
42106
42272
42417
42549
42671
42775
42854
42907
42955
43003
43043
43071
43086
43092
43092
43091
43095
43104
43111
43120
43130
43139
43149
43157
43161
43168
43179
43187
43187
43178
43156
43130
43099
43056
43010
42973
42951
42944
42952
42968
42989
43004
43006
43007
43018
43032
43040
43045
43055
43071
43086
43096
43102
43106
43110
43107
43100
43094
43085
43073
43056
43036
43009
42973
42936
42899
42860
42808
42740
42673
42617
42571
42536
42511
42490
42464
42428
42383
42334
42293
42259
42221
42180
42141
42102
42067
42044
42026
42003
41973
41938
41903
41871
41846
41829
41807
41769
41723
41675
41632
41603
41581
41551
41508
41465
41430
41404
41382
41364
41352
41336
41307
41269
41230
41195
41165
41145
41140
41156
41191
41242
41314
41412
41545
41712
41895
42080
42273
42483
42702
42923
43145
43364
43573
43765
43932
44070
44187
44285
44372
44463
44558
44643
44717
44776
44815
44846
44877
44905
44917
44912
44907
44914
44922
44926
44936
44956
44981
44997
44993
44975
44958
44953
44962
44972
44969
44952
44930
44911
44898
44887
44870
44841
44812
44793
44782
44768
44748
44730
44721
44725
44738
44756
44783
44820
44861
44900
44936
44966
44987
44996
44994
44981
44951
44902
44841
44784
44726
44658
44580
44508
44451
44403
44365
44344
44324
44287
44240
44201
44176
44152
44121
44086
44052
44018
43973
43924
43882
43843
43808
43785
43768
43752
43739
43729
43717
43705
43692
43670
43634
43589
43549
43519
43496
43478
43463
43438
43392
43331
43268
43202
43126
43049
42988
42943
42910
42884
42857
42831
42806
42768
42711
42641
42573
42524
42508
42529
42577
42651
42763
42910
43080
43273
43485
43703
43931
44173
44417
44660
44894
45105
45287
45445
45589
45721
45839
45942
46033
46114
46182
46234
46281
46327
46363
46377
46378
46388
46402
46399
46379
46350
46324
46316
46318
46327
46345
46370
46390
46396
46400
46401
46392
46382
46370
46351
46332
46317
46304
46291
46279
46276
46284
46302
46323
46336
46342
46349
46363
46378
46388
46398
46410
46414
46405
46389
46378
46365
46339
46307
46275
46250
46229
46199
46155
46110
46074
46031
45969
45900
45842
45799
45759
45717
45686
45670
45655
45635
45606
45561
45503
45447
45395
45340
45278
45220
45178
45152
45138
45120
45090
45051
45010
44967
44925
44885
44853
44826
44802
44783
44763
44733
44698
44665
44629
44587
44543
44503
44465
44429
44394
44353
44310
44271
44231
44175
44105
44039
43982
43929
43873
43817
43768
43729
43698
43679
43679
43701
43749
43832
43959
44121
44306
44507
44724
44957
45196
45439
45682
45919
46143
46352
46536
46684
46802
46906
47006
47102
47190
47260
47309
47347
47379
47400
47413
47426
47442
47463
47479
47479
47475
47477
47482
47483
47486
47495
47498
47496
47493
47490
47490
47491
47480
47453
47421
47393
47372
47358
47349
47336
47303
47264
47240
47236
47249
47272
47288
47287
47279
47267
47256
47258
47271
47286
47292
47277
47245
47208
47179
47162
47156
47154
47141
47108
47056
46994
46942
46911
46897
46888
46879
46859
46822
46762
46687
46609
46539
46488
46449
46412
46376
46345
46321
46298
46263
46219
46171
46120
46072
46027
45988
45958
45929
45896
45862
45829
45801
45775
45757
45743
45723
45692
45655
45616
45576
45529
45476
45417
45352
45286
45238
45207
45179
45149
45111
45059
45000
44943
44891
44847
44807
44760
44706
44647
44584
44524
44473
44430
44400
44395
44429
44505
44615
44754
44923
45122
45344
45576
45819
46070
46309
46524
46717
46894
47070
47237
47380
47508
47617
47706
47783
47849
47899
47923
47923
47911
47904
47905
47901
47886
47872
47872
47883
47896
47908
47916
47922
47931
47944
47955
47956
47949
47930
47898
47869
47846
47820
47790
47761
47726
47692
47663
47637
47624
47625
47628
47634
47647
47664
47687
47706
47719
47724
47720
47720
47722
47713
47700
47681
47654
47625
47593
47544
47484
47428
47380
47342
47312
47291
47275
47250
47213
47172
47128
47084
47048
47016
46983
46946
46897
46827
46747
46678
46623
46572
46510
46441
46377
46318
46264
46220
46178
46140
46115
46104
46100
46091
46068
46030
45986
45950
45920
45886
45854
45820
45778
45727
45675
45630
45589
45547
45500
45442
45380
45320
45266
45223
45186
45147
45110
45077
45044
45010
44972
44922
44862
44808
44768
44746
44745
44764
44800
44860
44944
45056
45200
45374
45573
45794
46023
46251
46467
46664
46837
46987
47120
47245
47365
47478
47580
47669
47744
47806
47851
47872
47876
47876
47873
47866
47855
47842
47831
47818
47796
47769
47738
47700
47664
47649
47654
47666
47677
47683
47678
47653
47618
47580
47538
47501
47470
47441
47412
47386
47359
47331
47311
47288
47261
47243
47238
47246
47271
47309
47350
47391
47423
47429
47413
47394
47374
47342
47296
47249
47218
47188
47147
47101
47050
46998
46949
46897
46849
46803
46746
46679
46621
46568
46507
46437
46362
46286
46211
46142
46085
46035
45985
45936
45895
45866
45839
45807
45777
45750
45720
45687
45654
45621
45588
45546
45490
45421
45344
45270
45212
45167
45135
45112
45095
45074
45027
44960
44900
44854
44809
44755
44701
44660
44624
44581
44524
44459
44394
44333
44268
44196
44130
44071
44009
43943
43882
43835
43816
43829
43866
43932
44037
44178
44346
44541
44755
44966
45170
45372
45567
45748
45916
46070
46212
46349
46492
46629
46741
46831
46908
46976
47033
47082
47129
47174
47210
47226
47220
47209
47208
47211
47202
47186
47169
47147
47120
47105
47111
47135
47165
47193
47207
47199
47171
47135
47106
47079
47050
47029
47018
47003
46967
46918
46870
46830
46811
46810
46808
46812
46820
46821
46818
46817
46821
46828
46840
46858
46874
46877
46857
46821
46785
46758
46740
46727
46704
46661
46603
46539
46471
46404
46343
46285
46227
46166
46105
46051
45998
45934
45859
45782
45717
45669
45634
45603
45564
45517
45458
45387
45319
45267
45233
45206
45177
45141
45101
45059
45014
44974
44937
44893
44853
44817
44786
44763
44738
44698
44649
44591
44514
44428
44352
44280
44209
44148
44099
44058
44011
43954
43900
43857
43811
43750
43688
43633
43578
43527
43484
43444
43412
43394
43392
43413
43455
43526
43636
43782
43956
44149
44341
44537
44739
44941
45136
45318
45488
45645
45789
45921
46041
46143
46225
46291
46343
46384
46419
46447
46466
46478
46480
46478
46471
46457
46442
46430
46426
46430
46442
46457
46469
46478
46484
46483
46476
46469
46458
46437
46413
46390
46369
46344
46318
46292
46270
46255
46249
46250
46253
46254
46255
46254
46245
46228
46204
46179
46155
46140
46134
46131
46124
46107
46074
46034
45987
45938
45894
45852
45808
45766
45733
45708
45679
45642
45599
45549
45496
45444
45392
45340
45286
45228
45166
45110
45058
45007
44957
44907
44851
44793
44743
44697
44650
44599
44549
44503
44460
44423
44394
44364
44328
44287
44245
44198
44145
44093
44037
43972
43913
43864
43819
43772
43724
43681
43644
43611
43577
43544
43512
43473
43432
43397
43361
43317
43262
43197
43128
43057
42977
42898
42823
42749
42680
42619
42571
42537
42513
42504
42521
42576
42669
42797
42950
43123
43316
43519
43732
43948
44155
44352
44547
44735
44908
45061
45192
45301
45400
45487
45549
45587
45603
45608
45608
45603
45597
45591
45590
45597
45609
45621
45625
45619
45610
45597
45581
45567
45553
45537
45520
45501
45481
45462
45446
45432
45415
45390
45359
45326
45296
45272
45254
45239
45226
45214
45205
45195
45180
45165
45156
45147
45133
45124
45123
45125
45122
45110
45087
45053
45016
44980
44946
44909
44868
44823
44775
44735
44709
44693
44676
44651
44614
44565
44503
44434
44365
44297
44236
44185
44138
44088
44025
43961
43905
43856
43818
43782
43741
43696
43642
43574
43495
43412
43338
43276
43220
43166
43113
43054
42987
42925
42874
42826
42780
42741
42711
42678
42639
42596
42549
42496
42433
42365
42295
42231
42174
42121
42072
42023
41966
41905
41847
41790
41731
41674
41621
41575
41543
41526
41517
41520
41544
41594
41671
41776
41914
42082
42272
42473
42678
42885
43084
43275
43457
43631
43795
43948
44081
44194
44286
44355
44405
44443
44476
44505
44530
44541
44536
44517
44496
44475
44451
44428
44413
44401
44390
44382
44373
44358
44337
44313
44284
44251
44211
44162
44113
44065
44016
43969
43932
43903
43882
43868
43864
43862
43854
43837
43817
43801
43793
43790
43792
43790
43782
43771
43757
43742
43731
43725
43722
43712
43694
43674
43646
43606
43557
43508
43464
43424
43388
43349
43300
43240
43172
43102
43041
42987
42933
42872
42808
42747
42685
42622
42558
42491
42427
42368
42310
42256
42203
42145
42086
42028
41967
41901
41836
41775
41726
41693
41668
41641
41616
41588
41545
41485
41425
41373
41318
41254
41192
41136
41089
41051
41017
40981
40941
40888
40820
40748
40676
40606
40546
40498
40455
40414
40377
40338
40299
40264
40247
40256
40296
40368
40473
40611
40776
40957
41150
41348
41546
41743
41941
42137
42325
42504
42670
42812
42928
43024
43098
43149
43183
43206
43218
43221
43215
43202
43189
43174
43153
43132
43108
43078
43044
43009
42970
42924
42878
42838
42806
42778
42749
42721
42693
42665
42631
42594
42556
42517
42475
42431
42387
42346
42315
42291
42271
42260
42260
42267
42277
42281
42282
42282
42288
42296
42298
42297
42293
42286
42276
42262
42241
42211
42173
42126
42073
42023
41978
41927
41869
41811
41753
41695
41641
41588
41534
41474
41410
41346
41278
41206
41138
41082
41034
40982
40926
40879
40845
40817
40784
40745
40700
40650
40595
40542
40492
40444
40398
40352
40303
40246
40187
40137
40099
40064
40033
40008
39979
39937
39882
39823
39770
39722
39672
39619
39571
39525
39476
39430
39385
39337
39290
39244
39198
39156
39130
39121
39133
39183
39274
39400
39557
39735
39924
40123
40332
40548
40762
40967
41168
41370
41566
41749
41910
42045
42155
42249
42334
42406
42457
42487
42501
42512
42520
42521
42522
42518
42507
42486
42461
42441
42426
42409
42395
42383
42369
42353
42336
42314
42280
42229
42179
42141
42111
42081
42053
42026
41999
41973
41957
41945
41935
41931
41932
41936
41941
41946
41962
41989
42015
42038
42060
42075
42072
42058
42041
42017
41986
41950
41919
41897
41875
41854
41835
41806
41762
41707
41644
41579
41510
41437
41375
41332
41295
41254
41214
41175
41129
41076
41026
40981
40927
40862
40798
40735
40672
40607
40539
40475
40420
40368
40321
40286
40261
40239
40220
40199
40175
40148
40114
40073
40033
39995
39952
39908
39871
39841
39810
39772
39731
39694
39655
39607
39554
39496
39435
39377
39322
39257
39180
39100
39031
38984
38960
38958
38986
39051
39142
39254
39395
39566
39760
39979
40225
40483
40741
40997
41248
41487
41710
41918
42108
42271
42399
42494
42567
42623
42660
42691
42726
42757
42772
42778
42784
42786
42781
42781
42784
42780
42763
42738
42715
42697
42695
42708
42731
42752
42756
42746
42736
42728
42716
42703
42694
42692
42692
42680
42652
42614
42572
42544
42533
42521
42505
42495
42495
42502
42506
42505
42509
42519
42531
42540
42544
42542
42528
42512
42498
42477
42446
42414
42378
42330
42271
42215
42165
42110
42059
42012
41961
41917
41881
41845
41805
41751
41679
41597
41509
41430
41377
41344
41316
41289
41265
41238
41199
41153
41101
41038
40964
40892
40830
40773
40726
40685
40643
40607
40582
40558
40534
40520
40513
40495
40460
40416
40375
40341
40303
40252
40192
40123
40058
40008
39966
39924
39880
39827
39769
39719
39679
39639
39601
39564
39534
39523
39536
39584
39676
39807
39974
40177
40407
40658
40920
41180
41429
41669
41893
42097
42285
42453
42593
42715
42824
42918
43003
43075
43126
43158
43180
43199
43210
43204
43189
43180
43181
43181
43174
43166
43172
43191
43214
43228
43237
43250
43263
43272
43276
43265
43236
43199
43164
43136
43114
43095
43080
43074
43073
43067
43047
43011
42963
42921
42893
42877
42864
42849
42841
42843
42851
42866
42882
42890
42892
42891
42888
42877
42857
42841
42831
42813
42785
42755
42718
42663
42591
42506
42426
42364
42319
42285
42254
42209
42149
42090
42041
41997
41948
41901
41864
41832
41796
41764
41739
41713
41678
41635
41591
41543
41482
41411
41337
41266
41198
41139
41093
41058
41025
40994
40969
40955
40946
40934
40910
40872
40830
40783
40733
40687
40641
40587
40527
40473
40428
40382
40339
40301
40273
40244
40206
40172
40144
40123
40128
40168
40240
40344
40474
40621
40783
40957
41150
41361
41581
41801
42016
42225
42424
42606
42773
42926
43060
43172
43268
43349
43406
43435
43449
43461
43472
43482
43490
43494
43496
43498
43504
43513
43527
43548
43569
43585
43590
43579
43555
43528
43499
43479
43471
43457
43432
43407
43379
43341
43313
43295
43274
43257
43245
43233
43213
43186
43158
43133
43115
43109
43114
43131
43161
43195
43225
43243
43248
43245
43234
43221
43204
43179
43145
43103
43054
43005
42967
42937
42905
42872
42838
42792
42728
42654
42574
42486
42404
42335
42270
42207
42157
42119
42079
42036
41988
41930
41862
41789
41723
41675
41645
41620
41592
41560
41521
41470
41414
41364
41320
41278
41240
41206
41169
41130
41086
41038
40995
40956
40921
40894
40866
40829
40781
40730
40681
40635
40594
40555
40509
40454
40397
40338
40276
40216
40158
40108
40070
40041
40027
40033
40062
40131
40239
40375
40532
40704
40895
41099
41313
41543
41778
42001
42203
42387
42560
42720
42865
42994
43102
43189
43255
43305
43341
43366
43379
43379
43367
43357
43353
43353
43352
43342
43327
43313
43298
43287
43287
43292
43285
43267
43243
43219
43191
43156
43119
43087
43058
43032
43009
42990
42968
42942
42917
42896
42878
42862
42850
42847
42856
42875
42893
42900
42903
42904
42903
42903
42908
42918
42922
42911
42890
42871
42852
42825
42792
42751
42707
42663
42608
42547
42486
42425
42363
42303
42248
42195
42142
42082
42019
41954
41889
41823
41762
41705
41646
41585
41535
41493
41446
41402
41365
41336
41306
41268
41217
41165
41129
41104
41078
41046
41006
40963
40913
40855
40800
40745
40695
40653
40618
40584
40548
40507
40461
40420
40383
40340
40296
40249
40200
40142
40074
40006
39947
39909
39893
39896
39919
39968
40047
40149
40273
40424
40606
40810
41017
41221
41421
41608
41779
41940
42091
42243
42394
42531
42651
42748
42822
42879
42915
42934
42944
42959
42976
42982
42971
42957
42945
42925
42894
42865
42847
42831
42818
42812
42806
42796
42783
42766
42741
42716
42695
42675
42654
42628
42597
42560
42517
42483
42461
42447
42445
42454
42464
42471
42475
42474
42470
42463
42458
42458
42459
42461
42467
42472
42467
42455
42437
42410
42382
42353
42323
42292
42264
42237
42214
42190
42159
42120
42073
42022
41968
41915
41863
41807
41755
41709
41661
41610
41562
41519
41468
41405
41340
41276
41216
41165
41122
41083
41043
40997
40948
40906
40870
40839
40807
40774
40744
40714
40676
40636
40599
40567
40532
40494
40458
40420
40370
40308
40247
40196
40144
40087
40040
40005
39971
39933
39900
39881
39877
39885
39909
39965
40065
40199
40363
40558
40773
40996
41223
41446
41662
41861
42041
42209
42366
42512
42641
42749
42841
42909
42954
42988
43021
43051
43073
43077
43067
43050
43027
43006
42997
42993
42983
42971
42954
42919
42880
42857
42844
42825
42802
42778
42751
42720
42683
42647
42610
42565
42517
42480
42457
42447
42440
42429
42422
42422
42419
42412
42409
42406
42402
42403
42407
42419
42436
42447
42452
42454
42444
42424
42409
42400
42390
42369
42336
42291
42247
42206
42160
42119
42085
42040
41976
41907
41842
41780
41716
41658
41603
41541
41471
41396
41322
41251
41181
41127
41095
41075
41065
41064
41059
41040
41007
40966
40916
40859
40802
40759
40729
40705
40681
40648
40608
40567
40519
40475
40435
40393
40352
40306
40244
40171
40092
40010
39929
39864
39820
39793
39785
39799
39829
39884
39971
40082
40203
40337
40499
40683
40869
41058
41252
41442
41628
41819
42009
42188
42348
42491
42624
42752
42868
42961
43037
43107
43163
43192
43199
43197
43194
43184
43164
43143
43138
43140
43139
43147
43159
43159
43154
43150
43143
43131
43124
43122
43119
43107
43088
43069
43045
43012
42986
42969
42952
42930
42908
42884
42860
42843
42823
42793
42761
42734
42718
42724
42749
42783
42816
42843
42860
42868
42879
42897
42907
42906
42890
42854
42810
42761
42705
42649
42595
42542
42491
42440
42384
42321
42257
42194
42130
42072
42023
41975
41931
41890
41848
41791
41724
41663
41613
41574
41542
41507
41467
41430
41392
41342
41287
41246
41219
41194
41164
41127
41092
41060
41023
40983
40940
40895
40847
40790
40729
40670
40613
40557
40507
40461
40416
40368
40319
40277
40240
40210
40194
40199
40233
40299
40393
40520
40680
40863
41070
41292
41514
41734
41951
42162
42359
42550
42740
42923
43088
43233
43362
43468
43549
43615
43681
43742
43789
43813
43816
43805
43792
43791
43807
43834
43868
43907
43949
43985
44015
44045
44073
44094
44109
44122
44132
44142
44151
44159
44159
44138
44103
44067
44030
43997
43965
43937
43917
43906
43905
43917
43934
43946
43955
43968
43984
43992
43989
43987
43982
43965
43938
43903
43872
43847
43820
43791
43758
43716
43671
43626
43583
43543
43499
43446
43388
43340
43301
43260
43216
43160
43096
43041
42989
42934
42876
42815
42757
42709
42672
42638
42607
42578
42551
42527
42503
42473
42446
42423
42387
42336
42280
42220
42160
42103
42048
41990
41928
41871
41823
41775
41730
41697
41666
41618
41556
41501
41448
41391
41332
41269
41201
41140
41097
41070
41047
41016
40984
40971
40979
41007
41069
41170
41316
41499
41704
41920
42135
42346
42561
42781
42998
43204
43401
43593
43778
43947
44094
44220
44326
44411
44484
44547
44596
44626
44639
44647
44653
44654
44658
44675
44709
44759
44812
44850
44870
44886
44912
44947
44985
45024
45064
45100
45120
45121
45111
45094
45070
45036
44994
44945
44895
44857
44829
44802
44772
44744
44722
44705
44688
44675
44664
44650
44631
44619
44620
44627
44632
44632
44623
44608
44591
44579
44571
44557
44520
44465
44410
44358
44313
44277
44246
44210
44162
44098
44024
43955
43890
43828
43778
43736
43693
43644
43582
43515
43455
43397
43343
43301
43265
43228
43188
43145
43104
43073
43046
43015
42971
42913
42845
42789
42748
42708
42664
42627
42600
42569
42528
42486
42446
42407
42366
42318
42265
42217
42175
42136
42093
42034
41951
41854
41760
41676
41609
41567
41543
41527
41512
41495
41471
41445
41435
41461
41530
41636
41774
41943
42142
42361
42584
42805
43022
43225
43416
43604
43784
43948
44099
44249
44389
44505
44595
44669
44734
44782
44816
44842
44859
44875
44899
44923
44928
44920
44920
44937
44962
44992
45027
45060
45092
45127
45162
45187
45193
45184
45162
45129
45105
45096
45098
45106
45109
45098
45062
45016
44977
44948
44920
44890
44856
44827
44803
44774
44752
44743
44739
44728
44709
44691
44678
44661
44637
44609
44582
44556
44525
44489
44450
44414
44388
44375
44358
44317
44261
44201
44145
44104
44077
44059
44044
44029
44009
43981
43942
43885
43810
43727
43649
43583
43528
43475
43417
43357
43307
43267
43228
43184
43143
43100
43046
42989
42939
42892
42842
42791
42735
42675
42625
42584
42545
42499
42436
42355
42263
42170
42084
42013
41959
41913
41870
41835
41808
41786
41765
41743
41719
41692
41657
41611
41555
41490
41414
41334
41260
41190
41126
41085
41076
41095
41141
41216
41321
41453
41615
41805
42011
42216
42412
42602
42791
42963
43113
43256
43402
43544
43678
43808
43934
44048
44148
44233
44300
44345
44363
44357
44338
44325
44325
44329
44331
44334
44345
44357
44358
44354
44357
44361
44351
44332
44319
44314
44306
44297
44290
44280
44261
44233
44198
44155
44111
44079
44062
44053
44045
44033
44020
44015
44017
44017
44004
43985
43973
43974
43982
43988
43994
43995
43984
43966
43942
43910
43881
43854
43822
43792
43769
43743
43710
43668
43617
43567
43522
43475
43419
43362
43306
43247
43187
43126
43067
43021
42985
42950
42907
42857
42806
42750
42688
42623
42556
42482
42398
42323
42260
42206
42166
42131
42091
42051
42018
41991
41970
41953
41933
41910
41878
41833
41783
41726
41657
41585
41512
41444
41390
41345
41301
41251
41191
41132
41085
41044
40998
40949
40899
40851
40805
40759
40708
40656
40606
40550
40482
40409
40346
40296
40253
40218
40194
40193
40232
40315
40424
40552
40701
40874
41063
41257
41456
41662
41868
42068
42259
42441
42610
42767
42918
43056
43173
43267
43338
43383
43402
43410
43416
43422
43428
43432
43433
43428
43416
43400
43386
43378
43378
43376
43369
43361
43357
43352
43337
43321
43301
43271
43242
43224
43214
43195
43167
43140
43120
43101
43083
43071
43071
43074
43071
43058
43031
42995
42969
42960
42955
42947
42942
42944
42953
42964
42965
42953
42934
42914
42894
42871
42845
42815
42774
42727
42684
42642
42587
42528
42472
42415
42360
42310
42266
42215
42154
42095
42041
41989
41940
41898
41860
41823
41782
41737
41695
41654
41610
41560
41506
41454
41403
41351
41299
41251
41207
41166
41124
41082
41045
41017
40990
40957
40914
40861
40806
40755
40697
40626
40544
40458
40380
40318
40273
40241
40209
40169
40120
40064
40002
39939
39887
39852
39826
39802
39772
39728
39666
39593
39522
39458
39406
39362
39319
39281
39258
39252
39257
39278
39320
39388
39487
39612
39752
39904
40071
40249
40440
40652
40877
41102
41322
41525
41701
41851
41979
42079
42152
42210
42260
42300
42334
42365
42389
42404
42413
42416
42411
42405
42400
42388
42356
42315
42285
42267
42246
42211
42165
42122
42091
42066
42045
42029
42007
41968
41919
41871
41819
41764
41709
41656
41609
41583
41577
41593
41628
41670
41707
41741
41770
41788
41789
41781
41768
41749
41729
41716
41708
41697
41672
41639
41610
41590
41570
41548
41520
41485
41446
41402
41349
41290
41234
41186
41136
41074
41010
40956
40902
40834
40752
40670
40591
40515
40451
40397
40345
40295
40250
40206
40154
40093
40039
39998
39962
39931
39903
39877
39852
39820
39780
39733
39678
39618
39559
39506
39456
39412
39373
39328
39276
39225
39176
39125
39074
39029
38979
38921
38867
38817
38763
38699
38635
38578
38528
38488
38455
38422
38385
38339
38285
38231
38183
38140
38096
38039
37974
37920
37893
37904
37952
38033
38153
38308
38490
38692
38904
39119
39343
39564
39771
39965
40155
40334
40494
40634
40756
40865
40959
41034
41091
41132
41150
41142
41114
41087
41067
41047
41018
40980
40941
40900
40861
40827
40797
40780
40769
40754
40730
40687
40624
40557
40503
40467
40442
40418
40397
40380
40360
40328
40286
40247
40223
40214
40213
40213
40214
40227
40250
40271
40289
40307
40327
40351
40374
40386
40387
40384
40374
40354
40323
40286
40249
40216
40190
40165
40128
40076
40016
39947
39863
39778
39710
39647
39588
39540
39502
39468
39428
39373
39313
39251
39184
39109
39023
38930
38839
38753
38676
38612
38561
38529
38514
38500
38486
38477
38466
38444
38413
38382
38355
38329
38297
38257
38211
38165
38123
38086
38053
38018
37979
37938
37897
37861
37819
37766
37710
37644
37564
37483
37409
37343
37277
37207
37140
37081
37020
36952
36892
36854
36832
36820
36818
36839
36888
36962
37062
37191
37351
37535
37739
37960
38196
38438
38681
38912
39118
39300
39459
39595
39716
39822
39909
39974
40023
40066
40111
40153
40185
40196
40184
40162
40138
40104
40065
40023
39985
39957
39935
39920
39910
39902
39894
39880
39852
39803
39745
39699
39657
39607
39558
39520
39484
39447
39416
39391
39368
39347
39323
39302
39294
39300
39312
39322
39329
39337
39353
39377
39400
39423
39445
39457
39449
39427
39403
39376
39343
39304
39268
39245
39221
39184
39131
39069
39011
38965
38925
38886
38843
38792
38733
38668
38606
38548
38477
38397
38324
38262
38206
38151
38102
38061
38025
37986
37937
37883
37825
37767
37708
37643
37577
37515
37459
37412
37381
37366
37358
37349
37335
37310
37269
37222
37180
37150
37126
37098
37059
37009
36963
36927
36894
36863
36835
36807
36771
36724
36674
36628
36585
36542
36490
36423
36355
36292
36229
36166
36123
36108
36122
36170
36249
36352
36490
36672
36891
37131
37370
37604
37846
38089
38317
38530
38735
38930
39101
39243
39361
39458
39526
39570
39595
39603
39599
39594
39595
39597
39599
39602
39603
39592
39564
39525
39491
39471
39466
39467
39475
39481
39474
39454
39421
39385
39343
39288
39225
39163
39112
39072
39042
39029
39030
39036
39039
39037
39033
39025
39008
38992
38988
38996
39011
39033
39050
39060
39076
39098
39122
39144
39155
39153
39133
39101
39062
39019
38982
38958
38940
38921
38899
38878
38853
38814
38760
38698
38629
38547
38462
38378
38295
38214
38131
38045
37963
37887
37818
37765
37727
37688
37647
37618
37586
37543
37495
37454
37424
37403
37388
37375
37361
37334
37297
37254
37209
37169
37138
37115
37086
37049
37011
36968
36923
36883
36844
36813
36791
36768
36730
36683
36630
36572
36513
36454
36398
36347
36298
36243
36185
36140
36109
36086
36080
36103
36162
36255
36377
36528
36710
36913
37122
37343
37582
37824
38059
38284
38490
38685
38878
39068
39249
39411
39549
39660
39742
39801
39841
39854
39848
39836
39822
39804
39785
39762
39732
39698
39665
39632
39604
39582
39562
39541
39521
39505
39491
39476
39452
39421
39393
39371
39355
39335
39307
39273
39244
39230
39226
39225
39216
39196
39179
39174
39177
39189
39217
39256
39293
39319
39329
39324
39304
39279
39264
39266
39275
39279
39275
39257
39229
39200
39176
39157
39138
39115
39092
39063
39019
38963
38905
38853
38806
38758
38708
38658
38606
38552
38487
38414
38346
38287
38230
38181
38142
38108
38073
38032
37997
37975
37955
37927
37892
37844
37788
37737
37691
37643
37593
37539
37489
37450
37417
37386
37354
37322
37292
37255
37201
37146
37104
37071
37040
37009
36981
36947
36897
36835
36766
36700
36639
36580
36530
36494
36471
36467
36480
36507
36550
36617
36718
36853
37019
37215
37436
37671
37909
38154
38396
38612
38801
38979
39150
39311
39460
39582
39665
39721
39766
39808
39844
39863
39866
39853
39824
39787
39759
39745
39736
39732
39728
39712
39675
39624
39576
39547
39536
39531
39527
39523
39513
39490
39454
39402
39344
39298
39276
39275
39287
39304
39320
39330
39330
39319
39309
39314
39330
39339
39337
39330
39318
39311
39323
39346
39366
39377
39381
39381
39373
39361
39343
39320
39291
39261
39232
39195
39159
39127
39086
39035
38972
38904
38844
38793
38745
38701
38659
38616
38570
38521
38471
38426
38394
38369
38346
38319
38290
38252
38204
38148
38091
38042
38004
37971
37940
37914
37891
37862
37818
37768
37715
37664
37623
37582
37537
37500
37471
37443
37422
37409
37391
37363
37332
37304
37283
37265
37245
37213
37162
37098
37034
36974
36927
36903
36898
36909
36952
37038
37160
37317
37505
37702
37895
38087
38286
38492
38694
38887
39079
39261
39420
39559
39686
39807
39925
40032
40118
40179
40224
40259
40279
40284
40281
40269
40249
40231
40213
40188
40166
40151
40141
40138
40138
40129
40111
40084
40049
40010
39976
39950
39927
39902
39876
39857
39842
39826
39805
39777
39752
39740
39735
39738
39749
39766
39789
39812
39821
39820
39825
39843
39866
39886
39902
39922
39944
39964
39976
39970
39944
39908
39879
39853
39822
39793
39766
39732
39686
39633
39576
39521
39459
39387
39317
39258
39210
39169
39130
39089
39039
38982
38929
38876
38817
38758
38717
38691
38665
38639
38619
38598
38573
38545
38519
38494
38467
38443
38420
38389
38347
38300
38262
38227
38182
38135
38099
38074
38048
38016
37972
37914
37850
37787
37732
37678
37621
37574
37543
37526
37521
37527
37545
37576
37618
37683
37778
37901
38050
38222
38406
38597
38803
39031
39269
39500
39723
39935
40128
40300
40453
40596
40736
40861
40958
41035
41094
41137
41161
41163
41155
41153
41155
41147
41130
41111
41091
41079
41080
41089
41099
41109
41118
41119
41107
41089
41074
41056
41030
41001
40977
40966
40968
40976
40984
40993
41000
40995
40978
40961
40945
40935
40943
40967
40989
41001
41013
41032
41055
41077
41100
41117
41120
41115
41108
41102
41089
41065
41044
41023
40991
40954
40924
40898
40868
40830
40781
40725
40669
40621
40576
40533
40494
40454
40411
40366
40315
40264
40227
40206
40191
40170
40142
40104
40063
40028
39997
39968
39937
39906
39874
39833
39785
39739
39698
39664
39632
39602
39582
39567
39546
39508
39458
39400
39338
39283
39248
39227
39215
39209
39201
39183
39140
39074
39008
38953
38903
38864
38843
38828
38820
38839
38898
38994
39125
39290
39479
39685
39909
40146
40383
40612
40836
41052
41246
41420
41584
41745
41900
42037
42145
42236
42317
42387
42445
42489
42526
42560
42589
42610
42622
42625
42619
42609
42604
42606
42615
42627
42635
42640
42637
42624
42605
42574
42541
42521
42509
42492
42480
42482
42495
42507
42510
42506
42497
42489
42479
42471
42478
42504
42534
42564
42592
42620
42647
42666
42674
42676
42675
42672
42673
42676
42674
42670
42667
42654
42629
42604
42583
42562
42544
42517
42474
42423
42375
42322
42256
42188
42129
42082
42041
42009
41982
41955
41927
41895
41860
41823
41776
41710
41634
41563
41506
41464
41432
41396
41356
41321
41293
41266
41242
41218
41186
41148
41103
41055
41018
40991
40968
40947
40934
40925
40911
40879
40831
40770
40703
40646
40604
40573
40544
40512
40481
40459
40445
40439
40437
40440
40463
40515
40593
40702
40850
41038
41252
41482
41724
41965
42197
42423
42646
42860
43062
43248
43414
43557
43674
43774
43866
43941
43996
44041
44086
44123
44141
44139
44135
44134
44133
44132
44131
44129
44125
44124
44122
44112
44093
44067
44040
44022
44009
44004
44004
44000
43994
43989
43990
43999
44013
44031
44050
44064
44070
44066
44051
44031
44018
44022
44039
44068
44106
44148
44182
44203
44215
44220
44204
44164
44117
44073
44040
44021
44008
43989
43958
43921
43885
43852
43810
43758
43704
43653
43602
43554
43515
43478
43440
43400
43356
43303
43241
43183
43127
43066
43005
42953
42910
42875
42840
42809
42788
42774
42759
42737
42712
42687
42663
42639
42615
42586
42553
42518
42487
42459
42430
42395
42352
42300
42235
42158
42072
41977
41889
41827
41784
41739
41688
41639
41597
41568
41556
41564
41598
41663
41758
41881
42027
42195
42386
42596
42827
43067
43305
43538
43757
43961
44156
44344
44527
44699
44852
44983
45092
45184
45265
45338
45394
45430
45454
45469
45477
45485
45491
45495
45501
45511
45522
45540
45562
45581
45605
45638
45671
45689
45688
45677
45663
45646
45626
45614
45613
45617
45620
45609
45584
45558
45528
45505
45503
45515
45525
45530
45540
45557
45576
45597
45620
45640
45645
45637
45623
45610
45600
45588
45573
45559
45546
45533
45518
45496
45463
45420
45374
45325
45276
45229
45175
45119
45067
45014
44944
44866
44791
44719
44651
44591
44542
44506
44474
44438
44395
44344
44286
44231
44186
44150
44122
44094
44062
44029
43995
43961
43930
43903
43872
43836
43801
43769
43734
43695
43653
43608
43564
43522
43475
43422
43373
43326
43263
43190
43119
43042
42969
42917
42886
42864
42847
42842
42857
42886
42924
42983
43081
43221
43397
43601
43818
44042
44276
44513
44751
44986
45212
45423
45616
45793
45951
46089
46208
46311
46398
46471
46535
46587
46631
46673
46707
46732
46752
46769
46782
46796
46814
46837
46866
46894
46914
46934
46954
46968
46970
46955
46927
46895
46862
46824
46785
46752
46731
46712
46692
46683
46678
46668
46669
46680
46691
46698
46707
46719
46730
46734
46738
46737
46727
46716
46715
46726
46739
46746
46749
46749
46746
46738
46723
46698
46660
46611
46549
46476
46399
46321
46249
46188
46133
46084
46035
45980
45931
45892
45848
45791
45723
45648
45577
45515
45456
45396
45342
45298
45270
45254
45239
45213
45179
45144
45110
45068
45018
44967
44913
44850
44784
44722
44668
44619
44567
44504
44440
44385
44334
44283
44233
44178
44105
44024
43955
43900
43855
43813
43757
43686
43617
43553
43499
43458
43436
43447
43490
43553
43644
43774
43940
44124
44320
44532
44757
44986
45219
45445
45653
45844
46031
46217
46397
46561
46699
46803
46881
46942
46986
47018
47035
47037
47032
47030
47033
47038
47043
47044
47041
47042
47046
47045
47040
47040
47045
47047
47039
47029
47024
47017
46998
46969
46934
46897
46865
46840
46824
46816
46809
46802
46796
46775
46743
46723
46724
46736
46751
46763
46757
46737
46717
46694
46664
46633
46614
46602
46581
46554
46535
46521
46504
46479
46441
46399
46357
46315
46269
46212
46145
46080
46015
45937
45853
45779
45719
45662
45599
45538
45475
45411
45346
45278
45220
45177
45140
45103
45064
45032
45006
44974
44928
44872
44819
44773
44731
44695
44657
44607
44553
44503
44458
44416
44376
44333
44286
44238
44189
44133
44060
43974
43889
43815
43749
43683
43623
43569
43513
43461
43424
43404
43395
43401
43439
43521
43646
43802
43973
44147
44327
44523
44743
44979
45222
45459
45675
45864
46034
46189
46334
46467
46585
46686
46764
46817
46853
46879
46895
46906
46924
46948
46971
46991
47004
47004
47000
46999
47001
47006
47008
46996
46972
46950
46938
46930
46921
46903
46870
46824
46768
46707
46656
46619
46593
46573
46559
46555
46560
46565
46564
46564
46568
46573
46580
46586
46587
46583
46575
46568
46561
46548
46526
46504
46488
46473
46454
46430
46398
46355
46299
46233
46161
46080
46003
45942
45892
45843
45795
45750
45707
45659
45604
45543
45483
45430
45378
45316
45248
45186
45133
45083
45037
44993
44948
44896
44836
44781
44728
44676
44625
44572
44520
44468
44407
44343
44285
44233
44189
44159
44139
44119
44098
44070
44028
43971
43909
43851
43797
43750
43708
43663
43616
43572
43527
43479
43433
43392
43353
43317
43299
43308
43347
43417
43519
43647
43797
43974
44183
44418
44663
44912
45164
45415
45656
45880
46092
46287
46457
46604
46731
46843
46945
47034
47107
47176
47232
47262
47275
47290
47305
47315
47326
47340
47359
47382
47404
47417
47424
47429
47427
47416
47392
47360
47338
47325
47298
47261
47227
47192
47157
47131
47117
47108
47100
47095
47090
47079
47073
47079
47088
47090
47087
47087
47091
47094
47095
47101
47111
47112
47100
47078
47055
47039
47028
47023
47022
47016
46999
46968
46923
46863
46794
46719
46648
46584
46523
46459
46397
46337
46284
46231
46165
46088
46008
45936
45874
45815
45752
45683
45611
45545
45488
45438
45383
45323
45263
45213
45176
45141
45095
45041
44989
44940
44892
44848
44800
44735
44659
44592
44539
44499
44462
44420
44377
44336
44288
44227
44162
44094
44019
43945
43875
43802
43724
43648
43580
43514
43452
43409
43392
43400
43438
43511
43617
43752
43918
44117
44346
44594
44847
45100
45347
45587
45818
46039
46259
46480
46689
46873
47035
47179
47294
47377
47437
47486
47532
47580
47625
47661
47690
47709
47717
47722
47724
47725
47737
47763
47787
47797
47795
47791
47796
47802
47798
47778
47755
47747
47751
47753
47748
47747
47743
47721
47680
47636
47600
47565
47531
47511
47511
47525
47541
47555
47564
47565
47557
47546
47537
47532
47522
47505
47485
47457
47422
47381
47335
47291
47255
47220
47186
47157
47134
47107
47067
47015
46956
46887
46809
46729
46653
46588
46536
46487
46436
46382
46323
46263
46206
46148
46083
46010
45940
45878
45811
45740
45676
45619
45562
45507
45446
45373
45302
45241
45186
45132
45072
45015
44953
44881
44803
44723
44648
44578
44509
44445
44391
44347
44304
44256
44198
44128
44055
43986
43917
43848
43775
43697
43623
43552
43471
43390
43327
43278
43235
43203
43199
43227
43289
43398
43558
43754
43980
44225
44482
44745
45008
45266
45507
45731
45942
46136
46309
46457
46591
46716
46824
46916
46990
47050
47098
47133
47162
47186
47197
47202
47210
47210
47198
47187
47183
47177
47163
47137
47113
47097
47082
47070
47061
47049
47027
46992
46945
46894
46840
46786
46731
46685
46655
46631
46599
46558
46519
46491
46480
46485
46498
46513
46531
46548
46556
46547
46527
46503
46478
46451
46423
46393
46362
46329
46295
46258
46210
46160
46110
46060
46010
45952
45886
45817
45755
45703
45658
45607
45539
45455
45365
45272
45180
45098
45025
44959
44899
44846
44797
44751
44706
44663
44619
44568
44508
44435
44358
44292
44233
44175
44122
44077
44039
44007
43967
43914
43855
43793
43732
43679
43630
43582
43536
43491
43446
43396
43338
43275
43212
43144
43069
42994
42919
42840
42764
42693
42631
42577
42524
42470
42428
42413
42436
42510
42639
42815
43031
43276
43537
43803
44064
44317
44560
44787
44994
45182
45358
45522
45669
45807
45934
46037
46114
46167
46209
46247
46283
46310
46323
46319
46306
46286
46258
46226
46200
46184
46171
46154
46139
46134
46130
46117
46094
46071
46051
46031
46007
45973
45932
45890
45848
45799
45743
45693
45655
45622
45591
45571
45566
45571
45576
45582
45596
45613
45619
45619
45622
45623
45622
45619
45609
45589
45560
45532
45507
45475
45440
45405
45360
45304
45252
45205
45153
45089
45014
44943
44880
44816
44743
44661
44581
44508
44439
44371
44301
44225
44151
44088
44031
43974
43919
43872
43829
43782
43727
43664
43596
43523
43450
43391
43337
43281
43229
43183
43127
43052
42972
42900
42835
42782
42742
42702
42661
42620
42577
42530
42481
42432
42386
42338
42275
42201
42128
42053
41972
41890
41810
41722
41631
41544
41465
41405
41370
41354
41359
41395
41472
41585
41732
41916
42135
42377
42628
42891
43164
43442
43721
43995
44251
44477
44676
44853
45008
45142
45261
45371
45463
45532
45582
45620
45652
45681
45705
45722
45728
45714
45682
45643
45604
45584
45581
45575
45567
45569
45580
45591
45604
45619
45631
45634
45618
45584
45538
45488
45442
45403
45369
45338
45314
45292
45264
45239
45221
45207
45195
45196
45216
45246
45273
45290
45302
45311
45319
45322
45315
45296
45274
45255
45236
45217
45200
45183
45161
45133
45098
45055
45007
44953
44889
44813
44734
44654
44565
44474
44396
44323
44242
44158
44080
44007
43940
43881
43821
43744
43656
43571
43494
43420
43340
43262
43197
43150
43116
43086
43043
42978
42900
42821
42750
42686
42624
42561
42494
42416
42334
42260
42202
42154
42111
42070
42024
41968
41909
41854
41796
41730
41657
41580
41502
41426
41347
41265
41182
41098
41011
40921
40830
40746
40689
40672
40688
40737
40828
40961
41133
41338
41569
41824
42097
42373
42649
42925
43192
43454
43713
43960
44180
44377
44560
44724
44855
44958
45046
45124
45181
45213
45231
45242
45248
45254
45261
45266
45262
45244
45215
45182
45146
45111
45093
45094
45098
45098
45105
45113
45110
45099
45084
45069
45054
45035
45013
44986
44947
44897
44850
44808
44769
44746
44742
44745
44749
44754
44756
44753
44747
44736
44723
44707
44697
44693
44688
44680
44668
44654
44633
44599
44550
44496
44446
44397
44345
44296
44246
44194
44142
44086
44021
43951
43872
43780
43680
43576
43481
43401
43330
43262
43193
43121
43046
42972
42905
42851
42805
42760
42717
42673
42629
42575
42507
42434
42357
42267
42177
42102
42034
41964
41894
41824
41755
41686
41620
41558
41502
41453
41404
41352
41298
41237
41173
41108
41036
40962
40894
40829
40758
40683
40605
40531
40466
40404
40337
40266
40193
40117
40039
39969
39922
39913
39940
39998
40085
40200
40351
40544
40781
41059
41369
41696
42021
42329
42622
42900
43151
43360
43541
43706
43858
43995
44109
44194
44255
44292
44311
44311
44289
44245
44191
44142
44106
44077
44050
44022
43994
43966
43942
43926
43915
43907
43899
43886
43865
43840
43809
43766
43712
43640
43560
43480
43399
43327
43277
43250
43231
43206
43173
43138
43110
43100
43109
43129
43156
43181
43197
43212
43227
43235
43232
43215
43185
43148
43109
43066
43022
42978
42935
42891
42843
42787
42721
42650
42582
42514
42440
42367
42295
42216
42130
42051
41975
41887
41790
41692
41595
41500
41414
41340
41271
41213
41169
41134
41104
41077
41048
41012
40972
40929
40879
40820
40755
40693
40640
40591
40543
40490
40431
40374
40321
40273
40228
40176
40121
40068
40018
39958
39875
39777
39678
39580
39486
39409
39345
39279
39210
39135
39058
38987
38923
38878
38854
38844
38857
38903
38991
39129
39321
39561
39837
40131
40426
40719
41010
41289
41554
41796
42010
42203
42372
42512
42632
42735
42820
42886
42930
42960
42986
43008
43023
43019
42989
42941
42887
42834
42784
42744
42712
42682
42645
42603
42559
42508
42452
42399
42352
42311
42276
42243
42210
42175
42136
42094
42047
41997
41952
41916
41879
41840
41810
41797
41800
41811
41823
41838
41859
41881
41902
41917
41922
41920
41918
41916
41908
41883
41842
41795
41744
41691
41640
41580
41507
41435
41367
41300
41234
41173
41114
41048
40973
40899
40834
40774
40711
40642
40562
40468
40370
40280
40194
40106
40026
39961
39912
39867
39819
39764
39699
39626
39557
39500
39446
39394
39353
39316
39269
39211
39146
39085
39032
38986
38947
38911
38875
38841
38808
38770
38725
38672
38618
38559
38488
38411
38337
38265
38186
38107
38036
37977
37935
37910
37904
37932
37999
38111
38274
38484
38733
39008
39300
39597
39892
40182
40458
40714
40958
41194
41416
41615
41796
41960
42105
42226
42318
42383
42420
42435
42445
42453
42458
42456
42440
42415
42391
42367
42346
42337
42334
42325
42304
42276
42252
42237
42228
42216
42196
42167
42135
42104
42070
42033
41989
41936
41879
41826
41786
41760
41745
41741
41745
41761
41781
41793
41797
41802
41812
41825
41842
41859
41875
41885
41888
41888
41879
41856
41823
41782
41725
41654
41574
41488
41406
41334
41275
41225
41175
41119
41053
40985
40921
40861
40801
40736
40666
40594
40519
40444
40371
40299
40231
40164
40096
40031
39966
39903
39848
39803
39763
39720
39676
39635
39590
39547
39509
39471
39425
39368
39309
39254
39205
39156
39104
39050
38996
38939
38880
38825
38776
38725
38672
38616
38556
38493
38432
38378
38326
38278
38234
38196
38164
38153
38171
38219
38299
38421
38592
38805
39055
39339
39642
39954
40265
40565
40849
41119
41369
41595
41797
41975
42129
42263
42377
42465
42529
42578
42614
42635
42649
42661
42672
42674
42667
42654
42640
42623
42603
42581
42563
42555
42557
42563
42566
42561
42550
42526
42488
42440
42394
42357
42325
42290
42250
42215
42188
42165
42145
42133
42134
42143
42150
42152
42144
42123
42098
42081
42074
42073
42071
42069
42067
42060
42043
42020
41999
41989
41987
41978
41954
41925
41895
41853
41801
41749
41696
41631
41547
41456
41372
41303
41244
41188
41129
41056
40968
40874
40778
40688
40612
40553
40503
40455
40409
40367
40326
40279
40225
40173
40125
40078
40026
39970
39913
39855
39802
39764
39737
39709
39662
39597
39529
39459
39385
39316
39257
39201
39149
39103
39063
39023
38985
38946
38894
38831
38765
38698
38627
38555
38488
38432
38396
38381
38391
38435
38518
38644
38814
39028
39285
39576
39882
40186
40481
40760
41019
41259
41477
41669
41841
41998
42136
42254
42345
42401
42440
42468
42479
42484
42480
42461
42430
42397
42366
42336
42314
42306
42301
42293
42281
42264
42240
42205
42162
42120
42088
42063
42036
42000
41954
41908
41868
41832
41800
41774
41752
41729
41711
41703
41692
41665
41630
41607
41593
41580
41575
41581
41586
41585
41581
41574
41569
41567
41562
41551
41540
41529
41514
41492
41457
41405
41338
41267
41196
41127
41059
40983
40911
40850
40788
40723
40659
40598
40545
40506
40473
40440
40410
40376
40327
40270
40219
40170
40110
40037
39968
39916
39880
39850
39824
39792
39750
39705
39662
39618
39580
39544
39503
39453
39398
39348
39299
39253
39203
39152
39116
39092
39068
39040
39009
38977
38940
38890
38828
38771
38729
38712
38722
38758
38823
38919
39044
39199
39377
39569
39773
39988
40220
40465
40698
40914
41116
41306
41488
41663
41834
41990
42119
42219
42285
42322
42346
42363
42370
42362
42348
42334
42322
42315
42305
42280
42241
42203
42178
42164
42151
42132
42107
42074
42037
41999
41957
41917
41879
41845
41820
41799
41770
41735
41712
41705
41702
41703
41711
41717
41723
41730
41730
41732
41740
41755
41776
41798
41821
41841
41855
41851
41833
41816
41799
41773
41740
41704
41672
41648
41621
41585
41540
41485
41421
41354
41289
41226
41164
41097
41031
40973
40915
40852
40789
40732
40680
40635
40600
40571
40542
40515
40489
40454
40416
40384
40360
40337
40307
40276
40240
40197
40156
40120
40072
40013
39952
39899
39855
39808
39756
39715
39690
39673
39652
39618
39567
39500
39433
39385
39350
39313
39281
39270
39281
39315
39377
39479
39624
39799
39990
40196
40418
40646
40874
41104
41334
41560
41778
41995
42207
42400
42567
42714
42845
42948
43018
43070
43118
43163
43196
43218
43240
43260
43268
43264
43250
43235
43232
43241
43243
43235
43220
43204
43197
43205
43224
43250
43276
43291
43284
43257
43223
43186
43144
43108
43083
43063
43043
43024
43011
43005
43010
43016
43024
43042
43065
43081
43095
43115
43143
43172
43203
43234
43258
43268
43268
43269
43273
43278
43275
43259
43226
43174
43104
43025
42951
42887
42831
42782
42739
42695
42646
42600
42558
42520
42483
42446
42409
42367
42316
42255
42191
42135
42087
42044
41999
41946
41896
41862
41838
41820
41803
41779
41745
41707
41672
41635
41599
41561
41517
41470
41416
41363
41322
41296
41284
41275
41259
41236
41204
41160
41119
41088
41055
41008
40961
40933
40925
40940
40990
41082
41215
41382
41588
41831
42092
42356
42629
42909
43177
43430
43669
43884
44065
44223
44371
44507
44623
44718
44793
44858
44914
44952
44977
45002
45024
45049
45070
45079
45083
45084
45083
45085
45088
45088
45094
45113
45148
45182
45203
45209
45200
45178
45134
45075
45024
44989
44965
44950
44943
44942
44940
44940
44942
44940
44935
44927
44916
44907
44909
44921
44934
44946
44956
44967
44971
44955
44922
44892
44870
44850
44823
44774
44711
44653
44603
44558
44521
44482
44430
44369
44307
44232
44146
44065
44004
43960
43925
43896
43876
43864
43854
43835
43801
43756
43713
43676
43651
43642
43641
43630
43614
43602
43597
43596
43597
43597
43587
43578
43574
43559
43526
43481
43420
43339
43243
43151
43073
42997
42923
42866
42824
42784
42744
42711
42679
42644
42610
42579
42556
42552
42572
42620
42705
42829
42993
43194
43420
43657
43894
44135
44387
44646
44901
45142
45364
45566
45748
45914
46064
46200
46325
46443
46543
46622
46685
46740
46786
46826
46859
46879
46893
46913
46938
46960
46975
46983
46989
46993
47002
47018
47037
47049
47051
47047
47038
47022
47002
46977
46951
46934
46922
46912
46899
46877
46849
46825
46807
46790
46771
46759
46761
46778
46803
46821
46829
46833
46836
46835
46832
46827
46821
46808
46792
46778
46756
46724
46687
46643
46592
46542
46498
46452
46398
46349
46299
46231
46155
46084
46022
45966
45906
45843
45777
45707
45644
45590
45544
45501
45451
45395
45347
45304
45255
45193
45123
45058
45013
44985
44964
44949
44940
44933
44919
44902
44874
44819
44750
44693
44641
44580
44514
44450
44386
44324
44265
44205
44143
44087
44035
43977
43910
43842
43776
43721
43684
43666
43668
43692
43744
43827
43938
44078
44248
44457
44700
44966
45238
45501
45755
45998
46229
46456
46670
46863
47034
47178
47301
47410
47500
47570
47624
47674
47726
47773
47811
47844
47871
47888
47884
47866
47844
47818
47799
47803
47828
47866
47905
47940
47975
48001
47999
47969
47932
47904
47885
47868
47854
47846
47834
47816
47790
47761
47736
47710
47678
47649
47638
47643
47654
47668
47684
47694
47694
47689
47686
47681
47660
47628
47594
47567
47542
47511
47466
47408
47350
47293
47234
47178
47131
47089
47042
46990
46937
46872
46789
46699
46615
46543
46478
46419
46364
46302
46236
46171
46102
46032
45969
45912
45863
45818
45771
45724
45673
45622
45582
45558
45540
45521
45504
45482
45445
45405
45370
45340
45308
45267
45219
45166
45117
45076
45030
44976
44922
44861
44787
44716
44651
44576
44495
44421
44354
44305
44278
44263
44259
44272
44317
44402
44529
44696
44897
45121
45371
45633
45892
46148
46397
46632
46849
47047
47224
47378
47516
47648
47774
47884
47972
48040
48092
48126
48144
48160
48173
48176
48175
48173
48178
48181
48169
48146
48129
48121
48112
48094
48066
48037
48011
47988
47961
47924
47874
47819
47765
47714
47674
47643
47609
47582
47570
47571
47576
47583
47588
47586
47584
47591
47604
47618
47633
47648
47658
47662
47661
47656
47645
47617
47571
47519
47468
47404
47333
47273
47221
47169
47120
47078
47038
46994
46950
46912
46869
46809
46734
46664
46600
46528
46455
46390
46332
46279
46230
46178
46116
46050
45987
45927
45866
45805
45752
45713
45680
45643
45605
45569
45534
45498
45459
45413
45358
45300
45250
45206
45156
45101
45055
45018
44985
44953
44910
44848
44772
44691
44607
44519
44432
44353
44291
44243
44200
44172
44179
44231
44320
44450
44619
44820
45047
45292
45544
45791
46038
46297
46565
46827
47071
47294
47496
47681
47852
48004
48133
48231
48301
48358
48405
48434
48454
48470
48481
48487
48486
48479
48473
48466
48462
48468
48479
48492
48496
48487
48469
48443
48411
48379
48346
48311
48273
48235
48198
48164
48131
48099
48068
48041
48011
47982
47956
47930
47902
47878
47864
47862
47870
47886
47897
47892
47874
47861
47859
47864
47870
47869
47854
47816
47760
47701
47650
47606
47567
47527
47482
47420
47336
47240
47140
47038
46935
46844
46766
46694
46630
46575
46523
46471
46418
46360
46296
46229
46159
46092
46026
45948
45858
45771
45702
45638
45561
45473
45391
45330
45283
45235
45194
45163
45132
45101
45065
45016
44960
44903
44844
44790
44743
44697
44654
44604
44537
44452
44361
44277
44194
44115
44042
43962
43881
43818
43780
43765
43780
43831
43933
44084
44265
44471
44711
44986
45278
45568
45856
46142
46419
46676
46919
47147
47346
47520
47681
47827
47940
48024
48093
48147
48183
48207
48226
48245
