32489
32432
32376
32319
32262
32202
32138
32071
32005
31940
31869
31795
31721
31651
31586
31531
31491
31467
31459
31470
31502
31565
31663
31794
31951
32132
32335
32553
32781
33012
33240
33463
33676
33876
34061
34229
34380
34514
34632
34734
34821
34894
34955
35007
35055
35099
35140
35180
35222
35263
35302
35338
35372
35405
35436
35467
35497
35528
35558
35588
35617
35641
35661
35675
35682
35682
35670
35644
35610
35573
35532
35488
35442
35393
35340
35281
35219
35159
35104
35053
35008
34970
34940
34916
34894
34866
34836
34806
34777
34750
34722
34693
34664
34633
34598
34559
34516
34474
34437
34400
34359
34314
34265
34216
34165
34111
34053
33989
33920
33849
33778
33704
33626
33548
33472
33399
33329
33258
33184
33109
33034
32960
32891
32822
32752
32683
32614
32543
32472
32404
32337
32270
32203
32133
32058
31981
31900
31821
31748
31683
31622
31562
31500
31437
31376
31318
31258
31192
31122
31051
30978
30903
30828
30756
30685
30615
30546
30478
30409
30339
30271
30206
30141
30075
30011
29951
29886
29812
29732
29649
29569
29494
29424
29359
29292
29225
29157
29087
29018
28952
28891
28829
28761
28691
28624
28563
28503
28439
28370
28300
28231
28162
28092
28024
27957
27889
27823
27759
27696
27631
27566
27503
27441
27380
27317
27251
27182
27110
27033
26954
26875
26801
26732
26669
26614
26571
26544
26540
26565
26624
26720
26851
27017
27211
27425
27653
27893
28142
28385
28615
28833
29042
29236
29414
29580
29732
29865
29977
30069
30140
30191
30226
30249
30263
30274
30281
30289
30298
30309
30326
30351
30380
30410
30443
30480
30518
30554
30592
30631
30666
30700
30729
30751
30764
30769
30768
30762
30750
30731
30704
30665
30615
30562
30507
30451
30397
30348
30307
30275
30248
30225
30208
30194
30181
30167
30155
30149
30146
30140
30133
30125
30117
30110
30105
30101
30094
30083
30069
30052
30028
30001
29973
29946
29919
29892
29860
29821
29777
29733
29687
29636
29583
29531
29482
29432
29379
29328
29279
29228
29171
29112
29054
28996
28938
28881
28820
28758
28701
28649
28599
28545
28488
28430
28371
28310
28249
28191
28138
28085
28031
27980
27932
27883
27838
27795
27750
27702
27652
27601
27546
27488
27431
27377
27326
27275
27222
27167
27109
27051
26996
26942
26888
26835
26788
26743
26691
26635
26577
26520
26463
26409
26358
26307
26255
26202
26151
26100
26046
25989
25932
25874
25819
25768
25719
25672
25623
25573
25524
25480
25437
25394
25349
25298
25241
25181
25122
25062
25002
24944
24884
24824
24764
24701
24640
24584
24534
24490
24450
24418
24396
24387
24396
24430
24491
24581
24700
24846
25014
25203
25411
25634
25866
26105
26340
26566
26781
26983
27169
27339
27491
27624
27735
27824
27896
27951
27992
28026
28055
28078
28096
28110
28123
28136
28152
28172
28198
28226
28251
28273
28296
28322
28347
28370
28396
28424
28452
28477
28499
28517
28530
28538
28539
28532
28513
28485
28452
28415
28374
28333
28292
28254
28217
28185
28157
28129
28103
28081
28064
28047
28033
28023
28019
28015
28006
27995
27985
27978
27973
27967
27960
27952
27944
27934
27920
27901
27875
27846
27816
27780
27739
27695
27644
27589
27534
27484
27438
27393
27348
27305
27261
27215
27171
27128
27085
27039
26993
26942
26885
26825
26766
26710
26660
26611
26562
26514
26463
26412
26361
26309
26257
26206
26156
26104
26051
25999
25947
25896
25846
25799
25756
25715
25670
25623
25572
25519
25466
25416
25371
25330
25288
25244
25202
25158
25114
25073
25033
24990
24946
24900
24853
24802
24751
24706
24664
24617
24566
24516
24469
24422
24374
24329
24292
24257
24219
24180
24140
24097
24048
23997
23945
23888
23831
23779
23733
23685
23635
23583
23533
23485
23437
23389
23341
23294
23246
23195
23146
23097
23047
22997
22944
22888
22832
22783
22743
22717
22708
22718
22749
22806
22892
23007
23151
23325
23527
23753
23995
24246
24499
24752
24998
25237
25463
25674
25866
26041
26199
26337
26452
26551
26635
26703
26757
26804
26841
26867
26886
26901
26919
26941
26965
26996
27033
27073
27115
27160
27207
27255
27305
27356
27407
27454
27496
27532
27566
27594
27613
27623
27629
27629
27623
27610
27591
27568
27542
27514
27487
27461
27436
27414
27395
27374
27356
27345
27342
27344
27347
27349
27347
27343
27342
27345
27348
27352
27358
27364
27366
27366
27365
27360
27346
27322
27294
27265
27230
27188
27146
27108
27073
27037
27002
26968
26932
26893
26853
26813
26769
26726
26684
26638
26591
26541
26491
26447
26407
26364
26317
26267
26213
26157
26100
26046
25995
25947
25902
25859
25814
25765
25716
25670
25627
25585
25543
25503
25465
25429
25393
25353
25307
25259
25210
25160
25107
25057
25012
24972
24933
24891
24842
24788
24735
24686
24639
24591
24544
24497
24448
24397
24350
24308
24270
24235
24202
24170
24136
24095
24051
24004
23957
23906
23852
23799
23745
23688
23630
23578
23529
23481
23432
23383
23332
23278
23225
23171
23116
23060
23004
22948
22892
22840
22790
22740
22689
22636
22582
22532
22480
22426
22375
22328
22287
22257
22243
22248
22277
22332
22419
22540
22694
22878
23089
23323
23573
23835
24104
24378
24651
24920
25182
25435
25671
25890
26091
26271
26432
26573
26696
26803
26894
26973
27040
27097
27142
27178
27206
27230
27256
27284
27315
27346
27378
27418
27467
27523
27581
27642
27704
27768
27832
27894
27951
28001
28043
28078
28108
28131
28146
28153
28151
28142
28125
28103
28077
28051
28028
28006
27985
27967
27952
27942
27937
27938
27944
27954
27963
27969
27971
27972
27975
27982
27992
28001
28002
27998
27998
27999
27995
27988
27977
27962
27938
27906
27870
27833
27798
27764
27727
27686
27644
27603
27561
27520
27478
27431
27375
27314
27255
27199
27149
27103
27058
27015
26969
26922
26875
26829
26783
26737
26695
26653
26608
26567
26530
26493
26452
26406
26358
26309
26260
26211
26164
26118
26073
26024
25971
25921
25874
25826
25776
25721
25662
25599
25537
25479
25421
25363
25306
25249
25191
25134
25077
25021
24965
24910
24859
24809
24757
24702
24645
24588
24533
24479
24429
24381
24334
24283
24231
24181
24128
24075
24022
23969
23913
23855
23797
23741
23684
23625
23564
23502
23439
23378
23322
23268
23214
23159
23104
23055
23012
22979
22961
22962
22988
23043
23131
23252
23405
23589
23798
24028
24283
24560
24851
25148
25445
25738
26025
26302
26566
26818
27051
27260
27449
27617
27767
27893
27996
28085
28162
28225
28274
28311
28343
28374
28406
28437
28469
28503
28535
28568
28603
28639
28678
28717
28756
28796
28837
28875
28907
28933
28953
28965
28966
28959
28948
28930
28905
28877
28849
28821
28792
28762
28732
28701
28667
28639
28620
28608
28596
28585
28580
28580
28584
28589
28595
28601
28605
28606
28608
28611
28614
28618
28622
28626
28627
28621
28608
28588
28561
28531
28500
28463
28422
28378
28335
28292
28245
28195
28147
28096
28041
27984
27925
27865
27804
27740
27678
27617
27556
27501
27452
27407
27363
27318
27272
27224
27175
27126
27075
27022
26967
26909
26846
26786
26731
26681
26634
26589
26551
26516
26479
26437
26389
26341
26289
26231
26174
26123
26077
26037
26003
25968
25927
25885
25846
25807
25766
25725
25686
25641
25591
25542
25496
25448
25395
25338
25280
25224
25171
25121
25071
25019
24968
24919
24870
24823
24776
24728
24677
24623
24566
24511
24461
24413
24369
24332
24306
24295
24306
24343
24409
24508
24642
24814
25020
25255
25517
25805
26109
26421
26739
27061
27382
27695
27993
28272
28525
28752
28957
29139
29300
29444
29574
29690
29791
29874
29945
30006
30060
30106
30146
30180
30216
30259
30305
30352
30396
30435
30475
30516
30558
30600
30642
30685
30718
30742
30758
30768
30770
30764
30750
30732
30710
30686
30657
30623
30583
30539
30495
30453
30414
30381
30358
30345
30337
30330
30323
30319
30323
30331
30339
30343
30345
30346
30347
30347
30349
30352
30351
30345
30329
30304
30270
30226
30177
30130
30084
30037
29989
29938
29887
29835
29782
29727
29671
29615
29558
29498
29437
29377
29316
29258
29204
29154
29106
29059
29009
28956
28904
28851
28799
28749
28698
28644
28589
28536
28480
28419
28354
28294
28238
28183
28127
28072
28020
27969
27916
27864
27817
27776
27733
27687
27639
27592
27542
27490
27438
27387
27336
27285
27232
27178
27125
27072
27019
26967
26918
26874
26836
26798
26757
26710
26661
26609
26560
26513
26467
26418
26370
26323
26273
26220
26165
26112
26063
26011
25954
25899
25846
25796
25747
25695
25640
25589
25545
25515
25500
25509
25549
25625
25735
25877
26051
26262
26504
26774
27071
27389
27721
28063
28414
28766
29112
29447
29766
30061
30329
30573
30792
30985
31154
31305
31441
31559
31665
31764
31852
31924
31982
32034
32084
32132
32179
32228
32279
32334
32393
32454
32515
32576
32637
32696
32754
32811
32865
32914
32956
32988
33009
33023
33031
33028
33013
32989
32957
32919
32877
32835
32792
32751
32715
32686
32662
32643
32629
32620
32614
32610
32610
32613
32618
32623
32633
32647
32661
32671
32674
32674
32669
32655
32631
32598
32557
32511
32465
32417
32365
32310
32257
32205
32153
32098
32039
31975
31906
31837
31768
31700
31630
31559
31492
31429
31367
31302
31234
31164
31095
31027
30961
30893
30824
30759
30697
30635
30572
30510
30450
30389
30328
30272
30218
30162
30101
30040
29981
29921
29861
29803
29745
29685
29624
29562
29498
29433
29368
29308
29261
29219
29173
29124
29075
29023
28967
28910
28853
28792
28729
28667
28605
28542
28479
28421
28366
28309
28253
28196
28138
28082
28028
27976
27927
27877
27826
27771
27713
27655
27600
27543
27485
27427
27369
27313
27259
27201
27142
27086
27033
26981
26931
26882
26831
26775
26717
26665
26624
26602
26602
26627
26680
26765
26887
27048
27247
27482
27747
28040
28359
28700
29058
29420
29781
30139
30488
30822
31136
31428
31699
31947
32167
32364
32542
32702
32840
32960
33067
33164
33251
33334
33414
33488
33557
33625
33695
33764
33831
33897
33964
34033
34104
34178
34249
34313
34371
34425
34473
34511
34542
34565
34579
34579
34566
34541
34508
34467
34422
34375
34325
34276
34230
34189
34152
34120
34093
34071
34050
34028
34007
33990
33976
33964
33953
33944
33936
33926
33914
33897
33877
33855
33829
33797
33757
33716
33676
33634
33590
33547
33503
33458
33410
33360
33312
33266
33217
33165
33110
33051
32988
32926
32868
32811
32753
32695
32636
32574
32506
32434
32362
32290
32218
32151
32086
32020
31958
31902
31846
31790
31736
31682
31625
31565
31504
31444
31386
31327
31267
31209
31151
31091
31032
30977
30922
30867
30811
30755
30700
30648
30595
30541
30488
30432
30378
30328
30277
30220
30158
30096
30035
29977
29921
29869
29816
29761
29709
29663
29616
29568
29520
29471
29415
29356
29296
29238
29177
29116
29062
29014
28967
28917
28868
28820
28771
28716
28660
28607
28555
28501
28442
28378
28312
28247
28182
28114
28046
27980
27917
27861
27818
27798
27813
27865
27957
28092
28271
28492
28752
29049
29374
29719
30079
30452
30834
31213
31582
31934
32264
32567
32843
33095
33320
33517
33695
33854
33991
34106
34205
34296
34379
34454
34525
34594
34659
34719
34776
34836
34899
34965
35034
35106
35180
35253
35320
35383
35440
35489
35529
35558
35576
35583
35581
35574
35560
35535
35496
35448
35396
35339
35281
35224
35169
35117
35071
35028
34985
34945
34914
34890
34869
34853
34840
34828
34813
34798
34785
34770
34755
34742
34730
34714
34694
34666
34632
34594
34552
34504
34448
34385
34313
34237
34160
34081
34004
33933
33865
33796
33724
33649
33575
33499
33420
33341
33263
33183
33103
33027
32952
32877
32801
32728
32655
32577
32496
32417
32342
32268
32196
32127
32057
31986
31915
31848
31784
31723
31663
31604
31547
31491
31435
31377
31318
31259
31201
31143
31082
31021
30962
30907
30849
30787
30720
30650
30577
30505
30438
30372
30305
30238
30177
30121
30067
30014
29962
29912
29864
29814
29759
29697
29629
29558
29485
29412
29338
29262
29186
29109
29034
28963
28895
28830
28765
28701
28637
28570
28498
28421
28345
28272
28201
28137
28080
28029
27985
27947
27920
27909
27924
27969
28050
28174
28339
28543
28781
29053
29357
29688
30040
30405
30778
31157
31533
31901
32253
32585
32895
33177
33427
33649
33843
34014
34164
34294
34410
34514
34609
34694
34766
34831
34897
34965
35031
35096
35161
35226
35290
35354
35421
35488
35552
35609
35664
35715
35760
35796
35825
35848
35859
35859
35847
35822
35781
35728
35672
35615
35557
35502
35454
35415
35383
35359
35340
35328
35322
35323
35329
35338
35350
35363
35374
35379
35381
35380
35378
35372
35363
35353
35344
35334
35317
35291
35257
35217
35174
35127
35073
35013
34952
34889
34822
34752
34682
34611
34539
34467
34394
34326
34262
34196
34126
34056
33987
33917
33848
33782
33717
33651
33581
33507
33430
33348
33263
33179
33097
33017
32942
32873
32804
32731
32657
32584
32509
32435
32364
32300
32237
32175
32116
32061
32006
31947
31890
31834
31775
31713
31648
31581
31516
31451
31387
31323
31260
31200
31143
31087
31030
30972
30915
30855
30792
30728
30666
30606
30547
30487
30425
30357
30284
30215
30150
30081
30010
29943
29878
29811
29744
29680
29617
29552
29490
29434
29388
29357
29349
29372
29428
29516
29639
29802
30004
30242
30517
30831
31176
31544
31927
32316
32706
33088
33459
33815
34151
34460
34740
34990
35213
35409
35580
35731
35865
35987
36101
36206
36302
36390
36470
36545
36619
36692
36765
36833
36898
36965
37035
37107
37179
37252
37326
37396
37459
37515
37560
37589
37599
37596
37580
37551
37509
37458
37400
37335
37262
37188
37119
37053
36993
36941
36901
36870
36846
36832
36827
36826
36827
36831
36840
36849
36854
36854
36857
36861
36863
36859
36845
36824
36796
36762
36721
36676
36625
36565
36494
36422
36350
36275
36196
36113
36029
35941
35851
35764
35684
35609
35533
35457
35384
35310
35231
35152
35076
35002
34930
34858
34789
34722
34656
34593
34534
34479
34421
34357
34292
34227
34163
34099
34038
33979
33920
33863
33805
33744
33682
33615
33546
33476
33408
33344
33281
33215
33149
33085
33022
32959
32898
32841
32785
32729
32672
32618
32565
32510
32452
32393
32331
32267
32204
32141
32074
32004
31933
31866
31803
31738
31675
31612
31548
31484
31416
31347
31281
31219
31158
31098
31036
30973
30910
30849
30790
30728
30665
30600
30534
30469
30404
30339
30277
30217
30159
30102
30045
29993
29949
29919
29905
29910
29942
30007
30110
30254
30443
30680
30959
31277
31631
32019
32430
32859
33301
33744
34178
34594
34990
35364
35713
36035
36330
36597
36839
37060
37263
37448
37615
37769
37913
38052
38191
38331
38473
38612
38744
38869
38991
39113
39239
39369
39500
39626
39744
39853
39955
40049
40136
40213
40278
40328
40357
40366
40360
40340
40304
40253
40192
40122
40046
39970
39897
39828
39763
39702
39649
39598
39551
39513
39487
39471
39462
39459
39457
39453
39446
39435
39420
39400
39380
39358
39329
39295
39258
39217
39172
39118
39057
38993
38924
38851
38776
38698
38619
38540
38460
38377
38292
38206
38121
38039
37960
37886
37816
37749
37680
37609
37537
37466
37396
37322
37243
37159
37076
36996
36920
36845
36770
36690
36609
36531
36458
36389
36322
36254
36186
36117
36045
35973
35898
35823
35750
35681
35614
35548
35480
35409
35335
35263
35193
35125
35057
34988
34917
34846
34775
34706
34637
34570
34501
34431
34361
34288
34213
34140
34071
34005
33938
33867
33792
33713
33636
33564
33495
33424
33354
33284
33213
33136
33060
32988
32918
32847
32775
32707
32641
32574
32507
32443
32381
32322
32266
32210
32151
32089
32028
31969
31907
31846
31784
31718
31647
31575
31504
31437
31373
31312
31252
31192
31129
31064
31001
30941
30887
30840
30807
30799
30821
30879
30972
31101
31270
31482
31739
32040
32385
32770
33186
33624
34074
34526
34971
35404
35820
36215
36585
36928
37240
37520
37771
38002
38214
38411
38590
38751
38897
39033
39166
39294
39418
39542
39667
39791
39916
40042
40167
40290
40412
40534
40653
40764
40868
40960
41039
41108
41166
41213
41247
41266
41270
41259
41231
41187
41132
41068
40995
40917
40839
40759
40679
40604
40535
40475
40423
40377
40337
40303
40275
40252
40236
40227
40220
40214
40207
40196
40184
40170
40151
40126
40092
40052
40006
39950
39885
39810
39730
39649
39568
39487
39403
39318
39231
39144
39060
38977
38893
38806
38717
38627
38537
38449
38359
38267
38174
38084
37994
37908
37826
37746
37666
37583
37502
37424
37345
37266
37189
37114
37036
36956
36875
36794
36713
36634
36556
36482
36411
36341
36270
36198
36126
36050
35974
35898
35822
35748
35675
35605
35539
35475
35413
35353
35290
35221
35147
35070
34991
34913
34837
34761
34685
34611
34537
34464
34389
34312
34232
34152
34077
34005
33935
33870
33808
33747
33688
33631
33574
33513
33450
33383
33312
33239
33165
33093
33018
32943
32871
32801
32731
32665
32603
32544
32487
32431
32374
32316
32258
32201
32145
32089
32033
31976
31920
31861
31797
31733
31670
31608
31544
31482
31424
31368
31315
31260
31202
31142
31081
31020
30956
30886
30813
30735
30657
30583
30516
30458
30414
30388
30390
30425
30497
30611
30771
30978
31228
31520
31854
32226
32630
33056
33501
33953
34400
34836
35257
35660
36036
36383
36699
36982
37230
37447
37638
37806
37955
38090
38215
38331
38438
38538
38633
38727
38820
38910
39002
39098
39196
39292
39385
39478
39575
39673
39770
39862
39949
40032
40109
40178
40238
40285
40315
40324
40311
40279
40230
40166
40087
39997
39904
39811
39720
39634
39555
39484
39422
39369
39321
39276
39235
39200
39172
39150
39136
39130
39125
39117
39105
39087
39063
39032
38996
38955
38907
38850
38787
38722
38654
38583
38511
38440
38367
38290
38212
38136
38058
37975
37887
37797
37705
37610
37516
37423
37331
37243
37158
37076
36995
36913
36828
36741
36653
36563
36472
36383
36297
36217
36142
36067
35988
35911
35837
35768
35704
35643
35581
35516
35449
35379
35307
35233
35158
35083
35006
34926
34842
34761
34685
34613
34542
34471
34399
34325
34250
34172
34089
34007
33930
33856
33780
33702
33625
33549
33475
33399
33321
33240
33159
33080
33003
32927
32847
32764
32678
32595
32517
32442
32367
32293
32217
32142
32068
31994
31919
31847
31776
31704
31631
31558
31490
31426
31361
31297
31235
31172
31107
31037
30964
30892
30823
30758
30699
30643
30586
30530
30478
30428
30381
30333
30284
30235
30183
30129
30074
30015
29951
29883
29811
29737
29661
29584
29509
29440
29375
29312
29251
29188
29125
29063
29001
28938
28876
28819
28776
28755
28761
28803
28886
29011
29182
29401
29667
29974
30321
30700
31103
31520
31952
32395
32835
33263
33675
34067
34435
34776
35084
35361
35608
35825
36014
36178
36324
36455
36573
36680
36778
36869
36956
37042
37130
37216
37303
37391
37479
37574
37677
37784
37891
37993
38091
38179
38256
38327
38391
38442
38477
38494
38495
38484
38462
38427
38381
38326
38263
38195
38122
38048
37976
37914
37867
37830
37804
37789
37781
37778
37780
37789
37804
37822
37841
37860
37875
37879
37876
37868
37857
37842
37818
37787
37752
37713
37673
37635
37593
37545
37492
37438
37381
37320
37256
37196
37139
37079
37013
36944
36875
36806
36734
36660
36584
36506
36432
36359
36287
36213
36141
36072
36004
35935
35865
35796
35729
35662
35593
35523
35456
35397
35345
35293
35237
35178
35117
35050
34980
34911
34843
34776
34709
34645
34582
34518
34457
34397
34341
34288
34237
34187
34136
34080
34020
33959
33897
33834
33770
33705
33639
33571
33503
33434
33367
33299
33227
33154
33081
33006
32929
32852
32776
32704
32631
32556
32484
32419
32359
32300
32241
32185
32131
32077
32020
31955
31884
31811
31739
31672
31612
31559
31509
31458
31403
31346
31286
31220
31152
31081
31009
30937
30868
30808
30752
30696
30649
30620
30613
30629
30676
30761
30891
31068
31291
31560
31870
32219
32598
33000
33417
33841
34268
34689
35101
35502
35885
36244
36575
36875
37144
37382
37594
37781
37947
38095
38229
38350
38463
38570
38671
38767
38860
38951
39043
39137
39233
39333
39434
39538
39642
39746
39847
39942
40032
40113
40181
40240
40288
40322
40340
40342
40329
40299
40250
40183
40103
40015
39923
39832
39744
39660
39577
39498
39424
39356
39296
39245
39200
39156
39111
39067
39029
39000
38976
38954
38930
38900
38867
38833
38798
38761
38716
38662
38604
38542
38471
38395
38316
38237
38155
38068
37976
37883
37789
37694
37600
37507
37417
37332
37249
37165
37083
37002
36920
36837
36759
36683
36606
36525
36443
36362
36284
36210
36137
36065
35991
35914
35835
35759
35686
35615
35545
35474
35405
35336
35268
35197
35121
35039
34957
34873
34788
34704
34621
34538
34453
34367
34279
34191
34103
34013
33921
33830
33741
33654
33570
33486
33405
33329
33254
33178
33102
33030
32960
32888
32811
32733
32655
32579
32505
32436
32365
32293
32220
32149
32081
32015
31950
31883
31813
31743
31674
31607
31540
31474
31410
31349
31289
31230
31173
31115
31054
30987
30920
30856
30793
30733
30675
30622
30571
30522
30473
30418
30358
30297
30235
30169
30100
30031
29970
29923
29899
29901
29934
30000
30105
30256
30454
30696
30976
31294
31646
32024
32421
32835
33258
33681
34095
34495
34875
35232
35563
35870
36152
36406
36631
36829
37001
37155
37296
37428
37550
37662
37767
37864
37954
38040
38126
38214
38303
38392
38483
38577
38676
38778
38879
38976
39069
39163
39260
39358
39452
39538
39615
39683
39740
39778
39796
39796
39780
39749
39707
39657
39600
39540
39481
39425
39373
39324
39278
39236
39200
39170
39147
39126
39108
39092
39080
39072
39063
39056
39048
39035
39018
38998
38973
38941
38903
38861
38815
38761
38696
38624
38549
38471
38389
38302
38213
38119
38021
37924
37830
37741
37658
37578
37498
37417
37338
37262
37188
37117
37051
36989
36926
36859
36792
36727
36662
36589
36511
36431
36350
36266
36182
36096
36004
35906
35803
35699
35595
35495
35401
35313
35223
35129
35036
34949
34862
34776
34695
34617
34539
34461
34385
34314
34246
34180
34117
34056
34000
33948
33901
33854
33804
33752
33697
33640
33580
33520
33464
33410
33357
33304
33251
33194
33133
33073
33016
32961
32906
32854
32805
32757
32705
32652
32598
32545
32491
32435
32379
32324
32269
32213
32153
32091
32028
31960
31883
31800
31715
31633
31549
31463
31375
31289
31202
31112
31023
30938
30855
30773
30699
30637
30584
30543
30520
30524
30561
30631
30738
30885
31076
31306
31573
31872
32197
32545
32913
33297
33689
34078
34454
34810
35144
35454
35743
36010
36254
36476
36678
36859
37019
37154
37270
37371
37463
37549
37631
37712
37794
37880
37970
38066
38163
38261
38361
38464
38568
38674
38782
38891
38999
39101
39194
39279
39356
39424
39485
39532
39567
39586
39590
39577
39550
39511
39464
39409
39349
39290
39232
39173
39121
39079
39044
39020
39013
39025
39052
39092
39144
39204
39263
39317
39363
39402
39433
39454
39463
39460
39448
39427
39400
39372
39339
39299
39253
39207
39159
39108
39052
38993
38930
38865
38800
38735
38670
38604
38538
38470
38399
38324
38245
38164
38085
38011
37940
37872
37803
37733
37658
37580
37502
37426
37351
37277
37203
37129
37060
36996
36932
36866
36797
36722
36647
36577
36513
36449
36383
36316
36248
36177
36104
36032
35964
35895
35825
35757
35689
35620
35551
35485
35421
35357
35298
35245
35193
35137
35078
35018
34955
34890
34826
34765
34704
34644
34587
34532
34474
34412
34352
34296
34246
34198
34148
34096
34043
33987
33927
33863
33798
33737
33681
33628
33575
33527
33486
33444
33398
33346
33291
33237
33184
33131
33076
33020
32960
32897
32835
32775
32713
32651
32592
32537
32487
32441
32399
32358
32318
32281
32253
32243
32261
32311
32400
32529
32699
32912
33165
33454
33773
34115
34473
34841
35214
35588
35961
36327
36681
37019
37339
37638
37911
38155
38372
38562
38724
38864
38986
39095
39196
39293
39384
39469
39550
39632
39715
39797
39878
39958
40039
40124
40211
40301
40392
40478
40559
40636
40709
40774
40831
40881
40922
40954
40976
40986
40982
40963
40933
40895
40850
40798
40741
40684
40625
40566
40515
40475
40438
40404
40374
40350
40329
40314
40307
40302
40296
40289
40282
40273
40265
40257
40247
40230
40206
40176
40142
40104
40064
40022
39973
39917
39854
39790
39728
39667
39604
39541
39475
39405
39328
39251
39178
39107
39039
38974
38912
38848
38784
38720
38655
38589
38524
38459
38392
38321
38250
38180
38110
38038
37968
37903
37845
37788
37732
37676
37619
37565
37516
37470
37422
37374
37326
37281
37237
37191
37141
37088
37032
36973
36915
36857
36798
36735
36670
36606
36544
36486
36430
36378
36328
36276
36221
36167
36112
36057
36004
35956
35910
35864
35819
35774
35729
35684
35640
35594
35544
35490
35437
35386
35335
35283
35228
35172
35116
35058
35000
34944
34890
34839
34789
34736
34680
34624
34569
34513
34459
34406
34355
34303
34251
34207
34174
34150
34145
34166
34217
34301
34425
34595
34811
35067
35359
35680
36021
36376
36739
37109
37477
37837
38184
38518
38833
39125
39392
39630
39836
40014
40173
40315
40440
40549
40646
40735
40818
40897
40973
41045
41118
41196
41278
41363
41447
41530
41616
41703
41791
41880
41969
42052
42129
42201
42266
42324
42371
42405
42430
42444
42447
42436
42409
42366
42311
42251
42190
42132
42076
42024
41977
41935
41900
41873
41856
41848
41847
41854
41867
41880
41889
41895
41901
41901
41893
41881
41865
41845
41821
41796
41766
41733
41697
41660
41620
41575
41526
41477
41428
41373
41314
41257
41203
41149
41095
41037
40978
40916
40854
40795
40736
40675
40613
40548
40480
40410
40345
40291
40241
40190
40139
40090
40036
39974
39906
39836
39767
39702
39642
39583
39520
39454
39391
39331
39273
39219
39167
39115
39061
39005
38948
38891
38830
38767
38703
38637
38568
38504
38450
38401
38351
38301
38249
38194
38137
38082
38029
37971
37906
37839
37774
37711
37646
37579
37512
37447
37381
37315
37250
37187
37127
37070
37014
36956
36897
36839
36779
36718
36655
36594
36536
36477
36418
36357
36293
36226
36159
36098
36042
35989
35941
35896
35852
35807
35760
35709
35654
35596
35534
35470
35406
35341
35277
35214
35151
35092
35043
35011
34999
35016
35068
35155
35279
35444
35648
35893
36179
36504
36862
37238
37621
38006
38392
38773
39138
39486
39814
40118
40395
40644
40866
41065
41244
41405
41553
41686
41804
41908
42003
42091
42180
42272
42369
42468
42567
42666
42767
42873
42985
43098
43210
43324
43439
43553
43665
43770
43865
43947
44013
44065
44105
44132
44146
44148
44137
44112
44070
44017
43961
43903
43846
43790
43739
43695
43658
43628
43605
43587
43571
43557
43543
43529
43514
43494
43471
43446
43421
43394
43365
43334
43304
43273
43242
43209
43171
43125
43072
43017
42964
42912
42859
42804
42745
42683
42617
42548
42480
42411
42343
42279
42217
42156
42093
42028
41965
41901
41834
41763
41687
41609
41531
41452
41373
41298
41227
41159
41091
41028
40971
40916
40859
40803
40750
40694
40634
40573
40518
40467
40418
40369
40318
40267
40216
40167
40119
40069
40015
39960
39904
39847
39791
39740
39692
39642
39586
39528
39469
39411
39352
39296
39242
39187
39129
39070
39008
38945
38883
38821
38763
38704
38643
38582
38518
38450
38379
38308
38238
38170
38103
38035
37968
37902
37836
37766
37693
37621
37550
37480
37408
37337
37273
37217
37162
37103
37043
36980
36916
36856
36798
36738
36674
36610
36546
36481
36416
36353
36293
36232
36169
36107
36049
35997
35953
35927
35923
35944
35995
36081
36206
36374
36585
36841
37139
37475
37840
38225
38628
39046
39469
39888
40298
40691
41065
41413
41732
42024
42291
42535
42758
42960
43142
43307
43457
43593
43717
43830
43935
44035
44131
44222
44312
44407
44506
44611
44721
44837
44958
45081
45203
45325
45445
45560
45666
45762
45848
45924
45982
46020
46036
46034
46017
45985
45939
45884
45824
45761
45696
45628
45559
45491
45428
45374
45329
45295
45268
45249
45233
45219
45211
45211
45217
45224
45232
45236
45234
45224
45204
45176
45140
45099
45053
45002
44948
44892
44834
44776
44718
44659
44598
44534
44469
44400
44328
44254
44184
44119
44055
43991
43927
43860
43787
43712
43635
43557
43479
43401
43325
43254
43185
43114
43044
42974
42905
42832
42760
42690
42619
42546
42471
42401
42332
42261
42189
42118
42047
41975
41904
41833
41761
41688
41620
41555
41491
41426
41360
41290
41217
41142
41070
41002
40935
40869
40806
40742
40673
40603
40537
40470
40402
40335
40269
40202
40133
40062
39991
39922
39854
39786
39719
39653
39589
39526
39462
39394
39322
39250
39180
39113
39047
38980
38911
38842
38774
38710
38653
38600
38550
38501
38453
38403
38351
38295
38238
38182
38126
38069
38009
37947
37881
37813
37745
37676
37608
37537
37462
37386
37311
37241
37175
37113
37062
37026
37014
37034
37094
37199
37349
37544
37783
38062
38374
38716
39086
39478
39885
40300
40714
41120
41513
41889
42242
42565
42857
43119
43358
43576
43771
43942
44094
44232
44357
44472
44578
44676
44769
44861
44951
45042
45133
45230
45334
45441
45549
45660
45771
45883
45993
46099
46199
46291
46372
46441
46499
46545
46573
46584
46581
46562
46528
46481
46425
46360
46285
46200
46112
46026
45950
45883
45822
45764
45714
45675
45646
45624
45608
45598
45593
45591
45591
45592
45592
45587
45576
45559
45537
45508
45473
45432
45386
45333
45276
45217
45157
45095
45033
44967
44899
44828
44755
44681
44604
44523
44442
44361
44279
44197
44116
44037
43958
43879
43801
43727
43653
43579
43503
43426
43345
43259
43168
43075
42983
42897
42816
42737
42659
42583
42510
42436
42360
42284
42207
42131
42061
41993
41922
41848
41772
41696
41621
41550
41481
41414
41346
41273
41197
41121
41042
40959
40873
40787
40702
40618
40535
40456
40379
40299
40215
40129
40042
39954
39867
39783
39699
39615
39531
39446
39360
39273
39185
39098
39013
38928
38842
38758
38676
38598
38527
38464
38407
38354
38299
38240
38182
38123
38062
37999
37935
37869
37799
37724
37646
37568
37492
37420
37350
37282
37214
37147
37081
37021
36970
36935
36923
36941
36993
37085
37221
37402
37626
37891
38197
38543
38924
39331
39756
40194
40636
41073
41500
41911
42300
42662
42995
43298
43565
43798
44002
44184
44348
44495
44624
44741
44845
44937
45023
45110
45199
45287
45376
45469
45568
45671
45774
45874
45971
46066
46160
46251
46335
46411
46478
46538
46586
46618
46630
46621
46594
46554
46500
46433
46357
46277
46199
46126
46057
45990
45927
45874
45831
45795
45769
45749
45733
45723
45718
45717
45715
45712
45710
45706
45700
45690
45677
45660
45637
45606
45569
45524
45472
45416
45356
45291
45218
45141
45065
44990
44914
44838
44760
44680
44600
44521
44442
44364
44287
44211
44138
44069
43999
43924
43845
43764
43679
43592
43502
43414
43327
43241
43155
43072
42991
42912
42836
42761
42684
42604
42526
42451
42378
42307
42236
42168
42104
42041
41975
41906
41833
41758
41684
41614
41545
41477
41411
41344
41272
41197
41121
41043
40963
40879
40795
40716
40644
40574
40503
40431
40355
40278
40204
40133
40063
39988
39906
39822
39742
39667
39595
39523
39453
39383
39313
39246
39181
39114
39045
38975
38905
38838
38774
38708
38644
38581
38514
38445
38375
38304
38234
38165
38095
38026
37958
37894
37830
37763
37691
37617
37543
37468
37393
37320
37253
37196
37156
37141
37156
37209
37308
37460
37664
37916
38213
38552
38928
39332
39757
40195
40638
41079
41511
41928
42326
42700
43041
43352
43633
43886
44116
44328
44518
44682
44826
44954
45074
45187
45293
45391
45486
45584
45688
45796
45906
46018
46132
46246
46361
46475
46591
46707
46818
46920
47011
47085
47142
47187
47219
47238
47238
47221
47183
47127
47055
46974
46885
46792
46697
46605
46516
46428
46344
46272
46214
46167
46128
46098
46077
46061
46047
46038
46034
46028
46017
46003
45983
45954
45918
45878
45836
45791
45743
45691
45631
45567
45501
45433
45360
45279
45192
45104
45013
44920
44827
44737
44644
44548
44449
44353
44259
44169
44084
44001
43915
43826
43738
43652
43567
43484
43404
43324
43240
43154
43069
42987
42903
42815
42723
42632
42543
42458
42380
42304
42229
42157
42090
42024
41955
41884
41813
41741
41664
41583
41502
41424
41345
41265
41185
41103
41015
40923
40830
40735
40642
40553
40470
40390
40311
40235
40162
40089
40013
39933
39849
39765
39689
39618
39548
39475
39401
39326
39252
39177
39096
39014
38932
38849
38768
38688
38611
38535
38460
38386
38311
38233
38155
38082
38015
37950
37884
37819
37752
37682
37612
37543
37475
37407
37340
37275
37214
37157
37098
37037
36973
36907
36838
36768
36695
36618
36538
36460
36387
36321
36267
36231
36222
36244
36305
36408
36556
36758
37016
37324
37676
38068
38493
38941
39401
39870
40340
40801
41245
41670
42070
42439
42774
43080
43361
43616
43846
44050
44231
44392
44538
44669
44793
44917
45039
45159
45279
45402
45526
45650
45773
45894
46013
46130
46247
46364
46481
46598
46713
46821
46920
47007
47080
47135
47172
47190
47190
47175
47145
47102
47046
46979
46902
46820
46731
46638
46548
46463
46387
46322
46265
46214
46166
46121
46083
46052
46022
45990
45954
45914
45870
45821
45770
45714
45653
45588
45520
45449
45371
45286
45196
45102
45010
44921
44832
44742
44648
44548
44446
44343
44241
44138
44032
43923
43813
43700
43586
43472
43357
43242
43130
43022
42916
42813
42715
42621
42532
42443
42353
42262
42175
42093
42014
41936
41860
41786
41712
41636
41556
41473
41388
41306
41227
41149
41072
40997
40925
40859
40795
40731
40669
40608
40547
40485
40421
40354
40284
40212
40138
40061
39983
39908
39836
39769
39703
39638
39575
39514
39452
39388
39325
39260
39191
39116
39040
38966
38891
38818
38746
38672
38594
38517
38444
38374
38303
38230
38157
38085
38014
37945
37881
37821
37760
37695
37629
37560
37489
37419
37350
37279
37206
37134
37066
37001
36936
36871
36807
36744
36679
36610
36537
36461
36383
36306
36228
36144
36056
35965
35875
35790
35710
35636
35565
35495
35435
35391
35369
35372
35411
35495
35629
35812
36041
36316
36637
36997
37392
37812
38250
38698
39153
39611
40066
40506
40928
41324
41689
42020
42318
42588
42833
43050
43243
43418
43577
43722
43855
43980
44097
44207
44311
44416
44522
44630
44740
44854
44973
45094
45212
45329
45442
45547
45647
45746
45841
45930
46010
46078
46132
46168
46185
46184
46163
46125
46072
46003
45922
45832
45739
45646
45556
45468
45388
45314
45248
45191
45141
45101
45070
45049
45035
45023
45012
45003
44996
44992
44984
44972
44952
44925
44891
44854
44810
44758
44702
44642
44576
44504
44428
44348
44262
44168
44072
43977
43881
43783
43687
43592
43498
43406
43316
43227
43140
43053
42966
42879
42791
42701
42609
42518
42425
42334
42245
42156
42065
41976
41890
41804
41716
41626
41538
41451
41367
41285
41205
41122
41037
40953
40871
40791
40714
40639
40567
40497
40431
40364
40294
40223
40153
40083
40012
39936
39858
39782
39708
39634
39557
39480
39405
39333
39261
39185
39102
39012
38919
38832
38752
38674
38595
38519
38443
38365
38287
38209
38131
38049
37966
37887
37817
37751
37686
37622
37557
37491
37421
37352
37283
37214
37144
37073
37000
36926
36850
36776
36701
36624
36544
36465
36388
36312
36236
36162
36088
36011
35933
35858
35786
35719
35662
35625
35607
35617
35664
35754
35889
36069
36296
36570
36890
37251
37647
38069
38511
38967
39432
39899
40359
40802
41221
41609
41964
42287
42580
42843
43075
43279
43456
43611
43746
43866
43976
44079
44179
44279
44377
44473
44569
44665
44764
44866
44969
45076
45182
45284
45385
45483
45577
45665
45747
45819
45877
45920
45950
45963
45951
45915
45861
45794
45718
45632
45537
45438
45338
45242
45153
45073
45004
44945
44895
44855
44823
44796
44776
44765
44760
44757
44756
44754
44746
44731
44711
44687
44658
44622
44582
44537
44485
44427
44364
44296
44222
44142
44059
43974
43888
43802
43716
43630
43543
43456
43370
43285
43198
43111
43023
42933
42843
42753
42668
42586
42504
42421
42339
42255
42168
42080
41993
41909
41826
41749
41676
41606
41534
41462
41388
41309
41226
41146
41071
40999
40926
40858
40794
40731
40668
40604
40542
40481
40416
40346
40270
40196
40121
40044
39969
39893
39819
39749
39679
39610
39540
39467
39389
39311
39233
39154
39074
38993
38913
38831
38748
38662
38578
38497
38418
38342
38267
38192
38114
38036
37961
37888
37811
37734
37658
37581
37503
37427
37356
37286
37219
37155
37093
37029
36965
36899
36831
36765
36698
36629
36560
36494
36426
36353
36278
36206
36135
36064
35994
35926
35861
35806
35763
35735
35730
35756
35821
35930
36090
36303
36565
36872
37220
37608
38033
38486
38955
39435
39917
40392
40852
41294
41715
42106
42464
42782
43064
43312
43532
43731
43913
44076
44223
44358
44489
44620
44750
44874
44992
45108
45223
45335
45445
45555
45666
45778
45890
46006
46124
46240
46348
46448
46536
46610
46670
46715
46743
46752
46744
46720
46677
46618
46547
46469
46386
46298
46207
46118
46032
45954
45888
45833
45787
45746
45711
45679
45652
45628
45609
45590
45570
45547
45518
45483
45449
45412
45370
45327
45284
45238
45186
45127
45062
44993
44922
44851
44777
44698
44614
44527
44435
44336
44233
44130
44030
43932
43835
43741
43648
43557
43467
43377
43287
43200
43114
43029
42946
42863
42782
42699
42612
42523
42437
42356
42277
42196
42115
42033
41957
41887
41817
41744
41670
41593
41516
41440
41366
41295
41228
41164
41102
41039
40974
40905
40830
40752
40676
40602
40523
40442
40363
40283
40202
40124
40047
39971
39891
39811
39735
39663
39594
39525
39455
39384
39308
39229
39150
39071
38990
38908
38826
38744
38661
38580
38501
38421
38342
38266
38192
38119
38048
37980
37914
37850
37787
37721
37649
37574
37499
37425
37354
37285
37218
37158
37104
37050
36998
36943
36885
36822
36760
36701
36641
36578
36513
36448
36381
36312
36243
36174
36106
36038
35971
35907
35847
35796
35759
35745
35763
35825
35937
36100
36314
36578
36894
37260
37667
38109
38580
39071
39571
40076
40579
41069
41536
41976
42391
42775
43121
43431
43706
43952
44174
44372
44549
44706
44850
44984
45109
45228
45342
45459
45583
45713
45844
45976
46106
46236
46367
46497
46623
46746
46864
46976
47078
47171
47258
47334
47394
47431
47440
47425
47386
47328
47255
47173
47084
46988
46889
46787
46683
46583
46491
46411
46337
46271
46214
46166
46125
46091
46066
46052
46043
46035
46026
46015
46001
45981
45954
45920
45883
45843
45801
45756
45706
45651
45591
45525
45453
45375
45292
45202
45103
44999
44897
44798
44698
44597
44496
44396
44298
44203
44112
44023
43933
43845
43756
43668
43580
43492
43407
43319
43229
43140
43048
42955
42860
42769
42681
42593
42504
42419
42337
42256
42174
42088
42000
41913
41829
41749
41668
41585
41503
41424
41342
41257
41174
41097
41022
40947
40873
40799
40723
40649
40575
40500
40421
40339
40254
40168
40080
39990
39900
39811
39724
39638
39554
39470
39389
39309
39231
39155
39078
39001
38924
38847
38770
38691
38611
38531
38449
38364
38278
38195
38111
38029
37948
37870
37794
37719
37645
37573
37501
37430
37362
37295
37226
37154
37084
37016
36950
36880
36809
36735
36659
36583
36508
36435
36360
36282
36205
36126
36044
35964
35887
35814
35742
35674
35615
35569
35540
35538
35571
35647
35769
35941
36165
36440
36764
37135
37544
37983
38444
38919
39401
39883
40356
40816
41255
41668
42053
42406
42724
43012
43270
43502
43711
43897
44063
44215
44352
44480
44603
44724
44840
44954
45070
45190
45311
45431
45551
45671
45791
45909
46027
46144
46255
46358
46451
46534
46605
46660
46697
46715
46715
46696
46659
46603
46527
46432
46328
46218
46106
45996
45892
45798
45711
45634
45572
45528
45494
45469
45452
45442
45434
45428
45426
45427
45427
45423
45413
45396
45368
45332
45292
45248
45201
45149
45091
45028
44963
44897
44827
44752
44673
44589
44500
44410
44320
44230
44141
44050
43957
43864
43768
43672
43577
43486
43397
43308
43223
43140
43056
42973
42891
42812
42731
42645
42554
42461
42365
42271
42181
42100
42024
41953
41884
41813
41736
41656
41576
41500
41429
41362
41298
41235
41171
41106
41040
40970
40898
40828
40762
40697
40628
40554
40478
40399
40319
40238
40158
40075
39985
39895
39809
39725
39637
39547
39462
39382
39306
39231
39154
39077
39001
38924
38843
38764
38688
38612
38533
38453
38375
38298
38215
38130
38050
37977
37905
37834
37766
37700
37631
37560
37491
37425
37362
37296
37227
37155
37078
37001
36927
36858
36792
36728
36667
36604
36538
36470
36399
36326
36249
36168
36082
35998
35914
35833
35757
35686
35621
35571
35541
35539
35572
35645
35763
35929
36149
36422
36743
37108
37510
37941
38389
38850
39316
39783
40239
40679
41098
41491
41858
42195
42500
42772
43017
43237
43433
43609
43768
43908
44036
44152
44260
44359
44456
44556
44659
44765
44875
44987
45100
45211
45323
45435
45548
45660
45765
45859
45944
46016
46074
46117
46147
46162
46162
46147
46114
46062
45993
45911
45819
45720
45620
45524
45433
45352
45282
45221
45170
45130
45101
45082
45070
45066
45069
45076
45080
45079
45074
45066
45053
45032
45003
44970
44933
44893
44847
44795
44736
44671
44604
44534
44460
44380
44294
44206
44118
44029
43938
43845
43747
43647
43548
43446
43343
43245
43153
43064
42976
42888
42796
42702
42607
42512
42416
42318
42217
42121
42028
41937
41844
41751
41660
41570
41484
41404
41328
41252
41178
41105
41032
40958
40886
40818
40752
40686
40620
40557
40495
40434
40374
40312
40247
40181
40115
40047
39978
39908
39836
39761
39685
39609
39535
39463
39393
39325
39259
39192
39123
39052
38979
38907
38836
38768
38705
38642
38574
38501
38429
38357
38287
38218
38153
38092
38034
37977
37921
37866
37808
37748
37684
37617
37544
37466
37389
37314
37240
37169
37099
37026
36953
36881
36814
36755
36708
36681
36682
36719
36799
36929
37106
37330
37600
37912
38259
38638
39045
39479
39930
40387
40841
41289
41724
42140
42533
42901
43240
43550
43833
44084
44303
44491
44654
44796
44921
45030
45129
45223
45313
45397
45475
45553
45635
45719
45803
45887
45971
46058
46147
46240
46331
46414
46487
46550
46599
46631
46646
46643
46618
46571
46507
46431
46343
46249
46151
46049
45946
45847
45759
45684
45618
45558
45510
45476
45453
45442
45441
45441
45442
45442
45442
45440
45434
45427
45418
45405
45385
45358
45326
45286
45237
45181
45120
45056
44992
44928
44861
44789
44709
44627
44546
44465
44380
44292
44204
44112
44020
43928
43836
43743
43650
43558
43470
43384
43300
43219
43137
43054
42972
42891
42812
42732
42655
42580
42507
42436
42364
42290
42218
42146
42073
42002
41929
41852
41776
41702
41629
41555
41481
41412
41346
41282
41221
41159
41094
41026
40954
40882
40811
40740
40671
40604
40537
40470
40399
40324
40244
40165
40090
40019
39946
39871
39794
39713
39630
39548
39471
39397
39325
39257
39189
39118
39046
38974
38901
38828
38759
38691
38625
38560
38497
38436
38376
38319
38263
38208
38154
38101
38048
37998
37947
37891
37826
37753
37673
37590
37508
37428
37350
37277
37208
37144
37087
37043
37013
37006
37031
37097
37210
37374
37594
37869
38195
38562
38966
39404
39871
40358
40853
41348
41838
42315
42771
43199
43597
43962
44296
44600
44875
45125
45351
45555
45739
45906
46054
46191
46322
46449
46571
46692
46810
46923
47034
47146
47261
47379
47499
47619
47740
47857
47965
48066
48159
48240
48311
48369
48411
48433
48435
48418
48386
48336
48270
48190
48101
48004
47901
47796
47695
47600
47510
47428
47357
47299
47253
47216
47185
47156
47134
47117
47105
47093
47077
47057
47032
47005
46974
46942
46908
46866
46811
46749
46685
46617
46544
46465
46378
46285
46189
46093
46002
45911
45818
45718
45614
45512
45412
45315
45216
45115
45017
44919
44821
44724
44625
44522
44417
44315
44220
44129
44041
43953
43862
43765
43665
43567
43472
43379
43287
43199
43113
43028
42940
42852
42766
42678
42590
42504
42423
42350
42284
42221
42157
42089
42014
41938
41865
41791
41714
41634
41554
41475
41398
41322
41245
41168
41090
41012
40935
40859
40785
40712
40640
40563
40478
40388
40295
40203
40118
40037
39957
39877
39799
39725
39657
39591
39525
39461
39396
39329
39263
39197
39132
39067
39000
38932
38863
38793
38721
38649
38583
38524
38465
38406
38345
38285
38224
38158
38087
38014
37939
37862
37786
37714
37643
37570
37494
37420
37351
37288
37224
37158
37090
37018
36940
36859
36777
36698
36622
36548
36475
36413
36369
36350
36363
36415
36509
36650
36844
37097
37406
37766
38171
38615
39090
39585
40088
40592
41092
41580
42051
42498
42917
43306
43665
43988
44276
44533
44758
44950
45116
45260
45386
45497
45600
45702
45805
45909
46012
46119
46229
46342
46454
46569
46687
46807
46927
47043
47150
47251
47351
47446
47532
47604
47665
47712
47737
47739
47718
47677
47621
47552
47472
47383
47289
47192
47097
47007
46921
46842
46774
46717
46672
46637
46611
46592
46577
46566
46560
46556
46552
46548
46542
46536
46530
46522
46510
46489
46461
46425
46383
46333
46274
46211
46145
46074
45994
45908
45819
45727
45633
45539
45445
45353
45263
45173
45083
44992
44902
44818
44736
44653
44568
44485
44406
44328
44250
44171
44092
44015
43940
43864
43788
43712
43632
43551
43468
43389
43314
43244
43176
43111
43047
42983
42916
42845
42772
42700
42629
42560
42491
42423
42356
42290
42222
42153
42082
42011
41941
41867
41787
41706
41630
41559
41488
41417
41343
41262
41176
41091
41009
40932
40857
40781
40703
40622
40541
40460
40381
40301
40221
40143
40067
39990
39911
39831
39752
39674
39595
39513
39428
39343
39260
39180
39104
39027
38949
38872
38795
38718
38641
38565
38493
38424
38356
38288
38218
38148
38081
38015
37950
37888
37830
37774
37717
37658
37594
37531
37468
37404
37335
37261
37181
37097
37012
36930
36852
36775
36698
36627
36560
36502
36459
36434
36434
36468
36548
36683
36876
37125
37431
37786
38185
38620
39085
39576
40081
40591
41101
41603
42087
42552
42991
43399
43770
44107
44410
44679
44916
45129
45323
45496
45652
45795
45930
46060
46183
46298
46408
46517
46626
46734
46843
46950
47053
47155
47257
47358
47461
47567
47668
47758
47838
47908
47967
48011
48036
48042
48027
47993
47944
47882
47810
47729
47640
47547
47454
47364
47281
47208
47145
47089
47036
46989
46946
46910
46882
46863
46856
46857
46861
46862
46859
46852
46840
46819
46793
46764
46732
46698
46658
46612
46559
46501
46436
46363
46286
46205
46120
46036
45954
45867
45776
45683
45592
45501
45408
45315
45224
45136
45052
44970
44890
44813
44738
44663
44586
44506
44421
44331
44243
44158
44075
43998
43929
43859
43785
43711
43638
43565
43495
43428
43362
43294
43225
43161
43102
43045
42989
42934
42877
42816
42752
42686
42619
42552
42486
42420
42352
42282
42210
42138
42067
41996
41920
41840
41755
41670
41585
41500
41415
41331
41249
41167
41084
40999
40912
40825
40741
40664
40592
40521
40446
40372
40301
40230
40159
40087
40014
39944
39875
39811
39752
39691
39625
39559
39500
39444
39387
39324
39254
39175
39092
39010
38930
38851
38774
38700
38626
38555
38486
38415
38341
38264
38188
38115
38046
37983
37933
37904
37904
37939
38016
38140
38318
38550
38829
39155
39522
39924
40353
40802
41269
41750
42236
42717
43185
43630
44046
44435
44794
45116
45401
45652
45869
46054
46211
46344
46459
46558
46643
46721
46799
46883
46968
47055
47146
47243
47342
47439
47530
47616
47697
47775
47848
47914
47974
48030
48078
48118
48153
48175
48179
48165
48132
48080
48008
47920
47824
47726
47630
47534
47442
47356
47277
47209
47151
47105
47071
47047
47032
47028
47031
47041
47053
47062
47066
47068
47065
47056
47042
47025
47003
46973
46931
46881
46826
46767
46700
46629
46555
46479
46395
46303
46207
46107
46002
45898
45796
45691
45586
45483
45383
45287
45192
45100
45008
44917
44826
44735
44645
44556
44466
44374
44282
44190
44096
44001
43908
43820
43736
43654
43573
43494
43417
43342
43266
43187
43105
43023
42942
42859
42778
42699
42619
42539
42459
42380
42300
42220
42143
42069
41997
41927
41858
41794
41731
41667
41601
41536
41473
41412
41353
41288
41216
41143
41069
40992
40908
40820
40733
40650
40573
40502
40436
40370
40303
40235
40166
40095
40024
39956
39888
39819
39749
39680
39612
39550
39491
39434
39377
39321
39264
39206
39149
39089
39026
38962
38899
38834
38768
38702
38635
38569
38499
38425
38349
38275
38203
38134
38069
38006
37951
37916
37909
37938
38009
38132
38312
38550
38845
39192
39583
40009
40463
40939
41429
41920
42401
42868
43318
43747
44150
44524
44866
45176
45458
45713
45939
46139
46319
46479
46622
46751
46870
46985
47096
47204
47307
47407
47506
47605
47706
47808
47910
48013
48118
48221
48317
48408
48496
48582
48661
48728
48784
48828
48862
48886
48896
48887
48858
48813
48753
48679
48594
48507
48424
48345
48273
48210
48153
48104
48065
48036
48015
47995
47979
47969
47965
47964
47967
47971
47971
47967
47961
47953
47940
47919
47892
47862
47826
47781
47733
47683
47626
47559
47483
47400
47309
47213
47114
47016
46921
46828
46735
46640
46544
46449
46357
46263
46166
46070
45974
45882
45794
45707
45622
45541
45466
45393
45322
45250
45175
45095
45018
44943
44870
44796
44722
44647
44573
44501
44432
44370
44316
44265
44210
44148
44082
44013
43943
43871
43798
43728
43665
43603
43539
43476
43411
43343
43274
43203
43133
43063
42991
42917
42840
42761
42683
42604
42524
42439
42351
42264
42178
42094
42011
41924
41831
41735
41640
41547
41451
41348
41245
41145
41049
40957
40872
40793
40718
40646
40579
40518
40460
40405
40356
40308
40258
40208
40156
40100
40040
39979
39915
39845
39768
39687
39605
39522
39439
39356
39276
39198
39127
39066
39024
39006
39018
39070
39166
39311
39508
39762
40075
40437
40839
41273
41731
42203
42687
43177
43665
44144
44607
45044
45452
45832
46183
46498
46778
47027
47246
47438
47607
47759
47895
48017
48131
48237
48339
48438
48531
48620
48713
48813
48917
49020
49118
49216
49319
49424
49528
49629
49726
49815
49889
49949
49992
50016
50021
50002
49963
49910
49845
49771
49691
49608
49523
49440
49363
49292
49227
49170
49123
49085
49058
49040
49024
49010
49002
49000
49001
49003
49005
49008
49009
49007
48998
48979
48951
48917
48881
48842
48795
48743
48688
48632
48569
48498
48421
48342
48261
48178
48092
48008
47926
47847
47771
47697
47624
47549
47467
47385
47304
47223
47142
47061
46978
46897
46818
46738
46659
46583
46509
46434
46357
46283
46213
46145
46077
46006
45938
45874
45813
45753
45693
45632
45568
45503
45435
45365
45297
45235
45175
45115
45057
45000
44944
44886
44828
44772
44716
44663
44612
44562
44507
44447
44384
44321
44255
44185
44116
44047
43980
43914
43848
43782
43714
43645
43579
43516
43453
43389
43325
43263
43202
43142
43078
43009
42940
42873
42810
42748
42684
42617
42547
42473
42395
42317
42238
42158
42075
41991
41908
41827
41746
41666
41589
41515
41447
41390
41349
41329
41339
41385
41473
41610
41798
42038
42326
42659
43031
43440
43877
44332
44800
45273
45740
46192
46627
47041
47427
47782
48104
48393
48649
48872
49070
49248
49411
49560
49699
49833
49961
50078
50188
50296
50407
50520
50634
50749
50860
50966
51070
51174
51272
51362
51445
51520
51590
51654
51712
51755
51782
51792
51783
51752
51702
51634
51552
51464
51372
51279
51190
51109
51033
50963
50901
50848
50799
50756
50721
50695
50677
50663
50654
50645
50633
50619
50604
50589
50575
50556
50534
50510
50483
50453
50416
50371
50320
50265
50205
50138
50066
49989
49908
49824
49737
49649
49560
49470
49382
49298
49216
49132
49046
48963
48881
48802
48728
48659
48590
48519
48445
48367
48289
48211
48134
48059
47984
47911
47840
47770
47699
47631
47566
47500
47435
47372
47311
47249
47187
47125
47065
47006
46948
46892
46837
46783
46728
46670
46608
46544
46475
46402
46330
46265
46208
46157
46107
46053
45991
45925
45856
45786
45716
45650
45584
45518
45452
45385
45319
45251
45183
45114
45045
44977
44907
44836
44766
44696
44626
44561
44500
44438
44371
44303
44236
44172
44112
44054
43992
43926
43864
43807
43754
43701
43645
43587
43528
43469
43408
43347
43285
43223
43158
43091
43021
42954
42888
42822
42755
42685
42615
42549
42489
42442
42414
42408
42429
42486
42590
42747
42955
43216
43526
43882
44280
44717
45186
45677
46174
46672
47162
47636
48090
48523
48934
49321
49679
50006
50304
50576
50822
51043
51244
51427
51592
51740
51874
52004
52132
52259
52386
52517
52654
52791
52927
53060
53189
53317
53445
53571
53693
53808
53915
54008
54086
54150
54198
54231
54252
54257
54243
54208
54156
54090
54012
53924
53828
53730
53634
53545
53463
53386
53313
53246
53191
53152
53124
53103
53087
53074
53061
53050
53037
53021
53001
52980
52953
52920
52882
52836
52782
52724
52663
52601
52535
52464
52387
52305
52218
52129
52041
51957
51872
51787
51702
51617
51532
51446
51359
51269
51175
51080
50988
50900
50815
50726
50630
50532
50437
50343
50250
50160
50074
49990
49907
49827
49749
49673
49597
49521
49442
49362
49284
49211
49144
49080
49018
48955
48887
48812
48736
48663
48591
48518
48444
48372
48303
48236
48168
48095
48020
47941
47861
47781
47701
47619
47538
47462
47387
47313
47242
47171
47100
47031
46965
46894
46816
46737
46656
46572
46489
46410
46330
46243
46154
46065
45979
45898
45821
45747
45677
45608
45539
45468
45396
45323
45249
45175
45102
45028
44954
44881
44811
44741
44672
44605
44538
44471
44402
44335
44267
44197
44125
44055
43989
43923
43852
43782
43715
43649
43582
43514
43447
43381
43314
43248
43182
43113
43040
42969
42902
42846
42810
42802
42828
42897
43017
43191
43422
43708
44050
44443
44879
45347
45839
46348
46867
47386
47895
48384
48851
49297
49718
50109
50464
50786
51077
51340
51580
51796
51992
52173
52338
52487
52627
52762
52894
53026
53159
53289
53415
53541
53665
53785
53904
54027
54152
54276
54393
54504
54607
54697
54775
54838
54882
54904
54904
54884
54843
54780
54698
54602
54497
54391
54287
54182
54079
53981
53891
53807
53734
53674
53627
53592
53564
53541
53522
53508
53497
53488
53476
53460
53441
53421
53398
53370
53339
53303
53264
53219
53166
53105
53038
52965
52889
52805
52717
52629
52537
52442
52348
52257
52162
52063
51963
51867
51773
51679
51583
51488
51387
51282
51176
51073
50970
50867
50761
50655
50549
50445
50340
50234
50127
50020
49916
49815
49717
49623
49534
49449
49366
49288
49215
49143
49069
48994
48917
48839
48761
48685
48609
48531
48451
48370
48291
48212
48133
48052
47969
47887
47807
47729
47650
47569
47486
47400
47315
47232
47153
47076
46997
46912
46823
46731
46637
46542
46448
46357
46269
46186
46107
46028
45944
45852
45755
45658
45562
45465
45369
45274
45180
45088
45001
44920
44843
44765
44687
44613
44544
44480
44420
44362
44305
44245
44180
44111
44039
43968
43899
43829
43759
43689
43619
43548
43474
43397
43322
43250
43179
43107
43033
42958
42888
42829
42784
42760
42760
42795
42875
43008
43197
43442
43745
44097
44493
44932
45410
45917
46439
46966
47489
48003
48500
48977
49427
49849
50241
50600
50924
51217
51477
51705
51903
52077
52234
52378
52510
52632
52746
52855
52964
53071
53178
53289
53402
53514
53623
53732
53839
53941
54041
54137
54223
54296
54356
54403
54436
54456
54458
54438
54395
54332
54251
54156
54054
53945
53832
53722
53618
53518
53422
53335
53259
53198
53150
53111
53081
53063
53056
53056
53062
53067
53069
53065
53056
53041
53019
52990
52955
52913
52865
52809
52748
52684
52617
52544
52463
52375
52282
52187
52090
51993
51901
51812
51724
51636
51545
51448
51350
51255
51161
51065
50967
50867
50766
50665
50567
50471
50375
50279
50183
50092
50004
49914
49825
49736
49647
49561
49480
49400
49318
49233
49148
49064
48979
48893
48807
48723
48644
48566
48489
48412
48335
48259
48186
48113
48038
47963
47892
47823
47752
47677
47601
47527
47454
47380
47305
47233
47159
47082
47002
46921
46837
46753
46670
46583
46494
46405
46316
46227
46135
46040
45945
45853
45762
45672
45578
45484
45392
45304
45219
45134
45048
44966
44889
44812
44739
44671
44606
44542
44477
44410
44344
44281
44218
44155
44095
44031
43961
43884
43804
43723
43644
43571
43501
43431
43360
43289
43214
43139
43065
42997
42937
42887
42849
42830
42839
42884
42973
43117
43317
43572
43884
44249
44662
45116
45604
46117
46649
47191
47734
48272
48796
49297
49769
50204
50602
50965
51298
51598
51862
52093
52297
52479
52642
52786
52918
53040
53153
53259
53360
53458
53554
53650
53747
53846
53947
54050
54151
54249
54341
54430
54517
54597
54671
54736
54790
54830
54852
54855
54835
54792
54728
54649
54556
54451
54340
54231
54127
54025
53924
53826
53736
53653
53582
53524
53478
53442
53417
53403
53394
53384
53372
53358
53342
53321
53293
53258
53217
53174
53127
53073
53010
52939
52860
52771
52671
52566
52459
52349
52237
52125
52014
51905
51798
51690
51582
51472
51362
51258
51159
51061
50963
50865
50768
50673
50579
50486
50395
50305
50217
50125
50030
49930
49830
49732
49635
49540
49444
49350
49259
49173
49087
48999
48914
48828
48742
48657
48572
48485
48397
48310
48228
48148
48070
47993
47916
47838
47759
47679
47599
47520
47439
47356
47271
47184
47096
47011
46926
46841
46755
46668
46578
46487
46398
46309
46216
46120
46024
45931
45843
45758
45675
45593
45510
45428
45350
45273
45194
45112
45027
44941
44854
44767
44682
44598
44513
44430
44350
44273
44194
44113
44033
43956
43881
43806
43731
43658
43585
43510
43434
43360
43287
43216
43149
43087
43025
42957
42887
42818
42746
42668
42583
42496
42410
42327
42246
42164
42083
42006
41943
41900
41886
41911
41984
42108
42287
42527
42828
43181
43581
44028
44513
45022
45549
46084
46615
47137
47646
48136
48602
49036
49435
49801
50133
50434
50704
50939
51141
51314
51468
51609
51737
51852
51960
52062
52160
52256
52353
52451
52549
52650
52754
52856
52953
53045
53133
53220
53306
53388
53464
53531
53587
53629
53651
53650
53624
53577
53513
53432
53337
53234
53126
53013
52895
52774
52655
52540
52435
52343
52265
52201
52148
52107
52077
52057
52046
52039
52034
52027
52017
52005
51989
51967
51938
51900
51856
51806
51750
51687
51615
51538
51458
51372
51281
51186
51087
50984
50879
50772
50663
50552
50441
50328
50213
50099
49987
49876
49767
49663
49560
49454
49348
49244
49145
49049
48954
48860
48766
48673
48579
48481
48380
48278
48178
48081
47985
47889
47795
47703
47614
47529
47443
47354
47261
47167
47075
46985
46895
46804
46714
46622
46528
46434
46344
46258
46174
46092
46011
45930
45845
45756
45667
45579
45491
45403
45313
45219
45124
45030
44936
44840
44743
44648
44555
44467
44380
44292
44203
44115
44028
43940
43853
43768
43685
43602
43519
43437
43354
43270
43183
43093
43001
42910
42824
42741
42658
42578
42500
42421
42343
42264
42184
42103
42023
41944
41865
41788
41709
41626
41541
41453
41366
41276
41185
41091
40997
40907
40830
40767
40723
40710
40736
40807
40930
41111
41349
41642
41988
42383
42818
43286
43780
44295
44817
45335
45839
46322
46780
47208
47604
47963
48286
48573
48828
49053
49252
49429
49583
49717
49833
49934
50023
50105
50180
50252
50324
50396
50465
50536
50609
50681
50752
50826
50902
50981
51061
51137
51204
51260
51303
51333
51351
51349
51326
51284
51223
51144
51052
50948
50836
50724
50613
50507
50406
50314
50236
50173
50124
50089
50063
50047
50037
50031
50026
50020
50013
50006
50002
49996
49984
49965
49940
49906
49865
49821
49776
49731
49681
49622
49553
49478
49394
49306
49218
49129
49042
48961
48879
48792
48699
48606
48520
48438
48354
48264
48174
48085
47993
47899
47807
47716
47624
47531
47435
47339
47243
47147
47052
46957
46858
46760
46665
46576
46493
46412
46331
46253
46176
46103
46027
45946
45862
45781
45703
45626
45550
45477
45404
45330
45256
45181
45104
45027
44954
44886
44820
44750
44678
44606
44535
44461
44387
44315
44248
44184
44120
44051
43979
43907
43833
43760
43685
43606
43526
43448
43372
43298
43226
43152
43073
42991
42902
42808
42714
42622
42533
42446
42359
42271
42184
42105
42036
41982
41948
41934
41951
42009
42112
42267
42478
42742
43057
43421
43830
44276
44753
45251
45760
46268
46766
47248
47710
48147
48556
48936
49282
49592
49870
50120
50343
50539
50713
50869
51007
51132
51245
51347
51440
51528
51612
51699
51787
51877
51969
52061
52153
52244
52335
52425
52508
52584
52651
52706
52745
52768
52774
52761
52730
52679
52612
52528
52434
52333
52225
52111
51996
51883
51777
51678
51590
51515
51450
51396
51356
51329
51310
51296
51286
51277
51268
51259
51250
51242
51232
51222
51205
51178
51141
51097
51046
50983
50910
50831
50750
50665
50574
50478
50379
50276
50170
50061
49950
49837
49719
49596
49470
49344
49223
49107
48999
48893
48784
48676
48569
48462
48352
48239
48125
48012
47903
47798
47693
47589
47490
47398
47309
47220
47129
47037
46943
46845
46743
46640
46541
46448
46358
46271
46186
46103
46020
45939
45859
45780
45701
45620
45533
45445
45357
45266
45172
45079
44988
44902
44819
44736
44648
44557
44467
44382
44300
44217
44134
44049
43964
43877
43790
43701
43612
43520
43426
43333
43243
43158
43075
42994
42913
42834
42754
42672
42586
42499
42413
42325
42234
42140
42046
41955
41872
41796
41724
41663
41622
41605
41621
41677
41782
41945
42166
42439
42760
43128
43539
43988
44466
44968
45488
46018
46545
47061
47557
48027
48464
48863
49224
49546
49832
50083
50305
50503
50678
50831
50965
51084
51191
51288
51381
51475
51571
51667
51762
51859
51961
52065
52169
52272
52373
52472
52569
52662
52746
52820
52880
52921
52943
52945
52925
52882
52821
52742
52647
52541
52426
52304
52177
52054
51939
51834
51742
51664
51597
51536
51484
51438
51402
51376
51360
51348
51338
51332
51325
51312
51292
51270
51247
51219
51182
51137
51083
51021
50952
50880
50806
50729
50651
50571
50488
50406
50327
50248
50167
50081
49989
49892
49793
49696
49599
49503
49408
49313
49218
49124
49027
48922
48815
48711
48611
48513
48416
48318
48221
48125
48029
47936
47846
47758
47672
47588
47505
47424
47347
47272
47199
47125
47050
46973
46894
46817
46739
46654
46567
46480
46398
46319
46242
46163
46086
46014
45943
45870
45798
45727
45658
45591
45522
45452
45383
45314
45243
45171
45096
45019
44937
44850
44762
44675
44586
44497
44410
44323
44234
44143
44050
43954
43855
43754
43651
43543
43430
43316
43206
43105
43011
42923
42840
42763
42693
42636
42598
42586
42606
42667
42779
42945
43166
43443
43771
44149
44571
45031
45524
46042
46573
47106
47632
48145
48638
49103
49532
49922
50272
50586
50867
51117
51337
51530
51701
51851
51982
52098
52205
52302
52390
52471
52551
52633
52715
52800
52892
52992
53097
53202
53305
53404
53495
53575
53642
53692
53722
53733
53724
53694
53645
53582
53504
53410
53303
53186
53064
52941
52819
52699
52584
52479
52387
52312
52254
52212
52183
52168
52164
52164
52164
52164
52162
52160
52158
52150
52133
52105
52070
52029
51982
51932
51880
51824
51765
51699
51627
51547
51460
51366
51268
51169
51071
50970
50865
50757
50648
50538
50426
50315
50207
50103
50000
49897
49797
49703
49613
49526
49441
49355
49264
49166
49063
48958
48854
48757
48666
48579
48497
48419
48342
48263
48185
48106
48027
47947
47865
47780
47693
47603
47514
47426
47339
47254
47172
47090
47007
46923
46842
46762
46683
46605
46524
46441
46359
46282
46205
46127
46047
45965
45881
45794
45702
45605
45501
45393
45284
45174
45064
44956
44851
44748
44648
44552
44465
44386
44322
44281
44271
44302
44375
44491
44654
44866
45126
45433
45777
46149
46546
46965
47401
47845
48286
48714
49127
49523
49898
50246
50562
50845
51095
51314
51503
51664
51803
51928
52041
52140
52231
52314
52389
52458
52525
52595
52670
52751
52834
52916
52992
53061
53123
53175
53213
53235
53244
53240
53217
53173
53108
53026
52927
52816
52693
52560
52419
52275
52131
51991
51857
51733
51621
51522
51442
51380
51331
51292
51263
51244
51236
51234
51232
51226
51218
51211
51203
51192
51177
51158
51130
51093
51052
51008
50958
50903
50843
50776
50703
50620
50533
50442
50350
50259
50171
50082
49988
49888
49785
49681
49574
49464
49357
49251
49148
49047
48950
48855
48758
48660
48564
48468
48371
48272
48174
48077
47981
47884
47788
47692
47596
47506
47423
47343
47265
47188
47111
47033
46951
46867
46786
46707
46628
46551
46475
46396
46312
46227
46139
46047
45950
45850
45749
45647
45547
45448
45351
45250
45149
45054
44961
44868
44778
44697
44628
44575
44547
44553
44599
44689
44825
45011
45250
45540
45876
46251
46656
47083
47526
47974
48417
48848
49261
49648
50006
50338
50641
50915
51156
51368
51550
51705
51837
51950
52054
52147
52232
52312
52387
52454
52518
52582
52648
52715
52784
52851
52916
52976
53028
53073
53107
53126
53126
53109
53073
53018
52946
52859
52757
52643
52517
52379
52238
52099
51965
51838
51721
51612
51511
51422
51344
51278
51224
51178
51138
51107
51084
51064
51043
51020
50996
50969
50938
50902
50860
50810
50750
50684
50612
50536
50457
50374
50290
50200
50104
50007
49912
49814
49713
49609
49499
49388
49279
49173
49071
48968
48861
48755
48651
48549
48449
48351
48257
48164
48072
47980
47888
47798
47710
47624
47536
47444
47347
47249
47153
47054
46956
46861
46773
46688
46600
46511
46425
46341
46253
46162
46067
45967
45869
45777
45693
45611
45532
45456
45383
45313
45247
45191
45150
45134
45147
45192
45273
45395
45563
45777
46030
46319
46639
46986
47356
47742
48136
48531
48922
49304
49667
50006
50314
50588
50829
51038
51216
51368
51495
51601
51686
51753
51809
51858
51904
51948
51990
52033
52077
52121
52163
52202
52236
52265
52291
52312
52324
52323
52309
52282
52239
52181
52107
52019
51916
51802
51680
51557
51432
51308
51181
51055
50937
50835
50746
50670
50606
50552
50508
50470
50438
50414
50391
50366
50341
50318
50295
50272
50248
50220
50186
50145
50098
50045
49983
49914
49839
49760
49680
49598
49517
49433
49344
49250
49150
49049
48951
48850
48745
48637
48533
48429
48326
48224
48120
48014
47908
47804
47702
47606
47517
47433
47350
47267
47181
47094
47004
46913
46820
46725
46631
46538
46450
46368
46290
46214
46136
46054
45971
45887
45801
45712
45624
45536
45448
45357
45267
45181
45098
45018
44941
44870
44812
44773
44759
44776
44828
44924
45064
45252
45482
45749
46052
46385
46743
47119
47503
47887
48267
48633
48981
49306
49605
49875
50115
50330
50519
50685
50831
50956
51062
51158
51247
51329
51403
51469
51533
51594
51649
51698
51741
51776
51803
51826
51845
51860
51871
51876
51872
51856
51825
51780
51718
51637
51538
51428
51308
51174
51031
50890
50752
50617
50490
50373
50269
50179
50097
50021
49951
49892
49842
49797
49756
49720
49685
49648
49610
49568
49521
49469
49418
49365
49310
49252
49190
49123
49050
48970
48885
48797
48706
48612
48514
48416
48318
48220
48121
48020
47918
47814
47708
47601
47491
47384
47281
47183
47089
46999
46917
46843
46772
46699
46625
46552
46479
46404
46325
46240
46152
46065
45978
45890
45801
45712
45622
45531
45438
45341
45242
45145
45051
44956
44861
44768
44677
44585
44492
44399
44305
44211
44118
44027
43940
43857
43774
43690
43602
43513
43426
43343
43260
43175
43091
43005
42919
42831
42745
42658
42571
42485
42399
42315
42233
42151
42064
41969
41872
41778
41687
41601
41520
41440
41358
41275
41188
41096
41004
40914
40832
40764
40718
40703
40725
40784
40885
41031
41228
41473
41763
42092
42452
42840
43250
43677
44111
44543
44963
45365
45743
46093
46412
46704
46968
47203
47412
47597
47761
47907
48039
48163
48273
48371
48458
48539
48616
48693
48771
48850
48928
49005
49083
49159
49231
49296
49354
49401
49437
49459
49468
49466
49453
49424
49378
49319
49246
49162
49066
48962
48854
48748
48649
48557
48471
48391
48321
48260
48206
48159
48118
48084
48055
48029
48006
47988
47970
47949
47928
47904
47877
47843
47801
47749
47691
47630
47569
47505
47438
47368
47296
47221
47143
47057
46964
46864
46760
46655
46549
46441
46329
46216
46106
45995
45884
45780
45684
45590
45497
45404
45309
45210
45109
45010
44915
44822
44734
44650
44566
44479
44389
44303
44219
44134
44044
43949
43851
43757
43668
43581
43495
43413
43333
43254
43175
43096
43016
42932
42842
42750
42658
42567
42476
42385
42296
42210
42133
42062
41992
41916
41836
41749
41655
41558
41460
41361
41264
41171
41082
40999
40919
40840
40760
40678
40596
40516
40439
40364
40290
40212
40131
40052
39976
39899
39821
39745
39672
39600
39528
39455
39381
39307
39231
39154
39074
38987
38894
38799
38705
38614
38525
38438
38353
38267
38180
38093
38006
37924
37853
37798
37766
37766
37808
37895
38028
38208
38434
38703
39010
39346
39706
40084
40473
40867
41263
41654
42034
42396
42737
43052
43336
43589
43813
44009
44177
44319
44440
44542
44630
44705
44773
44833
44888
44942
45001
45064
45131
45203
45279
45358
45436
45509
45575
45635
45689
45737
45777
45804
45816
45813
45792
45757
45711
45656
45593
45522
45443
45359
45274
45188
45107
45033
44967
44908
44852
44803
44761
44727
44701
44683
44671
44663
44656
44651
44644
44634
44620
44603
44583
44559
44534
44504
44465
44417
44362
44302
44237
44164
44089
44016
43948
43884
43822
43761
43700
43638
43572
43500
43424
43344
43259
43174
43093
43015
42935
42858
42785
42715
42647
42580
42513
42446
42378
42309
42236
42159
42078
41995
41914
41835
41760
41687
41619
41554
41490
41425
41358
41291
41223
41152
41077
41001
40926
40851
40777
40704
40627
40543
40461
40384
40309
40235
40167
40102
40036
39966
39893
39818
39741
39665
39591
39522
39459
39398
39335
39270
39200
39128
39054
38978
38897
38813
38730
38650
38571
38494
38420
38349
38275
38198
38123
38052
37987
37936
37906
37903
37937
38008
38116
38265
38458
38696
38977
39297
39647
40018
40406
40812
41226
41642
42055
42458
42843
43201
43531
43831
44097
44326
44521
44688
44833
44962
45075
45163
45210
45217
45199
45164
45124
45092
45074
45068
45072
45084
45105
45133
45167
45205
45240
45267
45284
45294
45295
45281
45248
45203
45143
45066
44974
44871
44762
44651
44541
44436
44336
44241
44152
44073
44008
43950
43898
43856
43820
43786
43750
43717
43686
43657
43634
43616
43595
43567
43529
43483
43430
43373
43307
43229
43135
43026
42911
42795
42679
42571
42476
42391
42313
42241
42179
42124
42072
42022
41971
41915
41847
41771
41688
41597
41500
41401
41305
41216
41131
41047
40962
40873
40782
40692
40604
40518
40430
40339
40252
40172
40099
40032
39969
39906
39839
39773
39713
39658
39603
39549
39499
39449
39397
39345
39294
39242
39186
39126
39062
38990
38915
38843
38775
38705
38631
38559
38491
38426
38362
38299
38236
38169
38101
38037
37972
37906
37841
37777
37711
37637
37560
37489
37425
37363
37303
37246
37186
37119
37049
36975
36895
36811
36731
36661
36605
36570
36565
36595
36666
36785
36959
37187
37466
37791
38157
38559
38985
39428
39877
40318
40741
41142
41518
41863
42177
42460
42715
42937
43126
43285
43414
43511
43581
43632
43670
43696
43713
43724
43735
43746
43757
43776
43805
43842
43885
43934
43986
44037
44086
44131
44173
44205
44226
44237
44240
44232
44210
44173
44119
44048
43961
43865
43761
43654
43549
43449
43356
43269
43187
43109
43036
42963
42895
42836
42785
42740
42701
42668
42638
42611
42588
42570
42551
42527
42503
42475
42437
42390
42337
42275
42199
42111
42015
41913
41804
41691
41579
41468
41352
41236
41124
41012
40898
40786
40681
40582
40488
40397
40309
40221
40131
40036
39936
39829
39721
39618
39520
39420
39317
39219
39126
39036
38946
38857
38766
38673
38577
38481
38389
38300
38211
38123
38038
37951
37864
37780
37697
37611
37523
37437
37350
37263
37174
37085
36997
36909
36827
36752
36680
36610
36543
36479
36418
36356
36290
36224
36158
36092
36024
35952
35873
35793
35716
35646
35577
35510
35445
35382
35318
35255
35192
35126
35058
34988
34919
34851
34786
34730
34685
34652
34635
34645
34690
34776
34906
35080
35301
35568
35880
36235
36625
37039
37467
37905
38343
38777
39200
39606
39990
40346
40673
40967
41229
41456
41651
41822
41971
42099
42209
42302
42378
42441
42495
42544
42588
42628
42671
42718
42767
42818
42871
42925
42977
43025
43072
43117
43155
43185
43212
43231
43237
43229
43207
43170
43118
43052
42982
42914
42844
42769
42696
42624
42551
42480
42416
42360
42310
42269
42237
42215
42199
42186
42176
42171
42169
42171
42172
42168
42155
42137
42114
42085
42045
42003
41963
41921
41874
41826
41773
41714
41653
41595
41537
41472
41398
41320
41237
41149
41057
40962
40864
40764
40666
40571
40481
40398
40318
40241
40164
40081
39993
39901
39806
39709
39612
39520
39435
39355
39283
39219
39158
39094
39027
38956
38883
38805
38727
38651
38576
38500
38426
38354
38284
38212
38142
38073
38004
37938
37876
37821
37767
37713
37656
37594
37523
37443
37360
37276
37192
37108
37024
36942
36858
36776
36698
36625
36553
36478
36399
36316
36232
36145
36055
35963
35866
35765
35667
35570
35473
35381
35295
35213
35132
35055
34980
34902
34821
34740
34660
34581
34513
34467
34450
34469
34528
34634
34787
34987
35236
35536
35880
36259
36664
37085
37512
37942
38373
38800
39212
39599
39956
40283
40582
40850
41089
41301
41484
41637
41764
41867
41947
42007
42052
42089
42117
42139
42161
42180
42199
42221
42250
42285
42323
42365
42408
42456
42506
42553
42597
42631
42649
42646
42623
42579
42515
42436
42346
42248
42147
42049
41955
41865
41779
41704
41643
41593
41553
41519
41495
41478
41462
41445
41432
41419
41403
41388
41376
41368
41359
41353
41346
41333
41311
41285
41254
41215
41165
41113
41058
40996
40926
40851
40773
40690
40603
40514
40420
40320
40218
40118
40021
39928
39840
39758
39675
39591
39510
39435
39366
39299
39233
39169
39105
39039
38975
38913
38851
38785
38716
38641
38565
38490
38421
38358
38295
38233
38172
38112
38045
37974
37900
37825
37746
37661
37573
37483
37394
37309
37226
37143
37061
36980
36897
36811
36723
36635
36549
36466
36382
36298
36217
36141
36068
35997
35929
35860
35788
35715
35640
35564
35488
35414
35345
35279
35216
35155
35090
35023
34957
34893
34832
34770
34708
34646
34579
34504
34426
34349
34273
34198
34125
34056
33992
33934
33892
33879
33902
33969
34081
34244
34455
34715
35023
35375
35761
36174
36609
37064
37525
37983
38433
38870
39287
39680
40044
40373
40664
40923
41151
41347
41508
41638
41745
41835
41910
41972
42026
42075
42118
42157
42195
42228
42257
42282
42308
42337
42369
42398
42420
42432
42433
42427
42414
42392
42361
42327
42293
42259
42219
42178
42136
42092
42046
42003
41963
41930
41906
41888
41873
41860
41851
41845
41839
41836
41840
41850
41866
41882
41897
41912
41925
41931
41928
41916
41898
41874
41846
41812
41769
41718
41661
41602
41539
41472
41400
41320
41229
41132
41033
40930
40819
40704
40590
40480
40370
40261
40154
40047
39939
39830
39726
39631
39542
39455
39367
39275
39183
39095
39008
38916
38822
38728
38639
38559
38483
38409
38337
38265
38191
38117
38045
37970
37892
37813
37735
37656
37578
37507
37445
37385
37328
37272
37216
37159
37102
37045
36991
36936
36875
36811
36744
36672
36599
36527
36458
36389
36323
36261
36202
36146
36094
36048
36006
35966
35932
35904
35876
35839
35795
35749
35700
35643
35580
35513
35439
35361
35281
35201
35117
35029
34940
34853
34767
34680
34594
34511
34437
34376
34334
34319
34339
34399
34506
34667
34879
35140
35448
35798
36183
36591
37021
37467
37920
38373
38823
39260
39672
40055
40409
40727
41005
41245
41450
41622
41764
41882
41980
42060
42125
42183
42230
42265
42289
42308
42325
42340
42356
42379
42406
42434
42464
42499
42535
42572
42606
