57342
57469
57564
57629
57681
57721
57736
57729
57714
57693
57658
57621
57593
57568
57536
57505
57482
57459
57432
57406
57384
57353
57306
57252
57205
57158
57102
57046
57000
56962
56927
56899
56883
56868
56847
56826
56808
56778
56735
56696
56660
56616
56566
56530
56512
56497
56482
56479
56494
56513
56530
56549
56568
56583
56603
56633
56660
56669
56668
56663
56648
56617
56576
56534
56487
56431
56374
56325
56273
56210
56147
56088
56026
55957
55893
55836
55776
55708
55643
55581
55521
55470
55433
55407
55380
55349
55325
55302
55269
55228
55195
55169
55142
55110
55079
55047
55004
54959
54924
54892
54849
54794
54738
54676
54605
54538
54480
54424
54365
54312
54270
54230
54190
54162
54149
54140
54127
54114
54102
54084
54058
54042
54034
54020
53997
53973
53946
53904
53849
53792
53736
53668
53597
53539
53491
53446
53411
53407
53446
53523
53640
53800
53993
54209
54457
54741
55043
55345
55651
55963
56259
56524
56769
57005
57219
57399
57557
57687
57767
57802
57826
57847
57848
57824
57790
57751
57694
57627
57569
57526
57484
57437
57398
57368
57333
57295
57265
57237
57202
57166
57138
57099
57035
56962
56897
56832
56755
56676
56615
56562
56509
56466
56438
56413
56380
56354
56343
56338
56331
56334
56351
56371
56391
56422
56464
56495
56509
56518
56520
56501
56463
56422
56379
56316
56234
56153
56070
55967
55859
55771
55700
55627
55559
55508
55466
55420
55377
55344
55309
55259
55200
55143
55083
55016
54955
54902
54844
54776
54710
54658
54608
54557
54522
54506
54489
54461
54440
54429
54411
54379
54347
54316
54277
54238
54216
54204
54185
54157
54129
54099
54056
54006
53962
53924
53885
53851
53834
53820
53793
53766
53752
53743
53728
53716
53709
53693
53666
53641
53621
53592
53550
53512
53486
53461
53435
53427
53447
53491
53566
53691
53859
54056
54271
54510
54770
55039
55313
55599
55890
56161
56414
56655
56872
57041
57171
57280
57363
57406
57413
57399
57366
57307
57231
57156
57082
57004
56933
56878
56824
56764
56708
56661
56611
56554
56507
56475
56442
56402
56362
56326
56282
56230
56183
56142
56094
56043
56003
55967
55923
55869
55827
55799
55773
55755
55762
55790
55819
55844
55874
55903
55918
55934
55961
55988
56001
56008
56014
56012
55996
55977
55967
55953
55926
55899
55879
55853
55814
55777
55745
55698
55631
55561
55493
55418
55336
55264
55203
55136
55067
55010
54956
54884
54803
54738
54687
54637
54596
54576
54567
54559
54553
54554
54552
54534
54508
54487
54465
54435
54402
54374
54341
54293
54238
54186
54128
54063
54011
53974
53934
53896
53875
53873
53872
53871
53874
53876
53867
53849
53829
53807
53770
53715
53656
53593
53515
53429
53349
53279
53218
53171
53151
53154
53177
53228
53318
53436
53571
53737
53942
54179
54436
54712
55012
55318
55617
55914
56205
56465
56688
56884
57055
57189
57282
57352
57407
57434
57434
57425
57412
57378
57325
57272
57220
57158
57094
57048
57017
56987
56956
56932
56912
56888
56866
56851
56833
56794
56741
56690
56637
56571
56501
56442
56388
56331
56279
56237
56194
56140
56095
56066
56043
56021
56015
56024
56035
56044
56058
56079
56097
56117
56149
56187
56216
56238
56268
56297
56307
56302
56297
56288
56253
56193
56132
56072
55999
55921
55853
55792
55733
55681
55642
55606
55561
55522
55496
55464
55420
55381
55354
55325
55294
55268
55249
55220
55183
55144
55098
55042
54982
54928
54881
54829
54771
54722
54674
54615
54552
54504
54475
54457
54447
54450
54455
54451
54444
54442
54436
54414
54383
54355
54324
54282
54233
54185
54130
54064
54005
53960
53916
53866
53827
53802
53776
53749
53732
53725
53715
53699
53696
53721
53769
53842
53952
54091
54248
54427
54641
54885
55140
55407
55690
55970
56227
56460
56680
56884
57062
57223
57373
57498
57584
57649
57710
57750
57761
57754
57738
57709
57660
57607
57565
57525
57485
57459
57449
57441
57433
57436
57440
57428
57399
57370
57341
57300
57249
57198
57147
57085
57010
56935
56863
56785
56703
56634
56576
56521
56474
56440
56416
56395
56387
56404
56433
56457
56484
56517
56543
56554
56566
56591
56610
56616
56622
56630
56626
56612
56602
56592
56571
56537
56503
56472
56436
56398
56367
56334
56290
56244
56207
56169
56111
56037
55963
55885
55796
55710
55646
55591
55527
55459
55402
55352
55301
55264
55247
55240
55231
55224
55220
55205
55176
55148
55127
55106
55083
55062
55039
55003
54957
54916
54877
54830
54777
54731
54694
54653
54608
54567
54525
54472
54414
54373
54350
54329
54313
54314
54322
54321
54311
54299
54282
54262
54242
54224
54198
54156
54107
54068
54034
54005
53995
54006
54033
54082
54170
54298
54459
54648
54875
55135
55411
55699
55994
56290
56572
56838
57094
57328
57528
57700
57853
57979
58063
58108
58134
58140
58116
58071
58026
57981
57927
57877
57836
57804
57776
57757
57750
57744
57728
57716
57715
57710
57690
57671
57664
57653
57631
57608
57587
57547
57487
57423
57362
57297
57225
57163
57113
57063
57015
56979
56954
56928
56903
56890
56878
56855
56832
56823
56822
56818
56817
56827
56843
56851
56859
56877
56890
56890
56881
56869
56851
56824
56797
56774
56743
56703
56664
56627
56581
56520
56461
56407
56340
56261
56187
56127
56070
56016
55978
55960
55943
55921
55912
55909
55895
55872
55851
55830
55800
55758
55714
55660
55595
55525
55461
55403
55348
55301
55267
55236
55194
55154
55125
55100
55073
55052
55045
55037
55019
55002
54991
54976
54956
54941
54926
54903
54868
54833
54798
54755
54712
54680
54655
54621
54581
54550
54519
54470
54408
54351
54300
54246
54190
54141
54093
54039
53991
53963
53949
53951
53986
54063
54172
54311
54488
54704
54946
55210
55502
55812
56114
56404
56690
56973
57239
57479
57698
57893
58050
58169
58262
58335
58381
58401
58407
58399
58366
58319
58276
58228
58166
58102
58043
57984
57917
57856
57817
57788
57755
57727
57707
57686
57653
57614
57574
57527
57471
57419
57374
57325
57271
57220
57175
57129
57088
57063
57050
57040
57036
57042
57051
57055
57060
57076
57098
57110
57115
57130
57150
57155
57153
57155
57154
57141
57119
57101
57076
57027
56964
56906
56854
56797
56737
56684
56636
56585
56542
56507
56460
56399
56342
56292
56234
56172
56120
56084
56051
56016
55992
55982
55964
55933
55901
55874
55843
55809
55788
55776
55751
55716
55689
55664
55628
55587
55549
55509
55462
55409
55355
55302
55247
55191
55142
55093
55040
54992
54955
54923
54889
54863
54847
54829
54805
54792
54792
54790
54779
54768
54757
54733
54696
54657
54619
54574
54521
54467
54414
54354
54290
54231
54177
54123
54077
54059
54074
54111
54179
54295
54452
54640
54865
55125
55406
55690
55978
56271
56556
56824
57083
57336
57560
57748
57914
58061
58171
58242
58288
58316
58316
58287
58247
58203
58145
58076
58011
57953
57884
57813
57758
57708
57651
57603
57579
57570
57560
57550
57544
57530
57496
57448
57396
57336
57259
57179
57112
57048
56978
56919
56881
56848
56815
56796
56795
56800
56809
56834
56872
56905
56928
56949
56970
56979
56970
56959
56948
56930
56905
56883
56859
56822
56779
56743
56712
56674
56631
56598
56569
56529
56489
56459
56429
56391
56353
56321
56284
56234
56181
56132
56079
56023
55973
55932
55891
55841
55792
55745
55694
55642
55599
55554
55499
55443
55390
55336
55281
55235
55204
55182
55152
55113
55079
55050
55016
54984
54970
54968
54961
54953
54955
54960
54951
54929
54905
54873
54826
54773
54725
54676
54619
54563
54519
54480
54440
54407
54381
54358
54347
54368
54427
54516
54632
54784
54968
55168
55384
55628
55893
56161
56433
56716
56995
57250
57482
57700
57895
58056
58189
58303
58392
58445
58473
58489
58488
58460
58416
58371
58319
58249
58172
58098
58023
57941
57862
57797
57731
57655
57580
57509
57433
57351
57278
57213
57140
57066
57008
56966
56928
56889
56858
56838
56819
56806
56815
56836
56848
56853
56863
56875
56880
56887
56908
56932
56944
56953
56971
56984
56977
56963
56953
56941
56917
56887
56859
56826
56784
56748
56725
56702
56667
56625
56590
56557
56518
56481
56447
56402
56342
56279
56216
56144
56062
55989
55922
55851
55780
55724
55679
55637
55598
55572
55552
55522
55492
55475
55462
55443
55423
55410
55393
55360
55322
55294
55265
55223
55181
55143
55098
55037
54983
54947
54915
54880
54848
54819
54789
54759
54737
54724
54704
54672
54640
54613
54585
54564
54569
54608
54680
54788
54931
55104
55293
55497
55728
55983
56249
56528
56821
57111
57381
57634
57875
58087
58255
58386
58491
58563
58598
58609
58608
58591
58557
58516
58472
58417
58345
58268
58192
58110
58026
57963
57926
57895
57859
57827
57794
57743
57682
57624
57570
57514
57459
57413
57368
57318
57271
57230
57183
57123
57066
57025
56992
56962
56939
56931
56924
56912
56906
56918
56935
56947
56968
56998
57021
57031
57045
57071
57093
57102
57108
57113
57096
57058
57016
56968
56903
56831
56767
56713
56657
56597
56543
56489
56427
56358
56295
56241
56185
56131
56091
56058
56020
55983
55952
55924
55890
55858
55835
55810
55776
55738
55704
55671
55633
55595
55562
55520
55465
55414
55371
55324
55271
55221
55171
55111
55047
54992
54950
54911
54870
54836
54809
54776
54745
54730
54722
54708
54692
54678
54655
54613
54559
54506
54457
54417
54400
54423
54484
54574
54703
54879
55088
55317
55567
55840
56131
56432
56742
57052
57341
57604
57846
58059
58225
58343
58432
58499
58538
58554
58565
58574
58567
58549
58531
58511
58477
58432
58392
58352
58300
58242
58191
58142
58086
58029
57978
57925
57863
57806
57758
57704
57640
57578
57523
57463
57394
57325
57260
57189
57118
57067
57038
57020
57009
57008
57016
57022
57031
57050
57077
57104
57136
57183
57236
57272
57291
57306
57315
57305
57282
57263
57244
57216
57180
57147
57112
57066
57014
56965
56912
56851
56796
56751
56709
56663
56617
56572
56518
56452
56389
56332
56270
56203
56145
56100
56056
56009
55970
55937
55892
55835
55785
55739
55683
55618
55559
55503
55440
55371
55310
55256
55199
55141
55094
55060
55028
55006
55001
55001
54993
54987
54990
54990
54978
54964
54954
54936
54905
54871
54840
54801
54760
54727
54697
54659
54612
54570
54538
54521
54528
54580
54677
54808
54972
55180
55423
55676
55935
56208
56488
56756
57008
57257
57500
57724
57932
58132
58307
58446
58557
58651
58721
58762
58777
58770
58733
58668
58589
58509
58422
58326
58235
58154
58079
58005
57939
57890
57859
57846
57851
57866
57877
57880
57881
57870
57833
57779
57727
57675
57614
57550
57492
57438
57379
57320
57277
57247
57216
57192
57183
57183
57183
57196
57227
57262
57289
57315
57345
57370
57388
57407
57426
57429
57418
57408
57398
57376
57337
57297
57256
57198
57123
57051
56989
56924
56857
56799
56745
56683
56614
56550
56486
56410
56330
56265
56209
56153
56100
56060
56034
56015
56000
55990
55976
55948
55913
55878
55842
55804
55771
55743
55707
55655
55603
55555
55501
55441
55386
55341
55297
55249
55209
55178
55144
55106
55077
55055
55026
54986
54949
54923
54895
54867
54849
54833
54805
54777
54756
54726
54677
54624
54579
54534
54489
54458
54451
54465
54501
54577
54703
54868
55058
55279
55540
55824
56120
56434
56760
57074
57369
57646
57904
58130
58322
58488
58628
58735
58814
58883
58944
58980
58986
58973
58946
58902
58846
58794
58747
58698
58654
58622
58598
58569
58544
58531
58518
58487
58448
58413
58374
58324
58265
58205
58133
58045
57960
57886
57813
57737
57672
57624
57581
57544
57528
57529
57531
57534
57549
57578
57605
57626
57649
57675
57691
57702
57712
57715
57700
57671
57644
57617
57581
57543
57510
57474
57434
57400
57378
57354
57317
57277
57241
57197
57143
57093
57052
57004
56944
56882
56827
56766
56695
56624
56560
56499
56446
56405
56367
56322
56276
56239
56208
56172
56138
56122
56114
56100
56084
56074
56062
56034
55991
55945
55895
55828
55752
55678
55610
55548
55500
55472
55453
55436
55427
55429
55428
55416
55398
55374
55337
55287
55240
55194
55136
55063
54990
54922
54849
54776
54724
54697
54682
54679
54703
54757
54834
54939
55084
55264
55463
55680
55924
56188
56454
56716
56980
57243
57495
57738
57979
58207
58407
58582
58740
58875
58982
59063
59125
59162
59173
59170
59154
59115
59053
58986
58920
58844
58764
58696
58638
58582
58531
58492
58456
58415
58380
58362
58352
58334
58305
58274
58239
58186
58118
58052
57987
57913
57839
57778
57724
57668
57621
57592
57576
57565
57565
57578
57595
57610
57630
57658
57684
57706
57734
57764
57778
57769
57751
57730
57697
57649
57603
57561
57517
57471
57429
57385
57330
57270
57213
57162
57114
57073
57045
57020
56986
56949
56916
56883
56838
56783
56730
56677
56616
56550
56490
56429
56360
56294
56237
56178
56112
56051
56002
55959
55919
55889
55871
55849
55816
55785
55758
55730
55697
55667
55636
55595
55553
55524
55501
55469
55430
55396
55363
55322
55281
55249
55222
55186
55151
55130
55109
55074
55034
55005
54980
54957
54949
54969
55019
55099
55219
55383
55583
55808
56058
56327
56599
56873
57158
57442
57703
57938
58160
58366
58546
58699
58839
58961
59050
59111
59163
59199
59204
59187
59163
59128
59070
59002
58941
58889
58836
58783
58735
58683
58621
58558
58504
58451
58388
58322
58255
58180
58098
58024
57963
57896
57816
57745
57699
57664
57632
57610
57596
57577
57555
57545
57547
57548
57553
57566
57579
57583
57585
57589
57588
57570
57541
57515
57501
57489
57480
57482
57484
57476
57468
57462
57448
57422
57390
57361
57325
57281
57238
57196
57142
57072
56997
56922
56842
56754
56669
56593
56521
56455
56404
56368
56336
56306
56282
56262
56237
56210
56187
56161
56125
56087
56056
56026
55989
55944
55901
55859
55807
55753
55711
55673
55635
55604
55582
55562
55535
55506
55482
55454
55420
55389
55362
55326
55277
55227
55182
55128
55068
55022
54996
54979
54983
55030
55122
55249
55409
55609
55841
56090
56353
56635
56930
57224
57514
57800
58069
58311
58527
58722
58885
59006
59093
59159
59200
59207
59184
59143
59079
58996
58911
58827
58735
58640
58560
58492
58426
58364
58322
58294
58262
58227
58195
58162
58116
58059
58001
57942
57878
57812
57752
57691
57615
57537
57476
57425
57371
57326
57305
57301
57303
57319
57352
57393
57428
57464
57508
57550
57583
57609
57640
57666
57682
57696
57705
57694
57661
57618
57570
57506
57428
57348
57272
57197
57127
57071
57030
56988
56948
56922
56903
56873
56836
56806
56776
56736
56693
56653
56609
56553
56494
56441
56385
56322
56256
56195
56132
56060
55992
55942
55898
55850
55807
55776
55745
55704
55665
55636
55607
55572
55539
55511
55476
55435
55400
55373
55346
55315
55280
55242
55198
55154
55121
55096
55070
55048
55033
55013
54973
54926
54888
54853
54812
54770
54739
54716
54699
54710
54767
54863
54988
55153
55364
55608
55872
56162
56473
56786
57091
57392
57687
57956
58187
58394
58587
58750
58877
58983
59068
59122
59143
59144
59130
59090
59031
58969
58907
58834
58755
58687
58631
58572
58514
58467
58424
58373
58324
58289
58263
58232
58199
58167
58126
58071
58015
57967
57920
57872
57833
57801
57766
57729
57703
57686
57667
57646
57635
57637
57639
57640
57648
57661
57669
57674
57683
57689
57680
57662
57648
57634
57609
57577
57551
57529
57494
57451
57416
57381
57333
57283
57241
57193
57136
57082
57039
56996
56944
56891
56848
56808
56760
56709
56661
56611
56555
56505
56453
56390
56324
56267
56218
56169
56117
56072
56032
55983
55927
55878
55839
55801
55769
55751
55740
55724
55708
55698
55681
55647
55613
55588
55562
55527
55488
55450
55414
55375
55338
55306
55270
55228
55194
55166
55131
55087
55048
55020
54981
54926
54873
54826
54777
54730
54696
54673
54649
54636
54653
54703
54778
54886
55036
55222
55431
55663
55924
56205
56489
56775
57071
57375
57671
57954
58223
58465
58670
58845
58997
59122
59216
59285
59335
59360
59361
59352
59334
59291
59218
59133
59044
58940
58825
58721
58633
58553
58481
58423
58381
58346
58319
58304
58289
58259
58222
58190
58151
58094
58032
57981
57936
57889
57839
57792
57743
57693
57657
57638
57622
57602
57593
57606
57629
57657
57697
57751
57798
57831
57857
57887
57912
57927
57936
57938
57923
57893
57863
57833
57790
57735
57684
57637
57579
57517
57462
57407
57341
57268
57198
57129
57049
56969
56906
56851
56795
56742
56699
56652
56592
56534
56489
56444
56386
56330
56288
56244
56193
56149
56116
56078
56034
55993
55956
55915
55868
55826
55794
55762
55725
55694
55670
55637
55596
55563
55538
55503
55461
55428
55403
55372
55341
55316
55288
55254
55215
55179
55139
55088
55039
55000
54960
54911
54865
54827
54784
54739
54709
54695
54695
54715
54777
54887
55033
55216
55441
55704
55987
56284
56600
56931
57255
57564
57867
58159
58416
58635
58831
59003
59141
59245
59327
59380
59391
59366
59327
59272
59196
59112
59040
58977
58914
58852
58797
58741
58680
58631
58599
58569
58533
58505
58490
58468
58435
58406
58385
58354
58307
58262
58221
58168
58107
58054
58005
57952
57897
57852
57821
57791
57768
57762
57767
57774
57788
57817
57848
57868
57882
57903
57919
57917
57901
57885
57867
57838
57801
57766
57729
57684
57640
57604
57562
57503
57442
57389
57332
57270
57211
57149
57076
56999
56925
56850
56767
56681
56608
56545
56477
56411
56359
56319
56275
56228
56191
56159
56124
56091
56064
56034
55994
55951
55917
55884
55841
55798
55763
55731
55696
55668
55649
55628
55606
55594
55592
55583
55564
55543
55522
55488
55443
55398
55350
55288
55214
55149
55099
55053
55008
54974
54948
54911
54866
54831
54815
54809
54817
54855
54924
55020
55153
55330
55545
55787
56058
56358
56666
56967
57268
57565
57843
58090
58314
58526
58713
58868
59001
59115
59196
59245
59277
59296
59295
59279
59254
59215
59155
59078
59000
58921
58831
58738
58659
58587
58514
58448
58397
58348
58291
58228
58166
58099
58019
57933
57854
57782
57714
57659
57626
57599
57564
57529
57503
57480
57456
57442
57439
57432
57422
57428
57452
57474
57486
57506
57536
57558
57569
57578
57582
57571
57546
57522
57498
57464
57421
57382
57344
57298
57250
57215
57189
57161
57134
57112
57087
57048
56997
56940
56874
56801
56731
56668
56601
56525
56451
56383
56308
56224
56148
56086
56017
55939
55872
55824
55782
55741
55710
55687
55659
55626
55603
55584
55559
55532
55508
55477
55433
55383
55347
55322
55291
55256
55225
55196
55160
55127
55104
55080
55047
55006
54965
54919
54865
54811
54765
54725
54692
54687
54721
54789
54893
55052
55260
55492
55745
56031
56341
56651
56957
57267
57569
57845
58097
58335
58552
58733
58880
59003
59096
59150
59176
59189
59179
59137
59077
59019
58962
58898
58831
58769
58708
58640
58574
58523
58482
58441
58404
58373
58335
58285
58232
58180
58119
58047
57980
57917
57847
57775
57720
57678
57634
57593
57568
57556
57543
57531
57533
57546
57557
57566
57578
57586
57576
57558
57552
57552
57541
57526
57521
57525
57533
57546
57559
57563
57553
57537
57524
57505
57475
57440
57410
57377
57333
57283
57226
57151
57060
56967
56874
56770
56660
56565
56488
56419
56360
56319
56283
56238
56189
56150
56118
56083
56053
56041
56031
56008
55982
55966
55954
55936
55915
55896
55870
55827
55783
55752
55720
55675
55624
55572
55514
55445
55379
55321
55264
55204
55155
55117
55077
55034
55002
54985
54972
54954
54934
54912
54877
54835
54805
54799
54816
54864
54955
55086
55251
55451
55693
55963
56245
56529
56814
57097
57372
57639
57897
58140
58360
58562
58741
58892
59014
59119
59209
59276
59322
59353
59371
59365
59331
59282
59228
59162
59082
59004
58938
58873
58805
58750
58709
58670
58630
58596
58561
58509
58448
58388
58332
58270
58205
58145
58090
58030
57975
57937
57908
57876
57845
57825
57814
57806
57809
57826
57844
57861
57889
57926
57950
57957
57963
57972
57966
57943
57925
57913
57889
57851
57818
57794
57760
57717
57683
57656
57621
57577
57535
57499
57459
57420
57388
57352
57297
57232
57175
57115
57039
56962
56899
56842
56778
56713
56655
56595
56531
56477
56432
56379
56311
56247
56193
56136
56079
56038
56015
55991
55968
55954
55945
55924
55895
55876
55866
55849
55824
55805
55790
55764
55734
55713
55693
55659
55622
55596
55568
55526
55480
55437
55392
55337
55282
55238
55191
55132
55075
55026
54975
54921
54886
54883
54905
54958
55064
55228
55433
55670
55945
56254
56571
56888
57207
57524
57822
58100
58369
58626
58855
59052
59224
59365
59461
59517
59551
59562
59545
59515
59490
59467
59440
59417
59405
59391
59364
59329
59295
59254
59200
59143
59096
59048
58993
58939
58886
58821
58743
58669
58601
58525
58444
58369
58300
58234
58175
58135
58115
58097
58080
58073
58073
58070
58064
58068
58077
58073
58059
58049
58046
58043
58051
58080
58114
58137
58157
58184
58204
58202
58186
58169
58142
58101
58054
58003
57933
57843
57754
57679
57606
57533
57475
57432
57391
57345
57307
57277
57234
57180
57134
57097
57054
57003
56956
56912
56857
56791
56728
56665
56587
56503
56437
56391
56346
56307
56288
56271
56239
56203
56175
56150
56116
56080
56051
56029
56008
55993
55987
55973
55946
55918
55889
55848
55793
55740
55694
55645
55587
55538
55502
55461
55415
55375
55337
55287
55233
55193
55161
55123
55088
55071
55064
55052
55047
55072
55127
55204
55321
55487
55687
55909
56158
56440
56735
57029
57325
57622
57903
58159
58403
58633
58833
59000
59148
59281
59389
59473
59544
59601
59630
59628
59612
59585
59540
59477
59414
59353
59281
59208
59151
59101
59040
58977
58927
58878
58816
58753
58701
58648
58583
58522
58476
58436
58393
58357
58333
58306
58269
58233
58205
58174
58136
58106
58089
58068
58041
58025
58021
58017
58013
58024
58049
58068
58072
58075
58076
58063
58041
58029
58023
58007
57979
57957
57937
57909
57884
57870
57851
57815
57773
57736
57694
57636
57569
57508
57448
57382
57321
57275
57224
57160
57091
57024
56953
56873
56795
56719
56637
56558
56498
56456
56414
56372
56343
56326
56304
56276
56255
56242
56219
56190
56169
56150
56123
56098
56088
56083
56061
56027
55992
55953
55905
55852
55805
55757
55700
55643
55595
55545
55488
55436
55394
55348
55294
55249
55216
55181
55146
55125
55120
55115
55108
55116
55146
55196
55275
55401
55573
55775
56004
56269
56557
56853
57159
57479
57793
58076
58329
58565
58775
58945
59087
59214
59320
59395
59454
59506
59538
59545
59545
59551
59545
59519
59488
59459
59421
59368
59315
59269
59218
59161
59116
59081
59047
59010
58977
58939
58886
58818
58748
58675
58588
58501
58442
58408
58377
58349
58335
58326
58308
58295
58296
58302
58298
58292
58297
58304
58302
58302
58312
58323
58327
58330
58335
58330
58311
58292
58277
58254
58220
58190
58167
58144
58125
58114
58101
58074
58034
57996
57962
57918
57867
57826
57791
57748
57700
57662
57630
57587
57533
57482
57428
57355
57269
57187
57110
57030
56956
56901
56854
56800
56759
56740
56722
56693
56667
56650
56629
56598
56575
56563
56544
56519
56505
56505
56498
56479
56466
56455
56427
56384
56346
56319
56286
56249
56224
56207
56183
56153
56127
56096
56043
55980
55922
55865
55802
55734
55670
55606
55536
55474
55435
55419
55422
55465
55559
55692
55861
56074
56331
56615
56913
57227
57553
57866
58162
58453
58734
58984
59198
59394
59572
59717
59833
59934
60013
60054
60061
60049
60018
59963
59893
59829
59773
59715
59662
59624
59591
59550
59515
59499
59486
59466
59447
59437
59419
59384
59346
59314
59278
59232
59186
59148
59103
59045
58985
58932
58876
58813
58761
58726
58692
58659
58644
58646
58650
58654
58666
58684
58691
58687
58684
58679
58666
58653
58655
58668
58673
58676
58689
58700
58693
58674
58657
58636
58602
58571
58554
58531
58489
58441
58394
58336
58273
58220
58171
58116
58056
58003
57954
57895
57830
57769
57716
57661
57603
57552
57504
57443
57369
57307
57260
57207
57150
57103
57065
57025
56983
56951
56929
56909
56892
56886
56878
56857
56835
56825
56813
56788
56764
56750
56728
56693
56666
56651
56629
56590
56548
56509
56464
56412
56366
56323
56273
56217
56170
56128
56076
56022
55979
55940
55890
55835
55794
55774
55770
55794
55865
55983
56137
56327
56565
56836
57122
57423
57741
58056
58350
58634
58917
59182
59410
59610
59790
59942
60066
60175
60274
60345
60389
60418
60437
60433
60407
60378
60346
60304
60251
60203
60164
60125
60086
60057
60032
59999
59960
59933
59907
59866
59813
59760
59705
59637
59561
59489
59417
59338
59266
59210
59159
59100
59045
59006
58976
58945
58924
58925
58931
58941
58967
59008
59047
59081
59117
59150
59171
59180
59187
59191
59180
59157
59140
59133
59123
59109
59099
59086
59057
59019
58981
58936
58874
58800
58724
58646
58562
58481
58413
58354
58296
58239
58189
58135
58074
58022
57983
57939
57880
57819
57760
57694
57624
57570
57531
57492
57450
57418
57394
57364
57332
57312
57298
57272
57242
57222
57207
57179
57139
57106
57076
57034
56986
56946
56900
56838
56775
56727
56684
56632
56581
56540
56499
56443
56387
56341
56290
56230
56182
56148
56112
56074
56051
56039
56021
55992
55968
55951
55923
55884
55849
55816
55774
55733
55714
55726
55767
55847
55982
56163
56367
56603
56880
57180
57488
57804
58134
58462
58770
59055
59324
59563
59763
59935
60092
60216
60293
60335
60363
60372
60362
60354
60353
60336
60294
60251
60210
60155
60083
60017
59963
59907
59846
59794
59754
59718
59681
59650
59622
59578
59523
59476
59438
59391
59343
59309
59280
59234
59173
59114
59060
59002
58944
58900
58867
58835
58815
58813
58811
58802
58806
58828
58854
58876
58902
58934
58959
58975
58992
59010
59010
58993
58975
58956
58918
58865
58822
58789
58743
58686
58637
58582
58506
58421
58347
58276
58192
58105
58039
57981
57916
57862
57832
57808
57772
57739
57720
57699
57659
57621
57594
57559
57506
57455
57413
57360
57291
57222
57163
57101
57035
56985
56950
56907
56854
56807
56767
56720
56669
56635
56616
56597
56581
56585
56596
56589
56570
56555
56537
56494
56441
56397
56349
56285
56216
56161
56104
56028
55958
55908
55858
55794
55732
55686
55646
55613
55608
55644
55713
55809
55944
56114
56302
56508
56755
57040
57340
57642
57951
58259
58548
58814
59068
59307
59508
59666
59800
59906
59974
60008
60031
60046
60049
60046
60051
60048
60019
59980
59950
59912
59858
59804
59764
59720
59663
59609
59565
59511
59438
59364
59293
59210
59115
59028
58952
58875
58800
58742
58698
58648
58593
58557
58537
58515
58496
58501
58522
58532
58539
58565
58601
58624
58640
58666
58696
58715
58725
58741
58752
58741
58722
58712
58692
58644
58586
58532
58468
58393
58331
58289
58245
58193
58148
58106
58047
57976
57915
57864
57805
57742
57696
57665
57626
57578
57537
57501
57451
57386
57325
57262
57184
57104
57044
56996
56942
56896
56872
56854
56821
56785
56766
56748
56715
56679
56655
56627
56589
56555
56528
56486
56423
56366
56322
56270
56206
56153
56117
56076
56025
55983
55954
55916
55867
55833
55815
55790
55757
55733
55714
55687
55665
55675
55713
55761
55834
55956
56118
56304
56520
56772
57047
57327
57616
57918
58211
58477
58730
58980
59206
59399
59576
59742
59870
59952
60016
60072
60101
60100
60088
60066
60022
59966
59920
59881
59828
59760
59703
59656
59599
59540
59497
59453
59387
59310
59246
59190
59122
59048
58985
58922
58840
58753
58680
58613
58543
58487
58455
58426
58386
58358
58354
58352
58340
58344
58372
58401
58427
58470
58529
58573
58596
58622
58651
58661
58654
58650
58652
58643
58619
58593
58559
58497
58418
58353
58297
58227
58148
58082
58019
57937
57850
57781
57716
57639
57566
57512
57459
57394
57338
57304
57272
57231
57197
57175
57145
57103
57074
57055
57028
56995
56974
56960
56930
56878
56828
56781
56719
56648
56595
56558
56513
56462
56425
56394
56348
56297
56264
56236
56192
56143
56104
56063
56006
55948
55907
55864
55806
55753
55716
55673
55612
55546
55487
55420
55345
55288
55262
55251
55252
55294
55387
55512
55672
55890
56160
56448
56746
57069
57410
57736
58046
58359
58669
58946
59197
59440
59661
59836
59977
60105
60207
60269
60302
60322
60313
60257
60176
60094
60013
59928
59850
59788
59724
59651
59594
59563
59528
59473
59420
59376
59324
59259
59198
59144
59078
59002
58934
58869
58792
58709
58642
58590
58529
58467
58423
58395
58366
58342
58346
58371
58395
58420
58461
58502
58521
58535
58565
58591
58591
58590
58605
58615
58608
58599
58601
58597
58574
58546
58522
58489
58441
58398
58363
58314
58242
58170
58107
58036
57957
57893
57840
57774
57702
57644
57593
57530
57467
57425
57393
57346
57289
57241
57197
57138
57071
57014
56958
56892
56828
56781
56734
56672
56613
56569
56517
56451
56392
56350
56303
56245
56199
56170
56135
56086
56045
56015
55975
55924
55884
55857
55820
55770
55728
55696
55652
55598
55555
55516
55460
55394
55349
55320
55283
55241
55214
55194
55166
55155
55187
55255
55349
55491
55697
55946
56219
56524
56866
57216
57556
57894
58229
58535
58802
59055
59299
59503
59660
59793
59906
59982
60023
60049
60062
60046
60013
59982
59947
59886
59808
59737
59667
59580
59490
59426
59379
59330
59291
59277
59267
59236
59203
59182
59153
59100
59041
58992
58936
58861
58789
58730
58666
58590
58521
58467
58412
58357
58323
58315
58313
58309
58324
58355
58377
58390
58417
58456
58485
58506
58532
58550
58539
58506
58479
58458
58423
58383
58358
58330
58278
58223
58185
58150
58099
58052
58022
57987
57930
57872
57832
57794
57747
57701
57659
57595
57505
57422
57357
57285
57197
57117
57051
56983
56911
56853
56809
56763
56715
56677
56638
56585
56522
56469
56421
56357
56284
56223
56169
56105
56048
56016
55994
55958
55916
55883
55852
55809
55764
55730
55697
55656
55626
55621
55614
55589
55569
55561
55543
55502
55461
55433
55398
55349
55310
55280
55240
55192
55154
55130
55100
55074
55079
55121
55191
55304
55481
55702
55932
56176
56456
56759
57062
57364
57677
57984
58265
58530
58790
59022
59215
59385
59541
59665
59750
59812
59865
59889
59877
59852
59829
59787
59722
59659
59609
59553
59486
59428
59382
59328
59272
59237
59214
59177
59128
59082
59026
58947
58859
58784
58709
58616
58521
58443
58375
58301
58237
58197
58165
58128
58105
58108
58114
58110
58118
58141
58157
58159
58175
58211
58242
58259
58278
58297
58301
58292
58286
58285
58274
58252
58238
58223
58187
58140
58099
58055
57990
57920
57873
57837
57784
57721
57665
57607
57529
57440
57366
57300
57228
57160
57110
57060
56999
56948
56917
56886
56843
56808
56795
56778
56742
56706
56677
56637
56585
56543
56515
56480
56436
56404
56382
56351
56317
56298
56291
56273
56252
56247
56246
56228
56201
56185
56169
56132
56082
56033
55975
55896
55816
55755
55701
55637
55574
55527
55478
55416
55360
55323
55292
55265
55268
55321
55415
55550
55739
55980
56244
56519
56818
57133
57437
57731
58033
58335
58607
58843
59064
59268
59430
59560
59684
59793
59862
59902
59934
59947
59928
59894
59870
59839
59782
59713
59651
59586
59510
59437
59381
59323
59253
59196
59156
59108
59042
58980
58926
58866
58803
58752
58710
58657
58594
58549
58522
58494
58470
58470
58480
58470
58448
58435
58427
58406
58379
58368
58366
58359
58358
58380
58409
58420
58437
58477
58517
58536
58543
58554
58552
58521
58481
58446
58397
58329
58265
58215
58152
58068
57993
57936
57874
57805
57757
57727
57688
57642
57613
57595
57564
57522
57492
57465
57421
57369
57331
57299
57249
57185
57132
57083
57016
56939
56876
56825
56769
56717
56689
56671
56645
56621
56606
56581
56536
56495
56471
56441
56398
56357
56327
56293
56246
56204
56179
56149
56108
56082
56071
56047
56009
55981
55961
55929
55890
55868
55856
55831
55803
55799
55815
55835
55877
55972
56107
56261
56441
56656
56890
57128
57380
57654
57931
58187
58435
58687
58917
59116
59306
59491
59644
59757
59849
59926
59972
59992
60011
60032
60029
60003
59977
59948
59896
59828
59774
59731
59681
59633
59603
59579
59540
59490
59451
59413
59352
59285
59236
59181
59099
59014
58953
58899
58834
58776
58735
58690
58635
58591
58566
58535
58490
58464
58467
58473
58477
58502
58549
58594
58630
58671
58718
58750
58764
58782
58804
58806
58792
58783
58775
58751
58719
58688
58648
58580
58500
58439
58381
58300
58214
58146
58081
58003
57929
57872
57816
57747
57692
57661
57626
57571
57523
57498
57471
57432
57400
57381
57358
57327
57304
57287
57258
57216
57186
57163
57123
57071
57031
57007
56974
56936
56916
56904
56878
56846
56824
56802
56768
56735
56717
56696
56654
56605
56567
56527
56470
56416
56381
56344
56289
56238
56199
56159
56112
56077
56060
56042
56017
56003
55999
55992
55991
56023
56086
56160
56257
56407
56607
56828
57070
57345
57640
57929
58217
58516
58808
59068
59303
59530
59740
59920
60067
60186
60271
60313
60329
60337
60330
60300
60265
60232
60184
60113
60041
59978
59910
59841
59792
59764
59735
59699
59680
59680
59669
59640
59619
59606
59573
59522
59477
59433
59369
59298
59247
59204
59144
59084
59045
59018
58987
58968
58973
58984
58982
58983
59008
59036
59048
59057
59080
59101
59110
59118
59132
59134
59117
59095
59079
59057
59028
59007
58992
58960
58903
58844
58793
58730
58658
58601
58555
58499
58437
58386
58334
58258
58166
58086
58021
57951
57886
57844
57818
57787
57759
57750
57740
57711
57679
57662
57643
57606
57572
57548
57514
57459
57406
57363
57315
57260
57222
57207
57192
57166
57150
57151
57145
57123
57110
57104
57080
57039
57008
56981
56940
56893
56864
56850
56830
56808
56803
56811
56812
56811
56821
56823
56801
56773
56758
56744
56724
56719
56751
56809
56882
56995
57162
57360
57575
57824
58106
58390
58663
58940
59217
59469
59693
59898
60076
60210
60312
60405
60488
60538
60554
60558
60555
60527
60482
60444
60410
60362
60315
60293
60283
60259
60234
60226
60220
60198
60174
60161
60140
60094
60038
59983
59917
59838
59767
59715
59660
59596
59543
59501
59455
59403
59362
59340
59317
59292
59281
59281
59273
59256
59252
59261
59263
59261
59279
59311
59331
59346
59368
59388
59384
59380
59401
59421
59411
59381
59350
59309
59247
59182
59127
59069
58996
58928
58873
58814
58743
58676
58619
58556
58480
58414
58363
58311
58254
58208
58173
58128
58068
58016
57980
57939
57893
57867
57855
57834
57808
57794
57784
57757
57721
57695
57660
57604
57548
57513
57482
57437
57393
57362
57331
57287
57247
57220
57190
57158
57141
57139
57127
57101
57079
57070
57055
57031
57012
56999
56978
56950
56933
56921
56893
56849
56810
56778
56733
56680
56632
56583
56514
56438
56385
56354
56334
56345
56413
56536
56692
56886
57128
57397
57670
57957
58266
58569
58850
59126
59407
59665
59888
60091
60274
60421
60523
60597
60656
60688
60693
60688
60670
60631
60579
60534
60494
60439
60375
60323
60282
60234
60185
60153
60131
60103
60082
60087
60101
60097
60083
60072
60053
60010
59951
59891
59820
59734
59649
59581
59518
59452
59396
59348
59294
59234
59191
59170
59156
59146
59161
59199
59236
59269
59309
59351
59371
59369
59374
59381
59373
59359
59352
59343
59312
59273
59247
59221
59170
59102
59040
58980
58911
58845
58798
58755
58697
58641
58596
58551
58493
58442
58411
58378
58335
58301
58280
58244
58192
58146
58105
58047
57970
57899
57840
57777
57709
57657
57624
57587
57538
57499
57472
57438
57401
57382
57377
57365
57347
57337
57320
57277
57227
57190
57150
57093
57034
56988
56945
56896
56850
56815
56777
56730
56688
56660
56631
56594
56562
56536
56502
56459
56424
56399
56366
56324
56290
56260
56217
56164
56125
56099
56066
56026
56000
55979
55947
55918
55915
55932
55957
56008
56102
56227
56370
56541
56759
57006
57259
57527
57821
58115
58390
58662
58937
59190
59411
59614
59804
59959
60078
60180
60270
60322
60334
60331
60320
60279
60209
60143
60089
60028
59965
59917
59880
59831
59772
59722
59679
59628
59570
59531
59505
59468
59433
59414
59392
59350
59304
59267
59221
59155
59087
59033
58984
58935
58899
58881
58866
58850
58853
58870
58869
58846
58828
58825
58825
58823
58829
58839
58833
58815
58810
58812
58798
58773
58758
58743
58702
58640
58586
58540
58484
58421
58369
58320
58258
58201
58163
58126
58074
58025
57992
57955
57897
57838
57790
57738
57679
57633
57612
57595
57569
57545
57528
57498
57455
57419
57392
57352
57301
57262
57232
57187
57134
57098
57080
57056
57024
57004
56991
56963
56925
56893
56861
56813
56755
56696
56636
56571
56517
56487
56459
56414
56371
56340
56303
56247
56200
56178
56156
56119
56090
56080
56070
56051
56043
56051
56055
56051
56066
56113
56180
56273
56412
56594
56794
57014
57267
57539
57799
58049
58308
58564
58790
58991
59188
59364
59496
59602
59704
59785
59825
59848
59871
59879
59860
59835
59818
59790
59746
59706
59678
59636
59573
59511
59455
59386
59299
59218
59149
59073
58987
58907
58835
58754
58668
58601
58551
58493
58433
58398
58380
58350
58318
58308
58305
58284
58261
58260
58271
58272
58272
58287
58306
58313
58317
58328
58335
58327
58320
58325
58323
58303
58282
58268
58242
58200
58164
58139
58101
58051
58009
57976
57928
57869
57826
57792
57743
57687
57650
57618
57565
57504
57464
57434
57389
57333
57287
57242
57180
57117
57074
57038
56992
56946
56910
56873
56825
56782
56752
56709
56650
56602
56569
56523
56458
56402
56366
56329
56289
56259
56238
56209
56179
56167
56172
56165
56141
56125
56119
56097
56062
56036
56010
55969
55924
55893
55867
55828
55791
55781
55792
55818
55871
55965
56090
56230
56402
56622
56862
57100
57353
57629
57898
58143
58379
58609
58812
58977
59118
59239
59326
59384
59434
59476
59491
59480
59463
59443
59410
59369
59343
59323
59289
59253
59228
59200
59151
59100
59068
59043
59000
58946
58901
58850
58777
58693
58614
58532
58439
58351
58280
58210
58131
58062
58011
57960
57906
57880
57885
57896
57905
57934
57983
58025
58052
58089
58141
58180
58202
58227
58251
58253
58238
58225
58212
58176
58125
58081
58039
57981
57914
57856
57799
57727
57657
57604
57553
57487
57423
57374
57322
57260
57210
57179
57143
57096
57058
57037
57007
56962
56925
56902
56865
56808
56754
56707
56652
56592
56545
56507
56457
56397
56354
56319
56267
56203
56149
56099
56033
55967
55927
55906
55879
55856
55860
55876
55882
55888
55908
55926
55921
55904
55887
55860
55815
55766
55721
55669
55597
55530
55480
55426
55361
55304
55263
55218
55161
55115
55088
55068
55055
55076
55139
55223
55337
55501
55715
55956
56218
56506
56807
57099
57387
57688
57982
58246
58479
58698
58894
59052
59185
59306
59400
59451
59481
59504
59504
59474
59438
59406
59362
59303
59251
59211
59169
59120
59082
59059
59027
58977
58929
58889
58839
58775
58715
58661
58590
58503
58430
58371
58303
58233
58177
58129
58072
58014
57972
57941
57908
57882
57874
57868
57849
57836
57847
57869
57890
57920
57964
58002
58023
58047
58081
58101
58101
58102
58110
58097
58061
58026
57990
57932
57860
57801
57749
57676
57590
57517
57450
57365
57277
57214
57166
57107
57041
56985
56927
56861
56802
56763
56733
56694
56659
56642
56628
56603
56575
56556
56529
56488
56447
56413
56373
56321
56273
56233
56184
56121
56066
56028
55987
55940
55903
55875
55836
55786
55742
55703
55650
55590
55549
55528
55501
55479
55480
55494
55497
55495
55498
55495
55470
55433
55405
55375
55326
55271
55226
55177
55115
55062
55024
54982
54930
54892
54884
54895
54927
55008
55146
55321
55523
55766
56050
56358
56681
57024
57370
57694
57995
58289
58565
58800
59000
59180
59328
59421
59472
59505
59517
59489
59435
59382
59326
59253
59181
59127
59073
59008
58952
58918
58885
58840
58803
58786
58767
58736
58712
58703
58684
58643
58594
58540
58462
58360
58264
58179
58084
57984
57904
57846
57786
57728
57699
57694
57684
57676
57689
57710
57717
57722
57747
57774
57785
57798
57824
57853
57866
57876
57894
57901
57883
57860
57847
57825
57785
57747
57719
57684
57638
57597
57563
57515
57450
57387
57331
57265
57188
57126
57081
57028
56972
56931
56899
56855
56807
56778
56752
56702
56638
56583
56537
56480
56409
56342
56278
56204
56132
56077
56026
55962
55905
55871
55842
55803
55775
55766
55747
55701
55656
55627
55591
55541
55502
55478
55451
55420
55407
55409
55398
55369
55346
55331
55307
55280
55263
55253
55228
55196
55172
55148
55104
55051
55008
54969
54919
54862
54812
54760
54695
54630
54590
54565
54544
54547
54590
54658
54748
54882
55066
55284
55530
55816
56129
56433
56723
57022
57327
57610
57869
58120
58355
58544
58693
58835
58965
59056
59114
59164
59200
59201
59182
59167
59144
59095
59033
58984
58938
58875
58806
58756
58716
58668
58623
58590
58555
58509
58463
58422
58368
58295
58225
58160
58085
58003
57943
57905
57862
57813
57776
57749
57710
57661
57632
57625
57618
57613
57626
57646
57653
57656
57676
57696
57692
57680
57676
57663
57630
57591
57565
57544
57515
57491
57478
57461
57430
57403
57387
57364
57327
57294
57270
57233
57182
57137
57100
57049
56980
56913
56851
56778
56697
56627
56570
56508
56439
56381
56330
56266
56191
56127
56072
56004
55931
55883
55855
55827
55810
55814
55817
55801
55786
55788
55790
55772
55745
55727
55704
55666
55629
55604
55569
55512
55458
55415
55365
55301
55243
55194
55140
55082
55041
55018
54986
54944
54915
54895
54861
54823
54805
54800
54782
54759
54752
54759
54768
54795
54863
54970
55099
55259
55465
55700
55941
56195
56475
56764
57045
57330
57617
57885
58122
58341
58546
58719
58858
58984
59103
59189
59236
59266
59281
59265
59219
59170
59121
59056
58976
58912
58869
58824
58771
58726
58680
58613
58539
58486
58440
58378
58313
58265
58219
58158
58098
58053
58006
57945
57886
57845
57809
57766
57732
57714
57697
57680
57681
57702
57720
57730
57743
57759
57760
57746
57739
57737
57723
57696
57681
57671
57642
57600
57576
57563
57530
57477
57432
57397
57355
57313
57287
57259
57209
57154
57112
57071
57016
56963
56927
56892
56842
56786
56740
56691
56633
56585
56557
56530
56487
56445
56408
56359
56298
56245
56199
56149
56097
56058
56029
55991
55946
55911
55878
55831
55775
55731
55694
55643
55590
55555
55530
55499
55474
55469
55469
55454
55432
55416
55394
55356
55315
55287
55259
55218
55180
55157
55123
55062
54996
54939
54873
54796
54740
54714
54703
54710
54768
54884
55037
55225
55467
55753
56047
56343
56662
57004
57338
57657
57973
58273
58532
58756
58964
59145
59273
59357
59421
59454
59444
59412
59382
59345
59290
59235
59196
59148
59076
59004
58943
58878
58803
58747
58723
58707
58684
58670
58667
58648
58615
58592
58575
58531
58462
58392
58319
58228
58138
58073
58022
57962
57903
57869
57842
57799
57752
57723
57707
57689
57681
57698
57727
57752
57784
57827
57863
57881
57901
57930
57948
57951
57956
57968
57967
57944
57918
57896
57859
57804
57752
57703
57635
57555
57491
57440
57379
57313
57261
57219
57169
57117
57080
57046
56991
56923
56866
56810
56735
56655
56591
56531
56459
56384
56320
56261
56194
56132
56089
56051
56008
55973
55955
55936
55903
55878
55874
55866
55842
55822
55814
55801
55782
55770
55761
55733
55690
55661
55642
55611
55570
55536
55503
55454
55395
55349
55306
55243
55169
55110
55059
54998
54940
54902
54875
54854
54861
54912
54998
55112
55274
55490
55738
56005
56303
56635
56975
57310
57645
57971
58268
58532
58776
59001
59191
59346
59483
59595
59667
59708
59737
59750
59736
59710
59690
59661
59607
59542
59491
59445
59387
59324
59270
59224
59179
59145
59130
59114
59081
59045
59019
58984
58931
58880
58840
58795
58737
58685
58646
58598
58533
58472
58426
58379
58330
58303
58294
58282
58272
58280
58298
58306
58309
58325
58348
58354
58353
58365
58374
58361
58347
58352
58355
58332
58299
58273
58242
58193
58144
58102
58054
57991
57929
57882
57835
57774
57715
57670
57621
57561
57515
57488
57456
57413
57379
57351
57310
57257
57208
57161
57100
57031
56978
56939
56893
56846
56817
56798
56769
56730
56700
56673
56627
56569
56517
56462
56391
56320
56269
56229
56187
56150
56122
56088
56040
55997
55967
55935
55892
55858
55841
55821
55791
55769
55757
55739
55714
55698
55688
55666
55629
55598
55573
55531
55477
55436
55403
55357
55308
55278
55262
55248
55256
55308
55397
55513
55667
55874
56117
56381
56669
56984
57303
57605
57907
58216
58511
58778
59029
59260
59446
59590
59724
59843
59930
59986
60030
60066
60073
60049
60021
59993
59947
59888
59837
59797
59749
59697
59659
59627
59581
59532
59499
59472
59430
59381
59340
59297
59233
59161
59102
59042
58970
58903
58853
58806
58754
58713
58683
58645
58595
58556
58533
58507
58474
58459
58461
58457
58452
58463
58487
58501
58503
58516
58539
58547
58542
58548
58562
58565
58558
58555
58544
58514
58476
58450
58428
58386
58329
58275
58210
58119
58027
57952
57881
57797
57714
57642
57570
57490
57423
57375
57323
57259
57210
57183
57156
57124
57110
57115
57110
57083
57052
57019
56966
56899
56848
56814
56771
56719
56674
56633
56575
56508
56459
56419
56371
56323
56289
56262
56228
56198
56185
56170
56138
56108
56095
56078
56046
56014
55997
55979
55944
55910
55883
55840
55777
55720
55673
55621
55569
55541
55543
55566
55618
55718
55864
56037
56242
56494
56779
57069
57361
57674
57999
58310
58606
58900
59179
59419
59627
59819
59986
60111
60205
60281
60325
60327
60309
60291
60257
60203
60150
60097
60025
59936
59859
59799
59731
59647
59573
59520
59470
59414
59371
59339
59290
59226
59171
59122
59058
58982
58921
58872
58813
58751
58706
58680
58654
58631
58628
58638
58635
58634
58658
58686
58698
58710
58738
58766
58781
58796
58817
58826
58814
58803
58797
58776
58735
58701
58682
58652
58604
58557
58513
58450
58370
58301
58244
58179
58109
58052
58004
57945
57878
57822
57774
57718
57671
57651
57637
57603
57567
57547
57525
57479
57424
57381
57338
57282
57225
57183
57144
57095
57048
57007
56953
56882
56821
56774
56720
56658
56618
56608
56596
56571
56552
56542
56521
56494
56478
56472
56453
56423
56405
56390
56359
56321
56293
56259
56206
56151
56115
56091
56072
56077
56127
56212
56316
56453
56640
56863
57106
57373
57672
57975
58266
58555
58845
59110
59333
59534
59722
59877
59993
60092
60175
60223
60242
60255
60265
60256
60229
60205
60183
60141
60086
60052
60025
59981
59929
59892
59859
59808
59757
59725
59696
59655
59613
59583
59546
59486
59425
59379
59326
59253
59181
59120
59056
58986
58935
58908
58882
58849
58831
58837
58845
58847
58863
58892
58912
58926
58955
58992
59015
59032
59058
59080
59078
59062
59048
59025
58973
58905
58845
58783
58700
58611
58540
58477
58407
58337
58277
58221
58159
58106
58072
58030
57965
57898
57848
57792
57724
57668
57629
57593
57556
57531
57515
57487
57446
57414
57396
57367
57326
57297
57277
57245
57208
57188
57178
57155
57124
57101
57073
57020
56956
56908
56867
56815
56765
56732
56699
56647
56596
56558
56519
56466
56412
56363
56304
56233
56171
56129
56090
56050
56033
56051
56098
56180
56317
56507
56728
56972
57254
57568
57892
58217
58553
58884
59177
59434
59683
59919
60119
60289
60444
60570
60653
60711
60757
60779
60762
60729
60706
60677
60622
60558
60504
60451
60387
60329
60278
60217
60141
60076
60029
59983
59934
59896
59866
59815
59744
59684
59634
59573
59503
59445
59403
59362
59321
59294
59280
59265
59256
59267
59282
59286
59286
59298
59312
59315
59320
59341
59361
59363
59362
59369
59369
59356
59339
59322
59288
59236
59183
59135
59078
59014
58960
58920
58873
58819
58774
58735
58679
58613
58559
58512
58448
58380
58333
58303
58263
58218
58191
58174
58141
58102
58074
58042
57988
57923
57875
57834
57780
57723
57683
57654
57620
57589
57572
57555
57529
57506
57481
57434
57365
57302
57253
57202
57146
57103
57071
57036
56996
56965
56945
56915
56877
56849
56831
56799
56747
56698
56659
56613
56559
56513
56474
56429
56397
56403
56442
56508
56620
56793
57011
57252
57521
57823
58142
58457
58774
59097
59408
59700
59988
60269
60512
60707
60868
61005
61110
61182
61238
61282
61294
61276
61251
61223
61182
61138
61106
61080
61036
60982
60946
60923
60889
60848
60818
60789
60744
60697
60661
60625
60572
60508
60447
60380
60299
60220
60156
60087
60003
59922
59854
59790
59725
59678
59662
59653
59640
59641
59655
59663
59664
59677
59704
59718
59721
59738
59759
59757
59742
59737
59736
59709
59665
59632
59602
59554
59500
59466
59435
59382
59326
59285
59246
59196
59152
59121
59085
59038
58997
58967
58927
58876
58834
58807
58775
58730
58687
58653
58613
58558
58511
58470
58418
58356
58304
58261
58207
58149
58104
58067
58017
57958
57916
57886
57851
57822
57813
57812
57801
57789
57787
57780
57748
57706
57672
57635
57584
57535
57491
57432
57349
57273
57215
57154
57079
57014
56973
56937
56901
56888
56898
56902
56897
56911
56950
57000
57067
57174
57322
57493
57693
57935
58207
58482
58761
59062
59372
59665
59942
60214
60469
60691
60884
61061
61210
61315
61387
61442
61471
61466
61441
61414
61374
61317
61266
61229
61186
61134
61091
61055
61005
60938
60882
60845
60805
60758
60727
60707
60677
60639
60604
60567
60513
60452
60404
60359
60299
60233
60179
60124
60053
59989
59954
59930
59898
59869
59857
59855
59853
59861
59884
59901
59903
59915
59947
59974
59990
60007
60026
60026
60007
59992
59982
59951
59895
59842
59793
59731
59659
59591
59523
59442
59353
59279
59212
59134
59056
58995
58939
58871
58802
58750
58702
58641
58587
58558
58535
58494
58448
58410
58366
58308
58254
58215
58166
58100
58045
58017
57991
57962
57949
57948
57940
57922
57915
57925
57931
57925
57920
57917
57898
57865
57836
57807
57759
57702
57658
57623
57574
57512
57459
57410
57339
57260
57201
57147
57075
57007
56961
56927
56902
56917
56984
57091
57232
57420
57663
57937
58227
58548
58900
59251
59581
59904
60221
60502
60737
60949
61140
61288
61391
61471
61532
61558
61554
61541
61514
61451
61366
61299
61245
61183
61123
61079
61040
60989
60940
60909
60879
60831
60781
60745
60705
60647
60587
60541
60490
60418
60343
60275
60196
60105
60030
59978
59922
59857
59807
59774
59742
59714
59708
59725
59741
59750
59776
59810
59826
59836
59862
59898
59926
59952
59984
60012
60019
60011
59998
59971
59919
59855
59798
59735
59660
59588
59529
59466
59386
59308
59242
59172
59097
59033
58982
58930
58871
58816
58770
58721
58676
58649
58631
58598
58552
58516
58494
58460
58423
58404
58390
58354
58300
58255
58214
58158
58098
58053
58013
57963
57913
57877
57845
57800
57761
57740
57718
57681
57646
57626
57599
57560
57524
57497
57456
57402
57362
57341
57308
57251
57200
57173
57162
57176
57235
57340
57478
57649
57870
58131
58407
58700
59026
59370
59701
60017
60322
60607
60849
61056
61242
61395
61499
61566
61613
61629
61604
61562
61522
61477
61418
61366
61326
61276
61217
61170
61139
61100
61044
60987
60932
60866
60790
60723
60662
60582
60485
60395
60315
60226
60131
60056
60002
59949
59900
59870
59852
59831
59817
59825
59838
59833
59824
59830
59842
59847
59852
59872
59892
59897
59901
59918
59925
59907
59884
59871
59851
59812
59775
59752
59726
59689
59661
59641
59604
59546
59493
59447
59386
59315
59259
59216
59167
59115
59075
59043
58995
58933
58877
58813
58726
58634
58562
58494
58412
58333
58278
58233
58180
58136
58115
58098
58074
58059
58060
58051
58019
57984
57950
57898
57831
57771
57715
57650
57581
57533
57506
57474
57433
57406
57388
57360
57330
57315
57307
57285
57254
57231
57214
57189
57165
57155
57144
57128
57132
57183
57278
57411
57589
57816
58074
58343
58637
58962
59288
59599
59903
60202
60476
60718
60943
61151
61317
61436
61535
61622
61674
61692
61700
61697
61664
61613
61573
61545
61503
61449
61395
61333
61249
61157
61083
61025
60967
60916
60880
60842
60787
60731
60687
60639
60577
60516
60467
60415
60349
60285
60231
60168
60089
60019
59965
59916
59876
59868
59889
59908
59920
59948
59996
60040
60069
60097
60125
60141
60149
60164
60174
60158
60120
60083
60039
59974
59900
59838
59777
59704
59632
59573
59515
59450
59393
59353
59314
59267
59222
59187
59148
59102
59060
59024
58978
58915
58856
58811
58758
58686
58624
58581
58534
58480
58434
58392
58334
58268
58214
58165
58097
58019
57955
57899
57830
57765
57733
57730
57732
57744
57775
57801
57793
57771
57758
57742
57709
57670
57639
57602
57553
57503
57454
57388
57300
57218
57153
57089
57026
56979
56949
56921
56894
56889
56916
56969
57063
57225
57449
57704
57981
58287
58610
58922
59228
59546
59858
60140
60402
60662
60905
61108
61278
61435
61563
61644
61698
61746
61772
61765
61749
61740
61720
61677
61631
61594
61545
61481
61427
61391
61350
61298
61255
61216
61165
61102
61048
60998
60928
60843
60777
60722
60654
60583
60532
60497
60464
60431
60402
60376
60341
60304
60281
60260
60227
60199
60188
60182
60166
60158
60165
60173
60168
60164
60167
60163
60153
60153
60159
60145
60105
60070
60051
60025
59986
59951
59916
59858
59780
59710
59646
59569
59481
59409
59348
59276
59208
59162
59126
59080
59035
59004
58971
58922
58867
58817
58759
58681
58604
58544
58485
58419
58366
58334
58300
58256
58219
58196
58163
58116
58084
58067
58039
57996
57959
57925
57877
57824
57788
57762
57721
57663
57612
57567
57505
57431
57370
57317
57252
57181
57125
57075
57019
56965
56927
56894
56854
56816
56791
56764
56724
56686
56659
56625
56579
56541
56523
56509
56509
56558
56671
56826
57020
57270
57571
57897
58236
58595
58965
59316
59641
59955
60253
60510
60730
60936
61119
61255
61355
61441
61504
61528
61534
61539
61528
61486
61425
61367
61305
61230
61159
61109
61063
61009
60964
60924
60867
60793
60729
60680
60624
60561
60513
60481
60434
60370
60310
60257
60194
60125
60071
60028
59971
59900
59845
59805
59762
59729
59723
59732
59739
59756
59794
59833
59852
59860
59875
59883
59870
59846
59825
59798
59756
59721
59700
59676
59642
59615
59603
59578
59527
59474
59428
59369
59289
59211
59135
59046
58952
58877
58816
58745
58671
58622
58587
58540
58487
58446
58406
58348
58281
58222
58159
58079
57994
57926
57870
57813
57766
57735
57702
57652
57606
57579
57563
57547
57542
57545
57536
57510
57484
57461
57423
57370
57320
57280
57231
57172
57122
57083
57037
56982
56939
56900
56846
56780
56721
56666
56596
56520
56468
56446
56439
56469
56563
56711
56893
57122
57404
57712
58023
58344
58685
59020
59330
59629
59917
60170
60378
60565
60730
60854
60936
61000
61052
61082
61093
61099
61100
61079
61036
60996
60968
60930
60877
60828
60778
60705
60618
60544
60477
60394
60305
60235
60170
60089
60010
59955
59901
59829
59755
59696
59643
59581
59525
59489
59459
59429
59414
59419
59419
59403
59395
59399
59400
59391
59388
59390
59387
59381
59392
59419
59437
59441
59453
59472
59476
59468
59460
59436
59377
59298
59226
59162
59090
59024
58979
58934
58868
58805
58761
58719
58658
58593
58542
58489
58423
58358
58302
58232
58140
58051
57975
57892
57803
57730
57675
57620
57566
57534
57520
57495
57460
57437
57425
57399
57365
57343
57319
57271
57207
57149
57088
57008
56926
56867
56819
56764
56715
56687
56660
56615
56571
56549
56528
56491
56457
56437
56413
56375
56344
56331
56324
56330
56377
56476
56607
56761
56957
57202
57475
57765
58080
58410
58735
59048
59352
59641
59899
60134
60363
60575
60741
60871
60988
61082
61133
61157
61179
61186
61161
61114
61065
61006
60924
60838
60761
60683
60600
60518
60442
60359
60264
60176
60096
60006
59900
59803
59722
59639
59555
59490
59440
59384
59327
59286
59263
59242
59228
59234
59245
59237
59219
59211
59212
59206
59201
59215
59240
59255
59272
59303
59337
59360
59377
59398
59407
59393
59366
59336
59290
59222
59153
59094
59028
58949
58877
58821
58762
58692
58630
58581
58523
58453
58393
58341
58275
58196
58125
58054
57966
57875
57805
57750
57691
57637
57606
57578
57526
57466
57423
57384
57335
57276
57217
57155
57082
57020
56982
56954
56923
56898
56884
56862
56826
56800
56788
56773
56743
56710
56676
56630
56570
56518
56476
56423
56364
56322
56290
56247
56200
56173
56156
56130
56106
56103
56121
56158
56235
56377
56573
56802
57071
57385
57724
58066
58415
58777
59134
59466
59783
60093
60374
60613
60824
61006
61134
61206
61247
61266
61247
61192
61131
61079
61022
60963
60918
60884
60832
60763
60695
60620
60525
60430
60364
60318
60271
60233
60215
60195
60144
60076
60012
59941
59846
59747
59659
59579
59503
59441
59399
59364
59339
59338
59366
59393
59405
59414
59428
59430
59418
59416
59421
59419
59418
59432
59455
59464
59463
59472
59487
59488
59471
59449
59413
59349
59273
59206
59143
59067
58987
58921
58865
58804
58742
58689
58637
58579
58520
58466
58403
58320
58238
58164
58084
57995
57921
57871
57823
57767
57717
57681
57638
57588
57549
57519
57472
57406
57341
57282
57215
57142
57087
57050
57009
56973
56957
56946
56922
56896
56879
56862
56831
56793
56757
56714
56659
56603
56555
56507
56451
56397
56357
56322
56278
56231
56191
56141
56083
56042
56018
55992
55962
55950
55961
55987
56036
56138
56294
56490
56735
57041
57391
57751
58107
58469
58832
59175
59499
59819
60122
60390
60625
60839
61023
61164
61271
61356
61405
61409
61395
61376
61334
61265
61192
61123
61042
60944
60855
60783
60711
60638
60585
60555
60531
60510
60502
60491
60457
60408
60363
60315
60246
60169
60106
60051
59984
59913
59856
59803
59737
59670
59621
59581
59531
59482
59453
59438
59419
59410
59423
59438
59446
59464
59502
59534
59551
59571
59600
59619
59620
59618
59623
59611
59573
59535
59500
59445
59369
59293
59220
59134
59040
58961
58894
58826
58765
58723
58687
58638
58588
58552
58518
58469
58409
58352
58287
58209
58128
58057
57985
57901
57820
57751
57674
57585
57508
57447
57385
57324
57285
57269
57252
57227
57205
57192
57172
57140
57113
57089
57048
56994
56949
56908
56855
56799
56757
56712
56645
56566
56495
56435
56369
56302
56251
56209
56158
56108
56075
56044
56003
55961
55926
55887
55840
55811
55827
55879
55959
56097
56301
56542
56811
57126
57479
57838
58187
58543
58911
59259
59573
59871
60150
60382
60567
60736
60892
61014
61111
61202
61274
61305
61306
61295
61268
61208
61126
61046
60964
60871
60784
60719
60655
60575
60505
60459
60420
60378
60350
60337
60319
60290
60261
60231
60178
60097
60015
59939
59854
59764
59686
59623
59558
59495
59461
59452
59443
59434
59447
59478
59510
59547
59590
59623
59627
59611
59598
59588
59561
59525
59499
59469
59424
59381
59352
59316
59265
59222
59198
59171
59129
59091
59063
59021
58960
58900
58848
58779
58689
58602
58527
58446
58360
58283
58214
58133
58046
57978
57926
57863
57799
57759
57729
57688
57644
57615
57585
57534
57480
57443
57409
57368
57337
57324
57309
57276
57243
57224
57196
57151
57112
57086
57050
56992
56933
56882
56821
56747
56681
56627
56565
56496
56438
56386
56321
56249
56194
56150
56093
56041
56018
56023
56044
56096
56206
56376
56590
56847
57157
57499
57853
58212
58578
58931
59253
59554
59845
60114
60352
60572
60778
60953
61086
61193
61281
61330
61344
61342
61325
61276
61200
61127
61061
60981
60884
60790
60705
60613
60518
60442
60378
60306
60231
60177
60135
60083
60026
59985
59947
59890
59820
59754
59688
59611
59534
59475
59426
59375
59339
59322
59301
59268
59250
59257
59264
59265
59285
59331
59382
59433
59489
59540
59567
59574
59581
59585
59567
59529
59487
59434
59358
59276
59210
59154
59089
59026
58984
58947
58894
58838
58794
58748
58689
58623
58562
58495
58411
58328
58253
58177
58098
58038
58001
57964
57921
57892
57875
57845
57794
57742
57693
57633
57565
57511
57471
57423
57363
57314
57278
57238
57201
57179
57159
57114
57053
57004
56961
56907
56859
56834
56820
56800
56783
56781
56772
56741
56697
56652
56589
56499
56408
56329
56253
56178
56129
56127
56161
56233
56374
56591
56858
57156
57489
57845
58201
58553
58910
59264
59587
59874
60142
60384
60584
60745
60890
61018
61111
61175
61227
61259
61260
61245
61233
61205
61152
61086
61020
60942
60848
60760
60688
60607
60509
60416
60331
60242
60151
60076
60021
59966
59902
59842
59784
59710
59627
59562
59515
59462
59403
59370
59361
59348
59335
59341
59355
59359
59361
59382
59410
59423
59436
59470
59508
59530
59542
59554
59553
59531
59507
59489
59459
59413
59370
59331
59277
59212
59156
59108
59049
58979
58922
58877
58820
58751
58696
58653
58599
58532
58471
58419
58359
58293
58236
58186
58127
58063
58009
57957
57890
57811
57736
57653
57548
57449
57375
57313
57251
57199
57163
57127
57082
57043
57018
56993
56962
56941
56932
56917
56888
56860
56838
56810
56769
56730
56691
56637
56571
56509
56457
56398
56329
56266
56212
56148
56080
56032
56000
55967
55939
55931
55940
55959
56019
56144
56318
56525
56774
57078
57413
57756
58111
58475
58827
59159
59482
59792
60066
60304
60523
60729
60901
61039
61158
61257
61315
61335
61341
61332
61293
61232
61169
61102
61015
60916
60827
60746
60656
60568
60505
60460
60415
60377
60352
60317
60255
60177
60100
60010
59904
59803
59720
59638
59552
59483
59433
59388
59347
59335
59356
59373
59376
59390
59423
59451
59468
59494
59524
59538
59536
59537
59542
59534
59517
59515
59524
59520
59511
59517
59527
59514
59489
59469
59447
59398
59327
59255
59174
59080
58982
58885
58790
58700
58631
58583
58530
58465
58413
58381
58342
58285
58228
58173
58105
58021
57942
57873
57794
57708
57637
57579
57511
57437
57387
57358
57327
57294
57274
57252
57206
57146
57094
57041
56966
56887
56828
56783
56736
56698
56680
56665
56639
56612
56593
56567
56529
56494
56464
56417
56346
56276
56217
56154
56086
56036
56009
55981
55954
55966
56037
56158
56336
56590
56908
57251
57611
58001
58402
58782
59142
59500
59839
60138
60406
60655
60876
61055
61207
61346
61457
61525
61569
61605
61618
61603
61571
61533
61473
61385
61296
61221
61146
61061
60989
60938
60889
60839
60801
60772
60732
60679
60631
60590
60528
60444
60359
60274
60173
60067
59982
59912
59841
59785
59765
59765
59762
59765
59792
59831
59864
59902
59961
60018
60048
60069
60102
60130
60141
60149
60156
60141
60098
60052
60018
59975
59916
59868
59832
59786
59728
59676
59632
59581
59522
59472
59426
59366
59300
59241
59178
59086
58980
58889
58807
58714
58631
58577
58535
58489
58453
58437
58420
58391
58363
58347
58322
58277
58237
58209
58165
58096
58027
57965
57894
57817
57764
57735
57698
57651
57619
57608
57593
57574
57566
57562
57545
57518
57495
57474
57433
57376
57321
57258
57171
57073
56989
56912
56830
56768
56745
56754
56788
56870
57019
57218
57456
57741
58076
58435
58798
59169
59542
59887
60192
60474
60742
60982
61189
61382
61563
61709
61818
61911
61993
62039
62055
62063
62062
62034
61986
61934
61868
61774
61671
61586
61517
61448
61390
61356
61328
61291
61262
61252
61240
61207
61158
61097
61009
60896
60787
60690
60589
60488
60410
60367
60338
60315
60311
60326
60332
60327
60330
60341
60343
60337
60341
60350
60343
60325
60326
60341
60349
60355
60375
60400
60410
60411
60420
60416
60376
60317
60264
60206
60127
60047
59982
59916
59838
59774
59734
59688
59626
59569
59523
59469
59400
59337
59280
59208
59120
59041
58976
58911
58851
58812
58792
58772
58757
58755
58751
58728
58688
58640
58583
58509
58424
58352
58290
58229
58176
58141
58107
58056
58009
57982
57963
57942
57926
57920
57906
57875
57843
57815
57770
57697
57620
57555
57495
57436
57384
57340
57287
57223
57177
57157
57146
57153
57205
57298
57415
57560
57755
58000
58273
58571
58911
59285
59660
60029
60394
60738
61045
61312
61553
61758
61912
62030
62125
62192
62228
62258
62297
62317
62299
62266
62236
62201
62159
62121
62090
62048
61993
61948
61918
61884
61842
61813
61798
61776
61749
61734
61722
61685
61633
61589
61535
61452
61364
61299
61244
61182
61130
61101
61080
61055
61041
61047
61051
61040
61031
61036
61034
61013
60993
60984
60978
60972
60981
61009
61034
61048
61061
61071
61062
61036
61009
60979
60930
60862
60800
60747
60688
60630
60591
60563
60520
60466
60411
60344
60251
60147
60054
59971
59885
59812
59763
59723
59680
59644
59623
59595
59548
59497
59445
59380
59305
59241
59194
59149
59097
59058
59039
59014
58980
58955
58932
58891
58840
58790
58736
58670
58601
58551
58518
58484
58456
58453
58455
58443
58425
58411
58386
58338
58280
58229
58170
58090
58016
57963
57914
57856
57807
57779
57747
57701
57658
57632
57616
57615
57660
57763
57911
58102
58357
58671
59011
59365
59740
60117
60466
60791
61107
61395
61626
61822
62018
62205
62357
62487
62614
62719
62775
62790
62786
62763
62715
62661
62609
62552
62486
62428
62387
62351
62314
62294
62295
62288
62261
62229
62193
62134
62055
61981
61918
61851
61785
61737
61704
61660
61601
61547
61503
61450
61392
61352
61320
61274
61233
61221
61228
61232
61238
61256
61277
61286
61293
61309
61319
61311
61300
61300
61297
61273
61245
61230
61214
61192
61174
61161
61133
61090
61045
61000
60937
60853
60768
60695
60617
60528
60448
60379
60298
60208
60134
60079
60025
59981
59956
59935
59905
59871
59840
59804
59753
59700
59659
59618
59564
59510
59469
59425
59370
59324
59289
59245
59191
59145
59111
59082
59054
59042
59041
59022
58979
58937
58905
58864
58812
58766
58721
58658
58580
58521
58478
58430
58387
58372
58367
58345
58310
58277
58239
58185
58124
58068
58012
57956
57928
57950
58021
58132
58301
58539
58817
59116
59446
59798
60137
60450
60762
61073
61363
61628
61888
62141
62354
62523
62672
62801
62886
62932
62955
62956
62928
62880
62831
62770
62685
62596
62529
62476
62420
62377
62360
62348
62321
62283
62248
62208
62155
62096
62034
61956
61854
61755
61673
61594
61515
61458
61430
61406
61376
61356
61348
61333
61305
61286
61283
61280
61275
61286
61306
61313
61316
61338
61373
61399
61426
61468
61509
61521
61511
61501
61482
61435
61373
61314
61251
61170
61090
61021
60953
60878
60808
60755
60702
60638
60575
60529
60479
60412
60352
60310
60262
60200
60146
60098
60035
59963
59903
59853
59798
59739
59696
59660
59616
59574
59552
59540
59511
59469
59433
59401
59355
59300
59255
59211
59154
59103
59071
59039
58994
58956
58940
58931
58918
58906
58890
58846
58771
58695
58628
58554
58470
58399
58347
58301
58262
58242
58236
58234
58246
58295
58390
58517
58680
58897
59156
59427
59719
60049
60398
60737
61073
61411
61729
62003
62235
62445
62618
62741
62828
62892
62926
62932
62935
62945
62941
62915
62883
62850
62804
62735
62661
62594
62524
62449
62388
62343
62295
62241
62197
62162
62117
62065
62027
61987
61917
61830
61753
61682
61599
61510
61438
61381
61326
61289
61281
61282
61272
61268
61289
61314
61328
61341
61356
61361
61358
61365
61385
61394
61383
61378
61392
61398
61385
61376
61376
61358
61321
61284
61242
61177
61095
61023
60957
60876
60789
60719
60661
60595
60531
60485
60439
60373
60299
60240
60180
60099
60025
59979
59942
59902
59872
59860
59844
59817
59792
59770
59726
59652
59576
59508
59437
59367
59321
59300
59269
59221
59183
59162
59138
59110
59100
59097
59079
59050
59020
58977
58905
58818
58751
58704
58655
58617
58598
58580
58547
58507
58475
58434
58363
58286
58234
58207
58205
58259
58383
58553
58761
59019
59316
59621
59925
60237
60552
60848
61123
61398
61672
61923
62146
62355
62545
62697
62817
62917
62985
63002
62981
62954
62920
62867
62811
62771
62735
62683
62625
62584
62538
62472
62404
62346
62288
62226
62183
62163
62143
62111
62081
62059
62016
61943
61862
61782
61698
61614
61549
61497
61442
61392
61368
61368
61368
61367
61379
61395
61398
61390
61390
61396
61387
61372
61378
61397
61408
61411
61424
61437
61429
61410
61390
61358
61306
61245
61191
61134
61064
60995
60931
60858
60773
60697
60640
60581
60515
60462
60426
60378
60312
60252
60201
60139
60069
60009
59955
59884
59803
59735
59680
59626
59582
59558
59539
59503
59466
59447
59423
59376
59318
59270
59216
59145
59075
59019
58962
58896
58845
58816
58781
58735
58710
58713
58712
58696
58682
58671
58644
58600
58559
58528
58487
58433
58381
58331
58267
58189
58127
58079
58024
57967
57929
57905
57877
57849
57840
57848
57871
57933
58061
58243
58453
58709
59023
59369
59719
60080
60454
60810
61137
61449
61742
61987
62174
62335
62481
62588
62652
62709
62767
62801
62806
62804
62798
62776
62744
62722
62705
62665
62604
62555
62510
62444
62369
62315
62274
62222
62177
62161
62158
62140
62107
62074
62034
61975
61903
61833
61756
61663
61579
61512
61440
61364
61315
61304
61302
61292
61296
61321
61341
61347
61358
61375
61380
61379
61395
61421
61431
61428
61439
61460
61458
61434
61415
61389
61333
61259
61193
61135
61067
61006
60967
60937
60895
60848
60808
60762
60696
60629
60565
60480
60368
60262
60175
60088
59997
59930
59892
59856
59815
59787
59775
59750
59703
59662
59629
59575
59505
59438
59370
59285
59191
59119
59062
58992
58923
58871
58829
58785
58749
58731
58714
58680
58643
58620
58593
58544
58492
58455
58418
58371
58331
58303
58256
58178
58101
58036
57964
57884
57820
57776
57732
57682
57649
57640
57642
57673
57762
57905
58086
58313
58597
58919
59251
59584
59934
60288
60617
60920
61212
61488
61733
61962
62186
62379
62517
62625
62732
62818
62865
62892
62914
62908
62874
62835
62796
62735
62647
62562
62485
62396
62302
62234
62190
62149
62108
62084
62071
62045
62001
61964
61927
61862
61777
61699
61624
61532
61432
61351
61288
61220
61165
61141
61134
61123
61123
61146
61174
61198
61228
61267
61298
61317
61344
61377
61388
61373
61357
61343
61309
61261
61222
61193
61154
61104
61065
61039
60998
60941
60888
60834
60752
60649
60558
60479
60389
60299
60235
60180
60107
60029
59973
59919
59844
59764
59702
59638
59558
59489
59444
59398
59344
59304
59283
59252
59201
59153
59115
59067
59007
58958
58920
58869
58800
58742
58709
58682
58657
58650
58652
58635
58598
58561
58516
58446
58367
58305
58254
58196
58140
58102
58067
58015
57962
57928
57894
57853
57840
57873
57936
58032
58193
58433
58717
59024
59359
59715
60058
60377
60694
61011
61302
61562
61804
62033
62226
62384
62528
62653
62734
62772
62790
62784
62743
62686
62641
62601
62548
62494
62457
62419
62355
62283
62229
62170
62089
62007
61939
61870
61789
61714
61660
61607
61541
61476
61420
61348
61253
61161
61077
60987
60901
60845
60821
60805
60797
60815
60846
60866
60890
60937
60993
61029
61051
61076
61091
61076
61051
61045
61045
61032
61026
61039
61046
61026
60992
60959
60917
60857
60789
60721
60641
60539
60441
60364
60289
60213
60154
60112
60060
59988
59922
59869
59809
59736
59671
59619
59558
59492
59442
59403
59353
59297
59256
59221
59169
59101
59046
58998
58933
58863
58814
58781
58743
58712
58702
58694
58672
58651
58641
58621
58572
58515
58458
58386
58296
58220
58169
58119
58061
58006
57955
57896
57831
57790
57778
57779
57799
57873
58016
58208
58458
58773
59125
59482
59844
60217
60576
60894
61182
61463
61728
61955
62156
62349
62518
62641
62728
62800
62845
62853
62842
62824
62784
62717
62645
62578
62500
62413
62343
62296
62244
62176
62119
62086
62051
62000
61950
61901
61835
61752
61671
61588
61479
61355
61253
61175
61100
61041
61020
61021
61018
61021
61048
61080
61095
61106
61132
61153
61154
61160
61183
61205
61222
61250
61289
61312
61314
61317
61324
61309
61266
61219
61175
61117
61045
60980
60917
60838
60754
60691
60642
60579
60508
60453
60406
60348
60284
60231
60171
60087
59995
59923
59861
59791
59727
59685
59649
59603
59561
59531
59494
59443
59400
59369
59322
59252
59190
59146
59100
59048
59008
58986
58957
58915
58883
58860
58821
58766
58720
58676
58612
58535
58476
58434
58388
58347
58328
58321
58296
58253
58216
58178
58133
58105
58126
58198
58311
58488
58738
59031
59352
59705
60084
60458
60809
61146
61475
61771
62020
62246
62454
62625
62761
62883
62992
63063
63102
63135
63160
63151
63112
63072
63029
62962
62878
62806
62741
62666
62599
62563
62539
62498
62458
62437
62419
62383
62342
62305
62254
62180
62102
62030
61940
61826
61721
61639
61566
61497
61456
61447
61448
61455
61484
61532
61566
61583
61604
61626
61634
61637
61652
61669
61663
61646
61643
61639
61608
61565
61540
61527
61500
61469
61449
61429
61393
61345
61303
61255
61191
61129
61082
61025
60950
60883
60827
60752
60651
60557
60486
60418
60344
60284
60241
60194
60144
60110
60093
60067
60033
60017
60011
59984
59944
59914
59886
59842
59788
59738
59678
59598
59515
59453
59396
59321
59258
59229
59206
59164
59120
59093
59069
59034
59004
58985
58958
58908
58854
58805
58742
58664
58608
58597
58611
58651
58754
58922
59126
59363
59654
59988
60329
60671
61030
61392
61726
62033
62330
62596
62802
62967
63127
63264
63349
63408
63474
63531
63559
63573
63593
63605
63593
63566
63538
63495
63425
63356
63302
63238
63158
63089
63037
62979
62912
62859
62821
62772
62708
62650
62598
62532
62454
62397
62359
62315
62271
62244
62222
62182
62132
62094
62060
62016
61978
61963
61957
61942
61938
61962
61995
62019
62049
62094
62134
62158
62180
62199
62191
62151
62103
62056
61991
61904
61826
61763
61691
61611
61545
61500
61452
61399
61361
61331
61280
61216
61158
61087
60986
60875
60782
60702
60615
60536
60486
60452
60410
60381
60386
60397
60384
60359
60345
60324
60282
60237
60196
60135
60049
59973
59920
59866
59803
59761
59742
59715
59674
59640
59618
59592
59556
59528
59508
59476
59426
59374
59314
59226
59127
59050
58993
58930
58881
58874
58898
58940
59025
59175
59373
59597
59850
60140
60445
60739
61039
61361
61682
61984
62288
62593
62860
63080
63279
63460
63583
63643
63682
63710
63699
63654
63610
63568
63511
63453
63428
63422
63397
63358
63334
63311
63258
63177
63104
63030
62932
62834
62771
62719
62651
62589
62554
62517
62454
62382
62323
62261
62190
62138
62113
62071
61998
61943
61933
61935
61939
61970
62022
62059
62078
62108
62153
62179
62182
62189
62204
62192
62153
62125
62116
62099
62073
62052
62032
61990
61938
61900
61849
61764
61671
61595
61522
61431
61350
61301
61259
61203
61161
61150
61132
61085
61037
61004
60957
60879
60799
60733
60665
60596
60548
60517
60478
60437
60417
60412
60386
60342
60303
60257
60184
60100
60037
59985
59926
59880
59868
59867
59842
59801
59770
59726
59648
59562
59490
59418
59337
59273
59235
59196
59150
59127
59140
59160
59184
59244
59351
59492
59671
59911
60209
60534
60874
61242
61619
61966
62284
62600
62895
63132
63314
63476
63616
63711
63779
63848
63907
63929
63935
63955
63966
63939
63891
63848
63797
63728
63655
63581
63499
63408
63342
63309
63272
63219
63173
63140
63094
63017
62943
62881
62799
62696
62599
62509
62416
62333
62289
62276
62265
62263
62288
62322
62339
62341
62355
62376
62384
62386
62401
62422
62432
62447
62476
62498
62497
62490
62491
62472
62417
62356
62304
62238
62151
62080
62040
62001
61949
61911
61893
61853
61779
61716
61675
61623
61554
61493
61439
61366
61281
61214
61153
61075
61003
60965
60947
60918
60887
60865
60833
60774
60708
60660
60606
60523
60442
60383
60325
60257
60208
60197
60193
60176
60167
60167
60144
60085
60020
59960
59881
59784
59704
59643
59575
59507
59467
59449
59427
59416
59445
59499
59550
59614
59728
59892
60082
60304
60579
60893
61214
61555
61925
62290
62621
62924
63210
63455
63643
63805
63948
64050
64113
64175
64248
64295
64302
64299
64294
64258
64186
64117
64058
63986
63901
63835
63792
63747
63704
63687
63685
63662
63619
63584
63538
63448
63334
63232
63137
63032
62940
62887
62852
62808
62769
62754
62743
62723
62709
62703
62685
62643
62613
62620
62649
62687
62734
62787
62814
62807
62804
62810
62795
62764
62759
62773
62773
62760
62754
62743
62702
62636
62573
62506
62414
62309
62228
62175
62122
62071
62036
61994
61922
61835
61758
61680
61584
61498
61441
61392
61336
61301
