47369
47392
47420
47382
47400
47434
47488
47480
47543
47580
47647
47693
47746
47818
47857
47920
47998
48053
48116
48128
48169
48215
48174
48202
48185
48172
48176
48187
48175
48179
48123
48172
48191
48152
48116
48166
48137
48127
48119
48114
48114
48114
48102
48118
48099
48119
48100
48125
48090
48098
48094
48092
48106
48098
48116
48115
48072
48084
48112
48088
48044
48086
48107
48079
48049
48066
48056
48002
48018
48004
47998
47966
47962
47936
47945
47910
47897
47901
47870
47853
47863
47878
47812
47833
47819
47834
47781
47776
47796
47786
47757
47767
47755
47742
47717
47741
47725
47705
47712
47723
47728
47677
47724
47690
47675
47650
47640
47634
47599
47583
47570
47571
47534
47547
47499
47501
47463
47429
47451
47443
47436
47413
47436
47442
47412
47400
47412
47382
47371
47380
47390
47370
47373
47376
47392
47346
47357
47364
47357
47338
47350
47411
47409
47410
47481
47577
47570
47629
47679
47720
47763
47836
47950
47976
48005
48081
48110
48119
48115
48128
48163
48115
48108
48135
48128
48096
48130
48122
48114
48102
48127
48119
48103
48088
48113
48115
48094
48085
48106
48108
48068
48100
48118
48050
48077
48056
48094
48074
48062
48054
48081
48023
48015
48050
48010
47994
47992
48015
47980
47976
47966
47985
47963
47940
47976
47942
47941
47935
47930
47938
47885
47893
47905
47888
47883
47874
47874
47835
47855
47815
47853
47820
47813
47799
47821
47799
47813
47822
47801
47796
47789
47812
47774
47761
47792
47809
47767
47731
47782
47756
47754
47750
47746
47714
47692
47667
47674
47661
47616
47610
47594
47586
47560
47559
47555
47524
47520
47545
47527
47491
47477
47502
47476
47443
47433
47464
47408
47388
47438
47431
47379
47403
47396
47384
47391
47432
47478
47515
47571
47629
47668
47683
47763
47795
47893
47912
47974
48037
48088
48107
48108
48175
48130
48146
48151
48157
48153
48136
48155
48171
48109
48150
48173
48148
48122
48146
48145
48148
48131
48152
48167
48120
48102
48099
48142
48111
48117
48142
48134
48097
48093
48125
48098
48095
48108
48117
48106
48095
48081
48083
48049
48068
48083
48099
48041
48073
48045
48027
48038
48026
48024
48023
47987
48002
47993
47965
47940
47970
47940
47957
47931
47933
47956
47910
47919
47917
47883
47861
47845
47899
47842
47835
47871
47895
47813
47829
47827
47842
47792
47804
47830
47791
47779
47804
47785
47789
47750
47745
47745
47706
47719
47691
47654
47662
47625
47634
47563
47554
47563
47564
47508
47477
47504
47491
47457
47489
47476
47472
47423
47456
47484
47424
47435
47402
47438
47392
47398
47397
47394
47379
47413
47436
47420
47463
47532
47568
47605
47656
47697
47752
47800
47863
47958
48007
48017
48059
48133
48141
48139
48165
48184
48172
48151
48169
48168
48184
48165
48150
48188
48137
48155
48168
48153
48144
48140
48159
48127
48122
48137
48144
48083
48087
48127
48131
48080
48100
48100
48116
48110
48091
48102
48105
48072
48083
48083
48049
48104
48083
48095
48045
48047
48044
48026
47992
48026
48035
47996
47983
47994
48015
47973
47962
47947
47952
47936
47933
47942
47940
47898
47875
47897
47887
47834
47868
47906
47842
47834
47846
47854
47813
47826
47826
47851
47803
47835
47822
47794
47778
47791
47789
47798
47787
47769
47792
47710
47736
47751
47719
47676
47677
47679
47647
47621
47613
47627
47572
47556
47541
47558
47502
47493
47520
47529
47457
47478
47488
47434
47428
47463
47466
47434
47447
47459
47448
47417
47426
47431
47445
47400
47418
47460
47436
47460
47472
47532
47567
47612
47642
47702
47724
47808
47889
47954
48004
48055
48113
48140
48123
48157
48174
48185
48156
48187
48176
48155
48159
48145
48190
48147
48152
48155
48146
48124
48139
48147
48128
48119
48138
48135
48128
48097
48135
48114
48093
48093
48093
48107
48092
48084
48070
48085
48053
48072
48041
48016
48046
48048
48075
48033
48026
48019
48026
47968
47998
48009
47963
47954
47978
47981
47929
47944
47947
47943
47909
47928
47910
47885
47877
47865
47888
47868
47871
47865
47852
47835
47824
47834
47840
47826
47838
47858
47816
47794
47824
47844
47841
47776
47828
47837
47793
47765
47790
47785
47741
47726
47726
47723
47682
47683
47645
47651
47608
47622
47603
47555
47550
47519
47547
47490
47503
47497
47524
47471
47471
47505
47470
47464
47446
47482
47447
47415
47412
47429
47420
47417
47418
47414
47396
47391
47423
47448
47454
47502
47562
47595
47635
47692
47752
47761
47825
47913
47990
48036
48061
48118
48148
48135
48161
48188
48151
48156
48166
48178
48156
48154
48164
48206
48132
48164
48154
48134
48139
48135
48163
48116
48147
48121
48146
48094
48132
48134
48145
48092
48109
48144
48130
48066
48070
48089
48062
48052
48066
48093
48051
48056
48072
48090
48064
48049
48060
48050
47999
48018
48038
47999
47986
48001
47979
47944
47966
47941
47965
47900
47931
47941
47927
47918
47915
47933
47896
47881
47873
47904
47866
47865
47871
47867
47833
47837
47883
47874
47854
47849
47863
47838
47800
47824
47819
47792
47784
47760
47760
47730
47710
47712
47698
47668
47660
47636
47616
47553
47563
47604
47545
47551
47554
47549
47527
47517
47502
47516
47470
47476
47467
47444
47451
47462
47476
47436
47429
47472
47495
47506
47534
47581
47621
47648
47662
47732
47772
47809
47898
47951
47993
48034
48125
48144
48152
48153
48189
48240
48164
48174
48172
48194
48162
48178
48192
48171
48169
48173
48168
48171
48130
48139
48166
48129
48143
48159
48181
48122
48120
48157
48124
48102
48120
48162
48100
48128
48105
48135
48095
48091
48097
48080
48067
48069
48090
48066
48042
48034
48036
48004
48007
48005
48015
47976
47978
47988
47937
47906
47928
47943
47947
47925
47900
47905
47860
47886
47882
47899
47853
47834
47861
47883
47837
47838
47889
47854
47834
47821
47877
47804
47814
47809
47847
47799
47785
47785
47793
47764
47729
47738
47708
47656
47700
47672
47611
47599
47627
47626
47560
47544
47556
47567
47509
47521
47555
47473
47455
47509
47481
47474
47431
47420
47446
47407
47409
47443
47453
47429
47454
47480
47522
47543
47614
47667
47691
47724
47774
47850
47874
47946
48032
48049
48048
48115
48122
48155
48121
48127
48147
48138
48111
48101
48112
48093
48106
48089
48137
48091
48090
48142
48078
48070
48089
48094
48086
48058
48064
48089
48064
48060
48085
48070
48039
48062
48087
48034
48040
48003
48033
48006
47996
47987
48015
47970
47974
47958
47968
47920
47937
47934
47900
47891
47873
47900
47867
47845
47871
47841
47809
47809
47818
47830
47762
47782
47785
47748
47749
47741
47789
47721
47684
47723
47720
47709
47684
47709
47730
47696
47687
47702
47696
47698
47683
47688
47650
47651
47632
47642
47589
47586
47560
47569
47524
47513
47484
47470
47428
47434
47441
47410
47384
47403
47413
47348
47351
47376
47371
47334
47330
47341
47329
47338
47335
47343
47306
47328
47312
47310
47319
47306
47323
47375
47368
47381
47461
47522
47567
47639
47672
47695
47757
47842
47901
47931
47982
48021
48064
48080
48058
48098
48108
48078
48079
48102
48065
48071
48065
48068
48042
48084
48071
48100
48059
48089
48087
48122
48078
48123
48132
48119
48107
48106
48159
48104
48095
48123
48143
48116
48090
48126
48148
48076
48099
48154
48111
48073
48118
48125
48079
48065
48060
48054
48033
48060
48037
48042
48039
48045
48052
48027
47984
48008
48024
47984
47961
47972
47983
47947
47913
47962
47933
47905
47912
47936
47893
47881
47884
47923
47859
47871
47881
47875
47852
47867
47861
47866
47826
47850
47881
47839
47793
47776
47812
47772
47736
47739
47746
47709
47666
47670
47640
47602
47591
47593
47554
47532
47563
47555
47542
47511
47491
47509
47498
47462
47499
47502
47473
47472
47460
47475
47426
47399
47427
47416
47404
47403
47436
47405
47419
47444
47501
47468
47593
47614
47637
47671
47754
47837
47892
47921
48010
48048
48080
48116
48168
48195
48121
48145
48166
48159
48139
48160
48184
48159
48142
48151
48177
48125
48128
48155
48141
48117
48114
48138
48141
48094
48102
48106
48083
48077
48094
48120
48063
48079
48115
48066
48057
48031
48093
48057
48047
48050
48033
48024
48030
48036
48020
48018
47996
48007
48024
47954
47964
47995
47970
47933
47942
47947
47926
47914
47888
47909
47866
47852
47866
47852
47836
47802
47831
47821
47791
47808
47831
47800
47785
47769
47789
47770
47779
47747
47805
47747
47753
47770
47769
47728
47705
47728
47708
47708
47674
47662
47613
47613
47597
47600
47556
47544
47519
47508
47468
47419
47468
47431
47396
47419
47410
47395
47363
47403
47394
47386
47376
47355
47361
47335
47372
47356
47333
47287
47309
47307
47291
47318
47334
47326
47311
47354
47391
47497
47494
47574
47648
47668
47722
47812
47909
47924
47973
48035
48065
48047
48057
48088
48133
48063
48101
48115
48117
48076
48083
48099
48071
48054
48072
48067
48065
48052
48073
48054
48034
48012
48060
48026
48039
48023
48025
48007
48011
48012
48019
47975
47978
47995
47976
47952
47970
47991
47983
47950
47956
47948
47908
47881
47918
47918
47871
47856
47867
47865
47845
47824
47832
47804
47767
47778
47771
47757
47730
47766
47706
47688
47680
47682
47667
47617
47636
47643
47653
47586
47619
47626
47589
47570
47588
47586
47573
47557
47544
47543
47482
47499
47461
47459
47416
47384
47404
47379
47339
47338
47312
47272
47274
47257
47266
47240
47231
47208
47232
47193
47181
47183
47176
47131
47156
47140
47138
47108
47120
47118
47073
47079
47042
47081
47063
47101
47140
47137
47181
47216
47270
47319
47390
47460
47548
47594
47629
47733
47799
47840
47864
47955
47942
47949
47979
47998
47969
47953
47968
47939
47968
47939
47962
47950
47906
47885
47939
47915
47875
47906
47910
47898
47859
47927
47894
47867
47833
47851
47857
47838
47817
47844
47815
47783
47765
47808
47785
47768
47713
47744
47694
47685
47687
47685
47615
47622
47666
47603
47575
47584
47550
47539
47492
47503
47495
47471
47435
47437
47435
47398
47372
47391
47379
47319
47327
47339
47290
47274
47285
47290
47252
47236
47255
47245
47196
47222
47231
47184
47183
47185
47204
47158
47143
47156
47137
47078
47063
47054
47043
46964
46974
46982
46935
46884
46879
46861
46823
46785
46781
46781
46755
46752
46740
46750
46703
46727
46688
46696
46648
46664
46666
46628
46623
46615
46653
46599
46625
46670
46673
46697
46734
46803
46830
46864
46946
46987
47061
47152
47256
47331
47405
47452
47551
47609
47665
47734
47777
47816
47809
47827
47840
47832
47805
47821
47840
47829
47745
47792
47816
47791
47764
47775
47805
47760
47756
47772
47757
47732
47725
47750
47707
47717
47696
47737
47669
47685
47669
47707
47609
47638
47633
47610
47611
47610
47623
47590
47599
47613
47585
47568
47532
47548
47521
47471
47483
47472
47465
47436
47437
47419
47422
47403
47353
47385
47356
47311
47336
47306
47282
47263
47282
47270
47235
47244
47260
47243
47237
47254
47242
47205
47213
47216
47222
47203
47177
47213
47183
47141
47142
47153
47137
47123
47087
47061
47028
47030
47053
46991
46921
46931
46938
46902
46889
46842
46872
46827
46826
46805
46818
46785
46783
46769
46747
46753
46703
46723
46724
46700
46708
46735
46731
46738
46771
46850
46825
46875
46936
46994
47032
47121
47186
47269
47343
47393
47503
47535
47573
47650
47773
47776
47809
47837
47831
47815
47798
47850
47816
47802
47800
47826
47783
47762
47786
47777
47733
47742
47743
47726
47702
47711
47709
47747
47720
47704
47723
47704
47666
47688
47694
47657
47652
47633
47633
47620
47614
47584
47593
47557
47546
47542
47520
47495
47511
47466
47448
47451
47414
47436
47383
47380
47359
47377
47319
47313
47334
47281
47259
47281
47246
47199
47201
47219
47225
47185
47192
47183
47179
47154
47135
47206
47151
47121
47130
47100
47074
47072
47077
47056
47016
46998
46978
46985
46908
46891
46882
46858
46810
46799
46788
46728
46699
46687
46715
46643
46647
46615
46592
46596
46546
46563
46562
46516
46533
46545
46497
46486
46496
46505
46482
46508
46555
46622
46621
46678
46756
46818
46869
46955
47038
47126
47218
47322
47416
47455
47548
47612
47704
47693
47749
47770
47784
47777
47781
47791
47777
47736
47727
47740
47721
47710
47703
47731
47664
47708
47712
47689
47664
47680
47655
47650
47615
47612
47630
47593
47592
47617
47592
47583
47529
47570
47573
47532
47547
47547
47526
47512
47483
47470
47446
47466
47434
47433
47384
47397
47363
47368
47311
47311
47349
47295
47286
47270
47281
47232
47209
47220
47209
47196
47151
47158
47129
47099
47132
47127
47092
47061
47074
47084
47073
47060
47087
47085
47020
47040
47040
47025
46994
46984
46948
46944
46919
46921
46903
46856
46787
46810
46794
46720
46674
46663
46649
46615
46583
46575
46547
46521
46545
46561
46490
46498
46533
46498
46453
46430
46472
46462
46398
46422
46455
46413
46410
46431
46461
46516
46571
46650
46746
46809
46868
46964
47075
47090
47223
47343
47403
47464
47539
47588
47653
47703
47717
47768
47727
47730
47744
47764
47730
47713
47751
47748
47693
47691
47684
47690
47659
47654
47668
47613
47611
47640
47649
47576
47588
47606
47574
47535
47575
47553
47550
47517
47517
47529
47484
47492
47491
47471
47464
47449
47432
47439
47379
47392
47390
47377
47335
47342
47319
47298
47257
47274
47289
47218
47218
47206
47234
47165
47169
47203
47148
47136
47117
47154
47104
47116
47111
47107
47073
47072
47095
47082
47053
47040
47028
47054
46998
46981
46995
46971
46915
46924
46919
46859
46801
46824
46767
46726
46717
46659
46652
46603
46591
46601
46510
46483
46490
46489
46461
46488
46474
46425
46399
46356
46395
46364
46337
46319
46340
46311
46294
46280
46309
46286
46300
46309
46390
46397
46467
46603
46666
46775
46895
47018
47048
47138
47244
47358
47428
47462
47551
47559
47602
47633
47648
47669
47647
47631
47628
47631
47596
47581
47591
47548
47548
47572
47528
47474
47498
47514
47470
47444
47446
47458
47436
47403
47382
47396
47378
47363
47380
47341
47321
47280
47317
47313
47271
47247
47254
47238
47216
47208
47208
47135
47181
47152
47098
47095
47097
47091
47088
47052
47050
47030
46991
46985
46995
46997
46953
46947
46914
46966
46902
46914
46928
46904
46863
46852
46853
46848
46811
46819
46796
46769
46764
46722
46710
46642
46645
46618
46616
46518
46523
46505
46447
46386
46346
46350
46295
46249
46261
46225
46185
46168
46187
46196
46155
46167
46175
46147
46141
46136
46170
46112
46098
46087
46153
46109
46114
46145
46176
46159
46227
46286
46368
46525
46635
46784
46844
46961
47054
47137
47228
47295
47388
47429
47424
47473
47530
47514
47518
47499
47491
47476
47455
47490
47484
47457
47437
47467
47475
47403
47407
47427
47414
47400
47410
47395
47387
47356
47390
47365
47332
47319
47319
47321
47287
47262
47278
47230
47228
47252
47227
47172
47167
47190
47159
47119
47124
47131
47115
47088
47100
47084
47076
47022
47023
47018
46983
46997
46994
46978
46957
46936
46932
46942
46913
46890
46924
46918
46903
46898
46898
46879
46844
46841
46881
46812
46806
46774
46756
46698
46707
46650
46603
46570
46569
46545
46541
46476
46452
46437
46389
46384
46392
46365
46353
46322
46320
46323
46262
46270
46255
46268
46209
46191
46218
46149
46190
46201
46211
46176
46212
46253
46308
46338
46449
46595
46692
46828
46907
47009
47077
47154
47252
47368
47387
47425
47510
47543
47540
47544
47595
47555
47548
47562
47577
47529
47510
47535
47542
47528
47498
47473
47491
47458
47480
47472
47450
47448
47417
47466
47415
47384
47380
47398
47358
47323
47330
47293
47262
47293
47278
47234
47213
47223
47208
47199
47166
47164
47171
47147
47135
47124
47125
47073
47087
47090
47043
47036
47033
47015
46998
46961
46979
47001
46928
46953
46951
46983
46901
46877
46943
46901
46869
46893
46922
46868
46859
46862
46828
46829
46812
46816
46815
46732
46715
46716
46659
46640
46581
46592
46515
46441
46457
46407
46318
46312
46303
46278
46240
46232
46246
46223
46211
46195
46239
46211
46174
46184
46178
46147
46154
46179
46184
46149
46183
46174
46169
46175
46235
46265
46305
46404
46505
46644
46747
46856
46973
47048
47121
47236
47330
47395
47455
47522
47599
47629
47631
47657
47680
47644
47628
47631
47660
47614
47588
47627
47588
47582
47574
47608
47560
47536
47555
47571
47494
47513
47501
47504
47451
47452
47455
47446
47426
47411
47376
47358
47354
47351
47356
47292
47317
47291
47321
47242
47221
47233
47221
47173
47161
47158
47151
47107
47109
47119
47092
47071
47065
47090
47063
47033
47040
47055
47023
47014
47042
47001
46985
46986
46995
46993
46980
46975
46958
46912
46919
46908
46892
46824
46810
46808
46771
46712
46693
46680
46591
46590
46549
46525
46468
46460
46419
46383
46364
46366
46413
46353
46335
46316
46340
46300
46236
46273
46270
46266
46241
46216
46190
46188
46191
46216
46215
46208
46288
46325
46353
46427
46600
46708
46800
46883
47023
47096
47153
47246
47357
47394
47461
47506
47574
47554
47555
47597
47602
47565
47584
47581
47558
47507
47532
47552
47504
47501
47501
47500
47458
47458
47480
47458
47412
47459
47478
47436
47405
47413
47430
47373
47400
47361
47368
47326
47303
47314
47310
47247
47240
47248
47226
47186
47162
47166
47150
47136
47120
47136
47110
47070
47086
47093
47055
47035
47062
47029
47017
46978
47030
46980
46972
46965
46977
46996
46971
46958
47009
46959
46920
46946
46929
46900
46917
46882
46859
46817
46774
46787
46728
46697
46674
46649
46586
46548
46544
46541
46437
46456
46479
46441
46408
46410
46409
46368
46335
46326
46343
46314
46302
46293
46322
46297
46252
46288
46274
46282
46341
46374
46440
46516
46616
46762
46801
46934
47006
47106
47134
47246
47318
47398
47418
47496
47513
47533
47528
47544
47549
47511
47475
47508
47483
47487
47430
47478
47452
47427
47411
47427
47398
47388
47377
47376
47363
47328
47339
47350
47313
47313
47319
47304
47268
47266
47240
47245
47218
47247
47223
47158
47162
47167
47179
47124
47102
47105
47064
47059
47071
47064
47024
47011
47008
47028
46982
46962
46998
47007
46963
46964
46948
46945
46889
46880
46911
46901
46870
46897
46886
46867
46785
46840
46847
46807
46775
46744
46744
46727
46709
46683
46660
46602
46594
46574
46524
46499
46461
46462
46405
46407
46408
46406
46363
46388
46335
46348
46303
46269
46306
46254
46218
46211
46256
46202
46222
46202
46243
46210
46282
46316
46363
46441
46543
46652
46756
46843
46931
47018
47106
47180
47312
47362
47384
47429
47505
47504
47530
47531
47562
47504
47505
47511
47504
47488
47473
47494
47498
47460
47460
47481
47459
47438
47440
47465
47415
47393
47435
47397
47404
47375
47368
47411
47363
47359
47397
47366
47338
47346
47343
47302
47296
47287
47287
47233
47226
47232
47211
47179
47151
47179
47142
47083
47090
47076
47075
47026
47038
47020
46969
46968
46956
46941
46882
46870
46891
46888
46820
46828
46825
46817
46811
46798
46821
46764
46718
46725
46749
46672
46673
46672
46657
46604
46585
46570
46509
46457
46475
46429
46392
46350
46323
46317
46245
46239
46242
46242
46200
46214
46207
46174
46172
46183
46195
46153
46169
46190
46191
46144
46160
46169
46176
46111
46159
46184
46187
46183
46246
46288
46352
46455
46603
46727
46805
46927
47048
47112
47185
47294
47401
47468
47502
47544
47608
47576
47606
47613
47630
47617
47576
47614
47631
47576
47567
47590
47597
47535
47556
47576
47572
47524
47559
47550
47502
47469
47502
47490
47467
47484
47484
47430
47419
47441
47452
47409
47399
47408
47390
47374
47376
47389
47352
47325
47352
47310
47318
47282
47293
47267
47261
47206
47203
47238
47202
47181
47196
47169
47168
47130
47159
47148
47108
47101
47148
47102
47082
47105
47122
47084
47055
47064
47077
47021
47041
47063
47037
46984
47000
46982
46941
46911
46897
46877
46812
46793
46776
46795
46692
46671
46685
46638
46598
46578
46613
46605
46593
46620
46597
46576
46586
46595
46624
46591
46567
46623
46618
46602
46603
46633
46657
46686
46723
46798
46816
46886
46981
47040
47073
47132
47221
47294
47336
47444
47545
47582
47645
47713
47783
47799
47802
47847
47869
47840
47847
47850
47823
47820
47808
47798
47775
47745
47778
47740
47742
47727
47754
47757
47734
47715
47725
47707
47666
47726
47706
47699
47685
47671
47707
47629
47654
47659
47657
47625
47606
47621
47617
47576
47598
47589
47543
47531
47516
47517
47506
47468
47447
47471
47428
47424
47437
47424
47387
47388
47375
47351
47335
47353
47360
47331
47331
47301
47352
47319
47282
47325
47318
47302
47334
47334
47301
47285
47286
47290
47242
47217
47239
47222
47156
47144
47116
47119
47053
47034
47000
46997
46925
46915
46919
46887
46879
46859
46866
46820
46846
46819
46827
46770
46793
46758
46767
46708
46758
46762
46713
46705
46700
46740
46714
46735
46780
46795
46825
46883
46958
47001
47026
47097
47227
47265
47330
47449
47547
47565
47625
47691
47757
47782
47831
47807
47860
47829
47830
47873
47823
47790
47814
47853
47790
47785
47802
47823
47754
47763
47798
47791
47762
47760
47784
47766
47733
47732
47758
47729
47724
47737
47746
47683
47680
47685
47669
47660
47653
47642
47626
47588
47595
47609
47552
47559
47557
47536
47486
47466
47522
47476
47440
47416
47441
47459
47382
47364
47377
47335
47325
47346
47343
47298
47309
47320
47281
47245
47262
47265
47282
47238
47263
47250
47241
47208
47201
47206
47149
47120
47137
47123
47094
47071
47105
47067
47025
46975
46991
46906
46897
46881
46838
46803
46782
46762
46753
46701
46696
46715
46667
46673
46671
46685
46666
46628
46667
46667
46630
46614
46658
46652
46599
46633
46676
46691
46705
46757
46799
46841
46922
47000
47057
47094
47181
47261
47346
47396
47475
47545
47598
47664
47714
47794
47801
47792
47809
47875
47804
47807
47840
47841
47797
47802
47820
47786
47772
47772
47785
47750
47750
47733
47753
47717
47699
47751
47715
47695
47700
47677
47696
47655
47673
47686
47655
47596
47623
47662
47612
47603
47595
47572
47562
47517
47557
47519
47474
47489
47468
47448
47411
47417
47435
47386
47381
47369
47357
47346
47325
47346
47335
47304
47319
47317
47308
47262
47272
47298
47249
47233
47243
47253
47212
47216
47193
47170
47145
47177
47155
47103
47060
47078
47064
47005
46993
46971
46970
46890
46869
46847
46800
46774
46743
46757
46718
46719
46709
46740
46683
46707
46680
46738
46677
46692
46708
46711
46685
46698
46693
46709
46675
46705
46740
46744
46804
46845
46894
46912
47021
47082
47125
47162
47263
47354
47415
47476
47586
47652
47666
47749
47824
47859
47819
47845
47906
47897
47852
47883
47891
47851
47819
47837
47848
47808
47822
47822
47822
47787
47783
47796
47791
47731
47736
47767
47737
47695
47733
47729
47682
47679
47700
47682
47671
47656
47636
47641
47617
47604
47628
47606
47584
47546
47567
47547
47492
47484
47540
47442
47450
47451
47453
47389
47415
47410
47369
47364
47364
47354
47339
47310
47332
47366
47311
47325
47294
47337
47300
47252
47303
47311
47281
47270
47276
47243
47219
47244
47239
47164
47183
47151
47132
47076
47065
47043
47020
46957
46955
46935
46895
46854
46855
46844
46785
46818
46790
46807
46762
46767
46783
46777
46736
46730
46756
46748
46724
46775
46777
46759
46793
46841
46907
46891
46958
47002
47070
47075
47199
47300
47343
47439
47524
47577
47622
47729
47797
47853
47879
47911
47960
47985
47935
47955
47970
47958
47937
47952
47969
47951
47909
47921
47955
47898
47870
47924
47894
47903
47871
47896
47875
47854
47885
47856
47880
47839
47856
47833
47807
47790
47800
47824
47784
47768
47813
47768
47753
47792
47764
47725
47722
47720
47699
47678
47634
47644
47636
47606
47633
47624
47588
47584
47536
47580
47544
47566
47521
47560
47516
47537
47505
47520
47470
47513
47513
47476
47461
47461
47496
47433
47446
47416
47409
47381
47363
47358
47357
47309
47283
47278
47252
47193
47196
47175
47116
47087
47079
47076
47039
47004
47038
47016
46995
46980
46994
46979
46987
46982
46995
46958
46937
46974
46998
46960
46951
46983
47007
46996
47015
47059
47092
47096
47148
47204
47233
47266
47340
47447
47476
47541
47645
47704
47735
47785
47874
47927
47923
47962
47995
47948
47965
47970
47957
47951
47942
47938
47954
47904
47902
47910
47907
47878
47895
47920
47927
47889
47886
47926
47849
47820
47858
47874
47830
47833
47839
47832
47771
47805
47812
47766
47778
47768
47784
47765
47749
47738
47720
47664
47656
47693
47684
47635
47630
47624
47591
47594
47588
47619
47554
47538
47569
47528
47531
47492
47513
47490
47484
47486
47514
47458
47440
47471
47471
47439
47433
47442
47440
47392
47366
47416
47403
47334
47371
47335
47315
47282
47268
47259
47237
47185
47161
47168
47121
47104
47065
47074
47043
47042
47034
47005
46988
47007
47014
46997
46962
46989
46983
46965
46960
46996
47012
46959
46960
47019
47009
46962
47046
47074
47089
47142
47180
47224
47255
47274
47380
47484
47510
47600
47664
47715
47746
47852
47918
47937
47953
48007
47985
47941
47978
48014
48008
47951
47966
47990
47993
47918
47910
47965
47914
47898
47943
47940
47912
47904
47908
47948
47892
47897
47869
47869
47819
47832
47844
47841
47833
47853
47814
47776
47787
47794
47787
47709
47707
47761
47730
47669
47682
47690
47653
47627
47640
47656
47589
47613
47582
47609
47552
47565
47593
47571
47482
47537
47559
47515
47493
47524
47529
47474
47460
47481
47473
47438
47457
47452
47438
47397
47404
47419
47368
47346
47348
47350
47311
47294
47278
47267
47231
47168
47216
47190
47110
47096
47114
47086
47069
47048
47056
47014
47002
47029
47027
47031
47009
47000
46976
46965
46957
46984
46957
46942
46949
46986
46957
46991
47013
47067
47035
47091
47145
47205
47208
47294
47365
47439
47508
47579
47689
47737
47770
47846
47898
47949
47947
47989
48028
47963
47991
48007
47962
47945
47974
47972
47905
47927
47951
47944
47934
47907
47908
47935
47873
47896
47938
47887
47858
47865
47872
47894
47827
47837
47852
47817
47768
47791
47824
47798
47765
47773
47751
47723
47739
47758
47729
47701
47718
47720
47653
47656
47667
47666
47607
47623
47612
47594
47565
47543
47592
47529
47511
47550
47524
47535
47514
47515
47524
47452
47478
47478
47511
47443
47464
47472
47446
47413
47449
47392
47350
47370
47355
47360
47296
47288
47282
47286
47195
47191
47176
47149
47148
47103
47106
47069
47065
47062
47060
47040
47051
47048
47037
47017
47003
47034
47019
46975
47020
47016
47025
46995
47026
47046
47028
47062
47115
47135
47170
47228
47292
47371
47408
47533
47583
47647
47738
47796
47836
47894
47938
47980
48028
47985
47996
48019
48011
47994
47999
47998
47956
47950
47969
47992
47955
47945
47958
47975
47948
47949
47982
47952
47935
47946
47981
47954
47891
47932
47908
47880
47896
47910
47872
47852
47859
47842
47848
47783
47826
47807
47774
47770
47776
47796
47718
47708
47706
47710
47647
47664
47695
47651
47617
47616
47638
47611
47599
47581
47588
47595
47565
47541
47554
47544
47525
47553
47516
47514
47483
47512
47478
47470
47441
47484
47420
47402
47397
47424
47336
47317
47328
47317
47243
47261
47250
47202
47181
47161
47152
47108
47071
47039
47066
47003
46996
47002
47024
46979
46984
47023
46968
46951
46957
46962
46936
46931
46980
46935
46920
46952
46982
46997
46990
47040
47097
47096
47116
47184
47260
47317
47386
47486
47587
47601
47662
47748
47820
47831
47922
47958
47952
47927
47976
48004
47954
47960
47989
47973
47928
47938
47948
47933
47907
47924
47914
47917
47900
47911
47923
47923
47865
47909
47896
47853
47856
47873
47885
47813
47832
47862
47812
47833
47799
47799
47778
47746
47742
47746
47705
47712
47734
47707
47656
47660
47717
47658
47647
47642
47640
47593
47602
47588
47615
47548
47528
47565
47534
47514
47502
47509
47479
47459
47466
47481
47461
47422
47409
47456
47385
47359
47399
47386
47358
47348
47377
47333
47326
47308
47325
47276
47246
47262
47241
47216
47165
47190
47148
47072
47063
47098
47009
46955
46946
46936
46923
46891
46878
46881
46837
46846
46819
46874
46805
46821
46814
46820
46811
46810
46823
46798
46780
46810
46842
46792
46780
46822
46896
46874
46936
46989
47067
47085
47137
47259
47281
47352
47442
47565
47584
47672
47746
47823
47843
47896
47968
47968
47922
47961
47983
47966
47957
47961
47935
47921
47933
47923
47956
47886
47914
47917
47901
47869
47897
47889
47850
47853
47863
47877
47825
47783
47810
47824
47782
47781
47800
47789
47757
47781
47806
47760
47699
47749
47730
47686
47702
47687
47686
47654
47674
47643
47607
47593
47595
47611
47545
47530
47500
47529
47492
47472
47471
47502
47428
47423
47432
47440
47391
47406
47409
47389
47358
47395
47407
47353
47364
47334
47369
47295
47290
47320
47323
47250
47284
47271
47228
47188
47204
47181
47126
47100
47081
47083
46988
46962
46940
46943
46926
46875
46849
46876
46809
46819
46852
46836
46817
46802
46849
46804
46820
46806
46814
46761
46784
46801
46822
46755
46800
46836
46850
46845
46905
46978
47021
47041
47149
47191
47230
47316
47426
47512
47540
47602
47692
47748
47773
47872
47916
47880
47913
47902
47904
47910
47894
47905
47888
47869
47856
47875
47856
47836
47826
47858
47859
47814
47813
47837
47792
47810
47822
47805
47796
47778
47800
47758
47761
47763
47791
47733
47723
47730
47745
47691
47715
47705
47679
47644
47650
47659
47635
47615
47590
47597
47559
47546
47542
47541
47482
47479
47497
47473
47455
47400
47417
47397
47379
47397
47415
47359
47331
47359
47379
47334
47311
47332
47334
47296
47292
47321
47296
47247
47271
47293
47269
47211
47200
47167
47133
47128
47122
47097
47038
47030
47029
46948
46918
46936
46900
46890
46883
46889
46915
46865
46846
46868
46861
46859
46818
46862
46828
46826
46816
46842
46802
46787
46810
46875
46838
46857
46895
46951
46960
47012
47102
47116
47170
47274
47380
47444
47481
47558
47693
47684
47775
47841
47900
47852
47912
47954
47904
47895
47923
47928
47898
47860
47889
47922
47914
47871
47860
47868
47836
47842
47876
47852
47792
47832
47855
47820
47812
47821
47802
47754
47753
47753
47793
47720
47721
47745
47736
47693
47671
47709
47677
47636
47633
47676
47611
47595
47641
47564
47548
47547
47526
47539
47491
47488
47500
47464
47441
47453
47461
47397
47420
47378
47386
47378
47379
47383
47354
47319
47361
47340
47321
47307
47336
47328
47267
47245
47301
47283
47218
47212
47218
47170
47137
47139
47107
47074
46984
47015
46968
46902
46893
46857
46869
46816
46776
46780
46762
46752
46752
46770
46729
46703
46700
46722
46674
46656
46671
46668
46637
46649
46675
46673
46701
46734
46779
46779
46825
46892
46980
47023
47091
47174
47233
47323
47389
47496
47544
47579
47684
47732
47779
47844
47874
47930
47877
47884
47888
47892
47836
47854
47858
47815
47824
47815
47823
47795
47796
47792
47811
47789
47761
47758
47765
47713
47718
47697
47702
47677
47668
47707
47683
47632
47642
47669
47613
47613
47637
47640
47593
47587
47595
47582
47530
47541
47545
47520
47497
47502
47531
47476
47431
47442
47436
47386
47376
47408
47374
47316
47330
47330
47300
47284
47259
47293
47236
47232
47226
47222
47170
47144
47171
47176
47119
47150
47150
47113
47103
47079
47105
47042
47037
47036
47044
46992
46932
46966
46970
46885
46868
46906
46861
46815
46794
46802
46764
46745
46748
46794
46719
46729
46741
46753
46680
46693
46727
46716
46673
46681
46691
46683
46674
46656
46704
46655
46647
46680
46698
46693
46745
46825
46861
46879
46964
47086
47108
47178
47265
47390
47435
47532
47614
47721
47732
47801
47858
47913
47895
47924
47940
47893
47894
47891
47921
47883
47884
47902
47888
47852
47842
47860
47868
47815
47809
47843
47816
47828
47803
47827
47774
47766
47839
47794
47768
47753
47764
47764
47723
47722
47725
47711
47689
47719
47709
47690
47646
47650
47661
47625
47606
47587
47585
47554
47532
47553
47539
47507
47481
47487
47455
47408
47437
47428
47411
47385
47395
47403
47334
47347
47369
47374
47339
47300
47332
47317
47293
47279
47312
47295
47263
47280
47284
47233
47215
47254
47226
47195
47161
47179
47137
47118
47077
47052
47014
46983
46949
46939
46871
46867
46870
46798
46777
46777
46795
46727
46720
46755
46767
46723
46745
46722
46736
46715
46691
46746
46720
46692
46748
46754
46743
46746
46771
46818
46875
46913
47012
47076
47123
47187
47253
47344
47406
47514
47592
47608
47685
47740
47803
47859
47859
47897
47930
47888
47893
47911
47921
47875
47909
47917
47878
47846
47867
47885
47839
47843
47868
47857
47808
47796
47823
47853
47761
47750
47814
47780
47740
47765
47785
47750
47723
47740
47748
47684
47669
47695
47689
47634
47634
47662
47624
47596
47577
47608
47549
47544
47521
47532
47489
47460
47459
47459
47422
47436
47451
47388
47393
47393
47380
47337
47336
47325
47344
47304
47302
47317
47298
47272
47279
47279
47270
47229
47220
47248
47220
47213
47201
47182
47142
47127
47132
47110
47051
47014
47003
46961
46910
46887
46886
46834
46809
46811
46807
46785
46752
46772
46766
46734
46729
46769
46729
46699
46711
46739
46697
46683
46719
46751
46690
46747
46764
46842
46844
46907
47005
47066
47141
47205
47308
47382
47461
47558
47652
47674
47727
47767
47851
47826
47830
47880
47904
47853
47856
47860
47858
47832
47869
47873
47813
47834
47850
47832
47791
47807
47840
47778
47779
47788
47778
47752
47726
47740
47753
47721
47717
47719
47741
47690
47675
47679
47683
47630
47649
47642
47607
47605
47583
47595
47551
47523
47548
47558
47485
47518
47497
47473
47433
47429
47437
47415
47356
47408
47376
47386
47356
47377
47363
47317
47338
47322
47339
47284
47305
47312
47307
47287
47277
47279
47259
47257
47254
47230
47174
47170
47161
47150
47065
47040
47046
47016
46976
46929
46909
46872
46846
46845
46861
46780
46786
46770
46776
46728
46740
46747
46748
46706
46735
46752
46730
46727
46724
46763
46718
46754
46780
46815
46806
46838
46926
46971
47013
47121
47194
47212
47309
47399
47499
47554
47620
47681
47789
47781
47852
47944
47924
47900
47950
47968
47917
47922
47957
47966
47915
47899
47941
47937
47882
47878
47926
47906
47852
47898
47918
47866
47821
47843
47877
47826
47802
47839
47857
47789
47788
47825
47781
47745
47783
47754
47744
47727
47741
47735
47694
47695
47693
47684
47652
47659
47640
47668
47609
47624
47621
47595
47545
47559
47542
47509
47472
47501
47509
47459
47465
47451
47435
47429
47417
47443
47414
47387
47419
47465
47424
47375
47405
47388
47329
47328
47337
47329
47295
47285
47280
47216
47198
47201
47184
47107
47060
47051
47060
46976
46946
46980
46962
46912
46898
46923
46869
46871
46851
46863
46830
46797
46808
46827
46776
46793
46801
46802
46786
46817
46860
46836
46821
46867
46923
46929
46988
47080
47168
47143
47222
47305
47376
47431
47537
47649
47661
47735
47780
47840
47854
47897
47924
47976
47941
47948
47958
47966
47910
47922
47945
47919
47893
47895
47914
47894
47900
47875
47888
47860
47876
47876
47903
47813
47869
47850
47842
47803
47794
47869
47831
47805
47824
47846
47789
47796
47775
47797
47757
47781
47787
47770
47723
47756
47765
47707
47705
47690
47721
47693
47698
47691
47691
47642
47648
47651
47646
47619
47621
47656
47590
47590
47585
47613
47550
47581
47580
47590
47527
47514
47518
47517
47476
47485
47462
47411
47389
47404
47375
47303
47282
47272
47231
47153
47134
47103
47077
47006
46987
46964
46913
46921
46925
46883
46858
46827
46838
46824
46793
46799
46823
46815
46812
46779
46824
46779
46808
46807
46844
46826
46831
46887
46933
46955
46962
47075
47176
47177
47269
47321
47388
47451
47563
47663
47694
47725
47800
47876
47898
47936
48008
48018
47984
48038
48022
47990
47968
48001
47983
47955
47958
47983
47973
47942
47969
47973
47983
47943
47940
47970
47926
47917
47937
47929
47893
47878
47902
47887
47859
47849
47856
47879
47817
47815
47820
47818
47783
47762
47802
47779
47738
47762
47731
47701
47708
47708
47745
47673
47664
47702
47651
47637
47637
47616
47607
47577
47602
47596
47573
47529
47566
47563
47522
47530
47528
47506
47506
47498
47525
47489
47494
47488
47509
47456
47426
47414
47397
47342
47346
47328
47292
47254
47242
47256
47165
47170
47148
47117
47084
47058
47108
47081
47007
47036
47050
47048
47008
47013
47053
47003
47001
47022
47070
47009
47014
47057
47078
47070
47114
47174
47171
47165
47249
47306
47318
47385
47452
47568
47624
47644
47764
47797
47811
47919
47968
48018
48044
48053
48085
48087
48058
48035
48072
48064
48049
48059
48026
47992
48025
48015
48025
47997
48001
47989
47975
47927
47990
47979
47952
47943
47950
47964
47870
47895
47925
47943
47885
47874
47887
47891
47835
47864
47857
47802
47804
47793
47831
47761
47761
47748
47742
47717
47728
47743
47685
47670
47681
47713
47662
47609
47620
47624
47576
47620
47609
47613
47562
47567
47576
47587
47550
47600
47573
47538
47529
47542
47536
47487
47466
47479
47492
47407
47428
47396
47387
47350
47344
47341
47281
47243
47252
47241
47203
47174
47175
47173
47097
47118
47142
47132
47142
47140
47147
47129
47106
47132
47146
47101
47114
47138
47178
47133
47194
47220
47252
47277
47296
47355
47367
47403
47461
47566
47576
47648
47771
47809
47849
47937
48031
48061
48097
48157
48216
48217
48225
48198
48248
48234
48218
48244
48258
48196
48247
48255
48228
48222
48240
48267
48212
48224
48216
48254
48204
48199
48196
48212
48174
48165
48207
48184
48159
48192
48193
48154
48131
48171
48194
48139
48134
48137
48158
48090
48098
48117
48094
48066
48075
48094
48064
48059
48060
48065
48025
47994
48053
48026
47966
47962
48013
47976
47909
47949
47959
47956
47936
47942
47948
47941
47922
47949
47947
47911
47895
47936
47939
47878
47895
47922
47891
47849
47841
47846
47834
47803
47789
47796
47729
47695
47724
47671
47655
47639
47620
47604
47561
47585
47601
47539
47543
47543
47547
47525
47529
47528
47517
47512
47523
47560
47552
47519
47521
47545
47518
47517
47547
47605
47572
47578
47607
47622
47611
47697
47754
47799
47846
47921
47969
47993
48054
48123
48221
48223
48254
48324
48342
48340
48337
48395
48346
48336
48374
48370
48355
48300
48345
48367
48304
48309
48343
48341
48306
48301
48334
48325
48291
48285
48313
48321
48279
48281
48293
48270
48275
48268
48272
48238
48228
48229
48239
48203
48209
48221
48200
48163
48172
48199
48144
48145
48183
48169
48138
48124
48120
48088
48103
48104
48116
48075
48046
48072
48065
48021
48011
48020
48028
47997
48015
48039
48014
47992
48007
48002
47976
47986
47982
48020
47958
47955
47979
47975
47889
47933
47924
47907
47856
47867
47844
47805
47794
47800
47767
47704
47725
47725
47703
47678
47656
47681
47634
47624
47642
47684
47636
47625
47616
47654
47627
47620
47633
47642
47604
47615
47661
47639
47600
47611
47653
47664
47655
47735
47767
47777
47820
47893
47941
47941
48013
48076
48124
48173
48250
48300
48321
48320
48364
48375
48356
48344
48363
48379
48328
48347
48393
48380
48314
48332
48351
48340
48302
48331
48355
48320
48312
48325
48321
48294
48297
48325
48310
48276
48302
48328
48264
48283
48287
48294
48257
48253
48272
48286
48246
48241
48250
48235
48206
48215
48219
48210
48185
48186
48188
48136
48125
48131
48142
48099
48103
48090
48084
48071
48080
48075
48077
48015
48040
48055
48013
47974
48007
48035
48001
47986
48021
48046
47980
48008
47991
48018
48002
48019
48004
47966
47959
47981
47987
47940
47940
47922
47920
47854
47853
47885
47814
47809
47817
47788
47762
47777
47804
47779
47748
47744
47787
47776
47727
47730
47750
47730
47684
47711
47723
47692
47723
47723
47744
47741
47766
47803
47836
47830
47901
47940
47974
48006
48079
48154
48181
48222
48311
48352
48341
48351
48346
48396
48352
48358
48395
48372
48372
48362
48377
48373
48355
48382
48381
48344
48354
48378
48400
48336
48369
48381
48364
48336
48371
48403
48373
48334
48357
48363
48351
48346
48344
48348
48294
48308
48350
48332
48306
48310
48302
48319
48313
48306
48308
48291
48284
48281
48283
48253
48251
48268
48261
48203
48217
48249
48227
48217
48200
48218
48185
48214
48204
48204
48191
48172
48196
48181
48187
48177
48197
48160
48168
48155
48180
48153
48163
48173
48171
48136
48116
48113
48121
48108
48095
48109
48063
48024
48012
48006
47965
47928
47950
47926
47864
47889
47904
47874
47834
47825
47852
47836
47819
47842
47811
47785
47796
47800
47809
47789
47791
47814
47814
47776
47825
47865
47859
47856
47877
47950
47952
48007
48070
48083
48141
48181
48234
48297
48321
48360
48384
48426
48398
48423
48437
48416
48409
48428
48461
48399
48404
48422
48423
48377
48390
48423
48405
48388
48366
48405
48371
48376
48379
48381
48363
48391
48371
48376
48352
48358
48368
48351
48344
48351
48360
48329
48298
48342
48323
48282
48278
48313
48306
48309
48273
48311
48329
48269
48282
48298
48278
48261
48274
48287
48241
48216
48274
48256
48228
48198
48226
48223
48161
48192
48201
48177
48169
48171
48193
48145
48143
48144
48179
48131
48167
48167
48173
48105
48140
48171
48109
48131
48112
48126
48063
48077
48086
48082
48049
48019
48036
47985
47938
47949
47940
47924
47882
47891
47909
47847
47813
47849
47860
47774
47789
47805
47846
47763
47768
47790
47781
47779
47776
47801
47778
47754
47766
47788
47756
47763
47829
47809
47836
47860
47928
47928
47891
47965
48019
48048
48113
48132
48226
48229
48294
48358
48379
48364
48398
48467
48376
48407
48404
48428
48415
48415
48428
48432
48363
48419
48402
48405
48385
48385
48411
48408
48367
48381
48401
48365
48383
48365
48386
48325
48351
48341
48370
48340
48370
48370
48333
48345
48339
48354
48313
48333
48355
48367
48305
48314
48329
48321
48295
48297
48312
48283
48273
48281
48289
48266
48278
48282
48294
48263
48244
48245
48249
48213
48206
48234
48211
48172
48155
48208
48186
48162
48173
48188
48145
48167
48157
48150
48144
48148
48162
48165
48136
48172
48175
48148
48119
48130
48116
48098
48056
48076
48082
48023
48029
48034
47978
47932
47965
47970
47955
47903
47916
47939
47886
47877
47906
47903
47874
47870
47911
47855
47848
47830
47894
47854
47836
47844
47854
47833
47863
47842
47875
47834
47888
47933
47929
47921
47967
48036
48057
48118
48181
48226
48247
48298
48336
48375
48376
48382
48394
48412
48392
48401
48425
48392
48383
48391
48418
48375
48377
48384
48381
48332
48366
48397
48415
48370
48354
48386
48354
48334
48372
48378
48341
48347
48353
48376
48309
48324
48344
48313
48311
48323
48330
48304
48282
48322
48310
48257
48278
48284
48261
48238
48252
48257
48257
48238
48220
48255
48258
48206
48252
48232
48207
48195
48209
48198
48170
48165
48159
48172
48137
48138
48174
48154
48155
48167
48181
48122
48134
48168
48162
48112
48117
48141
48136
48113
48101
48117
48088
48032
48064
48043
48022
48005
48008
47990
47966
47926
47925
47928
47882
47911
47887
47889
47872
47880
47904
47858
47868
47867
47887
47861
47823
47861
47869
47863
47843
47869
47885
47839
47904
47923
47876
47920
47959
47974
48009
48030
48104
48151
48146
48196
48285
48311
48330
48356
48410
48353
48393
48394
48397
48349
48384
48422
48383
48351
48367
48420
48379
48342
48396
48418
48386
48354
48385
48386
48353
48337
48343
48369
48314
48362
48355
48347
48329
48335
48337
48316
48297
48320
48336
48298
48307
48311
48325
48297
48294
48316
48293
48280
48304
48309
48285
48279
48266
48297
48267
48285
48258
48295
48246
48226
48268
48248
48227
48263
48265
48238
48198
48246
48268
48223
48207
48226
48240
48191
48205
48264
48226
48209
48211
48193
48187
48152
48209
48220
48174
48162
48154
48166
48112
48072
48105
48109
48037
48058
48079
48023
48006
47974
47992
47972
47965
47975
48001
47944
47967
47935
47954
47894
47896
47930
47908
47896
47862
47924
47876
47856
47910
47874
47874
47858
47892
47899
47891
47894
47948
47938
47971
48052
48067
48087
48129
48202
48270
48226
48321
48374
48377
48376
48358
48378
48392
48377
48403
48381
48361
48356
48363
48399
48363
48348
48374
48385
48319
48336
48371
48346
48352
48343
48361
48308
48328
48354
48342
48314
48310
48333
48341
48309
48312
48355
48323
48269
48297
48316
48288
48281
48308
48318
48267
48258
48281
48287
48242
48257
48276
48264
48233
48239
48235
48219
48213
48193
48210
48168
48172
48175
48211
48151
48143
48206
48183
48124
48151
48188
48152
48136
48172
48163
48145
48162
48135
48167
48116
48109
48149
48128
48100
48100
48098
48081
48065
48065
48060
48018
47997
48000
47991
47935
47912
47916
47879
47847
47820
47831
47821
47791
47803
47804
47780
47791
47789
47784
47716
47767
47778
47749
47705
47755
47758
47743
47754
47733
47786
47751
47761
47764
47831
47777
47817
47856
47852
47852
47893
47957
47998
48014
48107
48118
48156
48167
48257
48325
48272
48339
48354
48343
48284
48332
48360
48326
48338
48329
48382
48332
48321
48334
48353
48320
48308
48321
48343
48289
48330
48327
48341
48312
48312
48331
48306
48287
48317
48339
48316
48291
48325
48313
48268
48274
48298
48292
48267
48297
48281
48254
48269
48276
48294
48254
48233
48239
48250
48227
48240
48239
48232
48181
48249
48198
48221
48173
48196
48238
48190
48183
48208
48184
48163
48185
48219
48193
48168
48187
48197
48159
48168
48179
48188
48157
48172
48164
48172
48138
48190
48202
48156
48168
48116
48152
48119
48116
48109
48106
48093
48047
48072
48037
47995
47996
48032
47979
47969
47977
47997
47951
47946
47962
47961
47905
47912
47944
47936
47890
47877
47935
47855
47854
47885
47906
47867
47884
47877
47914
47864
47927
47947
47979
47976
48016
48076
48114
48106
48187
48212
48243
48293
48313
48376
48339
48320
48391
48365
48359
48350
48374
48396
48364
48359
48394
48340
48338
48384
48382
48335
48354
48359
48393
48333
48340
48364
48376
48348
48345
48378
48330
48353
48366
48351
48314
48352
48341
48345
48314
48324
48343
48361
48332
48327
48379
48300
48331
48311
48331
48286
48297
48326
48311
48280
48286
48259
48285
48261
48270
48279
48254
48248
48270
48274
48244
48237
48232
48251
48224
48195
48263
48235
48203
48232
48275
48235
48239
48215
48252
48180
48191
48237
48252
48218
48174
48208
48226
48152
48166
48208
48172
48131
48155
48153
48114
48093
48107
48104
48093
48060
48069
48067
48040
48041
48067
48060
48034
48025
48055
48032
48014
48010
48042
47991
47992
48001
47997
47969
47971
48026
47995
48001
48011
48024
48019
48038
48093
48157
48141
48160
48253
48280
48273
48332
48362
48375
48360
48385
48386
48380
48383
48384
48401
48369
48379
48362
48414
48354
48373
48413
48372
48354
48372
48394
48362
48354
48359
48379
48341
48311
48353
48389
48325
48336
48371
48366
48351
48317
48379
48329
48338
48363
48360
48316
48329
48332
48319
48321
48333
48308
48322
48296
48331
48344
48300
48291
48343
48319
48276
48285
48294
48333
48262
48267
48322
48288
48267
48264
48298
48237
48266
48277
48285
48250
48228
48254
48248
48230
48227
48258
48276
48252
48253
48251
48248
48211
48272
48232
48217
48255
48236
48270
48227
48216
48219
48201
48156
48160
48171
48113
48123
48120
48120
48091
48059
48084
48090
48063
48010
48065
48078
48008
48039
48027
48028
47995
48021
48002
47993
47958
47989
47985
47934
47955
47962
47974
47915
47948
47957
47946
47958
47990
48005
47960
48009
48044
48064
48106
48143
48199
48234
48231
48282
48368
48341
48331
48350
48401
48364
48369
48396
48367
48359
48361
48398
48387
48380
48372
48387
48363
48354
48344
48400
48361
48374
48380
48377
48361
48306
48378
48377
48333
48347
48376
48355
48338
48365
48368
48311
48341
48336
48367
48300
48359
48333
48364
48325
48309
48346
48326
48283
48293
48327
48341
48295
48295
48322
48277
48280
48291
48298
48252
48300
48283
48301
48254
48266
48304
48270
48255
48244
48290
48232
48247
48267
48286
48207
48206
48239
48237
48187
48228
48222
48227
48192
48238
48249
48227
48215
48219
48236
48199
48217
48206
48218
48173
48163
48187
48147
48098
48097
48124
48075
48035
48026
48072
47986
48004
48020
48042
47970
47972
48008
47988
47934
47986
48002
47968
47971
47951
47935
47926
47918
47918
47919
47887
47926
47943
47937
47885
47937
47988
47972
47955
48014
48052
48045
48100
48137
48189
48203
48268
48344
48329
48365
48392
48399
48377
48393
48403
48399
48363
48350
48356
48398
48373
48355
48405
48381
48352
48385
48370
48349
48363
48352
48379
48339
48344
48368
48386
48322
48354
48380
48330
48339
48345
48327
48328
48319
48348
48352
48293
48319
48344
48352
48275
48297
48343
48294
48280
48297
48317
48269
48260
48294
48307
48256
48260
48295
48280
48246
48269
48257
48246
48216
48259
48258
48239
48226
48232
48212
48227
48207
48229
48241
48181
48195
48209
48194
48194
48176
48219
48156
48158
48205
48211
48160
48172
48188
48184
48135
48168
48164
48155
48103
48102
48116
48090
48084
48093
48071
48047
48030
48070
48046
48008
47985
48016
47986
47991
47967
47990
47989
47964
47956
47998
47923
47942
47919
47982
47915
47901
47939
47945
47901
47921
47946
47890
47934
47933
47981
47945
47968
48034
48076
48068
48134
48171
48244
48255
48276
48346
48325
48332
48372
48385
48385
48376
48406
48388
48351
48357
48393
48390
48333
48365
48367
48358
48360
48366
48399
48366
48350
48375
48397
48323
48344
48366
48379
48324
48332
48367
48339
48322
48360
48362
48341
48327
48341
48361
48321
48308
48330
48368
48284
48317
48333
48304
48297
48315
48326
48273
48256
48300
48309
48255
48273
48273
48303
48280
48258
48281
48241
48229
48240
48241
48234
48215
48233
48251
48202
48244
48217
48249
48183
48207
48219
48199
48228
48215
48220
48206
48200
48189
48211
48194
48197
48204
48195
48165
48153
48155
48180
48113
48163
48129
48116
48070
48068
48103
48061
48035
48056
48004
48014
48021
48049
48020
48014
48008
48014
47961
47967
48002
48000
47960
47949
47964
47960
47920
47923
47950
47942
47953
47965
47965
47956
47968
48029
48052
48013
48098
48147
48140
48183
48232
48315
48317
48304
48348
48392
48363
48365
48392
48421
48360
48352
48358
48406
48352
48357
48371
48353
48350
48339
48373
48360
48339
48371
48382
48341
48345
48350
48365
48312
48322
48353
48364
48292
48328
48346
48341
48320
48369
48335
48307
48326
48333
48342
48295
48295
48304
48323
48293
48293
48311
48307
48306
48275
48341
48303
48295
48302
48295
48272
48287
48321
48309
48233
48272
48298
48272
48259
48217
48284
48237
48207
48216
48245
48207
48222
48238
48201
48187
48214
48212
48187
48187
48192
48227
48213
48175
48178
48215
48165
48153
48184
48182
48147
48147
48179
48122
48102
48104
48131
48102
48071
48070
48068
48028
48016
48035
48018
47969
47939
47960
47982
47951
47954
48009
47964
47941
47937
47996
47891
47921
47934
47966
47882
47912
47923
47916
47889
47887
47933
47901
47923
47940
47995
47941
47998
48051
48082
48088
48121
48186
48250
48257
48312
48364
48327
48311
48364
48368
48352
48351
48374
48367
48331
48321
48391
48358
48364
48335
48376
48323
48309
48355
48382
48314
48311
48346
48360
48343
48332
48335
48339
48321
48346
48344
48326
48338
48366
48369
48362
48326
48358
48355
48337
48321
48367
48369
48332
48341
48365
48315
48309
48289
48304
48320
48277
48310
48289
48284
48305
48294
48283
48282
48296
48311
48270
48288
48298
48305
48276
48247
48257
48265
48214
48227
48247
48248
48200
48203
48281
48219
48180
48197
48246
48197
48186
48195
48222
48181
48182
48232
48195
48145
48156
48169
48161
48137
48160
48160
48130
48111
48105
48088
48043
48032
48080
48053
48008
47992
47998
47976
47948
47974
47936
47973
47927
47941
47981
47901
47918
47945
47927
47926
47921
47922
47927
47900
47902
47932
47909
47873
47857
47900
47879
47882
47953
47992
47950
47998
48036
48114
48095
48142
48205
48261
48278
48325
48347
48346
48354
48354
48403
48337
48296
48390
48353
48346
48352
48393
48331
48331
48385
48378
48327
48338
48353
48345
48343
48356
48355
48317
48289
48295
48333
48321
48312
48327
48336
48302
48300
48337
48296
48297
48296
48315
48304
48250
48270
48307
48264
48258
48294
48303
48278
48276
48286
48283
48242
48234
48250
48267
48208
48237
48259
48219
48220
48245
48243
48205
48193
48187
48250
48195
48197
48217
48196
48159
48191
48224
48181
48138
48165
48210
48165
48177
48172
48192
48124
48111
48155
48129
48096
48096
48142
48113
48082
48087
48077
48056
48057
48046
48063
48025
47992
47997
48014
47936
47967
47981
47993
47935
47935
47967
47938
47939
47962
47950
47904
47930
47955
47920
47904
47906
47902
47896
47891
47864
47907
47873
47872
47893
47959
47892
47937
47977
48043
48018
48122
48132
48150
48200
48241
48287
48301
48299
48331
48354
48332
48316
48329
48357
48343
48352
48346
48342
48316
48339
48366
48328
48331
48339
48352
48311
48307
48342
48334
48298
48313
48344
48289
48289
48295
48318
48301
48298
48313
48293
48256
48280
48302
48302
48247
48248
48313
48283
48237
48221
48255
48256
48229
48252
48281
48210
48238
48254
48278
48212
48187
48228
48218
48181
48211
48221
48218
48171
48211
48206
48201
48181
48197
48206
48177
48144
48179
48168
48142
48145
48199
48161
48158
48166
48173
48144
48130
48123
48116
48063
48065
48086
48058
48011
48052
48032
48032
48004
48015
48010
47984
47966
47982
47958
47941
47958
47959
47981
47952
47952
47932
47944
47917
47923
47936
47869
47875
47857
47897
47862
47858
47889
47904
47849
47869
47909
47944
47951
47985
48098
48070
48078
48172
48236
48239
48258
48315
48301
48291
48322
48350
48323
48320
48340
48362
48308
48323
48334
48341
48270
48321
48320
48318
48288
48315
48313
48311
48264
48301
48297
48295
48267
48310
48296
48255
48280
48324
48310
48265
48291
48279
48298
48265
48286
48312
48256
48248
48263
48295
48230
48247
48263
48295
48214
48230
48264
48255
48217
48241
48245
48241
48202
48242
48258
48232
48211
48240
48229
48179
48206
48200
48234
48156
48182
48226
48182
48170
48201
48236
48183
48179
48195
48190
48198
48174
48208
48177
48148
48194
48177
48145
48141
48125
48146
48097
48072
48111
48099
48045
48025
48058
48075
47993
48004
48006
47986
47976
47986
47998
47945
47906
47947
47978
47910
47876
47919
47900
47860
47855
47875
47905
47876
47906
47938
47911
47936
48002
48008
48036
48062
48113
48177
48203
48252
48286
48259
48300
48338
48362
48309
48335
48352
48377
48325
48351
48320
48346
48312
48335
48353
48289
48286
48314
48328
48288
48291
48299
48324
48284
48271
48326
48337
48290
48311
48325
48303
48278
48289
48326
48287
48277
48298
48312
48263
48284
48284
48326
48243
48274
48274
48268
48225
48251
48276
48233
48240
48264
48273
48245
48249
48230
48241
48227
48208
48227
48239
48176
48199
48211
48191
48174
48176
48218
48155
48167
48166
48179
48133
48166
48173
48149
48144
48121
48165
48149
48114
48141
48141
48106
48098
48111
48118
48082
48091
48084
48081
48034
48081
48051
47988
47986
48000
47983
47971
47942
47952
47954
47935
47897
47958
47949
47912
47929
47949
47927
47883
47899
47942
47851
47849
47874
47877
47848
47858
47890
47870
47828
47834
47878
47869
47882
47929
47948
47959
47953
48033
48083
48089
48147
48184
48244
48247
48264
48325
48337
48318
48325
48324
48328
48308
48334
48341
48328
48325
48323
48354
48302
48315
48333
48331
48318
48332
48329
48337
48295
48307
48337
48305
48297
48309
48357
48286
48289
48308
48306
48261
48294
48309
48282
48267
48268
48289
48237
48261
48262
48295
48217
48220
48258
48272
48226
48238
48231
48198
48210
48233
48231
48202
48173
48202
48229
48168
48176
48173
48175
48137
48180
48176
48179
48117
48128
48174
48158
48128
48133
48150
48128
48106
48102
48113
48104
48123
48135
48101
48092
48109
48109
48056
48082
48097
48105
48061
48062
48084
48064
48014
48028
48041
48004
47953
47968
48003
47955
47927
47952
47948
47939
47920
47952
47955
47927
47917
47943
47905
47886
47930
47932
47898
47895
47885
47909
47845
47885
47882
47884
47858
47886
47909
47908
47869
47963
48013
47982
48018
48119
48152
48154
48222
48291
48317
48291
48297
48367
48325
48277
48339
48360
48314
48319
48341
48334
48333
48315
48316
48325
48287
48294
48281
48305
48278
48264
48332
48288
48255
48309
48329
48281
48282
48285
48320
48276
48289
48314
48309
48260
48282
48314
48301
48287
48299
48316
48278
48277
48290
48315
48274
48270
48256
48279
48251
48261
48288
48269
48256
48263
48260
48235
48212
48235
48245
48203
48208
48198
48206
48188
48191
48187
48170
48170
48178
48192
48131
48162
48155
48162
48122
48134
48168
48157
48119
48118
48145
48138
48136
48134
48168
48107
48091
48118
48099
48078
48066
48093
48084
48047
48024
48042
47997
47960
47959
47978
47926
47943
47949
47962
47906
47902
47937
47934
47910
47905
47954
47913
47892
47902
47908
47898
47859
47866
47895
47869
47848
47861
47935
47867
47910
47965
48008
48007
48069
48086
48116
48122
48212
48270
48253
48293
48313
48342
48292
48299
48322
48367
48319
48314
48365
48324
48293
48301
48315
48301
48297
48315
48335
48263
48285
48315
48322
48260
48307
48309
48299
48271
48273
48266
48247
48273
48309
48303
48246
48270
48272
48287
48229
48261
48276
48227
48266
48252
48276
48223
48204
48246
48262
48197
48216
48259
48236
48229
48232
48254
48228
48240
48226
48273
48212
48205
48241
48226
48205
48210
48221
48248
48199
48206
48222
48182
48169
48178
48166
48192
48183
48228
48202
48174
48203
48181
48217
48167
48163
48199
48175
48144
48166
48193
48148
48149
48150
48163
48112
48141
48142
48144
48080
48082
48080
48067
48041
48064
48064
48023
48018
47998
48024
48010
47965
48018
48009
47921
47941
47975
47956
47933
47936
47933
47916
47883
47896
47894
47859
47878
47899
47941
47875
47906
47943
47946
47990
48015
48074
48085
48078
48167
48225
48250
48248
48298
48340
48318
48325
48342
48355
48302
48337
48370
48320
48310
48343
48371
48310
48303
48354
48320
48312
48334
48344
48364
48310
48308
48337
48300
48324
48309
48306
48304
48277
48291
48309
48287
48286
48298
48305
48290
48257
48339
48278
48267
48275
48279
48252
48261
48278
48307
48250
48244
48268
48270
48249
48270
48250
48264
48237
48245
48269
48247
48210
48220
48249
48194
48194
48192
48213
48139
48191
48180
48182
48176
48194
48185
48186
48180
48160
48169
48150
48145
48142
48171
48137
48135
48135
48145
48108
48131
48175
48138
48108
48136
48146
48099
48108
48112
48111
48057
48022
48064
48046
47994
48019
48030
47972
47936
47953
47953
47889
47898
47935
47929
47881
47864
47897
47894
47836
47897
47894
47852
47844
47871
47845
47809
47802
47853
47827
47811
47790
47831
47844
47804
47836
47883
47845
47867
47913
47962
47968
48006
48078
48132
48159
48196
48255
48277
48261
48307
48325
48294
48288
48313
48346
48300
48290
48292
48299
48279
48271
48291
48280
48265
48272
48282
48279
48270
48267
48314
48237
48252
48272
48288
48251
48261
48279
48264
48209
48256
48251
48220
48254
48253
48271
48236
48196
48225
48264
48178
48189
48191
48212
48196
48211
48219
48176
48154
48186
48211
48201
48156
48170
48172
48104
48140
48172
48155
48133
48123
48132
48134
48086
48090
48118
48110
48072
48100
48097
48069
48066
48068
48093
48036
48038
48085
48055
48015
48033
48078
48056
48019
48023
48020
47950
47985
47982
47988
47922
47909
47945
47891
47866
47848
47846
47818
47840
47791
47812
47772
47763
47783
47754
47751
47747
47778
47771
47703
47733
47768
47722
47715
47718
47771
47715
47711
47742
47732
47725
47709
47769
47782
47777
47769
47835
47812
47852
47936
47985
48019
48038
48121
48179
48193
48202
48266
48281
48227
48247
48278
48275
48262
48293
48273
48266
48243
48260
48287
48211
48264
48256
48259
48215
48253
48269
48217
48215
48229
48265
48232
48225
48214
48257
48239
48216
48230
48238
48207
48222
48235
48182
48155
48212
48209
48196
48191
48175
48189
48165
48166
48167
48169
48107
48136
48151
48131
48118
48120
48138
48108
48073
48098
48092
48054
48060
48063
48079
48036
48044
48067
48077
48022
48056
48080
48043
48028
48047
48048
48013
48012
48058
48074
48010
48014
48013
48042
47973
47990
48004
47948
47918
47917
47891
47879
47836
47865
47839
47811
47809
47810
47789
47797
47789
47806
47767
47744
47764
47767
47731
47743
47754
47746
47731
47709
47780
47734
47710
47717
47762
47750
47749
47761
47778
47766
47777
47828
47845
47843
47914
48009
48034
48046
48102
48190
48185
48179
48233
48271
48264
48205
48257
48253
48227
48237
48224
48245
48222
48236
48250
48246
48232
48242
48238
48245
48227
48234
48239
48185
48191
48193
48199
48182
48176
48202
48206
48157
48189
48199
48189
48169
48189
48184
48170
48138
48140
48158
48134
48150
48154
48109
48115
48134
48097
48102
48081
48069
48121
48070
48083
48080
48069
48054
48052
48056
48055
48041
48049
48061
48044
48027
48065
48059
48019
48001
48015
48050
47978
48027
48027
48041
47994
48024
48031
47986
47986
47963
47949
47946
47933
47938
47923
47886
47878
47884
47875
47837
47848
47882
47832
47804
47814
47834
47765
47784
47819
47834
47776
47753
47796
47800
47743
47756
47778
47768
47721
47726
47782
47756
47759
47812
47845
47837
47891
47948
48002
48000
48082
48150
48178
48185
48221
48251
48228
48203
48259
48274
48213
48250
48217
48236
48195
48206
48225
48226
48212
48236
48215
48237
48213
48206
48213
48201
48193
48233
48207
48187
48187
48233
48198
48170
48209
48209
48171
48170
48172
48193
48146
48164
48155
48185
48123
48122
48165
48139
48089
48127
48157
48112
48096
48109
48129
48082
48085
48123
48129
48076
48076
48086
48084
48038
48054
48063
48044
48045
48065
48081
48026
48003
48031
48060
48035
48029
48057
48026
47996
48025
48017
47973
47973
47973
47991
47933
47921
47950
47950
47888
47880
47860
47870
47822
47837
47861
47795
47819
47800
47824
47751
47780
47768
47768
47730
47766
47738
47774
47723
47736
47743
47731
47700
47713
47750
47702
47729
47715
47770
47724
47744
47791
47797
47808
47836
47884
47936
47977
48006
48097
48135
48162
48222
48274
48225
48227
48270
48264
48225
48230
48291
48259
48267
48274
48252
48224
48195
48246
48275
48229
48224
48218
48255
48212
48226
48246
48248
48209
48203
48246
48224
48185
48227
48247
48208
48185
48212
48213
48158
48159
48192
48172
48163
48182
48194
48153
48156
48147
48166
48111
48105
48134
48138
48087
48112
48104
48110
48080
48084
48089
48086
48054
48102
48075
48055
48050
48077
48054
48020
48023
48048
48058
48046
48039
48040
48026
47984
48024
48036
47994
47962
47979
47979
47911
47910
47911
47874
47835
47828
47855
47849
47782
47795
47800
47758
47737
47789
47773
47749
47750
47757
47744
47696
47725
47723
47737
47704
47717
47738
47688
47666
47740
47738
47714
47712
47790
47789
47785
47797
47894
47900
47927
47988
48062
48065
48116
48172
48213
48222
48224
48239
48287
48248
48221
48282
48256
48208
48255
48302
48249
48225
48238
48241
48200
48227
48276
48232
48210
48213
48230
48229
48212
48197
48221
48238
48188
48199
48234
48186
48159
48191
48189
48150
48144
48204
48165
48151
48160
48163
48166
48121
48182
48159
48124
48120
48129
48164
48097
48116
48111
48150
48102
48107
48140
48101
48080
48106
48097
48076
48077
48069
48104
48064
48083
48062
48072
48036
48011
48049
48038
47987
47998
47992
47933
47931
47933
47906
47885
47884
47859
47908
47854
47868
47902
47883
47867
47861
47873
47841
47843
47846
47850
47818
47838
47849
47840
47788
47814
47843
47834
47825
47857
47873
47866
47891
47939
47981
47991
48027
48091
48125
48128
48200
48282
48293
48250
48292
48327
48317
48317
48311
48345
48285
48315
48306
48312
48264
48265
48297
48299
48267
48292
48314
48270
48284
48312
48273
48255
48234
48279
48271
48272
48243
48290
48264
48257
48250
48243
48248
48233
48226
48236
48181
48192
48181
48200
48179
48163
48145
48164
48120
48131
48140
48124
48093
48080
48085
48070
48034
48066
48058
48022
48029
48059
48049
47969
48033
48042
48033
48006
48012
48025
47966
47990
47996
48039
47943
47938
47996
47944
47894
47886
47896
47851
47829
47841
47835
47797
47787
47806
47816
47757
47768
47803
47795
47754
47782
47793
47737
47720
47712
47751
47710
47684
47696
47728
47665
47656
47695
47722
47674
47724
47741
47756
47790
47830
47877
47914
47943
47989
48073
48094
48130
48169
48230
48184
48230
48224
48245
48196
48214
48231
48197
48190
48241
48232
48156
48206
48204
48221
48172
48192
48206
48204
48127
48195
48187
48177
48151
48151
48192
48141
48171
48146
48169
48131
48113
48165
48147
48108
48114
48159
48118
48094
48104
48120
48076
48080
48070
48089
48057
48050
48075
48066
48004
48063
48072
48034
48018
48023
48043
48005
47988
47993
48019
47961
47973
48003
47974
47961
47996
47995
47967
47959
47993
47981
47960
47944
47976
47964
47925
47930
47954
47933
47871
47911
47898
47857
47816
47850
47873
47806
47811
47784
47816
47786
47753
47782
47772
47722
47738
47738
47734
47694
47697
47705
47641
47637
47683
47681
47644
47655
47675
47708
47647
47683
47725
47745
47735
47790
47847
47857
47899
47953
48024
48076
48103
48144
48169
48175
48208
48233
48202
48183
48191
48225
48171
48172
48207
48233
48164
48187
48182
48198
48157
48155
48187
48160
48176
48177
48207
48155
48133
48197
48186
48146
48169
48166
48188
48140
48126
48179
48162
48142
48165
48166
48114
48122
48130
48136
48136
48117
48116
48131
48098
48089
48103
48112
48045
48088
48106
48089
48053
48075
48080
48037
48039
48078
48069
48027
48034
48038
48032
48013
48014
48031
48031
47989
48035
48033
47999
47991
48023
48045
48004
47982
47978
48010
47956
47972
47960
47961
47923
47931
47940
47908
47867
47891
47894
47841
47845
47849
47834
47793
47828
47821
47823
47810
47781
47793
47769
47742
47764
47763
47719
47694
47695
47731
47687
47711
47733
47713
47702
47736
47736
47741
47771
47859
47907
47904
47954
48004
48094
48056
48118
48177
48164
48173
48190
48228
48189
48195
48225
48217
48189
48212
48200
48227
48159
48198
48207
48191
48172
48194
48214
48166
48165
48195
48186
48129
48163
48185
48198
48147
48145
48179
48150
48118
48158
48169
48145
48139
48149
48189
48142
48109
48117
48176
48107
48141
48139
48132
48108
48119
48122
48121
48088
48096
48119
48077
48068
48078
48105
48033
48054
48053
48069
47986
48029
48063
48046
48020
48037
48009
48008
48015
48025
48033
47961
47994
47993
48028
47982
48004
48013
48001
47961
48001
48009
47982
47956
47931
47979
47939
47924
47910
47944
47852
47850
47868
47820
47756
47809
47788
47765
47744
47733
47755
47716
47719
47755
47714
47681
47689
47682
47708
47639
47677
47684
47665
47622
47659
47680
47651
47642
47699
47704
47678
47721
47746
47813
47813
47864
47955
47997
48000
48095
48135
48168
48165
48187
48209
48188
48206
48234
48210
48161
48164
48244
48176
48161
48165
48188
48154
48131
48164
48196
48130
48149
48177
48169
48129
48127
48151
48152
48095
48133
48148
48113
48110
48117
48161
48104
48094
48123
48129
48087
48091
48114
48126
48062
48087
48096
48051
48061
48083
48076
48061
48043
48050
48063
48011
48048
48059
48061
47987
48015
48058
47996
47978
48018
48021
47984
47996
47997
48024
47952
47975
47999
47986
47960
48002
48016
47955
47978
47974
48004
47994
47949
47965
47992
47938
47943
47958
47939
47911
47885
47905
47876
47832
47845
47850
47807
47767
47768
47783
47725
47733
47700
47718
47685
47663
47667
47648
47639
47645
47680
47644
47592
47602
47622
47560
47552
47616
47599
47557
47520
47592
47586
47580
47596
47643
47652
47676
47722
47777
47752
47827
47933
47962
47988
48054
48135
48144
48122
48148
48184
48185
48150
48189
48180
48150
48151
48163
48195
48142
48156
48167
48158
48119
48138
48160
48112
48129
48109
48168
48130
48089
48132
48106
48077
48110
48121
48120
48057
48086
48114
48072
48066
48104
48109
48057
48068
48087
48105
48042
48061
48057
48066
48026
48030
48082
48029
48033
48055
48052
47982
48008
47981
48018
47987
47976
48019
47997
47958
47951
47998
47973
47936
47948
47964
47922
47895
47946
47950
47901
47894
47938
47942
47922
47906
47921
47899
47848
47888
47912
47848
47830
47817
47829
47786
47763
47767
47723
47679
47687
47700
47668
47635
47659
47672
47627
47609
47610
47680
47606
47611
47637
47627
47552
47595
47625
47577
47555
47571
47629
47567
47553
47575
47609
47627
47628
47667
47702
47654
47693
47733
47777
47764
47813
47923
47931
47970
48052
48134
48114
48121
48182
48195
48130
48161
48212
48213
48159
48171
48209
48187
48163
48183
48185
48162
48152
48207
48198
48147
48142
48211
48158
48152
48152
48187
48154
48150
48159
48178
48122
48134
48154
48137
48097
48120
48139
48145
48087
48105
48118
48109
48107
48098
48113
48086
48069
48085
48125
48037
48048
48047
48102
48007
48048
48085
48033
47995
48006
48046
48025
47996
48005
48036
47992
47966
48015
48017
47977
47995
48012
47991
47969
47989
48020
47991
47983
47981
48005
47928
47932
47938
47971
47865
47873
47894
47896
47856
47839
47846
47815
47781
47782
47797
47782
47761
47782
47759
47699
47722
47694
47720
47705
47700
47707
47690
47643
47671
47658
47643
47642
47664
47679
47616
47646
47661
47685
47646
47680
47778
47771
47795
47901
47937
47974
47966
48083
48118
48119
48124
48173
48173
48125
48184
48191
48151
48146
48165
48178
48170
48149
48165
48165
48121
48132
48145
48158
48110
48145
48134
48132
48078
48120
48134
48109
48108
48106
48136
48127
48102
48112
48098
48046
48072
48122
48100
48053
48081
48099
48067
48081
48060
48091
48030
48046
48059
48084
47981
48011
48068
48020
47987
48030
48049
48014
48007
47986
48017
47964
47983
47979
48015
47944
47945
47999
47968
47938
47942
47961
47939
47941
47954
47973
47926
47926
47932
47921
47890
47884
47915
47882
47860
47874
47896
47831
47828
47801
47818
47781
47769
47776
47788
47720
47755
47731
47722
47701
47710
47740
47723
47708
47671
47708
47661
47665
47677
47712
47614
47628
47643
47650
47629
47676
47713
47726
47753
47824
47882
47917
47952
48013
48090
48069
48113
48157
48190
48143
48160
48177
48154
48137
48182
48193
48168
48153
48151
48214
48131
48124
48121
48152
48113
48136
48144
48146
48125
48155
48144
48157
48117
48102
48170
48108
48097
48134
48110
48100
48114
48139
48138
48078
48075
48100
48086
48056
48075
48113
48064
48042
48096
48097
48054
48066
48038
48092
48020
48055
48061
48013
47997
48011
48003
47986
47987
47999
47968
47940
47959
47945
47957
47906
47926
47930
47916
47889
47900
47922
47913
47862
47919
47923
47863
47860
47893
47888
47828
47836
47878
47850
47800
47830
47825
47781
47780
47777
47810
47719
47725
47701
47726
47653
47714
47692
47648
47638
47623
47674
47635
47606
47627
47610
47597
47559
47591
47607
47540
47569
47561
47565
47519
47542
47569
47557
47574
47599
47620
47619
47665
47719
47758
47746
47834
47932
47957
47969
48043
48111
48103
48087
48130
48132
48102
48083
48111
48136
48069
48111
48134
48139
48126
48103
48117
48088
48094
48106
48115
48078
48085
48105
48127
48055
48060
48095
48097
48067
48054
48092
48053
48052
48084
48090
48029
48056
48058
48094
48058
48024
48044
48071
48003
48029
48067
48016
47978
47994
48013
47991
47967
47974
48004
47949
47954
47971
47964
47927
47922
47962
47932
47873
47909
47932
47894
47868
47891
47908
47856
47880
47889
47882
47856
47863
47903
47911
47834
47835
47884
47848
47842
47843
47896
47784
47853
47816
47847
47771
47778
47802
47783
47719
47723
47706
47698
47680
47663
47673
47614
47602
47619
47622
47549
47557
47538
47588
47558
47535
47537
47533
47503
47522
47531
47493
47468
47526
47505
47501
47528
47557
47586
47583
47590
47633
47656
47667
47712
47769
47779
47814
47897
47981
47974
48028
48086
48121
48103
48103
48171
48131
48119
48125
48144
48111
48100
48139
48120
48121
48104
48151
48127
48076
48114
48138
48132
48082
48101
48107
48086
48111
48099
48127
48089
48041
48111
48130
48064
48065
48110
48081
48076
48050
48109
48068
48037
48053
48096
48021
48042
48047
48054
48021
48034
48034
48054
47992
48019
48031
47983
47972
48007
48017
47978
47943
47961
47972
47926
47937
47941
47914
47885
47918
47929
47896
47879
47895
47909
47881
47846
47905
47897
47868
47854
47881
47887
47816
47859
47871
47867
47812
47807
47821
47785
47741
47760
47751
47722
47673
47680
47641
47601
47601
47597
47575
47515
47557
47550
47498
47471
47510
47473
47468
47443
47440
47484
47430
47412
47445
47406
47394
47410
47433
47428
47401
47418
47483
47431
47462
47519
47562
47541
47611
47604
47659
47704
47765
47887
47869
47920
47988
48058
48054
48092
48082
48136
48074
48080
48109
48106
48086
48102
48126
48106
48101
48109
48103
48064
48075
48104
48100
48051
48066
48099
48088
48041
48089
48113
48039
48042
48056
48116
48057
48037
48060
48097
48027
48022
48035
48033
47985
47997
48030
47976
48000
47987
47992
47970
47954
47959
47979
47916
47937
47950
47970
47868
47914
47921
47902
47849
47868
47891
47828
47834
47836
47833
47802
47831
47813
47801
47764
47780
47775
47772
47751
47757
47775
47740
47718
47732
47751
47714
47706
47725
47712
47676
47649
47694
47657
47616
47619
47619
47589
47523
47563
47529
47498
47470
47493
47480
47427
47400
47425
47432
47414
47392
47430
47363
47355
47397
47368
47330
47338
47325
47331
47321
47302
47342
47338
47321
47312
47348
47326
47347
47354
47412
47454
47474
47546
47569
47591
47618
47706
47765
47786
47861
47950
47989
48029
48045
48072
48047
48043
48060
48084
48017
48057
48066
48045
48022
48054
48078
48062
48010
48045
48063
48003
48017
48056
48072
48001
48010
48052
48038
47996
48017
47991
47995
47969
47995
48026
47967
47965
47986
48011
47988
47934
47981
47990
47932
47937
47935
47934
47877
47884
47907
47869
47863
47896
47857
47846
47822
47846
47850
47808
47783
47799
47801
47767
47769
47802
47771
47743
47754
47799
47729
47756
47780
47742
47689
47714
47695
47707
47646
47670
47712
47656
47645
47604
47620
47553
47569
47538
47545
47477
47454
47475
47468
47396
47396
47420
47403
47375
47375
47401
47383
47330
47362
47399
47343
47339
47341
47357
47324
47342
47323
47303
47290
47318
47340
47338
47339
47383
47436
47449
47504
47568
47605
47623
47680
47779
47820
47840
47934
48007
48029
48001
48055
48056
48052
48038
48070
48072
48012
48017
48051
48052
48006
48002
48039
48009
48022
48020
48001
47997
47984
48013
48042
47972
47972
47980
48016
47940
48001
47987
47947
47957
47977
48008
47923
47942
47942
47953
47927
47890
47972
47910
47887
47855
47883
47907
47867
47858
47885
47817
47806
47827
47829
47796
47782
47801
47823
47756
47747
47790
47777
47737
47744
47770
47747
47737
47736
47742
47691
47692
47718
47748
47720
47705
47718
47702
47638
47667
47658
47643
47602
47627
47608
47561
47529
47552
47511
47446
47473
47465
47437
47381
47399
47392
47396
47361
47386
47368
47334
47333
47361
47362
47293
47310
47346
47346
47305
47316
47351
47325
47326
47393
47400
47406
47446
47521
47558
47546
47575
47637
47733
47776
47833
47906
47931
47976
48013
48054
48023
48039
48068
48079
48016
48034
48073
48078
48028
48034
48062
48045
47989
48039
48043
48008
48057
48034
48022
47991
48017
48008
48061
47993
48003
47999
48000
47971
47997
48005
47990
47934
47956
48014
47943
47936
47937
47986
47873
47920
47931
47920
47896
47882
47907
47862
47844
47824
47854
47833
47817
47861
47844
47765
47789
47798
47754
47737
47747
47732
47743
47687
47703
47742
47669
47679
47673
47705
47667
47672
47696
47687
47642
47655
47676
47654
47619
47626
47613
47614
47592
47572
47609
47495
47535
47523
47505
47436
47432
47421
47417
47340
47355
47372
47330
47344
47326
47305
47268
47270
47283
47299
47262
47253
47288
47265
47242
47233
47267
47202
47221
47278
47224
47218
47216
47283
47274
47305
47356
47400
47442
47454
47552
47576
47631
47704
47742
47837
47849
47883
47972
48005
47949
48017
48032
48039
47997
48000
48035
48017
48021
48019
48030
47977
47979
48028
48029
47972
47957
47977
47993
47965
47980
48002
47960
47968
47981
47973
47931
47952
47943
48005
47933
47915
47935
47950
47897
47882
47904
47902
47852
47892
47904
47854
47843
47827
47841
47794
47779
