54870
55001
55125
55243
55311
55342
55392
55452
55474
55479
55520
55582
55620
55655
55732
55822
55882
55948
56062
56185
56280
56376
56504
56626
56704
56776
56871
56945
56965
56977
57007
57008
56957
56903
56863
56792
56681
56581
56506
56412
56298
56210
56147
56059
55954
55888
55849
55786
55710
55672
55656
55613
55564
55555
55560
55530
55489
55478
55466
55417
55363
55337
55305
55234
55162
55119
55069
54986
54910
54860
54793
54691
54597
54527
54434
54307
54196
54112
54010
53885
53788
53721
53635
53532
53463
53416
53341
53249
53190
53150
53078
52992
52940
52896
52814
52719
52658
52603
52516
52427
52374
52323
52239
52158
52112
52064
51974
51888
51839
51784
51692
51608
51556
51493
51400
51322
51271
51203
51109
51034
50985
50913
50815
50737
50678
50590
50482
50407
50355
50278
50186
50122
50070
49986
49892
49831
49781
49700
49613
49560
49508
49423
49340
49293
49242
49158
49078
49029
48969
48870
48780
48725
48663
48575
48504
48466
48415
48338
48280
48247
48191
48107
48047
48010
47943
47854
47797
47759
47693
47615
47573
47546
47484
47405
47355
47310
47229
47140
47083
47031
46942
46846
46782
46722
46637
46572
46568
46591
46614
46685
46833
47018
47219
47480
47816
48171
48520
48905
49335
49759
50157
50565
50976
51341
51659
51972
52266
52491
52659
52823
52971
53060
53110
53171
53235
53264
53281
53327
53380
53402
53429
53498
53573
53620
53677
53776
53875
53940
54016
54130
54236
54311
54397
54509
54598
54642
54686
54742
54762
54736
54715
54706
54665
54596
54553
54531
54475
54393
54340
54305
54238
54156
54113
54087
54030
53966
53942
53934
53895
53850
53839
53833
53792
53753
53753
53746
53699
53652
53639
53619
53560
53502
53473
53433
53356
53288
53245
53183
53091
53012
52951
52865
52753
52665
52603
52523
52434
52376
52336
52267
52179
52122
52083
52010
51922
51864
51814
51730
51643
51594
51553
51483
51413
51381
51347
51276
51207
51174
51135
51057
50985
50946
50899
50823
50757
50717
50659
50572
50505
50467
50408
50325
50261
50214
50139
50043
49983
49948
49883
49798
49741
49697
49621
49535
49485
49448
49378
49301
49257
49218
49145
49066
49019
48972
48890
48809
48767
48727
48649
48575
48542
48510
48448
48395
48371
48332
48260
48198
48160
48102
48018
47955
47918
47862
47792
47752
47733
47684
47614
47571
47541
47473
47386
47328
47283
47209
47127
47079
47039
46967
46891
46849
46811
46738
46664
46628
46597
46537
46488
46485
46496
46499
46544
46660
46808
46971
47195
47492
47814
48143
48514
48926
49324
49696
50087
50489
50846
51159
51477
51785
52031
52225
52417
52594
52717
52805
52904
52995
53038
53066
53127
53197
53235
53273
53347
53421
53462
53511
53601
53692
53751
53819
53924
54025
54099
54183
54289
54372
54417
54464
54521
54546
54531
54526
54535
54512
54465
54446
54444
54408
54349
54318
54304
54261
54209
54194
54196
54173
54150
54165
54188
54178
54167
54191
54218
54211
54201
54217
54219
54177
54135
54126
54111
54061
54015
53998
53967
53903
53850
53820
53769
53691
53638
53612
53560
53482
53427
53389
53318
53226
53164
53122
53056
52979
52930
52890
52821
52746
52710
52686
52633
52576
52555
52534
52475
52414
52390
52369
52312
52258
52238
52211
52149
52099
52084
52055
51990
51936
51909
51865
51790
51732
51701
51649
51578
51533
51508
51455
51382
51337
51308
51246
51166
51117
51084
51022
50949
50912
50887
50831
50767
50731
50696
50624
50548
50507
50468
50392
50321
50289
50255
50186
50122
50087
50040
49967
49912
49890
49852
49782
49724
49688
49633
49558
49509
49483
49433
49366
49331
49312
49256
49177
49131
49108
49057
48992
48954
48921
48853
48776
48730
48687
48609
48528
48482
48438
48362
48295
48278
48272
48245
48243
48305
48397
48494
48643
48863
49110
49367
49674
50044
50427
50802
51206
51637
52040
52409
52784
53154
53469
53739
54010
54267
54461
54608
54762
54908
55002
55070
55158
55244
55292
55335
55413
55497
55552
55612
55713
55820
55897
55989
56130
56274
56392
56524
56684
56824
56930
57046
57178
57278
57332
57389
57455
57480
57464
57464
57476
57446
57387
57353
57335
57282
57213
57182
57171
57129
57074
57056
57049
57008
56957
56943
56939
56907
56880
56893
56908
56884
56862
56874
56878
56843
56810
56809
56796
56751
56716
56701
56659
56580
56511
56463
56392
56299
56230
56182
56108
56013
55951
55910
55838
55744
55680
55633
55555
55466
55414
55373
55296
55210
55158
55115
55041
54965
54924
54884
54809
54737
54701
54660
54583
54519
54498
54470
54402
54338
54300
54241
54150
54078
54034
53972
53888
53830
53797
53741
53665
53617
53588
53524
53440
53390
53359
53292
53201
53140
53095
53020
52937
52889
52848
52775
52698
52657
52620
52546
52471
52432
52392
52313
52236
52192
52140
52054
51976
51930
51867
51768
51682
51631
51569
51486
51428
51397
51343
51266
51216
51184
51119
51038
50993
50971
50918
50847
50810
50789
50736
50671
50637
50610
50548
50476
50435
50399
50328
50256
50221
50186
50114
50046
50015
49983
49920
49866
49851
49844
49833
49866
49963
50085
50225
50428
50701
50990
51290
51647
52057
52461
52856
53286
53731
54128
54484
54847
55197
55483
55724
55968
56197
56367
56500
56642
56775
56860
56929
57023
57111
57161
57211
57297
57379
57428
57489
57599
57718
57817
57930
58078
58216
58322
58441
58586
58708
58795
58893
59003
59071
59097
59133
59177
59176
59142
59128
59121
59070
58994
58947
58915
58853
58785
58752
58726
58669
58613
58598
58590
58551
58513
58517
58523
58496
58469
58473
58469
58424
58384
58378
58360
58307
58265
58251
58219
58156
58105
58074
58017
57937
57881
57839
57761
57661
57593
57544
57461
57359
57294
57246
57165
57073
57019
56979
56906
56828
56788
56753
56683
56611
56575
56540
56464
56389
56353
56312
56232
56158
56120
56079
56010
55953
55925
55884
55811
55753
55725
55677
55595
55526
55480
55407
55312
55246
55201
55129
55043
54988
54949
54881
54802
54755
54716
54641
54560
54514
54471
54390
54302
54248
54198
54116
54043
54016
53992
53931
53872
53842
53800
53721
53649
53608
53554
53471
53404
53362
53298
53206
53138
53095
53027
52935
52873
52837
52776
52698
52656
52634
52582
52515
52481
52460
52407
52341
52307
52281
52219
52148
52111
52077
52006
51930
51888
51844
51765
51690
51653
51610
51536
51476
51458
51441
51414
51428
51505
51602
51716
51898
52150
52424
52717
53075
53485
53887
54282
54716
55171
55589
55976
56373
56757
57071
57328
57578
57803
57961
58086
58223
58345
58412
58460
58528
58588
58608
58631
58698
58768
58808
58860
58949
59032
59092
59175
59296
59407
59491
59595
59727
59834
59903
59982
60072
60117
60121
60136
60155
60125
60063
60026
60002
59939
59853
59793
59745
59665
59577
59525
59486
59422
59359
59333
59310
59256
59213
59217
59225
59200
59178
59190
59191
59156
59132
59139
59131
59086
59047
59027
58979
58898
58835
58794
58725
58632
58564
58518
58442
58342
58272
58219
58132
58030
57964
57917
57840
57748
57688
57636
57553
57471
57429
57391
57317
57240
57197
57152
57071
56997
56968
56938
56872
56811
56780
56735
56657
56594
56560
56508
56425
56360
56320
56257
56164
56096
56055
55988
55897
55831
55781
55695
55588
55513
55455
55370
55272
55205
55146
55055
54956
54894
54845
54765
54680
54629
54580
54498
54421
54384
54344
54268
54197
54163
54128
54066
54018
53997
53957
53883
53822
53786
53728
53643
53583
53551
53496
53422
53380
53362
53315
53248
53210
53187
53131
53060
53021
52992
52928
52853
52811
52776
52708
52634
52594
52559
52490
52416
52374
52327
52245
52169
52131
52086
52006
51935
51903
51867
51816
51803
51845
51898
51959
52088
52291
52515
52758
53071
53449
53838
54236
54685
55166
55619
56048
56491
56924
57294
57611
57915
58187
58387
58544
58704
58842
58919
58973
59046
59107
59124
59139
59191
59242
59263
59297
59371
59445
59497
59570
59680
59780
59854
59945
60061
60153
60217
60301
60400
60463
60489
60524
60556
60539
60487
60451
60420
60348
60257
60194
60137
60042
59940
59878
59831
59760
59693
59668
59651
59602
59556
59552
59552
59523
59508
59528
59534
59500
59469
59460
59430
59362
59307
59282
59237
59160
59097
59053
58982
58890
58827
58787
58711
58609
58535
58478
58385
58275
58199
58139
58046
57944
57875
57817
57727
57634
57579
57531
57452
57376
57338
57298
57220
57147
57112
57073
57001
56935
56897
56844
56759
56690
56647
56582
56486
56406
56351
56276
56178
56107
56062
55990
55895
55831
55783
55698
55594
55523
55467
55384
55296
55247
55208
55131
55043
54990
54946
54869
54788
54739
54686
54597
54512
54463
54407
54310
54223
54175
54118
54028
53952
53908
53851
53760
53682
53634
53571
53485
53422
53381
53314
53227
53169
53132
53062
52973
52919
52884
52815
52730
52678
52640
52570
52493
52452
52421
52353
52276
52228
52179
52090
51997
51938
51876
51778
51687
51631
51571
51478
51392
51338
51275
51191
51137
51140
51156
51181
51263
51411
51585
51786
52063
52406
52755
53113
53529
53984
54417
54832
55265
55692
56061
56389
56712
57000
57212
57375
57529
57652
57714
57755
57813
57854
57848
57836
57855
57868
57847
57842
57883
57926
57947
57990
58067
58131
58170
58235
58336
58421
58480
58561
58657
58713
58734
58768
58802
58779
58718
58674
58634
58548
58441
58359
58284
58176
58063
57992
57937
57853
57770
57731
57704
57652
57609
57607
57604
57566
57536
57542
57541
57507
57483
57484
57462
57398
57345
57319
57273
57200
57144
57107
57036
56935
56857
56796
56703
56591
56514
56457
56363
56248
56163
56099
56006
55899
55822
55756
55658
55556
55490
55432
55343
55259
55216
55172
55090
55010
54964
54913
54828
54752
54714
54670
54597
54538
54508
54458
54376
54310
54268
54204
54114
54049
54006
53933
53840
53780
53745
53683
53605
53560
53529
53464
53383
53335
53297
53224
53140
53086
53036
52947
52851
52792
52737
52650
52569
52531
52494
52424
52360
52329
52287
52213
52151
52115
52060
51973
51901
51859
51801
51719
51660
51622
51556
51470
51417
51386
51322
51239
51189
51156
51088
51000
50941
50894
50815
50731
50688
50658
50602
50554
50559
50594
50628
50699
50845
51034
51234
51489
51826
52196
52565
52968
53418
53860
54265
54674
55096
55474
55796
56102
56395
56625
56791
56949
57096
57180
57213
57254
57299
57301
57279
57290
57318
57316
57308
57343
57398
57433
57473
57558
57654
57723
57790
57890
57984
58040
58096
58182
58249
58268
58277
58298
58287
58225
58159
58110
58033
57922
57827
57756
57660
57540
57455
57405
57334
57247
57194
57169
57123
57071
57060
57070
57050
57017
57019
57031
57008
56973
56966
56960
56911
56851
56821
56787
56715
56643
56606
56562
56474
56384
56326
56257
56150
56051
55981
55899
55788
55695
55635
55557
55449
55361
55302
55222
55123
55057
55019
54958
54879
54832
54802
54738
54659
54614
54583
54519
54445
54406
54378
54321
54259
54227
54191
54120
54049
54013
53973
53896
53821
53779
53727
53639
53559
53506
53441
53350
53280
53240
53183
53096
53025
52980
52913
52824
52764
52727
52659
52569
52505
52454
52373
52284
52235
52203
52142
52070
52032
52002
51934
51853
51806
51762
51682
51598
51548
51500
51421
51347
51314
51279
51210
51148
51121
51085
51016
50956
50923
50869
50777
50696
50644
50576
50490
50436
50419
50394
50370
50402
50488
50586
50713
50922
51199
51495
51826
52229
52676
53110
53544
54013
54478
54892
55280
55673
56035
56326
56573
56808
56998
57118
57211
57308
57372
57383
57388
57414
57430
57426
57450
57513
57566
57599
57658
57751
57831
57896
57997
58124
58223
58302
58410
58534
58621
58682
58764
58845
58874
58876
58893
58894
58836
58751
58685
58613
58496
58375
58287
58202
58085
57977
57916
57861
57782
57718
57694
57664
57608
57570
57570
57563
57533
57520
57530
57516
57472
57443
57436
57404
57350
57319
57306
57256
57180
57131
57095
57023
56932
56868
56814
56727
56627
56555
56487
56388
56289
56221
56153
56054
55960
55905
55853
55773
55700
55658
55610
55532
55464
55427
55382
55309
55253
55222
55174
55100
55046
55009
54944
54861
54810
54781
54718
54634
54585
54559
54507
54441
54402
54367
54291
54198
54137
54085
54000
53910
53855
53807
53724
53641
53592
53541
53456
53377
53337
53295
53220
53153
53119
53077
53007
52948
52915
52865
52788
52729
52692
52629
52542
52483
52446
52378
52288
52230
52192
52126
52043
51993
51960
51900
51829
51788
51758
51695
51623
51582
51551
51488
51422
51389
51358
51294
51228
51193
51152
51073
51000
50961
50913
50832
50762
50723
50676
50612
50581
50597
50625
50666
50774
50957
51167
51404
51716
52092
52474
52868
53315
53793
54242
54669
55115
55551
55924
56251
56570
56853
57063
57234
57402
57535
57605
57651
57713
57758
57764
57779
57833
57887
57916
57965
58056
58147
58222
58326
58469
58600
58702
58821
58966
59089
59185
59297
59419
59495
59535
59586
59635
59631
59589
59555
59516
59430
59323
59238
59157
59042
58920
58829
58743
58630
58521
58453
58393
58303
58225
58190
58155
58093
58043
58029
58007
57957
57923
57921
57899
57842
57798
57774
57728
57658
57608
57577
57517
57436
57384
57348
57272
57174
57105
57050
56955
56837
56750
56677
56574
56465
56394
56335
56246
56154
56097
56039
55942
55847
55792
55740
55659
55591
55563
55532
55467
55407
55372
55322
55239
55169
55126
55066
54982
54919
54883
54826
54746
54691
54657
54593
54508
54450
54403
54322
54224
54158
54105
54021
53925
53862
53810
53727
53641
53587
53540
53462
53386
53343
53295
53210
53124
53069
53009
52917
52834
52781
52715
52619
52538
52488
52422
52328
52255
52209
52143
52051
51980
51933
51860
51770
51710
51669
51598
51508
51447
51401
51327
51242
51191
51155
51090
51020
50982
50947
50878
50807
50770
50736
50671
50609
50580
50542
50470
50408
50378
50340
50272
50214
50182
50136
50061
50000
49966
49914
49835
49778
49747
49692
49615
49562
49530
49473
49405
49374
49369
49344
49317
49340
49403
49476
49590
49785
50038
50311
50631
51026
51460
51888
52334
52819
53295
53720
54126
54537
54906
55198
55460
55716
55921
56052
56158
56259
56322
56342
56374
56424
56444
56435
56451
56490
56509
56519
56572
56658
56727
56788
56888
57002
57084
57151
57253
57371
57454
57523
57617
57707
57747
57765
57795
57805
57759
57695
57647
57575
57450
57319
57215
57101
56952
56813
56704
56584
56440
56322
56245
56164
56067
55995
55948
55881
55800
55750
55725
55671
55600
55566
55555
55511
55447
55411
55383
55322
55249
55203
55158
55074
54982
54918
54850
54743
54637
54567
54494
54379
54261
54176
54081
53946
53822
53738
53642
53510
53395
53316
53220
53094
52992
52923
52837
52730
52658
52621
52558
52474
52426
52402
52340
52255
52201
52161
52085
51995
51940
51895
51813
51720
51666
51621
51537
51450
51400
51350
51262
51178
51132
51079
50986
50898
50846
50786
50694
50614
50567
50504
50410
50332
50283
50214
50120
50051
50008
49939
49852
49800
49773
49716
49638
49591
49559
49492
49404
49343
49289
49199
49098
49033
48974
48879
48789
48741
48698
48618
48537
48491
48440
48349
48263
48218
48169
48088
48023
47992
47944
47864
47802
47772
47724
47646
47591
47564
47514
47437
47383
47351
47287
47201
47148
47112
47040
46949
46887
46839
46760
46677
46639
46629
46605
46600
46665
46775
46891
47054
47303
47599
47899
48241
48650
49076
49476
49889
50338
50766
51141
51502
51859
52162
52393
52601
52799
52938
53018
53095
53173
53203
53197
53216
53253
53257
53245
53274
53329
53360
53390
53471
53575
53649
53717
53825
53943
54028
54113
54238
54361
54440
54508
54599
54662
54660
54635
54626
54590
54501
54411
54348
54267
54155
54063
54002
53926
53826
53750
53699
53628
53541
53496
53484
53447
53394
53380
53394
53379
53350
53359
53383
53370
53341
53342
53349
53318
53276
53264
53250
53193
53126
53090
53049
52967
52886
52840
52785
52692
52605
52554
52495
52404
52329
52284
52220
52125
52052
52011
51950
51867
51813
51785
51729
51655
51618
51607
51564
51500
51473
51465
51416
51343
51303
51275
51214
51150
51124
51104
51045
50982
50956
50932
50866
50796
50764
50728
50653
50584
50553
50513
50438
50373
50339
50285
50199
50131
50094
50036
49950
49893
49872
49828
49758
49714
49688
49626
49534
49471
49431
49360
49278
49236
49211
49153
49087
49057
49037
48981
48916
48889
48869
48814
48758
48734
48703
48634
48571
48546
48511
48433
48358
48310
48248
48154
48074
48029
47968
47881
47816
47783
47734
47671
47651
47675
47701
47744
47862
48045
48238
48457
48758
49116
49469
49834
50252
50689
51089
51472
51875
52258
52570
52843
53117
53354
53513
53642
53783
53897
53956
54007
54078
54123
54119
54119
54151
54170
54161
54178
54237
54284
54308
54364
54456
54530
54586
54676
54792
54875
54930
55013
55108
55157
55173
55205
55231
55205
55157
55131
55101
55024
54931
54870
54806
54697
54584
54510
54439
54332
54235
54186
54141
54070
54017
54010
54002
53968
53952
53971
53975
53946
53932
53943
53926
53877
53844
53826
53771
53690
53640
53608
53534
53434
53366
53316
53233
53137
53076
53024
52933
52831
52764
52702
52606
52512
52456
52400
52306
52218
52172
52122
52033
51953
51912
51866
51786
51719
51686
51635
51548
51477
51436
51375
51288
51227
51194
51137
51055
51004
50978
50921
50843
50798
50773
50714
50637
50591
50554
50477
50387
50334
50290
50210
50121
50069
50024
49944
49863
49817
49763
49667
49578
49534
49488
49404
49328
49289
49240
49161
49095
49060
49011
48937
48885
48862
48819
48753
48711
48689
48632
48554
48508
48481
48417
48334
48289
48262
48199
48126
48094
48072
48012
47947
47923
47904
47845
47778
47743
47706
47632
47561
47529
47492
47414
47340
47300
47253
47174
47109
47079
47037
46965
46908
46876
46822
46749
46713
46723
46734
46752
46834
46981
47142
47333
47606
47945
48294
48662
49095
49560
49998
50426
50882
51330
51715
52063
52412
52722
52950
53132
53317
53471
53558
53619
53695
53751
53761
53779
53833
53875
53885
53913
53977
54029
54056
54114
54214
54303
54382
54501
54648
54761
54846
54959
55084
55167
55221
55294
55364
55380
55366
55370
55365
55306
55228
55180
55125
55023
54911
54833
54755
54639
54530
54471
54418
54331
54258
54230
54200
54139
54095
54093
54081
54043
54021
54023
53998
53944
53913
53904
53867
53805
53776
53768
53721
53647
53603
53573
53504
53415
53358
53312
53227
53131
53073
53025
52945
52863
52821
52780
52699
52613
52561
52510
52427
52352
52316
52274
52195
52125
52090
52040
51956
51888
51853
51800
51715
51646
51606
51551
51477
51435
51417
51371
51304
51264
51240
51181
51102
51056
51024
50953
50869
50824
50788
50713
50629
50581
50537
50457
50376
50329
50282
50195
50108
50055
49993
49893
49804
49762
49720
49650
49591
49566
49527
49455
49396
49364
49311
49226
49163
49125
49065
48985
48936
48911
48858
48790
48758
48745
48697
48629
48586
48549
48475
48389
48339
48301
48234
48168
48137
48106
48038
47968
47936
47903
47839
47784
47764
47733
47664
47603
47578
47544
47480
47434
47421
47388
47320
47266
47238
47189
47116
47070
47045
46984
46899
46851
46829
46785
46739
46746
46793
46839
46910
47061
47269
47493
47757
48100
48494
48890
49308
49775
50246
50681
51114
51571
52000
52359
52685
53004
53274
53473
53645
53814
53937
54000
54057
54123
54154
54148
54159
54197
54214
54217
54259
54332
54383
54428
54523
54650
54759
54860
54994
55138
55244
55334
55449
55563
55635
55689
55761
55816
55813
55789
55783
55759
55685
55606
55558
55496
55391
55292
55229
55156
55057
54978
54931
54865
54771
54704
54675
54632
54572
54547
54549
54518
54465
54445
54444
54411
54360
54345
54345
54309
54257
54236
54219
54159
54084
54037
53990
53905
53820
53775
53729
53641
53546
53483
53416
53317
53230
53180
53121
53031
52953
52909
52855
52775
52712
52678
52621
52534
52467
52420
52344
52247
52183
52143
52071
51980
51922
51882
51808
51721
51668
51624
51542
51448
51386
51330
51239
51144
51080
51015
50916
50822
50768
50715
50628
50550
50504
50449
50358
50273
50217
50147
50045
49962
49911
49840
49741
49667
49624
49562
49478
49419
49379
49307
49213
49148
49105
49031
48942
48890
48857
48795
48723
48683
48648
48574
48492
48449
48417
48354
48284
48247
48207
48128
48053
48020
47983
47908
47840
47809
47769
47694
47629
47597
47550
47474
47418
47392
47347
47279
47235
47216
47171
47101
47057
47031
46968
46881
46827
46792
46723
46639
46593
46563
46511
46473
46497
46558
46623
46727
46912
47144
47389
47681
48052
48455
48841
49247
49700
50145
50543
50928
51315
51654
51927
52177
52416
52599
52719
52830
52941
53007
53031
53068
53113
53114
53088
53096
53125
53122
53105
53130
53184
53213
53237
53309
53402
53469
53533
53634
53738
53799
53850
53926
53989
54006
54016
54050
54064
54022
53975
53955
53918
53837
53760
53711
53646
53554
53482
53443
53387
53309
53256
53230
53180
53112
53078
53071
53034
52982
52968
52973
52942
52891
52872
52863
52814
52751
52722
52701
52642
52576
52539
52496
52413
52330
52284
52234
52140
52046
51986
51920
51822
51737
51685
51618
51515
51428
51372
51298
51193
51105
51039
50945
50827
50742
50689
50615
50522
50465
50430
50363
50279
50230
50199
50134
50054
50005
49962
49879
49786
49730
49681
49593
49499
49445
49395
49309
49227
49186
49142
49058
48979
48935
48880
48792
48717
48675
48620
48533
48463
48418
48349
48253
48181
48137
48072
47989
47935
47898
47824
47731
47672
47629
47549
47454
47396
47349
47262
47162
47098
47047
46965
46880
46833
46793
46719
46644
46608
46572
46505
46443
46418
46381
46306
46238
46201
46151
46069
46005
45970
45915
45831
45767
45728
45665
45581
45527
45500
45457
45411
45421
45476
45529
45604
45762
45988
46232
46512
46869
47270
47662
48063
48511
48968
49387
49790
50204
50587
50896
51168
51438
51663
51808
51921
52037
52113
52130
52137
52161
52162
52127
52110
52129
52138
52128
52147
52197
52230
52252
52315
52405
52465
52508
52591
52696
52764
52811
52886
52963
52984
52972
52975
52968
52916
52857
52831
52801
52728
52650
52611
52572
52500
52443
52431
52418
52373
52340
52345
52341
52309
52298
52321
52329
52309
52308
52330
52325
52293
52288
52304
52280
52224
52197
52184
52130
52045
51986
51940
51857
51757
51687
51622
51518
51407
51335
51270
51170
51070
51013
50965
50885
50810
50775
50734
50656
50583
50546
50497
50415
50352
50326
50289
50224
50178
50163
50126
50061
50017
49997
49950
49882
49841
49821
49768
49697
49657
49630
49564
49485
49439
49402
49329
49244
49197
49162
49091
49016
48983
48953
48882
48811
48778
48740
48669
48609
48590
48566
48505
48452
48428
48386
48308
48248
48218
48169
48091
48037
48015
47969
47894
47841
47806
47737
47649
47597
47566
47497
47408
47353
47315
47242
47152
47095
47050
46974
46900
46877
46882
46877
46905
47011
47164
47330
47552
47866
48223
48584
48987
49454
49929
50378
50840
51323
51773
52166
52540
52899
53190
53407
53609
53801
53933
54011
54095
54180
54211
54205
54223
54251
54246
54234
54267
54322
54353
54382
54454
54540
54598
54659
54763
54873
54951
55028
55140
55241
55293
55339
55408
55451
55438
55414
55409
55378
55300
55227
55181
55115
55015
54934
54882
54810
54716
54655
54623
54569
54507
54491
54510
54506
54488
54503
54535
54530
54509
54522
54541
54515
54469
54449
54432
54379
54322
54299
54273
54207
54141
54108
54064
53977
53894
53847
53787
53687
53598
53542
53475
53379
53301
53257
53198
53115
53058
53028
52972
52896
52856
52839
52789
52719
52685
52671
52619
52549
52512
52486
52425
52357
52324
52297
52230
52158
52126
52101
52041
51980
51956
51927
51853
51781
51746
51703
51623
51550
51509
51455
51368
51298
51264
51216
51136
51073
51037
50977
50890
50831
50796
50727
50632
50572
50535
50466
50378
50327
50293
50225
50145
50101
50066
49991
49906
49861
49825
49754
49686
49660
49635
49568
49499
49471
49443
49382
49329
49317
49297
49239
49187
49162
49118
49041
48978
48944
48888
48805
48753
48742
48731
48729
48798
48935
49095
49294
49585
49945
50314
50705
51159
51650
52122
52589
53087
53579
54011
54408
54807
55171
55459
55704
55941
56131
56239
56319
56413
56483
56506
56531
56590
56635
56647
56677
56744
56797
56828
56888
56988
57078
57151
57255
57388
57497
57587
57710
57848
57941
58007
58101
58200
58245
58249
58259
58255
58190
58099
58033
57967
57860
57744
57662
57584
57475
57376
57320
57268
57187
57120
57101
57084
57037
57001
56998
56979
56935
56913
56924
56922
56895
56889
56905
56891
56847
56825
56820
56776
56704
56658
56623
56544
56439
56364
56300
56199
56086
56006
55936
55831
55727
55668
55618
55534
55455
55416
55375
55296
55223
55193
55163
55097
55038
55009
54963
54878
54806
54767
54709
54619
54547
54503
54437
54344
54277
54237
54172
54088
54036
54005
53943
53864
53819
53793
53733
53653
53604
53565
53488
53398
53342
53295
53214
53133
53087
53041
52957
52875
52831
52783
52698
52621
52581
52531
52447
52376
52339
52287
52206
52142
52110
52060
51982
51926
51897
51843
51767
51721
51696
51638
51557
51507
51474
51408
51328
51287
51263
51202
51126
51085
51054
50986
50909
50867
50828
50748
50663
50616
50573
50492
50418
50386
50349
50274
50212
50197
50188
50169
50192
50285
50404
50541
50749
51043
51373
51727
52150
52632
53111
53580
54087
54614
55095
55532
55971
56388
56727
57001
57263
57496
57654
57763
57872
57960
57991
58009
58061
58120
58146
58176
58249
58325
58370
58429
58539
58650
58729
58823
58959
59088
59187
59299
59434
59541
59612
59699
59803
59867
59890
59928
59975
59971
59925
59895
59872
59804
59707
59637
59582
59490
59387
59323
59270
59183
59092
59044
59011
58951
58898
58890
58886
58841
58801
58808
58811
58778
58754
58765
58758
58703
58652
58628
58582
58500
58432
58392
58330
58240
58172
58127
58051
57948
57872
57818
57731
57623
57552
57502
57417
57314
57249
57203
57120
57018
56949
56894
56810
56723
56676
56635
56557
56480
56441
56398
56316
56243
56208
56164
56078
56001
55961
55909
55825
55757
55723
55672
55590
55528
55493
55431
55344
55287
55257
55191
55098
55031
54980
54896
54792
54725
54682
54608
54522
54469
54427
54353
54277
54242
54216
54151
54080
54043
54002
53917
53832
53787
53739
53652
53571
53528
53477
53391
53317
53277
53227
53148
53085
53051
52994
52910
52851
52819
52765
52691
52645
52616
52548
52455
52396
52358
52290
52206
52151
52106
52025
51934
51876
51822
51730
51631
51566
51507
51418
51342
51321
51323
51320
51360
51487
51657
51836
52075
52401
52766
53144
53577
54070
54562
55031
55517
56014
56464
56857
57237
57595
57877
58093
58298
58484
58597
58657
58727
58793
58806
58790
58804
58826
58811
58794
58824
58870
58888
58914
58993
59084
59144
59213
59329
59443
59517
59595
59708
59802
59845
59882
59934
59953
59920
59884
59858
59791
59680
59586
59520
59426
59305
59213
59144
59043
58922
58837
58777
58691
58596
58545
58517
58459
58393
58365
58349
58297
58241
58222
58208
58156
58100
58078
58049
57975
57900
57857
57800
57697
57601
57540
57466
57355
57258
57192
57101
56971
56862
56784
56687
56566
56474
56410
56319
56207
56128
56070
55976
55864
55792
55745
55668
55576
55520
55475
55391
55294
55233
55184
55103
55021
54979
54941
54866
54792
54756
54715
54634
54556
54512
54457
54363
54279
54229
54162
54062
53978
53925
53851
53746
53663
53612
53543
53452
53387
53345
53269
53168
53099
53053
52974
52875
52813
52767
52686
52591
52534
52485
52400
52310
52259
52209
52119
52027
51975
51921
51829
51744
51704
51665
51590
51522
51485
51436
51353
51282
51242
51182
51087
51008
50954
50876
50772
50698
50652
50575
50473
50401
50354
50282
50208
50198
50247
50304
50395
50573
50819
51087
51398
51793
52240
52681
53138
53646
54158
54620
55066
55529
55960
56309
56615
56910
57148
57299
57416
57534
57610
57626
57638
57666
57664
57624
57607
57626
57629
57616
57643
57703
57742
57771
57847
57956
58035
58097
58198
58312
58383
58431
58505
58572
58581
58560
58558
58544
58476
58391
58331
58262
58151
58041
57972
57902
57795
57703
57660
57621
57557
57516
57520
57517
57491
57491
57525
57539
57521
57522
57550
57552
57528
57529
57544
57512
57449
57419
57410
57362
57286
57237
57194
57106
57001
56930
56867
56766
56656
56580
56508
56398
56287
56215
56145
56038
55937
55879
55819
55722
55638
55597
55552
55479
55425
55409
55378
55315
55271
55258
55218
55146
55100
55081
55033
54959
54917
54898
54845
54776
54746
54734
54683
54617
54584
54559
54495
54420
54380
54346
54275
54199
54156
54108
54022
53942
53907
53872
53797
53728
53697
53658
53583
53520
53492
53448
53365
53290
53241
53173
53079
53013
52977
52917
52833
52779
52748
52683
52595
52545
52519
52459
52376
52323
52282
52206
52121
52079
52059
52021
51998
52041
52127
52222
52371
52619
52926
53250
53623
54076
54556
55021
55507
56035
56548
57008
57452
57895
58279
58586
58862
59120
59312
59436
59549
59656
59708
59714
59735
59769
59764
59738
59750
59791
59806
59815
59868
59946
60001
60058
60165
60289
60379
60462
60580
60694
60758
60808
60884
60940
60933
60909
60906
60881
60804
60721
60661
60579
60456
60348
60274
60186
60074
59991
59945
59883
59801
59751
59734
59694
59638
59624
59638
59623
59591
59597
59624
59615
59586
59585
59590
59553
59502
59480
59456
59385
59301
59248
59195
59100
59001
58936
58864
58747
58634
58560
58477
58358
58253
58182
58095
57974
57873
57807
57727
57622
57548
57510
57449
57359
57295
57252
57179
57087
57035
57009
56952
56877
56837
56815
56759
56690
56659
56639
56578
56503
56456
56408
56318
56221
56161
56102
56002
55900
55836
55764
55657
55563
55514
55465
55380
55305
55259
55196
55102
55030
54993
54934
54843
54772
54727
54656
54564
54505
54469
54398
54308
54254
54224
54160
54075
54023
53986
53917
53844
53809
53782
53723
53664
53641
53616
53551
53487
53458
53420
53338
53258
53213
53159
53067
52988
52947
52895
52813
52749
52722
52687
52637
52628
52681
52752
52846
53021
53273
53549
53860
54266
54751
55246
55752
56311
56892
57427
57928
58437
58922
59330
59678
60013
60304
60508
60665
60819
60941
60996
61031
61093
61138
61137
61144
61195
61248
61277
61330
61427
61519
61589
61684
61816
61936
62034
62158
62306
62419
62500
62601
62711
62774
62800
62843
62885
62871
62814
62767
62710
62596
62463
62363
62269
62136
61996
61895
61807
61691
61585
61527
61476
61395
61329
61309
61288
61230
61182
61177
61169
61128
61103
61110
61097
61049
61022
61025
61004
60949
60909
60878
60807
60706
60630
60572
60478
60363
60284
60225
60132
60022
59944
59879
59781
59674
59604
59541
59445
59346
59286
59234
59148
59062
59013
58961
58870
58785
58740
58693
58612
58541
58505
58453
58364
58284
58231
58158
58056
57975
57921
57840
57731
57649
57596
57517
57420
57356
57310
57225
57119
57045
56984
56887
56776
56700
56636
56539
56435
56363
56293
56184
56069
55992
55919
55814
55710
55642
55569
55462
55365
55307
55240
55133
55034
54964
54876
54754
54650
54580
54492
54373
54274
54204
54110
53993
53909
53856
53775
53671
53605
53564
53495
53409
53357
53317
53240
53149
53092
53044
52962
52877
52831
52791
52715
52637
52595
52552
52468
52382
52331
52272
52173
52082
52028
51968
51878
51810
51790
51779
51772
51830
51970
52145
52353
52646
53023
53429
53863
54372
54938
55490
56027
56597
57173
57687
58148
58598
59007
59323
59575
59810
60002
60113
60187
60272
60340
60353
60355
60389
60417
60406
60405
60448
60495
60518
60568
60672
60777
60859
60965
61108
61233
61327
61437
61566
61658
61711
61776
61847
61867
61841
61825
61808
61738
61630
61542
61459
61334
61191
61082
60985
60850
60713
60621
60545
60440
60345
60300
60266
60202
60151
60148
60148
60113
60091
60113
60125
60096
60072
60076
60059
60003
59955
59930
59877
59786
59711
59653
59564
59447
59356
59284
59177
59052
58964
58899
58802
58690
58615
58556
58458
58348
58280
58229
58144
58054
57999
57944
57849
57753
57695
57632
57529
57434
57383
57329
57236
57153
57109
57056
56970
56900
56862
56805
56715
56643
56598
56526
56420
56333
56269
56183
56083
56016
55975
55905
55820
55773
55748
55687
55606
55551
55503
55415
55317
55256
55206
55123
55035
54984
54936
54854
54775
54734
54691
54613
54541
54504
54459
54376
54303
54262
54206
54116
54046
54012
53961
53884
53829
53800
53745
53664
53614
53588
53529
53446
53395
53362
53292
53201
53147
53113
53047
52966
52917
52878
52804
52722
52675
52633
52555
52475
52440
52421
52390
52395
52480
52610
52756
52966
53277
53639
54022
54469
54994
55537
56067
56619
57194
57733
58219
58693
59147
59520
59814
60092
60346
60519
60624
60724
60810
60833
60815
60817
60826
60797
60761
60768
60795
60799
60810
60872
60952
61010
61079
61194
61312
61391
61470
61584
61683
61730
61770
61828
61852
61821
61784
61757
61692
61582
61479
61396
61287
61150
61042
60964
60863
60747
60672
60628
60557
60471
60429
60415
60373
60322
60314
60322
60295
60260
60262
60271
60239
60197
60188
60179
60125
60065
60036
59997
59912
59823
59760
59683
59567
59461
59390
59306
59185
59075
58991
58882
58742
58630
58553
58457
58344
58265
58211
58128
58028
57965
57922
57845
57752
57693
57648
57569
57481
57433
57395
57320
57236
57186
57135
57045
56951
56895
56840
56746
56654
56601
56546
56456
56372
56319
56252
56147
56052
55988
55906
55790
55691
55626
55543
55430
55341
55282
55199
55095
55022
54973
54890
54786
54716
54671
54593
54498
54437
54391
54311
54218
54161
54115
54031
53937
53878
53819
53719
53615
53552
53497
53409
53332
53299
53263
53189
53123
53092
53052
52979
52919
52887
52835
52751
52686
52648
52587
52503
52449
52417
52352
52260
52196
52149
52064
51958
51885
51827
51736
51632
51574
51543
51504
51491
51557
51678
51813
51999
52282
52628
53002
53437
53964
54530
55086
55662
56278
56874
57414
57934
58445
58895
59255
59569
59854
60069
60214
60346
60472
60540
60554
60575
60605
60596
60565
60574
60616
60637
60650
60711
60799
60861
60918
61019
61140
61231
61315
61436
61559
61637
61703
61790
61856
61865
61857
61866
61853
61786
61712
61665
61595
61475
61352
61253
61133
60982
60856
60771
60676
60567
60493
60455
60399
60325
60287
60274
60229
60168
60144
60143
60106
60049
60023
60004
59942
59872
59841
59817
59748
59666
59613
59560
59463
59360
59292
59218
59102
58985
58901
58808
58678
58562
58484
58394
58267
58153
58071
57973
57847
57744
57675
57590
57485
57414
57372
57298
57200
57135
57099
57036
56958
56916
56886
56810
56712
56645
56587
56491
56387
56318
56255
56160
56065
56008
55954
55864
55776
55722
55663
55567
55477
55426
55364
55260
55158
55085
54999
54882
54782
54713
54627
54513
54422
54360
54277
54171
54095
54041
53955
53850
53784
53743
53670
53578
53517
53470
53388
53293
53234
53187
53107
53018
52963
52908
52814
52717
52659
52600
52502
52408
52356
52298
52201
52111
52060
52004
51918
51846
51805
51749
51662
51595
51560
51506
51425
51371
51339
51274
51182
51116
51070
50993
50893
50822
50764
50673
50571
50509
50465
50394
50322
50304
50318
50328
50375
50511
50708
50933
51221
51608
52047
52496
52994
53565
54153
54716
55286
55874
56420
56893
57334
57755
58108
58375
58605
58807
58938
59005
59070
59133
59144
59119
59122
59147
59138
59112
59126
59166
59181
59193
59256
59347
59415
59483
59595
59717
59802
59883
60002
60117
60181
60228
60293
60329
60301
60257
60237
60197
60103
60004
59926
59824
59683
59556
59462
59354
59222
59114
59038
58949
58846
58783
58751
58692
58615
58578
58568
58531
58482
58472
58480
58450
58397
58370
58347
58281
58203
58156
58110
58025
57934
57879
57822
57720
57613
57539
57457
57337
57225
57151
57065
56941
56825
56743
56646
56523
56429
56371
56292
56178
56081
56013
55925
55820
55747
55698
55618
55517
55450
55405
55326
55231
55171
55128
55054
54973
54929
54891
54815
54732
54683
54631
54536
54434
54363
54287
54176
54074
54017
53962
53872
53787
53735
53672
53574
53489
53436
53366
53262
53172
53109
53021
52906
52817
52755
52668
52561
52486
52435
52350
52245
52179
52137
52067
51985
51938
51900
51825
51738
51687
51642
51562
51474
51417
51358
51259
51163
51109
51057
50971
50896
50861
50817
50737
50664
50622
50566
50475
50400
50358
50302
50216
50146
50101
50033
49940
49876
49836
49763
49664
49588
49529
49435
49324
49251
49196
49107
49005
48947
48913
48867
48846
48902
49011
49137
49318
49599
49946
50318
50747
51261
51813
52352
52903
53485
54046
54551
55039
55521
55943
56283
56584
56861
57064
57188
57287
57375
57409
57399
57402
57414
57384
57329
57310
57319
57304
57285
57312
57368
57402
57436
57518
57621
57695
57764
57871
57983
58049
58102
58179
58237
58234
58214
58210
58181
58102
58023
57971
57903
57798
57703
57636
57548
57429
57333
57271
57197
57107
57050
57026
56981
56918
56897
56906
56888
56850
56844
56854
56825
56773
56750
56735
56675
56595
56545
56502
56422
56336
56282
56224
56123
56016
55944
55863
55737
55612
55525
55434
55306
55187
55103
55010
54884
54777
54706
54621
54508
54414
54352
54274
54171
54094
54042
53961
53858
53789
53745
53670
53578
53525
53488
53408
53301
53223
53157
53056
52951
52890
52838
52748
52655
52601
52549
52459
52372
52326
52278
52193
52114
52074
52027
51939
51856
51805
51738
51632
51538
51477
51403
51304
51231
51192
51134
51053
51000
50970
50909
50825
50768
50729
50657
50567
50508
50462
50383
50291
50235
50190
50109
50019
49961
49904
49805
49699
49632
49569
49475
49390
49353
49316
49242
49173
49135
49084
48996
48918
48865
48792
48687
48599
48538
48458
48351
48271
48216
48131
48022
47947
47900
47831
47752
47725
47746
47773
47830
47976
48195
48438
48726
49105
49542
49984
50451
50978
51522
52030
52531
53054
53542
53950
54313
54662
54952
55153
55314
55464
55561
55586
55593
55606
55583
55517
55465
55445
55411
55359
55341
55356
55353
55340
55369
55433
55479
55514
55589
55687
55749
55791
55860
55930
55952
55949
55964
55965
55904
55817
55749
55674
55554
55426
55334
55240
55113
55000
54939
54885
54806
54745
54727
54703
54652
54621
54626
54615
54578
54565
54578
54562
54517
54497
54495
54455
54386
54347
54325
54266
54185
54134
54093
54008
53899
53818
53743
53633
53515
53431
53349
53234
53120
53047
52977
52870
52761
52689
52613
52504
52408
52358
52304
52215
52136
52092
52035
51947
51880
51850
51805
51728
51672
51647
51600
51526
51480
51452
51388
51301
51249
51217
51148
51064
51016
50987
50926
50854
50818
50792
50729
50656
50619
50587
50519
50452
50423
50389
50313
50239
50206
50169
50093
50024
49989
49941
49858
49790
49759
49708
49623
49557
49524
49473
49397
49345
49318
49263
49183
49132
49103
49044
48966
48925
48902
48844
48764
48717
48683
48612
48526
48473
48426
48341
48249
48196
48146
48057
47967
47916
47868
47787
47714
47686
47666
47629
47628
47702
47812
47943
48149
48450
48792
49154
49579
50071
50577
51078
51609
52160
52668
53127
53582
54017
54375
54664
54931
55163
55316
55416
55516
55592
55602
55579
55575
55572
55531
55488
55489
55501
55487
55486
55538
55598
55628
55669
55753
55833
55883
55944
56037
56107
56134
56161
56203
56207
56164
56123
56094
56028
55926
55847
55790
55699
55587
55515
55470
55397
55312
55274
55266
55229
55182
55173
55179
55151
55115
55118
55133
55118
55099
55115
55123
55084
55039
55030
55016
54961
54906
54880
54837
54745
54654
54592
54515
54408
54318
54258
54179
54066
53973
53909
53821
53707
53625
53569
53483
53377
53308
53262
53186
53096
53046
53014
52947
52865
52821
52792
52730
52666
52640
52616
52554
52491
52461
52426
52349
52279
52247
52206
52123
52048
52008
51961
51880
51811
51774
51721
51638
51574
51540
51485
51397
51328
51284
51214
51123
51062
51024
50952
50856
50792
50749
50673
50581
50521
50470
50382
50284
50225
50180
50109
50038
50004
49972
49902
49831
49798
49762
49687
49614
49578
49538
49461
49392
49358
49317
49244
49188
49166
49127
49053
48991
48960
48908
48829
48776
48746
48685
48603
48552
48520
48457
48383
48358
48370
48375
48397
48495
48652
48828
49052
49373
49761
50166
50611
51128
51673
52197
52729
53294
53843
54329
54783
55226
55604
55892
56142
56383
56569
56685
56784
56888
56949
56960
56980
57025
57046
57044
57070
57124
57155
57175
57240
57337
57408
57467
57568
57691
57783
57860
57970
58089
58167
58223
58297
58360
58368
58352
58349
58326
58249
58164
58109
58042
57931
57825
57754
57679
57573
57484
57436
57383
57305
57246
57219
57174
57106
57069
57065
57041
56997
56985
56999
56980
56939
56930
56940
56908
56853
56827
56811
56752
56672
56623
56581
56499
56402
56330
56259
56151
56041
55970
55902
55801
55705
55642
55569
55457
55356
55297
55239
55156
55092
55065
55018
54936
54870
54838
54792
54720
54666
54634
54573
54488
54432
54400
54337
54254
54201
54166
54096
54009
53957
53921
53853
53778
53739
53705
53632
53545
53487
53435
53353
53275
53234
53194
53114
53030
52981
52926
52839
52762
52717
52658
52567
52493
52453
52398
52313
52248
52209
52147
52056
51987
51942
51870
51777
51715
51677
51610
51525
51473
51439
51370
51284
51230
51188
51113
51030
50983
50943
50867
50789
50753
50727
50669
50609
50581
50546
50467
50388
50343
50294
50211
50136
50091
50033
49941
49864
49818
49756
49670
49607
49576
49535
49494
49513
49597
49704
49850
50091
50415
50766
51152
51619
52142
52658
53177
53733
54292
54797
55263
55727
56157
56511
56817
57114
57364
57530
57656
57784
57875
57901
57915
57955
57982
57973
57973
58006
58032
58036
58069
58152
58236
58303
58397
58519
58620
58701
58813
58948
59048
59110
59187
59266
59292
59279
59282
59285
59235
59150
59077
58995
58869
58731
58626
58526
58394
58267
58185
58112
58010
57912
57856
57803
57724
57662
57645
57624
57574
57543
57550
57548
57520
57509
57521
57506
57455
57421
57408
57366
57295
57248
57218
57149
57054
56984
56924
56823
56706
56624
56553
56448
56332
56249
56172
56060
55941
55858
55780
55672
55572
55515
55459
55370
55286
55239
55190
55110
55039
55001
54953
54873
54808
54776
54729
54648
54580
54535
54468
54376
54313
54279
54218
54132
54072
54028
53947
53845
53777
53731
53655
53563
53498
53439
53342
53236
53168
53108
53016
52919
52860
52806
52718
52633
52587
52535
52446
52359
52305
52243
52150
52071
52030
51980
51900
51833
51791
51730
51639
51564
51515
51449
51359
51292
51245
51167
51070
51005
50965
50897
50812
50761
50729
50665
50588
50542
50501
50421
50330
50273
50221
50136
50051
50003
49955
49874
49797
49759
49712
49624
49541
49496
49449
49371
49305
49278
49253
49222
49234
49311
49416
49548
49759
50059
50397
50767
51213
51722
52231
52738
53290
53864
54390
54869
55345
55795
56162
56465
56752
57002
57173
57295
57420
57520
57561
57583
57626
57662
57662
57669
57719
57772
57795
57831
57915
58004
58067
58149
58268
58374
58447
58532
58643
58731
58784
58850
58928
58964
58957
58953
58951
58901
58820
58762
58712
58620
58505
58423
58353
58247
58129
58048
57983
57893
57809
57774
57755
57709
57669
57672
57680
57657
57637
57650
57655
57621
57590
57593
57585
57539
57497
57482
57448
57380
57325
57292
57232
57137
57056
56998
56910
56796
56711
56650
56562
56455
56381
56326
56239
56139
56075
56026
55943
55851
55801
55767
55707
55646
55621
55600
55546
55490
55469
55443
55376
55308
55272
55226
55144
55071
55032
54985
54909
54846
54809
54754
54672
54612
54583
54535
54462
54406
54366
54296
54206
54146
54104
54026
53928
53866
53826
53755
53667
53614
53570
53488
53395
53339
53292
53214
53136
53095
53059
52987
52916
52883
52843
52762
52685
52647
52606
52529
52454
52409
52354
52270
52202
52162
52106
52028
51975
51950
51900
51827
51783
51766
51726
51667
51639
51625
51573
51493
51442
51406
51339
51256
51206
51171
51105
51029
50987
50947
50872
50797
50756
50712
50633
50561
50537
50524
50493
50495
50572
50685
50814
51008
51295
51625
51975
52391
52881
53389
53892
54429
54995
55530
56023
56514
56989
57387
57714
58023
58300
58495
58630
58762
58880
58940
58971
59024
59078
59092
59098
59143
59202
59239
59286
59376
59474
59544
59626
59754
59883
59975
60071
60204
60325
60405
60490
60597
60669
60688
60697
60710
60682
60607
60538
60481
60388
60267
60171
60095
59989
59863
59779
59721
59634
59537
59481
59447
59389
59331
59319
59324
59297
59265
59273
59289
59267
59236
59232
59220
59171
59124
59110
59082
59011
58943
58907
58862
58782
58707
58657
58589
58488
58400
58340
58259
58153
58070
58010
57926
57822
57752
57708
57631
57532
57466
57418
57338
57244
57186
57141
57062
56976
56931
56901
56842
56784
56761
56739
56677
56608
56568
56524
56442
56363
56320
56270
56180
56094
56040
55975
55878
55796
55747
55687
55595
55516
55459
55379
55275
55197
55144
55066
54969
54904
54859
54781
54686
54632
54600
54532
54446
54388
54341
54257
54160
54093
54026
53919
53810
53742
53678
53577
53475
53413
53350
53253
53165
53115
53059
52968
52887
52848
52800
52716
52642
52599
52537
52447
52378
52336
52275
52189
52126
52087
52022
51933
51875
51838
51767
51677
51615
51572
51500
51415
51357
51306
51219
51123
51064
51019
50946
50882
50879
50912
50952
51044
51228
51468
51730
52057
52477
52938
53399
53896
54442
54981
55484
55989
56504
56974
57377
57752
58102
58378
58585
58775
58945
59043
59090
59151
59220
59244
59241
59272
59319
59333
59335
59383
59454
59504
59561
59666
59783
59865
59945
60065
60187
60268
60345
60450
60537
60571
60595
60637
60655
60615
60562
60518
60439
60315
60200
60110
60000
59863
59747
59660
59556
59440
59362
59315
59249
59173
59136
59123
59079
59018
58989
58977
58936
58888
58875
58872
58834
58787
58771
58752
58692
58624
58585
58536
58441
58342
58279
58214
58114
58018
57952
57872
57752
57642
57564
57472
57348
57239
57160
57067
56954
56871
56817
56739
56646
56591
56562
56505
56428
56382
56357
56303
56232
56192
56164
56098
56014
55963
55921
55843
55757
55710
55670
55596
55520
55479
55429
55336
55250
55211
55172
55093
55017
54973
54916
54826
54753
54714
54663
54580
54512
54470
54408
54318
54249
54201
54126
54033
53975
53937
53864
53769
53710
53677
53615
53537
53491
53453
53377
53290
53239
53198
53129
53063
53035
53008
52946
52888
52865
52835
52766
52702
52671
52630
52551
52481
52442
52391
52311
52248
52217
52165
52076
52002
51952
51877
51775
51700
51650
51574
51485
51444
51448
51450
51472
51573
51742
51932
52166
52493
52888
53299
53743
54252
54783
55288
55786
56305
56802
57233
57629
58018
58358
58613
58825
59029
59185
59270
59329
59391
59421
59413
59418
59447
59444
59405
59394
59430
59468
59504
59581
59683
59756
59809
59901
60016
60095
60150
60231
60318
60362
60375
60400
60410
60363
60291
60244
60194
60100
59993
59916
59837
59725
59623
59568
59513
59423
59344
59314
59289
59238
59202
59204
59197
59162
59144
59156
59147
59104
59077
59073
59045
58996
58978
58977
58937
58868
58828
58803
58735
58636
58562
58499
58400
58287
58209
58142
58038
57923
57844
57770
57662
57553
57480
57405
57295
57192
57132
57073
56980
56896
56851
56801
56723
56657
56620
56565
56477
56404
56362
56303
56222
56167
56134
56074
55995
55948
55923
55864
55784
55735
55701
55632
55545
55494
55457
55382
55292
55238
55194
55111
55015
54951
54895
54805
54721
54680
54636
54549
54463
54414
54359
54263
54175
54125
54068
53982
53916
53883
53832
53753
53691
53653
53595
53514
53455
53418
53353
53265
53203
53158
53083
52994
52943
52911
52845
52765
52713
52673
52605
52535
52499
52470
52402
52327
52286
52248
52177
52108
52076
52040
51967
51898
51864
51820
51743
51680
51652
51612
51539
51485
51477
51478
51486
51555
51695
51866
52072
52362
52729
53126
53559
54068
54630
55182
55723
56294
56870
57387
57849
58302
58716
59044
59316
59576
59797
59936
60033
60136
60221
60252
60271
60320
60359
60358
60370
60430
60491
60527
60583
60687
60791
60873
60980
61125
61253
61347
61457
61592
61700
61769
61846
61928
61960
61942
61926
61909
61838
61729
61642
61569
61461
61332
61229
61128
60987
60845
60751
60678
60585
60502
60466
60441
60387
60342
60339
60332
60290
60262
60279
60286
60250
60218
60217
60199
60146
60106
60089
60043
59962
59900
59859
59786
59687
59616
59563
59474
59359
59271
59203
59100
58977
58887
58813
58709
58600
58533
58481
58395
58302
58249
58207
58133
58059
58025
57988
57910
57832
57791
57750
57672
57599
57562
57516
57438
57372
57336
57283
57197
57125
57078
57011
56920
56851
56803
56729
56634
56569
56525
56447
56349
56287
56251
56185
56100
56043
55996
55912
55815
55757
55710
55627
55536
55479
55429
55348
55264
55214
55162
55074
54988
54936
54873
54770
54674
54611
54542
54447
54371
54324
54257
54156
54070
54015
53944
53852
53784
53737
53660
53558
53489
53448
53377
53288
53233
53199
53133
53047
52991
52947
52870
52786
52742
52712
52651
52588
52559
52529
52460
52388
52349
52302
52213
52127
52079
52025
51937
51865
51840
51823
51798
51816
51900
52016
52158
52383
52699
53052
53437
53902
54437
54980
55522
56102
56697
57243
57745
58244
58717
59109
59436
59746
60019
60209
60348
60482
60586
60627
60643
60683
60723
60728
60740
60792
60849
60883
60936
61032
61124
61190
61278
61407
61529
61622
61735
61879
62002
62092
62194
62305
62368
62384
62404
62425
62393
62318
62258
62205
62104
61973
61867
61773
61644
61504
61406
61328
61222
61113
61046
60996
60923
60856
60833
60819
60776
60741
60747
60746
60706
60669
60666
60653
60600
60549
60521
60474
60393
60323
60275
60208
60114
60036
59977
59888
59772
59680
59607
59501
59375
59287
59224
59131
59020
58940
58876
58779
58672
58603
58546
58455
58356
58293
58233
58140
58050
58000
57948
57857
57765
57710
57654
57564
57486
57445
57393
57309
57238
57199
57144
57057
56984
56938
56869
56770
56691
56635
56551
56446
56374
56326
56248
56148
56077
56021
55930
55824
55753
55698
55614
55523
55469
55426
55348
55260
55203
55150
55060
54969
54914
54855
54758
54665
54611
54554
54462
54375
54318
54245
54135
54040
53982
53912
53811
53732
53684
53613
53514
53436
53380
53297
53197
53131
53084
53004
52908
52843
52795
52715
52619
52556
52506
52421
52320
52250
52188
52092
51987
51921
51861
51762
51660
51597
51534
51432
51334
51278
51224
51144
51093
51104
51138
51183
51290
51484
51725
51999
52353
52796
53270
53759
54305
54893
55455
55982
56518
57044
57496
57883
58258
58608
58876
59079
59270
59428
59511
59551
59598
59632
59619
59591
59597
59612
59600
59595
59635
59679
59699
59739
59828
59922
59989
60068
60179
60277
60344
60424
60529
60608
60642
60677
60720
60717
60664
60616
60570
60478
60353
60251
60164
60042
59906
59810
59730
59616
59496
59417
59352
59258
59165
59119
59087
59025
58966
58953
58948
58906
58866
58864
58859
58813
58763
58739
58695
58606
58524
58471
58400
58295
58203
58134
58039
57912
57804
57719
57607
57466
57356
57272
57161
57034
56949
56890
56798
56687
56608
56542
56445
56335
56263
56205
56111
56006
55935
55873
55777
55677
55617
55559
55465
55374
55323
55265
55166
55070
55010
54943
54844
54757
54701
54628
54521
54426
54357
54268
54154
54068
54011
53930
53821
53737
53674
53580
53467
53394
53350
53277
53185
53126
53079
52990
52885
52819
52765
52675
52575
52507
52445
52350
52256
52202
52149
52058
51971
51924
51874
51789
51709
51664
51613
51528
51453
51414
51360
51273
51201
51158
51099
51013
50952
50915
50849
50755
50686
50633
50548
50445
50375
50326
50244
50144
50080
50038
49977
49929
49952
50031
50125
50265
50501
50805
51135
51521
51991
52499
52995
53512
54076
54630
55128
55605
56085
56515
56867
57184
57483
57718
57875
58002
58119
58181
58185
58187
58196
58170
58118
58098
58106
58092
58066
58082
58123
58136
58143
58195
58271
58323
58368
58449
58540
58592
58628
58686
58730
58713
58669
58642
58596
58499
58398
58333
58262
58153
58049
57982
57910
57812
57738
57705
57665
57603
57566
57563
57544
57504
57492
57507
57499
57475
57484
57508
57494
57451
57436
57436
57398
57341
57310
57279
57201
57103
57034
56968
56866
56758
56684
56609
56494
56377
56295
56210
56087
55972
55899
55823
55711
55612
55549
55480
55383
55306
55264
55206
55117
55049
55011
54951
54866
54811
54783
54726
54645
54602
54587
54537
54461
54413
54383
54322
54246
54203
54168
54096
54013
53965
53920
53832
53734
53670
53611
53519
53430
53379
53326
53237
53153
53106
53051
52961
52882
52837
52780
52691
52615
52570
52511
52424
52358
52322
52262
52174
52109
52067
51995
51905
51849
51816
51747
51657
51603
51566
51489
51394
51329
51273
51179
51080
51021
50972
50892
50819
50804
50817
50831
50895
51049
51252
51474
51760
52141
52571
53017
53516
54076
54641
55178
55719
56269
56770
57202
57611
58000
58315
58556
58776
58971
59090
59151
59215
59276
59287
59267
59270
59283
59260
59231
59249
59293
59318
59346
59420
59510
59574
59643
59752
59865
59939
60012
60114
60202
60236
60259
60298
60308
60264
60208
60159
60074
59944
59822
59727
59613
59477
59374
59305
59215
59111
59046
59010
58951
58880
58854
58855
58824
58779
58774
58785
58760
58721
58715
58711
58661
58596
58566
58543
58482
58416
58383
58341
58251
58157
58092
58013
57894
57783
57708
57623
57503
57393
57314
57220
57092
56983
56910
56827
56722
56639
56580
56496
56394
56331
56299
56239
56156
56102
56069
56002
55915
55860
55819
55747
55669
55632
55608
55548
55474
55428
55380
55299
55221
55180
55135
55050
54966
54916
54862
54775
54699
54656
54599
54507
54429
54384
54324
54236
54164
54119
54052
53959
53884
53831
53750
53648
53581
53539
53469
53383
53329
53290
53216
53128
53077
53043
52976
52900
52862
52830
52759
52679
52636
52599
52526
52451
52409
52362
52273
52184
52136
52088
52006
51930
51887
51831
51746
51681
51653
51611
51541
51495
51490
51489
51499
51577
51728
51906
52125
52442
52843
53269
53729
54271
54869
55459
56044
56655
57253
57776
58245
58704
59123
59454
59725
59981
60189
60311
60394
60484
60546
60545
60535
60559
60579
60573
60587
60645
60700
60734
60798
60910
61016
61098
61202
61336
61447
61530
61634
61757
61839
61886
61951
62025
62047
62026
62018
62004
61932
61821
61727
61630
61492
61345
61237
61140
61009
60878
60793
60717
60609
60508
60452
60402
60324
60260
60242
60224
60175
60136
60131
60114
60061
60019
60002
59964
59890
59831
59792
59725
59631
59564
59518
59441
59336
59253
59181
59069
58936
58834
58746
58624
58488
58387
58295
58174
58053
57972
57898
57789
57685
57624
57560
57457
57361
57308
57251
57157
57076
57038
56996
56918
56844
56799
56737
56648
56578
56539
56477
56385
56316
56277
56214
56132
56079
56044
55970
55872
55811
55772
55697
55602
55539
55482
55385
55278
55210
55158
55072
54979
54924
54872
54782
54689
54633
54586
54507
54429
54384
54333
54243
54159
54106
54042
53941
53855
53804
53739
53644
53567
53522
53465
53388
53338
53315
53270
53204
53165
53147
53096
53024
52987
52968
52907
52823
52771
52731
52656
52574
52527
52485
52409
52329
52285
52247
52179
52112
52078
52033
51949
51870
51828
51779
51703
51658
51679
51727
51792
51927
52156
52435
52749
53148
53638
54158
54696
55294
55936
56552
57135
57729
58316
58829
59271
59693
60078
60372
60593
60796
60967
61066
61123
61192
61251
61262
61259
61292
61334
61348
61371
61440
61514
61558
61614
61717
61827
61915
62022
62169
62305
62407
62522
62661
62768
62824
62872
62923
62933
62895
62853
62807
62712
62581
62472
62377
62243
62085
61963
61864
61740
61612
61531
61468
61374
61279
61232
61200
61140
61083
61069
61059
61014
60972
60969
60967
60929
60893
60889
60873
60817
60764
60738
60689
60596
60510
60452
60373
60262
60170
60102
60005
59876
59771
59689
59578
59447
59354
59288
59195
59086
59013
58962
58880
58788
58731
58683
58598
58503
58447
58400
58316
58225
58174
58126
58040
57954
57902
57845
57748
57658
57606
57547
57452
57368
57319
57252
57147
57056
56998
56923
56817
56729
56665
56576
56463
56379
56321
56234
56126
56052
55998
55906
55790
55707
55641
55546
55446
55386
55339
55262
55178
55125
55072
54975
54870
54802
54738
54640
54545
54492
54441
54358
54283
54246
54203
54125
54058
54026
53980
53900
53834
53799
53746
53666
53608
53575
53518
53437
53380
53343
53277
53190
53137
53105
53037
52947
52887
52842
52763
52672
52621
52583
52510
52426
52380
52345
52285
52236
52250
52301
52359
52471
52677
52940
53231
53594
54055
54563
55081
55644
56259
56865
57433
58000
58569
59080
59520
59934
60318
60616
60834
61030
61202
61301
61348
61402
61452
61451
61423
61423
61440
61433
61429
61477
61547
61592
61637
61727
61831
61910
62000
62134
62271
62367
62457
62578
62684
62734
62769
62819
62834
62787
62730
62686
62610
62484
62362
62259
62133
61981
61852
61752
61629
61486
61376
61291
61183
61065
60988
60935
60853
60760
60710
60682
60627
60564
60534
60511
60450
60383
60352
60321
60251
60176
60137
60093
60008
59922
59867
59794
59675
59563
59482
59381
59241
59116
59027
58923
58787
58668
58581
58477
58348
58242
58159
58043
57907
57807
57733
57627
57505
57423
57361
57265
57158
57092
57041
56951
56848
56781
56720
56619
56514
56453
56399
56311
56223
56167
56103
56000
55903
55845
55783
55685
55590
55525
55445
55329
55225
55151
55059
54939
54839
54767
54679
54569
54483
54419
54326
54213
54135
54075
53975
53856
53777
53718
53625
53522
53459
53408
53320
53223
53160
53100
52999
52893
52824
52761
52664
52571
52517
52458
52356
52261
52207
52147
52046
51953
51893
51821
51720
51638
51591
51528
51434
51359
51310
51236
51135
51063
51013
50928
50817
50739
50680
50583
50467
50393
50344
50275
50210
50204
50243
50290
50382
50568
50822
51104
51442
51874
52359
52845
53360
53931
54504
55032
55548
56073
56552
56956
57327
57682
57964
58156
58312
58452
58533
58551
58561
58578
58555
58498
58467
58460
58426
58378
58377
58409
58421
58432
58491
58576
58637
58691
58782
58888
58960
59021
59109
59185
59206
59204
59221
59216
59153
59076
59023
58950
58826
58704
58616
58513
58380
58267
58193
58111
58007
57933
57896
57848
57777
57734
57725
57696
57648
57637
57655
57644
57614
57620
57644
57627
57587
57573
57561
57503
57429
57386
57346
57263
57167
57101
57032
56918
56799
56716
56628
56500
56378
56300
56218
56100
55988
55911
55831
55727
55642
55591
55527
55434
55358
55315
55261
55189
55145
55127
55080
55005
54959
54934
54874
54790
54740
54706
54634
54541
54480
54435
54358
54278
54238
54206
54130
54042
53989
53936
53847
53762
53715
53665
53575
53491
53447
53396
53306
53223
53173
53108
53009
52925
52876
52811
52716
52644
52608
52556
52475
52416
52380
52316
52230
52176
52147
52088
52007
51954
51916
51845
51760
51710
51677
51611
51535
51487
51439
51352
51259
51203
51149
51056
50963
50906
50848
50757
50675
50640
50615
50582
50599
50694
50822
50971
51195
51515
51876
52261
52714
53230
53748
54257
54797
55355
55866
56330
56792
57228
57576
57852
58112
58337
58480
58570
58662
58737
58750
58735
58744
58748
58708
58669
58677
58698
58692
58697
58749
58805
58830
58870
58962
59055
59112
59180
59276
59347
59371
59397
59440
59446
59402
59364
59340
59281
59185
59104
59038
58938
58814
58723
58654
58557
58450
58386
58349
58294
58236
58219
58216
58183
58151
58159
58173
58152
58128
58138
58144
58107
58064
58053
58032
57969
57908
57876
57828
57740
57662
57617
57553
57446
57347
57272
57173
57048
56949
56878
56783
56668
56587
56533
56454
56358
56296
56256
56183
56094
56047
56023
55966
55897
55867
55847
55793
55733
55708
55683
55616
55546
55513
55480
55406
55337
55312
55285
55212
55141
55105
55060
54977
54903
54861
54803
54715
54645
54605
54545
54458
54394
54355
54289
54199
54141
54107
54039
53946
53886
53848
53773
53677
53613
53563
53479
53385
53322
53270
53185
53100
53055
53014
52938
52865
52831
52794
52718
52647
52617
52583
52513
52454
52431
52398
52329
52276
52254
52213
52139
52086
52063
52014
51929
51865
51827
51758
51665
51602
51558
51479
51384
51334
51321
51292
51272
51323
51432
51558
51735
52013
52365
52743
53172
53683
54235
54773
55325
55916
56491
57004
57487
57970
58402
58745
59046
59329
59549
59691
59807
59918
59978
59981
59986
60013
60019
60004
60018
60057
60077
60087
60140
60224
60285
60334
60426
60549
60646
60732
60854
60983
61066
61131
61219
61297
61320
61314
61318
61296
61212
61110
61038
60954
60821
60683
60582
60477
60343
60230
60160
60086
59989
59920
59896
59866
59814
59787
59791
59771
59724
59708
59718
59698
59655
59647
59659
59633
59579
59550
59531
59471
59390
59338
59293
59210
59111
59038
58963
58845
58724
58643
58567
58454
58345
58277
58209
58103
58002
57943
57880
57785
57701
57651
57590
57497
57420
57381
57330
57259
57213
57194
57148
57072
57022
56994
56934
56850
56798
56765
56695
56603
56545
56502
56420
56323
56265
56220
56140
56053
55995
55937
55841
55740
55679
55621
55524
55428
55371
55308
55209
55117
55067
55015
54929
54853
54811
54754
54660
54580
54532
54465
54367
54288
54235
54161
54065
54003
53971
53911
53829
53779
53752
53690
53608
53555
53517
53445
53361
53313
53276
53203
53123
53080
53044
52973
52902
52865
52825
52743
52664
52622
52573
52483
52402
52362
52317
52246
52208
52232
52279
52342
52478
52705
52973
53276
53659
54121
54604
55103
55659
56254
56817
57348
57892
58424
58880
59267
59632
59955
60192
60370
60536
60669
60726
60747
60785
60818
60804
60784
60806
60833
60832
60844
60907
60979
61024
61086
61190
61290
61361
61446
61562
61662
61729
61810
61913
61982
62005
62027
62047
62019
61949
61893
61843
61743
61609
61507
61427
61315
61188
61093
61011
60895
60773
60696
60637
60552
60473
60443
60426
60378
60331
60326
60324
60286
60255
60262
60258
60208
60159
60140
60107
60038
59980
59952
59902
59816
59741
59687
59599
59478
59381
59307
59204
59080
58992
58930
58839
58728
58653
58598
58507
58398
58324
58265
58173
58072
58013
57971
57898
57822
57784
57749
57678
57608
57576
57542
57466
57389
57347
57298
57213
57138
57101
57051
56965
56889
56842
56778
56686
56616
56576
56515
56428
56366
56330
56268
56182
56123
56080
56004
55911
55854
55814
55738
55647
55591
55547
55465
55376
55328
55284
55199
55111
55061
55012
54923
54837
54791
54745
54661
54579
54533
54484
54405
54338
54306
54260
54180
54118
54089
54044
53970
53911
53877
53817
53729
53666
53627
53560
53469
53408
53369
53298
53211
53159
53121
53052
52971
52929
52905
52856
52810
52820
52867
52917
53005
53178
53410
53669
53994
54416
54884
55355
55861
56424
56991
57522
58049
58583
59068
59476
59850
60206
60494
60705
60893
61067
61176
61224
61271
61315
61311
61278
61278
61298
61286
61262
61281
61325
61343
61358
61417
61494
61539
61580
61663
61756
61812
61861
61941
62009
62020
62015
62031
62024
61958
61879
61822
61741
61611
61484
61388
61274
61130
61010
60926
60826
60702
60608
60551
60480
60397
60354
60341
60298
60233
60204
60196
60157
60099
60075
60067
60025
59965
59933
59903
59827
59736
59678
59619
59519
59413
59340
59261
59139
59016
58935
58850
58726
58607
58528
58443
58324
58215
58138
58045
57921
57811
57727
57621
57486
57380
57306
57210
57094
57012
56957
56877
56782
56725
56689
56618
56527
56472
56433
56355
56263
56207
56159
56073
55976
55913
55856
55765
55673
55615
55549
55441
55337
55274
55209
55110
55022
54976
54924
54837
54758
54707
54641
54544
54463
54406
54327
54221
54138
54080
53997
53891
53813
53755
53668
53562
53493
53446
53364
53264
53200
53153
53072
52981
52927
52880
52797
52710
52658
52607
52519
52433
52387
52340
52251
52159
52103
52039
51938
51847
51791
51722
51622
51545
51519
51503
51493
51545
51673
51835
52031
52312
52674
53066
53487
53979
54522
55047
55556
56092
56629
57099
57513
57915
58277
58552
58770
58976
59141
59225
59266
59314
59340
59310
59269
59261
59247
59191
59142
59140
59140
59114
59110
59156
59204
59228
59273
59356
59423
59457
59503
59567
59601
59597
59601
59608
59566
59485
59422
59368
59273
59153
59066
58995
58894
58782
58711
58660
58583
58506
58471
58448
58395
58345
58336
58334
58302
58282
58308
58332
58313
58296
58312
58318
58283
58252
58248
58220
58151
58092
58058
57995
57891
57799
57731
57636
57516
57420
57342
57231
57096
56994
56917
56810
56688
56608
56551
56466
56376
56329
56295
56226
56148
56104
56065
55988
55908
55870
55838
55769
55705
55684
55660
55595
55533
55507
55474
55403
55339
55307
55262
55185
55124
55097
55052
54975
54915
54878
54814
54723
54657
54612
54533
54434
54371
54328
54251
54156
54096
54052
53978
53895
53849
53814
53741
53655
53602
53554
53472
53389
53345
53300
53216
53134
53093
53047
52958
52874
52830
52783
52700
52628
52591
52544
52475
52442
52464
52503
52555
52678
52883
53129
53420
53804
54261
54720
55187
55711
56265
56781
57266
57763
58243
58648
58999
59339
59638
59850
60006
60154
60269
60316
60331
60360
60372
60331
60286
60282
60277
60237
60213
60237
60262
60260
60280
60344
60401
60433
60483
60559
60615
60641
60680
60727
60729
60693
60671
60655
60591
60492
60415
60347
60242
60126
60052
59998
59911
59817
59769
59737
59669
59595
59563
59542
59488
59438
59429
59420
59372
59333
59336
59338
59305
59279
59284
59268
59207
59149
59114
59052
58953
58868
58809
58723
58605
58509
58441
58345
58224
58132
58062
57959
57839
57757
57694
57598
57481
57393
57316
57204
57079
56988
56907
56799
56695
56636
56586
56505
56429
56393
56352
56273
56199
56160
56114
56030
55952
55912
55862
55780
55710
55673
55623
55544
55482
55448
55390
55302
55238
55195
55120
55019
54944
54883
54787
54673
54595
54542
54464
54377
54329
54297
54230
54150
54102
54059
53979
53893
53846
53804
53729
53656
53624
53592
53523
53454
53417
53370
53286
53208
53156
53090
52994
52914
52864
52799
52708
52641
52612
52575
52534
52545
52611
52692
52805
53013
53311
53643
54016
54472
54989
55511
56045
56629
57228
57778
58294
58807
59281
59667
59995
60309
60573
60754
60895
61035
61136
61167
61178
61210
61222
61191
61173
61199
61224
61232
61269
61348
61416
61461
61531
61636
61725
61793
61891
62011
62093
62144
62219
62301
62329
62316
62315
62301
62226
62120
62038
61956
61828
61685
61577
61473
61334
61197
61106
61030
60933
60850
60812
60773
60701
60640
60624
60609
60569
60546
60558
60556
60520
60497
60500
60478
60420
60372
60342
60276
60173
60090
60024
59923
59799
59705
59629
59517
59382
59276
59183
59055
58920
58825
58741
58625
58505
58426
58354
58248
58143
58078
58014
57914
57821
57776
57733
57657
57590
57561
57521
57444
57376
57339
57287
57206
57142
57105
57040
56941
56861
56805
56725
56626
56559
56518
56449
56361
56308
56279
56219
56139
56090
56055
55984
55894
55828
55763
55662
55554
55482
55416
55318
55221
55160
55102
55009
54923
54875
54822
54732
54652
54610
54558
54470
54391
54346
54291
54210
54146
54106
54046
53960
53895
53849
53776
53688
53632
53594
53520
53420
53352
53301
53215
53113
53043
52986
52898
52805
52758
52735
52699
52686
52747
52856
52979
53159
53442
53788
54154
54572
55072
55608
56134
56685
57275
57846
58358
58850
59335
59762
60112
60429
60723
60945
61089
61213
61327
61390
61411
61449
61500
61513
61503
61527
61577
61603
61627
61695
61783
61840
61893
61994
62114
62205
62290
62406
62518
62585
62644
62727
62792
62798
62786
62787
62757
62668
62564
62479
62372
62226
62097
62006
61903
61773
61664
61585
61487
61372
61292
61247
61188
61119
61086
61077
61040
60990
60979
60986
60957
60912
60898
60885
60826
60749
60703
60660
60574
60480
60416
60347
60238
60125
60045
59956
59822
59683
59577
59463
59317
59183
59090
58993
58872
58772
58711
58633
58525
58433
58367
58279
58170
58092
58039
57959
57860
57792
57746
57669
57574
57510
57460
57375
57278
57219
57174
57097
57011
56957
56907
56819
56722
56658
56595
56497
56406
56355
56297
56201
56112
56060
56002
55914
55841
55804
55755
55678
55618
55591
55541
55458
55392
55349
55280
55187
55121
55072
54986
54874
54793
54736
54651
54547
54475
54420
54335
54238
54175
54125
54042
53946
53885
53830
53737
53638
53576
53518
53421
53321
53254
53183
53072
52964
52888
52808
52698
52605
52555
52510
52463
52467
52545
52661
52808
53039
53360
53718
54106
54569
55094
55618
56136
56693
57265
57789
58263
58730
59167
59522
59811
60082
60312
60456
60546
60631
60691
60697
60689
60707
60719
60697
60683
60716
60757
60773
60805
60884
60967
61025
61100
61211
61308
61371
61443
61541
61613
61643
61676
61716
61717
61678
61646
61617
61537
61419
61320
61230
61099
60950
60837
60749
60639
60527
60459
60410
60335
60259
60224
60204
60156
60113
60110
60111
60079
60050
60055
60051
60005
59962
59950
59926
59859
59794
59751
59687
59586
59498
59436
59353
59241
59150
59080
58985
58874
58796
58741
58657
58550
58472
58412
58318
58206
58128
58064
57966
57857
57788
57732
57645
57557
57515
57489
57433
57375
57351
57326
57259
57189
57156
57120
57045
56971
56930
56874
56780
56695
56639
56565
56456
56362
56301
56226
56128
56056
56015
55955
55876
55827
55801
55747
55672
55629
55603
55537
55449
55390
55341
55256
55157
55087
55024
54925
54818
54749
54689
54597
54506
54454
54407
54333
54281
54293
54334
54376
54467
54642
54862
55104
55412
55798
56213
56638
57108
57622
58124
58601
59090
59579
60009
60376
60726
61048
61287
61456
61616
61760
61836
61867
61905
61935
61916
61879
61872
61867
61827
61788
61794
61815
61811
61815
61866
61926
61958
62001
62081
62151
62177
62194
62228
62238
62204
62169
62148
62097
62004
61920
61858
61769
61648
61545
61468
61372
61262
61186
61139
61076
61008
60981
60977
60946
60902
60891
60897
60876
60845
60842
60841
60800
60746
60722
60696
60629
60554
60508
60451
60347
60239
60161
60074
59952
59841
59763
59671
59545
59430
59343
59238
59105
58993
58912
58816
58700
58610
58546
58461
58358
58288
58246
58175
58080
58014
57965
57885
57791
57732
57689
57612
57522
57467
57418
57334
57245
57194
57147
57064
56980
56930
56875
56783
56692
56635
56572
56474
56382
56320
56245
56139
56046
55986
55916
55826
55758
55718
55659
55578
55525
55496
55438
55351
55286
55237
55158
55067
55009
54962
54883
54787
54722
54664
54571
54468
54400
54341
54246
54145
54081
54022
53930
53838
53788
53744
53679
53640
53672
53739
53816
53950
54169
54434
54728
55094
55542
56018
56499
57020
57575
58107
58601
59093
59577
59995
60343
60671
60965
61174
61314
61443
61554
61602
61610
61628
61640
61610
61571
61569
61581
61566
61554
61582
61622
61638
61663
61731
61803
61845
61896
61981
62053
62081
62100
62131
62128
62076
62020
61978
61909
61803
61708
61636
61540
61421
61331
61268
61185
61087
61021
60978
60914
60846
60824
60823
60793
60754
60748
60752
60724
60687
60680
60673
60624
60565
60533
60498
60425
60348
60303
60249
60152
60056
59991
59915
59803
59700
59628
59542
59420
59308
59221
59118
58989
58885
58810
58712
58590
58496
58431
58345
58239
58165
58117
58044
57958
57905
57863
57783
57687
57622
57563
57471
57376
57315
57262
57179
57092
57038
56982
56893
56808
56755
56696
56601
56514
56464
56405
56311
56226
56171
56100
55999
55912
55848
55761
55644
55545
55467
55366
55248
55164
55106
55024
54922
54850
54796
54709
54605
54532
54469
54374
54273
54207
54153
54066
53967
53898
53827
53718
53605
53525
53444
53325
53207
53126
53043
52926
52817
52749
52680
52586
52505
52451
52382
52278
52182
52113
52031
51934
51873
51860
51854
51867
51959
52129
52330
52573
52907
53318
53747
54195
54700
55236
55742
56234
56749
57252
57686
58069
58437
58757
58993
59177
59344
59463
59508
59527
59559
59567
59527
59483
59468
59445
59392
59354
59353
59347
59321
59323
59369
59408
59429
59475
59546
59590
59606
59640
59685
59689
59663
59656
59650
59592
59503
59440
59382
59285
59172
59089
59011
58901
58789
58719
58660
58574
58492
58454
58427
58369
58318
58303
58286
58238
58196
58185
58162
58104
58053
58026
57975
57886
57804
57740
57650
57528
57421
57331
57209
57062
56942
56838
56696
56533
56403
56290
56143
55979
55850
55733
55582
55423
55305
55199
55059
54917
54818
54730
54611
54494
54422
54356
54258
54166
54118
54069
53987
53911
53868
53814
53726
53648
53600
53538
53449
53379
53334
53267
53174
53105
53062
52994
52904
52847
52811
52743
52653
52594
52552
52481
52395
52339
52296
52220
52132
52073
52021
51936
51846
51792
51741
51654
51567
51513
51458
51370
51288
51243
51189
51097
51010
50952
50875
50760
50658
50586
50493
50370
50266
50192
50104
50004
49940
49912
49875
49845
49882
49982
50098
50254
50486
50743
50967
51204
51526
51911
52296
52705
53180
53672
54114
54533
54970
55375
55691
55962
56231
56451
56580
56671
56774
56842
56849
56869
56955
57056
57130
57211
57311
57381
57413
57458
57526
57571
57589
57629
57687
57713
57712
57738
57779
57779
57733
57665
57557
57377
57168
57004
56861
56693
56532
56442
56414
56412
56446
56535
56632
56689
56742
56824
56890
56906
56920
56965
56995
56986
56985
57017
57028
56999
56981
56986
56941
56812
56665
56529
56357
56156
55997
55880
55742
55595
55518
55514
55512
55503
55526
55555
55533
55475
55435
55396
55313
55212
55141
55073
54969
54861
54791
54729
54634
54542
54493
54446
54365
54291
54257
54222
54156
54098
54072
54032
53961
53904
53874
53823
53747
53696
53672
53618
53534
53476
53442
53380
53299
53251
53225
53170
53099
53056
53026
52964
52888
52844
52801
52715
52617
52555
52505
52422
52333
52278
52226
52141
52058
52009
51952
51857
51769
51718
51662
51581
51523
51512
51514
51520
51582
51723
51907
52130
52439
52829
53250
53697
54207
54761
55294
55804
56334
56866
57333
57738
58125
58479
58753
58970
59181
59363
59471
59536
59605
59658
59662
59652
59667
59676
59651
59633
59657
59686
59691
59714
59785
59855
59896
59951
60037
60107
60142
60183
60238
60255
60229
60207
60194
60138
60043
59964
59901
59805
59689
59607
59551
59471
59381
59334
59307
59255
59201
59191
59200
59180
59161
59180
59203
59188
59169
59184
59196
59165
59132
59131
59123
59071
59016
58986
58939
58854
58777
58726
58654
58542
58442
58367
58266
58136
58028
57944
57835
57706
57606
57531
57430
57313
57230
57170
57080
56974
56903
56848
56760
56664
56605
56558
56485
56412
56377
56345
56275
56201
56161
56120
56044
55972
55935
55890
55807
55734
55698
55649
55564
55493
55455
55399
55312
55241
55195
55129
55041
54978
54937
54866
54774
54714
54680
54618
54536
54488
54456
54389
54301
54240
54188
54101
54005
53948
53902
53819
53727
53668
53608
53511
53415
53357
53301
53214
53142
53120
53109
53086
53105
53204
53347
53521
53772
54117
54503
54909
55378
55911
56450
56979
57532
58097
58618
59094
59567
60016
60381
60676
60953
61194
61356
61463
61570
61666
61712
61735
61785
61837
61854
61868
61923
61992
62036
62092
62193
62299
62375
62461
62588
62708
62788
62873
62985
63074
63118
63159
63212
63229
63195
63163
63141
63083
62983
62893
62818
62711
62582
62485
62410
62307
62190
62114
62061
61985
61909
61878
61868
61830
61789
61784
61786
61752
61715
61713
61712
61672
61629
61618
61599
61536
61474
61442
61400
61316
61233
61178
61105
60994
60896
60828
60741
60627
60534
60472
60388
60279
60195
60132
60038
59929
59861
59817
59743
59648
59583
59536
59460
59372
59318
59273
59191
59098
59044
59002
58926
58847
58803
58756
58673
58590
58545
58499
58421
58352
58322
58283
58201
58121
58065
57989
57876
57779
57718
57646
57548
57470
57418
57342
57239
57160
57105
57022
56915
56834
56771
56676
56566
56492
56438
56354
56257
56192
56140
56054
55961
55904
55852
55766
55677
55624
55572
55485
55403
55361
55318
55238
55164
55124
55075
54990
54914
54869
54806
54710
54632
54587
54534
54470
54452
54489
54541
54620
54787
55039
