18443
18472
18487
18486
18514
18550
18518
18585
18622
18645
18675
18712
18763
18775
18818
18903
18937
18979
19036
19122
19149
19177
19239
19280
19288
19309
19322
19338
19323
19332
19330
19327
19270
19299
19265
19246
19240
19217
19222
19199
19192
19195
19159
19167
19156
19169
19147
19077
19113
19156
19115
19099
19131
19134
19099
19067
19085
19104
19074
19083
19095
19105
19083
19072
19073
19082
19053
19038
19075
19059
19073
19060
19080
19075
19046
19049
19011
19004
18942
18990
18948
18943
18913
18917
18884
18841
18868
18820
18805
18809
18789
18759
18690
18711
18731
18704
18635
18665
18663
18635
18612
18622
18631
18599
18584
18619
18587
18549
18557
18562
18549
18504
18532
18544
18502
18468
18489
18486
18454
18442
18396
18433
18353
18317
18325
18299
18255
18247
18237
18243
18194
18226
18211
18210
18207
18229
18237
18217
18252
18278
18315
18277
18300
18308
18366
18354
18410
18426
18467
18470
18528
18577
18609
18644
18727
18736
18811
18861
18919
18948
18997
19086
19107
19163
19230
19287
19334
19366
19396
19421
19412
19440
19436
19448
19432
19378
19423
19401
19398
19347
19361
19340
19328
19295
19308
19305
19309
19301
19260
19241
19257
19226
19224
19191
19209
19195
19150
19147
19165
19169
19157
19115
19105
19126
19113
19084
19099
19079
19096
19018
19046
19042
18994
18978
18993
19009
18977
18960
18954
18961
18924
18887
18930
18903
18865
18851
18876
18862
18812
18818
18818
18801
18797
18790
18779
18779
18751
18719
18718
18672
18696
18719
18678
18648
18674
18675
18635
18688
18632
18639
18605
18617
18607
18612
18583
18586
18588
18583
18513
18519
18522
18460
18468
18457
18443
18429
18367
18365
18326
18326
18310
18299
18289
18259
18284
18256
18254
18270
18271
18285
18277
18317
18338
18334
18366
18389
18430
18443
18451
18484
18549
18572
18609
18649
18706
18713
18762
18849
18904
18920
18985
19033
19106
19134
19201
19263
19337
19361
19395
19476
19502
19512
19543
19546
19542
19541
19544
19547
19511
19493
19520
19481
19467
19421
19472
19454
19428
19425
19442
19394
19404
19394
19378
19356
19306
19350
19353
19305
19313
19335
19315
19300
19277
19323
19273
19266
19224
19246
19222
19208
19252
19249
19184
19195
19205
19169
19163
19156
19176
19135
19086
19111
19085
19073
19095
19043
19058
19010
19046
19022
19015
19001
19005
19018
18994
18958
18958
18949
18928
18889
18933
18923
18884
18892
18886
18856
18857
18892
18841
18866
18808
18842
18847
18829
18801
18807
18801
18788
18798
18787
18775
18716
18726
18741
18691
18674
18646
18619
18588
18594
18570
18576
18492
18516
18490
18498
18457
18494
18473
18481
18462
18487
18508
18487
18479
18512
18573
18538
18594
18611
18630
18629
18679
18722
18705
18749
18773
18852
18859
18901
18987
19010
19040
19090
19151
19215
19221
19346
19389
19418
19477
19482
19566
19566
19550
19586
19631
19588
19590
19611
19579
19557
19559
19558
19533
19539
19526
19522
19472
19508
19493
19480
19468
19464
19428
19452
19405
19370
19401
19406
19349
19363
19367
19340
19323
19359
19325
19312
19302
19295
19291
19272
19260
19270
19259
19238
19230
19244
19227
19168
19201
19191
19149
19177
19137
19131
19119
19101
19080
19092
19060
19053
19052
19044
19028
19009
18980
18986
18981
18972
18990
18933
18937
18936
18940
18864
18916
18900
18872
18881
18891
18896
18846
18874
18888
18859
18844
18823
18848
18819
18796
18809
18808
18770
18734
18775
18750
18730
18694
18684
18675
18613
18600
18594
18596
18513
18540
18543
18539
18489
18488
18502
18531
18509
18522
18540
18513
18534
18557
18595
18559
18613
18634
18653
18674
18698
18765
18740
18774
18822
18869
18918
18975
19007
19050
19089
19132
19225
19254
19300
19367
19425
19439
19473
19542
19564
19557
19582
19600
19614
19568
19579
19571
19545
19532
19537
19568
19517
19506
19513
19521
19483
19447
19482
19482
19449
19414
19445
19425
19390
19410
19411
19384
19350
19351
19384
19330
19322
19336
19305
19319
19258
19290
19258
19237
19262
19258
19248
19223
19234
19204
19199
19182
19186
19176
19144
19150
19135
19141
19102
19095
19081
19048
19023
19033
19049
19025
19012
19018
18995
18965
18960
18958
18960
18896
18908
18903
18903
18856
18890
18833
18863
18793
18825
18851
18834
18800
18817
18802
18795
18759
18790
18798
18737
18752
18736
18694
18703
18684
18654
18621
18618
18609
18591
18531
18520
18533
18526
18463
18441
18488
18459
18432
18451
18471
18461
18461
18456
18480
18448
18483
18500
18544
18519
18537
18610
18601
18616
18671
18711
18708
18754
18830
18880
18864
18932
18982
19067
19037
19126
19182
19257
19247
19318
19369
19425
19462
19506
19568
19530
19560
19560
19585
19552
19588
19585
19577
19502
19537
19557
19518
19482
19503
19492
19483
19463
19475
19453
19416
19401
19410
19382
19371
19362
19379
19348
19332
19343
19326
19332
19294
19308
19309
19287
19265
19274
19274
19219
19260
19205
19216
19177
19198
19204
19179
19136
19162
19150
19101
19080
19092
19101
19042
19088
19071
19061
19035
19028
19027
18989
18985
18972
18982
18943
18932
18951
18924
18877
18906
18921
18862
18834
18854
18864
18863
18845
18838
18865
18827
18806
18803
18810
18782
18779
18788
18780
18753
18751
18742
18709
18670
18687
18690
18631
18608
18613
18623
18563
18512
18538
18505
18481
18502
18472
18470
18431
18461
18451
18431
18442
18478
18470
18475
18476
18511
18542
18514
18593
18593
18605
18631
18655
18740
18717
18771
18814
18845
18887
18952
18960
19048
19031
19114
19177
19243
19259
19338
19400
19445
19478
19526
19573
19555
19584
19615
19634
19569
19608
19587
19592
19527
19546
19590
19556
19542
19495
19517
19480
19466
19466
19468
19432
19453
19470
19454
19401
19405
19418
19388
19386
19374
19396
19354
19356
19328
19293
19340
19295
19288
19316
19240
19291
19252
19262
19234
19224
19233
19188
19203
19202
19219
19156
19140
19157
19122
19107
19092
19133
19095
19043
19076
19041
19040
19020
19041
19015
19009
18982
18971
18963
18909
18953
18931
18937
18897
18907
18910
18894
18862
18888
18858
18857
18876
18867
18837
18786
18828
18816
18805
18760
18777
18802
18784
18758
18728
18752
18719
18680
18667
18641
18623
18602
18608
18568
18529
18550
18574
18515
18525
18525
18523
18509
18511
18539
18536
18515
18541
18580
18589
18564
18600
18640
18663
18692
18698
18742
18754
18798
18848
18883
18888
18971
18997
19034
19067
19146
19212
19265
19290
19392
19452
19455
19491
19550
19572
19566
19590
19570
19585
19550
19552
19572
19523
19521
19529
19544
19543
19470
19500
19491
19451
19446
19435
19439
19432
19406
19418
19413
19363
19404
19393
19339
19367
19356
19340
19324
19332
19320
19309
19287
19301
19292
19265
19238
19274
19241
19237
19231
19229
19211
19186
19179
19168
19201
19120
19148
19137
19113
19089
19092
19098
19072
19040
19052
19061
19014
18979
19022
18993
18986
18966
18960
18967
18915
18937
18917
18886
18869
18883
18908
18869
18857
18865
18869
18831
18848
18845
18838
18808
18827
18831
18806
18792
18769
18772
18738
18712
18708
18673
18651
18643
18641
18577
18548
18575
18543
18554
18519
18531
18539
18557
18521
18554
18541
18535
18568
18552
18592
18556
18603
18659
18646
18669
18699
18733
18766
18792
18849
18876
18882
18947
19028
19015
19055
19144
19193
19256
19296
19337
19438
19468
19523
19574
19625
19628
19666
19692
19708
19685
19690
19689
19706
19652
19691
19681
19670
19650
19650
19669
19637
19626
19631
19619
19597
19589
19616
19566
19520
19580
19539
19528
19523
19504
19537
19508
19489
19466
19496
19444
19461
19465
19419
19395
19405
19435
19383
19344
19378
19365
19349
19291
19330
19307
19294
19280
19288
19295
19245
19252
19245
19221
19210
19194
19172
19165
19151
19164
19143
19110
19096
19100
19076
19041
19046
19060
19043
18996
19021
19002
18981
18974
19016
19003
18960
18950
18983
18956
18914
18917
18914
18939
18897
18909
18872
18874
18848
18859
18798
18773
18781
18766
18766
18712
18732
18681
18661
18593
18625
18625
18585
18557
18596
18588
18575
18589
18597
18602
18618
18628
18659
18676
18666
18718
18734
18761
18749
18803
18840
18860
18882
18938
18973
18963
19030
19093
19124
19126
19226
19287
19319
19359
19424
19483
19526
19563
19629
19666
19677
19683
19714
19719
19698
19711
19713
19722
19661
19715
19700
19655
19650
19655
19655
19632
19611
19608
19642
19565
19585
19565
19552
19539
19523
19567
19506
19513
19502
19525
19468
19462
19493
19472
19416
19436
19455
19475
19404
19418
19410
19405
19402
19410
19372
19354
19381
19364
19346
19328
19337
19317
19290
19278
19270
19259
19240
19218
19194
19228
19217
19198
19192
19208
19157
19186
19155
19146
19124
19143
19127
19101
19066
19075
19077
19050
19024
19053
19063
19041
19032
19050
19032
18987
19013
19019
19030
18994
18963
18975
18997
18986
18951
18932
18879
18913
18920
18871
18832
18849
18846
18812
18777
18783
18763
18753
18743
18771
18788
18766
18778
18817
18840
18785
18810
18852
18846
18860
18861
18938
18917
18925
18968
19041
19022
19085
19111
19184
19180
19233
19256
19330
19352
19401
19433
19468
19525
19617
19677
19671
19729
19791
19835
19849
19855
19903
19905
19846
19902
19911
19877
19887
19866
19873
19845
19828
19816
19830
19812
19799
19796
19782
19739
19762
19766
19757
19717
19741
19743
19721
19724
19693
19684
19638
19656
19662
19651
19624
19663
19659
19612
19594
19607
19566
19595
19544
19577
19552
19541
19519
19531
19522
19460
19459
19497
19459
19447
19400
19429
19400
19404
19379
19398
19332
19341
19349
19345
19316
19327
19322
19275
19259
19259
19244
19239
19228
19225
19178
19207
19179
19191
19205
19119
19160
19146
19139
19101
19132
19115
19118
19077
19084
19090
19071
19044
19047
19043
19004
19008
19040
18997
18932
18976
18919
18919
18859
18870
18879
18832
18835
18834
18821
18835
18817
18843
18865
18789
18848
18883
18848
18897
18871
18898
18910
18927
18948
18996
18994
18998
19071
19076
19094
19124
19205
19218
19219
19280
19346
19401
19421
19474
19558
19553
19618
19675
19714
19722
19759
19828
19802
19789
19812
19826
19774
19797
19765
19817
19769
19740
19740
19757
19731
19703
19724
19695
19668
19710
19692
19686
19663
19661
19661
19616
19611
19623
19628
19588
19580
19596
19579
19533
19536
19564
19524
19525
19518
19526
19508
19506
19476
19492
19441
19440
19452
19397
19386
19419
19390
19387
19369
19369
19373
19337
19326
19303
19314
19290
19285
19284
19268
19229
19244
19237
19223
19185
19188
19196
19164
19151
19173
19164
19089
19088
19139
19122
19074
19089
19105
19098
19065
19088
19085
19054
19046
19044
19025
18996
19007
19002
18992
18915
18970
18979
18915
18886
18873
18849
18818
18781
18826
18794
18739
18752
18749
18759
18688
18718
18761
18751
18700
18763
18783
18777
18761
18797
18819
18830
18828
18866
18875
18877
18927
18963
18987
18974
19051
19081
19111
19144
19207
19253
19282
19330
19397
19484
19477
19551
19582
19640
19670
19687
19747
19748
19754
19764
19808
19766
19768
19756
19784
19739
19692
19757
19720
19661
19677
19702
19690
19644
19650
19637
19626
19614
19592
19590
19572
19568
19556
19571
19512
19519
19538
19510
19475
19526
19509
19480
19457
19467
19464
19411
19446
19397
19433
19387
19404
19381
19348
19343
19367
19352
19318
19299
19275
19283
19252
19239
19241
19253
19187
19200
19208
19208
19157
19158
19165
19167
19114
19116
19106
19090
19052
19063
19053
19049
19020
19029
19021
18992
19011
19006
18983
18943
18972
18973
18940
18949
18911
18942
18901
18915
18885
18906
18848
18859
18872
18816
18786
18804
18798
18752
18733
18737
18710
18646
18623
18618
18644
18580
18603
18606
18601
18587
18599
18602
18593
18615
18631
18659
18656
18691
18712
18748
18736
18757
18815
18828
18852
18866
18924
18938
18995
19049
19084
19133
19166
19231
19284
19291
19339
19431
19488
19522
19565
19615
19624
19651
19706
19694
19682
19716
19729
19719
19709
19658
19719
19699
19660
19680
19646
19633
19614
19631
19634
19604
19593
19589
19588
19583
19564
19565
19572
19499
19532
19533
19498
19476
19509
19498
19493
19471
19460
19463
19434
19422
19449
19427
19369
19391
19410
19391
19358
19376
19361
19360
19315
19321
19313
19279
19266
19271
19245
19240
19215
19253
19231
19178
19210
19211
19191
19160
19177
19154
19130
19114
19117
19107
19066
19045
19064
19105
19048
19063
19040
19030
18993
18992
19049
19006
18974
18998
18996
18997
18980
18960
18967
18929
18965
18965
18929
18885
18918
18863
18881
18831
18843
18829
18804
18778
18777
18740
18713
18732
18706
18696
18663
18697
18681
18697
18719
18718
18745
18718
18712
18781
18796
18762
18801
18868
18851
18868
18908
18983
18959
19009
19019
19084
19106
19149
19202
19243
19257
19318
19381
19441
19440
19536
19600
19622
19664
19774
19770
19774
19788
19824
19819
19799
19805
19803
19790
19762
19799
19786
19753
19749
19771
19728
19700
19751
19707
19711
19667
19664
19672
19668
19603
19628
19620
19643
19590
19613
19578
19575
19574
19548
19536
19530
19527
19522
19521
19485
19488
19510
19485
19471
19465
19459
19429
19403
19410
19430
19371
19357
19370
19387
19319
19334
19355
19326
19303
19288
19292
19243
19241
19264
19254
19195
19191
19207
19197
19130
19135
19151
19146
19095
19115
19147
19118
19080
19108
19087
19044
19079
19071
19078
19039
19041
19096
19066
19012
19014
19048
19038
19000
18997
18997
18963
18950
18946
18924
18873
18863
18874
18858
18836
18797
18821
18776
18759
18727
18750
18720
18733
18719
18762
18729
18727
18748
18778
18746
18777
18790
18821
18839
18862
18877
18890
18892
18952
18970
18969
19000
19062
19090
19095
19182
19228
19268
19294
19365
19411
19443
19489
19547
19611
19630
19665
19697
19737
19699
19755
19728
19716
19714
19711
19719
19699
19683
19683
19681
19641
19651
19649
19627
19584
19608
19607
19610
19538
19562
19562
19511
19533
19529
19482
19501
19474
19507
19488
19435
19446
19461
19420
19393
19424
19431
19398
19355
19364
19388
19341
19336
19326
19355
19278
19325
19285
19299
19273
19264
19244
19241
19238
19232
19211
19185
19133
19167
19141
19101
19116
19111
19101
19034
19079
19090
19073
19045
19034
19047
19001
18996
18996
19019
18945
18985
18976
18976
18913
18975
18953
18900
18895
18903
18903
18897
18872
18895
18857
18846
18836
18808
18804
18747
18791
18786
18729
18705
18689
18649
18670
18630
18628
18623
18586
18597
18605
18603
18554
18600
18591
18607
18581
18623
18642
18684
18684
18691
18747
18720
18781
18808
18852
18857
18915
18908
18947
18993
19045
19091
19128
19206
19231
19274
19346
19393
19438
19471
19506
19578
19653
19647
19659
19698
19699
19695
19683
19705
19737
19686
19652
19662
19665
19681
19641
19647
19648
19595
19623
19623
19610
19578
19586
19587
19535
19558
19560
19561
19492
19506
19506
19493
19472
19471
19477
19463
19472
19455
19463
19446
19429
19391
19382
19404
19387
19361
19362
19325
19340
19348
19301
19284
19257
19307
19276
19249
19269
19237
19208
19200
19206
19169
19128
19151
19163
19115
19072
19086
19101
19062
19075
19044
19041
18996
19006
19022
18999
18980
18949
18996
18962
18952
18952
18985
18939
18933
18896
18922
18896
18917
18896
18875
18842
18841
18833
18815
18779
18779
18790
18724
18717
18672
18672
18626
18608
18605
18630
18555
18538
18563
18550
18515
18518
18550
18550
18542
18560
18575
18567
18631
18610
18649
18622
18688
18683
18728
18714
18781
18811
18839
18877
18897
18976
19020
19049
19110
19150
19195
19243
19330
19368
19369
19452
19495
19559
19601
19629
19680
19677
19697
19703
19718
19692
19718
19720
19694
19664
19670
19688
19659
19638
19621
19626
19584
19594
19603
19607
19559
19540
19575
19574
19508
19506
19540
19514
19486
19484
19482
19470
19465
19459
19415
19435
19387
19428
19390
19400
19384
19373
19354
19310
19339
19348
19311
19285
19286
19267
19230
19259
19242
19244
19199
19206
19183
19210
19164
19174
19132
19093
19130
19125
19074
19060
19072
19057
19024
19030
19008
19006
18973
18981
18956
18979
18962
18902
18927
18939
18947
18873
18877
18903
18874
18912
18865
18874
18828
18843
18848
18829
18820
18797
18783
18752
18745
18709
18701
18695
18667
18637
18626
18586
18547
18591
18566
18543
18521
18537
18531
18499
18563
18537
18523
18562
18574
18605
18567
18626
18646
18663
18704
18739
18765
18785
18798
18884
18902
18922
18978
19022
19021
19079
19126
19182
19253
19265
19324
19417
19426
19483
19525
19580
19608
19638
19696
19716
19683
19698
19741
19687
19666
19677
19692
19674
19645
19660
19643
19631
19586
19612
19590
19592
19566
19589
19597
19543
19567
19545
19555
19500
19498
19518
19482
19465
19461
19463
19454
19444
19441
19429
19408
19403
19390
19389
19375
19386
19385
19341
19344
19333
19308
19288
19262
19273
19282
19237
19249
19240
19219
19191
19223
19196
19158
19148
19118
19135
19120
19073
19120
19063
19041
19034
19062
19009
18988
18996
19021
18971
18962
18982
18941
18916
18927
18933
18933
18892
18886
18926
18872
18867
18850
18872
18833
18830
18815
18837
18785
18778
18771
18760
18717
18745
18721
18697
18625
18643
18653
18618
18610
18593
18584
18569
18565
18592
18568
18573
18581
18602
18572
18580
18631
18631
18642
18620
18679
18723
18716
18712
18773
18827
18832
18846
18893
18925
18963
18998
19065
19112
19122
19204
19231
19289
19371
19415
19457
19480
19534
19567
19601
19605
19642
19653
19639
19642
19649
19650
19629
19615
19597
19593
19603
19573
19609
19573
19533
19541
19540
19522
19485
19530
19502
19470
19450
19463
19472
19428
19443
19423
19443
19375
19395
19399
19367
19378
19389
19358
19340
19305
19335
19312
19327
19296
19292
19287
19248
19248
19251
19251
19175
19202
19202
19187
19162
19164
19171
19128
19120
19126
19090
19077
19090
19059
19069
19019
19051
19057
19028
18986
19000
19023
18983
18980
18949
18979
18935
18933
18943
18897
18886
18921
18898
18883
18866
18888
18872
18844
18864
18874
18861
18792
18821
18797
18802
18711
18727
18740
18681
18661
18652
18636
18586
18578
18542
18602
18556
18523
18560
18550
18556
18549
18569
18544
18565
18590
18617
18631
18618
18647
18682
18689
18686
18765
18766
18796
18832
18854
18913
18901
18962
19039
19085
19121
19173
19244
19250
19296
19358
19413
19452
19495
19556
19569
19572
19651
19659
19652
19655
19650
19641
19632
19659
19632
19616
19588
19610
19620
19592
19558
19553
19547
19538
19511
19510
19507
19480
19496
19516
19479
19438
19427
19445
19429
19365
19395
19383
19390
19346
19365
19323
19333
19347
19316
19314
19295
19302
19290
19281
19253
19268
19250
19233
19204
19200
19208
19174
19142
19158
19145
19086
19115
19104
19096
19059
19036
19072
19042
18978
18989
18985
18958
18955
18982
18930
18911
18899
18894
18874
18863
18859
18876
18828
18815
18808
18821
18797
18790
18794
18816
18747
18741
18760
18743
18699
18716
18675
18681
18628
18616
18619
18574
18563
18554
18546
18499
18471
18491
18465
18430
18418
18397
18425
18357
18388
18403
18378
18402
18421
18453
18423
18456
18514
18508
18502
18526
18579
18616
18627
18670
18694
18699
18748
18795
18859
18893
18904
18998
19020
19057
19109
19170
19208
19249
19332
19407
19415
19450
19504
19527
19576
19556
19620
19610
19606
19584
19590
19608
19556
19599
19556
19521
19521
19517
19524
19503
19463
19480
19488
19461
19425
19418
19406
19403
19416
19397
19356
19382
19371
19371
19350
19332
19346
19356
19304
19307
19293
19306
19281
19285
19269
19276
19230
19220
19211
19225
19197
19190
19172
19180
19125
19138
19134
19122
19109
19092
19066
19046
19063
19047
19022
19000
19033
18993
18960
18938
18954
18958
18937
18933
18925
18916
18874
18863
18868
18840
18858
18836
18849
18860
18824
18834
18810
18788
18782
18784
18808
18778
18749
18743
18747
18727
18725
18720
18693
18655
18619
18601
18588
18561
18566
18551
18519
18476
18468
18494
18447
18456
18475
18479
18494
18490
18505
18497
18532
18589
18619
18587
18647
18657
18682
18691
18710
18796
18826
18824
18873
18914
18970
18994
19059
19071
19110
19157
19242
19262
19291
19338
19459
19493
19520
19567
19625
19640
19651
19664
19687
19658
19680
19699
19680
19666
19644
19650
19640
19632
19645
19648
19607
19576
19598
19600
19557
19563
19575
19536
19510
19511
19528
19502
19462
19501
19480
19461
19445
19426
19442
19440
19412
19380
19390
19368
19373
19344
19371
19330
19362
19330
19303
19279
19271
19260
19260
19245
19236
19230
19180
19209
19213
19159
19142
19167
19163
19121
19113
19087
19117
19089
19112
19101
19069
19022
19043
19024
19025
18994
19013
19020
18988
18961
18987
18985
18960
18978
18965
18938
18948
18925
18945
18896
18887
18902
18895
18860
18827
18859
18856
18826
18795
18800
18747
18733
18697
18665
18654
18621
18610
18605
18575
18585
18571
18597
18568
18584
18608
18622
18576
18578
18636
18651
18648
18677
18744
18705
18712
18791
18797
18840
18844
18885
18936
18933
18976
19038
19096
19119
19159
19227
19282
19310
19371
19428
19496
19531
19570
19632
19619
19647
19671
19695
19669
19692
19702
19688
19674
19651
19697
19659
19628
19653
19627
19600
19616
19608
19598
19565
19566
19572
19559
19522
19549
19552
19525
19505
19536
19507
19493
19492
19493
19478
19466
19454
19467
19442
19406
19368
19425
19377
19381
19367
19364
19361
19309
19310
19331
19283
19295
19259
19266
19233
19244
19252
19199
19208
19204
19218
19151
19162
19143
19140
19117
19056
19100
19070
19061
19057
19055
19031
19041
19069
19042
18988
19023
19006
19005
18956
18958
18981
19007
18972
18967
18958
18927
18920
18937
18948
18917
18883
18889
18838
18844
18800
18773
18758
18715
18689
18689
18641
18621
18637
18588
18588
18556
18607
18603
18602
18632
18595
18665
18628
18657
18703
18674
18711
18750
18769
18781
18788
18839
18878
18909
18935
18975
18998
19059
19127
19160
19199
19218
19283
19346
19355
19402
19485
19538
19587
19602
19665
19690
19695
19740
19709
19702
19680
19722
19726
19700
19675
19671
19703
19647
19644
19650
19651
19602
19582
19577
19600
19528
19561
19562
19534
19496
19520
19532
19490
19485
19472
19460
19410
19401
19432
19391
19377
19347
19381
19344
19304
19331
19304
19321
19315
19286
19258
19243
19216
19246
19208
19201
19191
19156
19143
19081
19111
19131
19100
19068
19059
19035
19036
19009
19009
18984
18944
18956
18933
18955
18902
18913
18902
18864
18885
18857
18869
18806
18814
18820
18829
18768
18787
18789
18774
18724
18781
18748
18739
18691
18680
18695
18705
18658
18664
18629
18566
18604
18576
18558
18511
18515
18502
18478
18439
18460
18445
18431
18421
18434
18468
18443
18428
18446
18485
18495
18532
18509
18567
18582
18599
18657
18660
18670
18724
18756
18784
18807
18838
18891
18928
18980
19030
19093
19109
19152
19268
19284
19328
19405
19451
19508
19517
19611
19593
19608
19688
19681
19688
19654
19678
19692
19683
19660
19670
19664
19654
19621
19663
19626
19588
19615
19601
19580
19555
19548
19552
19541
19530
19517
19547
19508
19483
19508
19466
19453
19440
19472
19463
19412
19420
19424
19425
19387
19400
19398
19367
19356
19361
19363
19336
19301
19312
19303
19270
19272
19262
19234
19208
19239
19235
19195
19179
19185
19154
19126
19099
19088
19109
19077
19073
19052
19060
19043
19030
19018
19022
19001
18980
18985
18981
19021
18980
18970
18937
18951
18935
18906
18890
18903
18903
18883
18855
18857
18828
18820
18788
18806
18793
18729
18711
18723
18691
18652
18668
18626
18639
18594
18612
18598
18564
18594
18596
18633
18618
18658
18633
18666
18690
18675
18708
18690
18730
18781
18814
18806
18841
18887
18931
18933
18991
19024
19082
19091
19142
19205
19261
19273
19335
19365
19441
19513
19555
19588
19588
19650
19698
19736
19712
19743
19756
19755
19720
19737
19738
19707
19712
19718
19679
19660
19652
19668
19668
19609
19612
19613
19615
19547
19565
19584
19546
19511
19531
19547
19519
19507
19490
19467
19460
19468
19488
19420
19396
19426
19403
19392
19353
19365
19351
19329
19318
19304
19303
19265
19262
19258
19253
19203
19211
19218
19215
19200
19172
19186
19096
19133
19130
19104
19051
19059
19073
19067
19021
19073
19044
19015
18995
18989
18984
18978
18980
18954
18959
18925
18940
18897
18909
18867
18891
18912
18887
18873
18848
18816
18820
18837
18802
18782
18775
18778
18742
18730
18671
18694
18667
18658
18624
18605
18614
18604
18581
18581
18590
18594
18588
18586
18608
18602
18640
18658
18665
18671
18743
18752
18754
18741
18801
18809
18839
18865
18924
18954
18952
18990
19072
19084
19106
19174
19216
19253
19271
19353
19389
19480
19521
19562
19580
19634
19668
19719
19707
19710
19717
19725
19716
19706
19654
19685
19670
19656
19605
19658
19605
19605
19583
19601
19559
19589
19568
19544
19518
19536
19519
19485
19490
19475
19478
19458
19434
19427
19432
19387
19382
19402
19388
19340
19373
19347
19330
19316
19303
19282
19273
19266
19262
19220
19203
19187
19172
19177
19122
19152
19143
19113
19075
19048
19102
19049
19045
19026
19035
18999
19007
19000
18986
18969
18968
18954
18942
18920
18900
18911
18883
18894
18860
18862
18859
18824
18869
18839
18819
18813
18862
18785
18774
18774
18765
18764
18716
18717
18675
18682
18647
18647
18604
18580
18539
18546
18543
18512
18516
18538
18546
18523
18521
18510
18520
18561
18601
18593
18597
18590
18648
18656
18692
18718
18746
18759
18799
18827
18879
18874
18921
18964
18992
19017
19051
19123
19204
19225
19267
19362
19395
19424
19493
19552
19623
19657
19688
19712
19701
19778
19771
19751
19765
19748
19788
19734
19751
19723
19778
19719
19712
19716
19720
19709
19706
19677
19691
19658
19680
19663
19631
19612
19624
19637
19623
19604
19568
19583
19567
19530
19568
19552
19495
19533
19536
19498
19477
19478
19494
19441
19432
19446
19415
19376
19378
19387
19331
19298
19287
19266
19289
19244
19256
19223
19204
19180
19201
19166
19165
19152
19158
19122
19113
19117
19085
19108
19065
19080
19060
19063
19057
19071
19017
19034
19001
19030
19043
18995
19049
19055
18999
18980
19005
19002
18964
18961
18973
18962
18883
18893
18882
18891
18847
18839
18816
18785
18744
18751
18684
18673
18621
18623
18601
18558
18519
18517
18513
18476
18479
18491
18472
18437
18456
18494
18480
18484
18508
18541
18538
18610
18622
18620
18672
18718
18760
18799
18831
18916
18968
18980
19027
19105
19122
19155
19220
19279
19318
19334
19383
19384
19384
19350
19408
19392
19397
19371
19375
19375
19363
19335
19342
19348
19300
19282
19295
19255
19226
19234
19232
19203
19189
19202
19206
19134
19179
19162
19168
19123
19112
19122
19069
19099
19078
19090
19088
19077
19073
19065
19055
19043
19047
19074
19051
19062
19008
19026
18966
19002
18962
18966
18964
18932
18951
18949
18921
18923
18940
18899
18897
18899
18872
18874
18846
18853
18818
18797
18827
18834
18790
18793
18809
18799
18770
18744
18754
18773
18747
18756
18761
18756
18729
18721
18771
18719
18748
18749
18781
18754
18747
18778
18752
18758
18767
18762
18727
18692
18728
18734
18706
18683
18674
18679
18641
18628
18643
18662
18621
18632
18687
18672
18671
18702
18718
18713
18715
18766
18803
18789
18822
18849
18906
18883
18860
18957
18968
18972
19015
19068
19064
19118
19184
19219
19243
19306
19386
19408
19460
19519
19554
19632
19644
19668
19737
19743
19765
19778
19785
19772
19766
19765
19737
19734
19706
19709
19714
19659
19674
19682
19640
19619
19611
19590
19588
19572
19555
19565
19523
19520
19513
19517
19514
19501
19481
19488
19480
19459
19475
19474
19439
19441
19484
19446
19445
19452
19442
19418
19434
19379
19421
19394
19423
19405
19349
19363
19356
19343
19302
19309
19277
19286
19268
19259
19241
19239
19187
19212
19200
19168
19123
19130
19165
19126
19081
19055
19081
19004
19020
19010
18956
18957
18951
18914
18916
18887
18878
18882
18847
18845
18856
18813
18783
18779
18809
18785
18756
18744
18725
18727
18709
18692
18666
18652
18608
18610
18590
18568
18552
18553
18559
18533
18533
18499
18560
18536
18586
18573
18577
18601
18631
18619
18690
18664
18728
18742
18782
18795
18832
18845
18854
18910
18933
18961
18985
19015
19109
19102
19157
19205
19231
19285
19354
19404
19444
19516
19544
19591
19615
19640
19661
19655
19632
19657
19635
19606
19592
19547
19569
19557
19526
19537
19522
19466
19471
19441
19446
19443
19391
19396
19399
19372
19343
19335
19330
19281
19310
19300
19289
19249
19266
19303
19255
19260
19235
19246
19219
19223
19246
19212
19177
19188
19191
19157
19139
19101
19094
19111
19100
19110
19060
19020
19018
19035
19027
18998
18992
19013
18971
18934
18945
18959
18922
18934
18920
18948
18891
18877
18882
18870
18865
18852
18853
18857
18804
18832
18818
18821
18799
18778
18787
18723
18780
18762
18762
18733
18729
18730
18719
18704
18716
18696
18702
18686
18669
18663
18627
18620
18598
18616
18575
18557
18560
18531
18499
18496
18489
18488
18427
18507
18454
18488
18499
18513
18527
18492
18530
18552
18584
18587
18603
18656
18636
18690
18715
18763
18798
18810
18870
18893
18942
18989
19011
19080
19085
19137
19228
19257
19301
19406
19417
19474
19549
19601
19643
19667
19687
19709
19703
19677
19711
19687
19664
19617
19658
19650
19611
19589
19593
19624
19588
19596
19590
19536
19538
19524
19509
19527
19460
19466
19468
19469
19420
19447
19410
19407
19390
19381
19393
19351
19371
19361
19324
19318
19318
19310
19306
19265
19272
19301
19256
19242
19238
19208
19203
19194
19209
19156
19112
19111
19145
19118
19079
19064
19073
19030
19024
19021
19021
19002
18987
18964
18985
18928
18941
18925
18898
18887
18903
18900
18895
18832
18866
18903
18860
18837
18828
18848
18805
18802
18811
18807
18784
18820
18822
18803
18756
18772
18780
18726
18729
18742
18771
18700
18679
18692
18654
18648
18647
18639
18596
18587
18594
18594
18618
18594
18584
18641
18618
18622
18606
18636
18657
18697
18702
18730
18658
18747
18798
18793
18840
18863
18907
18911
18929
19018
19027
19020
19076
19164
19230
19222
19291
19362
19400
19464
19514
19575
19599
19642
19704
19715
19695
19714
19711
19684
19692
19678
19690
19629
19629
19636
19623
19582
19584
19589
19576
19548
19524
19526
19502
19499
19488
19458
19456
19439
19419
19440
19383
19368
19374
19387
19347
19327
19340
19332
19273
19291
19260
19301
19275
19266
19249
19203
19216
19195
19168
19157
19174
19153
19128
19107
19110
19093
19063
19046
19018
19043
19022
19003
19003
18966
18948
18960
18931
18939
18915
18902
18876
18866
18840
18865
18867
18813
18814
18813
18841
18805
18793
18780
18782
18725
18746
18722
18753
18725
18707
18726
18699
18686
18680
18692
18636
18675
18677
18647
18626
18605
18619
18577
18556
18552
18549
18542
18504
18510
18503
18437
18478
18503
18498
18462
18456
18481
18526
18494
18525
18587
18544
18548
18609
18659
18655
18633
18699
18704
18724
18777
18801
18822
18849
18905
18927
18951
19006
19036
19119
19143
19161
19235
19302
19333
19413
19439
19516
19554
19628
19682
19685
19658
19699
19685
19664
19663
19638
19647
19623
19630
19600
19581
19557
19571
19559
19528
19468
19513
19506
19478
19490
19458
19443
19431
19406
19413
19411
19373
19370
19401
19362
19337
19305
19332
19311
19280
19300
19292
19247
19237
19216
19241
19216
19185
19205
19168
19142
19127
19142
19084
19094
19091
19099
19065
19049
19034
19006
18993
18991
19003
19003
18914
18929
18943
18877
18908
18894
18874
18838
18837
18832
18854
18820
18789
18786
18789
18788
18789
18801
18771
18744
18782
18740
18748
18743
18720
18708
18678
18706
18682
18707
18624
18664
18667
18630
18608
18614
18613
18590
18590
18590
18565
18559
18521
18526
18542
18515
18501
18531
18493
18483
18499
18521
18500
18533
18536
18554
18553
18586
18637
18623
18645
18677
18721
18736
18751
18776
18833
18846
18854
18934
18940
19001
19016
19094
19142
19136
19203
19270
19372
19364
19457
19528
19595
19668
19707
19706
19762
19786
19790
19825
19774
19771
19779
19774
19742
19748
19718
19675
19672
19661
19667
19638
19608
19602
19600
19569
19565
19544
19541
19529
19517
19516
19474
19447
19431
19439
19432
19417
19435
19389
19366
19367
19351
19331
19291
19314
19285
19290
19244
19240
19259
19237
19196
19215
19199
19166
19140
19142
19118
19061
19087
19120
19065
19018
19046
19020
18985
18998
18974
18981
18939
18933
18941
18919
18865
18854
18860
18869
18848
18830
18851
18786
18772
18788
18797
18762
18755
18737
18759
18754
18717
18741
18713
18696
18695
18717
18703
18671
18660
18695
18653
18653
18673
18654
18606
18628
18594
18574
18519
18547
18542
18521
18470
18463
18456
18448
18424
18433
18458
18415
18419
18473
18466
18475
18470
18553
18531
18525
18573
18556
18583
18634
18661
18704
18699
18716
18820
18813
18821
18890
18917
18959
19005
19091
19159
19207
19227
19291
19369
19398
19441
19528
19610
19599
19675
19672
19679
19665
19678
19663
19658
19654
19638
19647
19606
19590
19595
19595
19534
19540
19590
19545
19534
19547
19520
19520
19498
19474
19460
19442
19405
19419
19395
19386
19378
19409
19358
19322
19329
19327
19304
19304
19300
19300
19261
19253
19212
19238
19202
19175
19204
19197
19154
19160
19155
19128
19098
19104
19093
19074
19037
19044
19039
19007
18990
18975
18948
18931
18912
18908
18857
18860
18872
18879
18821
18794
18807
18817
18803
18783
18782
18749
18742
18752
18734
18746
18689
18731
18747
18708
18661
18731
18671
18672
18660
18660
18640
18626
18642
18629
18584
18569
18609
18561
18536
18480
18516
18521
18475
18453
18444
18452
18398
18424
18405
18420
18372
18373
18427
18419
18425
18441
18490
18463
18462
18503
18542
18545
18583
18625
18621
18625
18683
18725
18770
18805
18830
18883
18933
18952
19050
19085
19104
19182
19244
19287
19316
19392
19474
19539
19557
19615
19669
19654
19657
19683
19656
19654
19637
19632
19638
19575
19561
19619
19560
19526
19569
19549
19515
19514
19504
19508
19476
19467
19472
19454
19415
19446
19426
19401
19363
19370
19406
19367
19359
19333
19341
19304
19302
19287
19302
19226
19232
19250
19215
19200
19200
19208
19187
19143
19131
19110
19094
19102
19090
19078
19049
19075
19013
19049
18988
18993
18998
18984
18958
18944
18954
18930
18929
18877
18902
18827
18836
18835
18771
18746
18790
18778
18770
18700
18698
18677
18677
18643
18646
18583
18584
18629
18607
18580
18542
18551
18582
18521
18489
18502
18492
18457
18449
18427
18446
18384
18364
18382
18356
18297
18279
18284
18286
18215
18245
18233
18199
18192
18212
18219
18202
18198
18247
18241
18212
18259
18290
18269
18256
18333
18371
18358
18393
18413
18446
18473
18508
18546
18579
18595
18625
18703
18754
18759
18837
18895
18959
18959
19043
19111
19187
19198
19281
19382
19394
19430
19487
19471
19456
19486
19512
19472
19442
19462
19438
19399
19388
19388
19353
19309
19361
19331
19340
19247
19270
19294
19234
19243
19214
19225
19193
19157
19165
19193
19132
19119
19136
19122
19085
19091
19082
19079
19027
19066
19043
19049
18988
19019
18993
18976
18936
18988
18962
18929
18933
18947
18881
18862
18865
18873
18850
18809
18807
18804
18758
18720
18708
18726
18695
18688
18694
18665
18646
18617
18617
18599
18576
18548
18544
18534
18530
18561
18529
18494
18519
18517
18499
18456
18452
18452
18440
18425
18421
18444
18389
18407
18398
18413
18382
18361
18382
18357
18294
18341
18347
18307
18254
18293
18262
18253
18209
18225
18207
18175
18171
18219
18196
18157
18200
18238
18221
18211
18279
18280
18293
18337
18315
18376
18402
18427
18479
18498
18473
18546
18617
18622
18633
18712
18747
18800
18818
18888
18942
18965
18997
19111
19149
19182
19231
19290
19340
19342
19393
19439
19436
19431
19456
19467
19417
19431
19426
19428
19377
19371
19412
19342
19316
19333
19335
19295
19256
19254
19283
19251
19232
19210
19196
19167
19167
19180
19170
19104
19157
19139
19104
19075
19101
19102
19071
19081
19064
19066
19018
18999
19011
18993
18955
18972
18964
18909
18890
18888
18902
18874
18878
18858
18832
18814
18821
18819
18811
18720
18732
18735
18739
18676
18701
18735
18668
18647
18659
18675
18630
18620
18655
18639
18598
18618
18600
18591
18553
18578
18588
18583
18566
18579
18589
18549
18543
18541
18556
18515
18517
18510
18490
18451
18469
18511
18456
18443
18424
18441
18370
18376
18397
18392
18352
18357
18353
18375
18371
18383
18429
18415
18415
18431
18447
18469
18507
18524
18569
18591
18630
18659
18662
18665
18718
18793
18804
18803
18832
18912
18943
18965
19036
19081
19093
19136
19211
19266
19299
19350
19423
19430
19478
19501
19526
19523
19524
19531
19539
19508
19500
19522
19495
19460
19453
19495
19445
19392
19426
19460
19399
19401
19413
19382
19350
19373
19371
19362
19329
19310
19339
19297
19269
19275
19321
19257
19262
19248
19251
19247
19217
19225
19185
19214
19210
19193
19177
19118
19178
19139
19149
19099
19112
19104
19084
19063
19096
19080
19028
19025
19053
19042
18971
19005
18968
18981
18930
18936
18970
18921
18922
18910
18899
18884
18888
18877
18878
18876
18857
18857
18863
18851
18898
18868
18854
18847
18865
18861
18837
18819
18854
18822
18840
18834
18812
18796
18762
18759
18766
18757
18694
18742
18728
18702
18677
18677
18708
18680
18702
18715
18733
18665
18747
18748
18746
18747
18824
18792
18814
18838
18852
18901
18879
18930
18956
18965
18966
19045
19037
19070
19096
19137
19168
19194
19232
19289
19330
19368
19414
19445
19467
19485
19566
19626
19621
19605
19680
19678
19642
19661
19646
19691
19618
19642
19635
19604
19569
19594
19571
19597
19542
19540
19560
19536
19516
19532
19466
19465
19492
19462
19459
19397
19390
19432
19410
19362
19355
19383
19349
19309
19342
19349
19286
19316
19307
19291
19271
19273
19256
19240
19211
19238
19232
19169
19177
19189
19180
19166
19134
19144
19131
19105
19080
19103
19090
19040
19079
19072
19056
19052
19045
19048
19028
18988
19029
18997
18996
18977
19010
18981
18935
19000
18954
18957
18957
18935
18978
18940
18930
18923
18991
18919
18907
18943
18959
18907
18894
18894
18908
18852
18867
18879
18842
18833
18828
18808
18789
18790
18802
18814
18779
18771
18835
18844
18785
18818
18848
18849
18866
18880
18858
18871
18860
18879
18927
18887
18911
18935
18944
18995
18997
19027
19026
19064
19087
19120
19142
19181
19215
19280
19235
19299
19356
19364
19337
19354
19379
19392
19351
19341
19361
19320
19309
19320
19321
19257
19200
19239
19207
19177
19165
19177
19105
19093
19111
19063
19040
19016
19027
19035
18960
18952
18971
18956
18914
18922
18934
18914
18899
18910
18862
18864
18850
18855
18860
18781
18800
18811
18831
18769
18747
18784
18736
18710
18703
18682
18676
18662
18669
18632
18595
18586
18588
18578
18521
18516
18515
18497
18433
18412
18397
18384
18328
18332
18341
18340
18273
18302
18289
18244
18257
18233
18231
18197
18191
18234
18172
18126
18153
18157
18111
18122
18131
18134
18102
18077
18083
18085
18040
18059
18113
18090
18032
18031
18078
18070
18070
18094
18088
18051
18094
18127
18134
18152
18170
18207
18204
18245
18304
18306
18327
18318
18389
18433
18412
18478
18532
18565
18549
18621
18656
18690
18740
18784
18840
18875
18914
18988
19031
19022
19076
19144
19226
19161
19244
19301
19278
19289
19308
19307
19330
19326
19332
19343
19312
19321
19370
19372
19320
19358
19356
19385
19319
19370
19335
19321
19339
19376
19381
19332
19345
19350
19349
19331
19335
19333
19329
19325
19318
19303
19329
19292
19306
19301
19279
19298
19309
19273
19235
19250
19279
19217
19221
19195
19248
19221
19187
19201
19179
19214
19178
19179
19191
19149
19142
19163
19141
19121
19109
19140
19138
19083
19085
19131
19135
19097
19121
19107
19087
19096
19088
19092
19069
19072
19084
19078
19025
19039
19081
19047
19024
19038
19019
19002
19020
18983
18995
18965
18969
18975
18937
18882
18953
18899
18916
18907
18889
18905
18875
18858
18858
18898
18899
18927
18946
18944
18941
18978
18999
19027
19070
19119
19132
19140
19198
19219
19223
19243
19281
19344
19342
19355
19403
19470
19458
19497
19565
19617
19624
19656
19698
19735
19711
19730
19758
19725
19720
19737
19728
19710
19659
19653
19662
19621
19564
19593
19581
19533
19561
19556
19498
19493
19524
19506
19481
19462
19467
19454
19444
19439
19458
19426
19413
19392
19397
19375
19357
19354
19358
19333
19297
19306
19277
19288
19258
19272
19260
19232
19225
19231
19231
19210
19194
19200
19183
19161
19153
19162
19136
19103
19124
19123
19077
19092
19107
19048
19052
19036
19006
18998
18967
18966
18959
18952
18912
18925
18939
18937
18955
18934
18964
18931
18881
18908
18900
18883
18892
18869
18845
18853
18812
18804
18780
18756
18782
18750
18731
18724
18689
18715
18680
18668
18669
18656
18652
18674
18661
18657
18650
18693
18667
18667
18681
18701
18761
18749
18792
18786
18819
18796
18893
18950
18935
18998
19004
19024
19054
19055
19160
19156
19143
19169
19251
19255
19229
19309
19347
19344
19370
19381
19413
19428
19396
19426
19431
19396
19386
19384
19337
19311
19323
19295
19272
19243
19256
19228
19222
19183
19160
19181
19105
19100
19113
19074
19029
19044
19026
19004
18994
18998
18982
18942
18954
18898
18912
18903
18871
18873
18827
18795
18825
18790
18744
18730
18746
18718
18698
18637
18652
18655
18595
18570
18547
18527
18518
18471
18472
18437
18420
18421
18420
18372
18370
18330
18357
18337
18336
18329
18330
18305
18347
18319
18323
18279
18316
18346
18333
18336
18375
18361
18337
18349
18371
18387
18353
18364
18394
18378
18359
18386
18353
18359
18330
18366
18348
18348
18327
18345
18346
18328
18311
18322
18326
18297
18337
18372
18389
18371
18424
18468
18478
18509
18528
18578
18570
18587
18622
18635
18674
18720
18778
18797
18836
18866
18886
18949
19012
19025
19050
19110
19141
19154
19211
19233
19242
19259
19312
19302
19375
19386
19390
19366
19379
19396
19358
19313
19337
19316
19276
19225
19208
19192
19107
19089
19097
19065
19000
19020
18994
18980
18949
18930
18917
18871
18876
18874
18869
18793
18790
18760
18750
18705
18701
18689
18654
18670
18616
18636
18608
18561
18563
18551
18510
18521
18520
18508
18460
18450
18485
18448
18420
18463
18451
18410
18395
18390
18401
18356
18343
18378
18353
18309
18340
18346
18334
18333
18315
18303
18317
18313
18320
18301
18253
18316
18256
18294
18228
18249
18292
18230
18251
18226
18254
18234
18210
18220
18236
18185
18178
18187
18176
18153
18124
18120
18116
18052
18038
18025
17970
17978
17966
17994
17945
17935
17935
17960
17937
17939
17960
17974
17956
17996
18036
18027
18036
18085
18112
18120
18147
18205
18222
18246
18284
18321
18366
18387
18452
18491
18520
18549
18625
18704
18708
18760
18835
18897
18917
18976
19003
19034
19019
19050
19084
19061
19060
19069
19042
19058
19037
19049
19043
18987
18998
19034
18997
18951
18997
18936
18939
18943
18901
18919
18885
18870
18893
18893
18858
18845
18825
18836
18806
18798
18825
18791
18753
18799
18800
18750
18746
18767
18742
18726
18727
18709
18707
18674
18683
18672
18640
18608
18643
18624
18606
18568
18537
18571
18524
18524
18542
18520
18496
18478
18499
18496
18485
18471
18488
18439
18415
18432
18431
18399
18430
18412
18414
18367
18365
18367
18365
18357
18357
18378
18344
18338
18355
18352
18340
18295
18303
18290
18245
18199
18213
18212
18166
18142
18136
18109
18068
18064
18058
18020
18023
18077
18055
18013
18056
18049
18100
18094
18126
18142
18173
18198
18217
18273
18276
18286
18324
18353
18392
18376
18479
18513
18525
18606
18593
18668
18700
18758
18842
18862
18873
18953
19002
19061
19070
19075
19113
19099
19138
19124
19108
19116
19126
19124
19103
19053
19125
19078
19046
19034
19059
19029
18990
18983
19005
18997
18947
18992
18978
18952
18918
18948
18946
18902
18915
18894
18901
18859
18864
18866
18866
18824
18802
18827
18805
18777
18818
18764
18767
18781
18729
18737
18701
18714
18683
18720
18641
18656
18671
18642
18596
18622
18585
18599
18577
18568
18580
18541
18495
18548
18519
18470
18483
18485
18463
18436
18439
18467
18440
18456
18430
18419
18428
18398
18407
18418
18401
18368
18437
18367
18359
18403
18386
18343
18352
18307
18305
18297
18236
18277
18247
18200
18194
18173
18177
18162
18156
18164
18125
18119
18144
18164
18164
18165
18179
18222
18226
18255
18277
18287
18296
18369
18389
18412
18414
18480
18502
18572
18562
18621
18656
18699
18720
18784
18843
18889
18895
18982
19010
19061
19114
19188
19185
19213
19258
19285
19289
19302
19277
19314
19283
19241
19282
19244
19219
19262
19236
19232
19211
19194
19218
19174
19185
19151
19163
19135
19145
19128
19097
19082
19036
19112
19089
19036
19040
19060
19024
19037
19041
19021
18990
18983
18982
18996
18968
18965
18979
18922
18913
18935
18934
18887
18865
18864
18887
18854
18811
18837
18831
18795
18804
18803
18755
18708
18765
18771
18742
18682
18693
18693
18664
18665
18655
18632
18611
18630
18617
18609
18535
18561
18556
18556
18513
18525
18519
18502
18509
18464
18464
18443
18444
18438
18411
18382
18351
18347
18333
18301
18299
18279
18243
18223
18255
18224
18179
18162
18205
18225
18187
18212
18218
18245
18264
18306
18320
18334
18352
18395
18427
18449
18465
18514
18543
18562
18619
18655
18685
18724
18769
18840
18871
18920
18977
19022
19069
19114
19165
19195
19241
19308
19333
19400
19421
19477
19513
19493
19491
19520
19536
19502
19502
19510
19502
19464
19490
19495
19474
19451
19426
19474
19441
19398
19428
19425
19402
19423
19396
19370
19368
19377
19408
19367
19353
19373
19364
19360
19327
19342
19345
19319
19298
19326
19330
19311
19288
19260
19269
19229
19232
19216
19188
19147
19160
19156
19120
19097
19103
19083
19066
19057
19060
19050
18980
18996
19007
18968
18939
18927
18942
18948
18903
18908
18912
18861
18834
18830
18856
18839
18843
18824
18819
18800
18808
18792
18788
18759
18748
18775
18720
18719
18726
18721
18708
18661
18639
18651
18606
18599
18588
18543
18531
18510
18541
18499
18462
18469
18475
18437
18459
18483
18470
18463
18501
18477
18513
18501
18524
18563
18553
18611
18648
18679
18648
18701
18751
18766
18786
18838
18891
18863
18935
18967
18998
19043
19076
19141
19178
19222
19255
19292
19341
19309
19413
19414
19425
19411
19445
19489
19457
19425
19445
19470
19420
19419
19428
19405
19395
19373
19374
19344
19318
19351
19339
19324
19302
19303
19285
19271
19254
19252
19241
19240
19223
19226
19221
19191
19228
19211
19182
19175
19181
19162
19157
19138
19147
19133
19113
19111
19129
19100
19085
19093
19061
19048
19042
19033
19038
19043
18999
18987
19011
18962
18950
18963
18969
18901
18925
18912
18905
18880
18880
18867
18864
18827
18856
18835
18847
18820
18822
18859
18787
18789
18791
18773
18767
18788
18784
18779
18712
18788
18763
18739
18716
18730
18739
18691
18692
18680
18611
18596
18612
18616
18585
18567
18548
18576
18535
18536
18548
18553
18561
18594
18595
18596
18599
18634
18643
18661
18639
18719
18745
18764
18752
18807
18836
18900
18866
18942
18970
18991
19031
19111
19107
19133
19221
19275
19317
19342
19416
19433
19500
19496
19574
19582
19598
19591
19622
19598
19593
19597
19626
19600
19569
19596
19555
19583
19567
19555
19545
19508
19521
19501
19501
19481
19474
19488
19465
19457
19445
19428
19430
19402
19423
19435
19379
19390
19412
19401
19344
19359
19378
19379
19338
19357
19340
19337
19314
19342
19347
19294
19259
19314
19286
19240
19253
19240
19221
19163
19205
19186
19158
19139
19145
19161
19111
19076
19101
19080
19055
19062
19054
19012
18997
19012
19027
19013
18991
18990
18991
18947
18968
18960
18973
18920
18955
18936
18943
18893
18898
18902
18890
18881
18856
18864
18843
18820
18800
18791
18764
18741
18757
18739
18707
18728
18694
18675
18683
18659
18661
18667
18681
18679
18707
18693
18708
18697
18711
18729
18746
18789
18804
18782
18856
18859
18893
18915
18972
18989
19006
19035
19084
19120
19147
19207
19248
19275
19328
19357
19420
19459
19497
19558
19581
19635
19650
19730
19699
19694
19697
19716
19702
19669
19684
19681
19650
19659
19637
19656
19641
19608
19649
19629
19574
19561
19586
19539
19512
19522
19535
19532
19471
19508
19498
19485
19480
19474
19463
19445
19405
19414
19406
19360
19395
19372
19358
19329
19330
19372
19328
19291
19301
19327
19274
19265
19242
19228
19204
19210
19222
19180
19170
19182
19178
19130
19131
19109
19133
19102
19073
19097
19067
19039
19030
19015
19037
18976
19001
18978
18964
18981
18952
18976
18920
18925
18940
18975
18919
18910
18890
18894
18860
18885
18868
18856
18819
18843
18852
18815
18789
18814
18767
18734
18754
18704
18702
18651
18647
18687
18633
18623
18647
18646
18675
18657
18674
18700
18703
18690
18737
18774
18734
18777
18826
18829
18824
18883
18881
18919
18973
18982
19031
19049
19086
19117
19166
19200
19243
19309
19355
19392
19422
19505
19529
19557
19592
19674
19699
19733
19734
19746
19730
19746
19763
19754
19717
19739
19744
19735
19717
19700
19700
19677
19674
19658
19672
19660
19631
19655
19633
19589
19613
19610
19604
19576
19556
19582
19545
19518
19549
19553
19520
19493
19481
19471
19455
19464
19464
19433
19405
19432
19432
19445
19392
19407
19393
19366
19334
19333
19339
19315
19323
19308
19331
19263
19282
19275
19246
19232
19233
19256
19222
19226
19206
19202
19199
19215
19183
19145
19162
19155
19168
19129
19136
19125
19161
19105
19090
19079
19105
19095
19083
19087
19058
19012
19048
19084
19042
19011
19043
19016
19004
18985
18969
18983
18955
18927
18930
18902
18885
18885
18914
18895
18849
18883
18880
18876
18880
18899
18944
18903
18925
18936
18975
18977
19008
19013
19067
19059
19108
19110
19121
19149
19200
19211
19234
19276
19325
19345
19399
19469
19495
19525
19569
19640
19658
19743
19751
19838
19851
19871
19908
19949
19948
19936
19950
19946
19945
19904
19913
19941
19898
19851
19863
19911
19879
19842
19865
19815
19810
19808
19811
19816
19790
19768
19817
19782
19741
19742
19755
19709
19733
19736
19708
19702
19679
19702
19704
19681
19658
19697
19701
19645
19656
19658
19642
19619
19618
19598
19592
19603
19587
19593
19576
19537
19567
19553
19496
19532
19519
19493
19481
19490
19490
19450
19466
19445
19453
19448
19417
19431
19415
19374
19417
19416
19413
19375
19389
19386
19393
19399
19399
19371
19379
19361
19396
19357
19335
19348
19346
19353
19355
19336
19328
19345
19330
19307
19291
19283
19270
19256
19243
19202
19224
19249
19228
19230
19230
19251
19217
19235
19252
19325
19281
19294
19275
19354
19331
19352
19369
19373
19375
19409
19480
19445
19472
19488
19540
19548
19562
19613
19675
19667
19720
19782
19804
19815
19923
19925
19972
20025
20098
20116
20158
20138
20178
20186
20175
20160
20155
20165
20141
20139
20130
20109
20070
20103
20126
20103
20076
20081
20059
20059
20062
20069
20048
20005
19999
20016
20016
20001
19998
19992
19969
19937
19946
19979
19918
19891
19895
19906
19900
19860
19847
19869
19852
19842
19831
19793
19772
19794
19806
19792
19757
19758
19722
19708
19712
19736
19693
19679
19636
19673
19631
19610
19586
19573
19566
19577
19540
19540
19516
19513
19514
19525
19478
19505
19473
19441
19455
19435
19461
19449
19415
19420
19429
19387
19375
19394
19370
19338
19390
19370
19370
19324
19309
19320
19287
19277
19268
19257
19221
19230
19197
19199
19159
19199
19181
19167
19130
19160
19195
19155
19180
19149
19174
19210
19196
19217
19235
19253
19267
19293
19310
19312
19344
19373
19357
19400
19415
19462
19478
19516
19529
19561
19577
19656
19660
19729
19763
19808
19856
19887
19930
19989
20027
20047
20086
20099
20120
20100
20105
20093
20081
20056
20053
20083
20050
19999
20012
19999
19978
19943
19988
19929
19939
19887
19921
19930
19864
19856
19871
19855
19815
19842
19839
19844
19795
19801
19796
19740
19756
19776
19786
19725
19712
19716
19694
19662
19681
19647
19645
19640
19657
19611
19625
19579
19592
19573
19546
19518
19522
19516
19461
19482
19479
19458
19425
19403
19433
19407
19397
19404
19393
19369
19348
19401
19357
19298
19311
19350
19329
19289
19305
19309
19277
19259
19281
19252
19220
19227
19240
19238
19215
19210
19183
19200
19141
19157
19184
19124
19134
19111
19110
19075
19036
19058
19009
18987
18986
19012
19021
18970
18988
19004
19018
19033
19020
19061
19053
19060
19092
19109
19143
19120
19172
19154
19193
19236
19234
19270
19279
19341
19350
19388
19431
19469
19485
19535
19581
19623
19660
19684
19747
19777
19851
19875
19920
19960
19983
19986
20040
20036
20063
20014
20002
20043
19972
19976
20020
20003
19954
19933
19929
19918
19918
19899
19902
19866
19883
19873
19875
19846
19822
19823
19815
19774
19783
19771
19775
19739
19766
19715
19736
19705
19722
19718
19695
19676
19668
19693
19660
19636
19640
19608
19567
19590
19593
19583
19544
19534
19550
19502
19520
19500
19488
19471
19454
19451
19421
19418
19430
19432
19397
19416
19359
19373
19348
19343
19350
19345
19304
19301
19314
19268
19261
19279
19277
19288
19256
19263
19280
19229
19245
19240
19248
19215
19206
19227
19216
19164
19175
19166
19157
19116
19133
19110
19085
19081
19066
19049
19060
19031
19035
19046
19003
19039
19052
19067
19069
19063
19111
19107
19130
19129
19158
19154
19190
19222
19249
19242
19280
19299
19320
19324
19382
19406
19441
19476
19521
19553
19590
19627
19691
19696
19739
19811
19883
19901
19895
19952
19975
19984
19990
19966
19983
19998
19965
19993
19986
19921
19934
19948
19901
19898
19921
19910
19896
19890
19880
19899
19858
19834
19852
19819
19840
19785
19806
19795
19765
19774
19763
19755
19742
19719
19714
19704
19698
19672
19723
19675
19685
19664
19637
19617
19623
19621
19626
19562
19596
19608
19555
19555
19570
19528
19536
19547
19551
19539
19509
19487
19478
19470
19438
19458
19474
19414
19420
19431
19435
19389
19394
19385
19360
19343
19335
19365
19348
19305
19313
19311
19286
19270
19302
19276
19269
19264
19247
19254
19230
19217
19205
19217
19182
19197
19168
19158
19131
19117
19118
19085
19081
19105
19070
19052
19095
19092
19097
19085
19076
19130
19133
19112
19171
19187
19196
19224
19229
19280
19275
19308
19348
19352
19362
19417
19455
19464
19480
19557
19600
19637
19656
19682
19750
19818
19857
19910
19927
19980
20011
20070
20091
20079
20104
20109
20099
20092
20074
20076
20067
20030
20061
20047
20044
20020
20049
19988
19982
19995
19976
19941
19944
19950
19930
19897
19881
19877
19863
19856
19826
19869
19852
19794
19838
19795
19754
19748
19764
19761
19729
19704
19705
19713
19674
19677
19700
19702
19630
19638
19633
19597
19556
19564
19587
19537
19540
19505
19528
19504
19473
19457
19440
19406
19402
19437
19417
19362
19353
19356
19364
19338
19351
19339
19333
19316
19288
19323
19325
19274
19301
19279
19254
19255
19282
19258
19221
19254
19249
19196
19219
19173
19189
19180
19166
19119
19114
19085
19098
19087
19062
19057
19036
19045
19032
19036
19044
19044
19049
19068
19063
19056
19084
19102
19111
19146
19131
19174
19216
19214
19192
19238
19280
19334
19374
19363
19410
19434
19450
19508
19537
19553
19627
19655
19708
19760
19826
19854
19893
19927
19956
20037
20058
20068
20105
20095
20109
20108
20120
20067
20074
20090
20074
20068
20048
20054
20051
20022
20018
20027
20024
20000
19990
20010
20009
19987
19982
19990
19948
19919
19942
19908
19899
19893
19895
19860
19857
19844
19877
19829
19831
19812
19822
19823
19770
19802
19763
19768
19724
19765
19743
19690
19696
19728
19704
19678
19689
19695
19651
19636
19645
19629
19618
19587
19622
19592
19558
19580
19539
19548
19523
19492
19523
19499
19481
19460
19470
19465
19461
19470
19479
19435
19441
19416
19432
19441
19414
19424
19413
19357
19412
19393
19364
19356
19335
19308
19294
19279
19291
19291
19267
19252
19224
19244
19219
19243
19269
19264
19284
19311
19302
19295
19321
19367
19380
19399
19413
19424
19444
19461
19527
19504
19540
19566
19604
19640
19639
19641
19696
19759
19802
19798
19885
19915
19944
20001
20063
20107
20134
20204
20257
20275
20308
20330
20355
20348
20318
20372
20359
20334
20313
20311
20301
20274
20279
20252
20245
20240
20221
20186
20197
20165
20174
20148
20125
20118
20127
20078
20078
20053
20066
20028
19985
20011
20000
19947
19957
19927
19922
19913
19916
19908
19901
19884
19862
19874
19863
19833
19815
19832
19773
19805
19770
19764
19757
19754
19753
19743
19651
19722
19694
19711
19667
19660
19658
19657
19621
19615
19635
19575
19603
19611
19597
19581
19580
19584
19570
19564
19595
19575
19555
19544
19556
19562
19584
19538
19542
19539
19485
19478
19513
19486
19466
19465
19421
19419
19402
19402
19420
19365
19367
19361
19361
19354
19375
19374
19355
19329
19387
19432
19434
19404
19456
19455
19475
19461
19483
19545
19504
19530
19550
19573
19597
19611
19634
19659
19685
19735
19772
19779
19835
19839
19889
19931
19968
20016
20078
20063
20158
20178
20202
20198
20229
20218
20212
20210
20216
20206
20208
20200
20180
20162
20152
20146
20158
20166
20091
20128
20112
20078
20092
20088
20101
20052
20045
20042
20066
20016
19998
20036
19969
19957
19960
19967
19954
19944
19928
19927
19899
19911
19921
19906
19874
19871
19861
19841
19839
19834
19847
19812
19788
19788
19811
19770
19783
19761
19728
19721
19733
19719
19712
19674
19692
19708
19695
19669
19674
19678
19634
19669
19649
19645
19614
19598
19602
19661
19610
19600
19632
19615
19603
19590
19599
19592
19582
19561
19570
19566
19544
19537
19562
19479
19487
19499
19454
19423
19429
19437
19432
19436
19429
19417
19415
19392
19420
19453
19405
19438
19455
19458
19458
19488
19525
19528
19527
19561
19620
19614
19628
19663
19672
19669
19704
19745
19788
19787
19837
19876
19880
19914
19968
19997
20073
20089
20178
20185
20218
20245
20271
20295
20297
20297
20321
20307
20273
20294
20266
20253
20264
20234
20265
20219
20255
20199
20212
20185
20165
20171
20152
20129
20134
20114
20119
20077
20115
20098
20069
20082
20075
20082
20048
20036
20035
20024
20010
20036
20028
19994
19969
19994
19995
19974
19941
19937
19952
19879
19868
19930
19893
19876
19910
19854
19836
19839
19789
19812
19809
19790
19788
19800
19773
19762
19787
19780
19729
19776
19747
19780
19711
19710
19764
19718
19695
19765
19740
19711
19715
19711
19722
19715
19692
19715
19704
19692
19680
19653
19627
19629
19640
19633
19617
19624
19581
19570
19557
19518
19524
19557
19499
19513
19537
19544
19509
19529
19540
19536
19535
19574
19592
19575
19641
19620
19653
19654
19649
19682
19733
19703
19765
19769
19773
19805
19841
19877
19921
19937
19987
20022
20075
20109
20126
20215
20214
20306
20341
20414
20429
20454
20497
20471
20451
20499
20496
20461
20455
20444
20467
20445
20405
20427
20407
20367
20406
20383
20343
20377
20333
20357
20326
20305
20291
20295
20255
20274
20281
20252
20243
20256
20251
20219
20196
20205
20189
20141
20168
20197
20137
20105
20122
20129
20083
20075
20073
20077
20026
20026
20003
20055
19987
19968
20008
19971
19963
19929
19954
19943
19893
19927
19881
19888
19868
19860
19861
19870
19832
19830
19841
19841
19842
19824
19827
19773
19768
19814
19806
19816
19809
19798
19783
19803
19821
19793
19767
19765
19775
19771
19743
19741
19743
19713
19706
19694
19682
19688
19640
19621
19653
19632
19618
19635
19639
19616
19620
19654
19676
19637
19641
19692
19695
19714
19717
19745
19727
19742
19777
19792
19802
19822
19871
19897
19880
19931
19992
19980
20013
20032
20091
20139
20190
20200
20275
20316
20349
20428
20499
20502
20545
20571
20585
20595
20581
20647
20609
20609
20595
20572
20563
20545
20558
20578
20548
20525
20526
20520
20511
20506
20498
20493
20452
20443
20435
20430
20424
20395
20420
20376
20406
20392
20361
20329
20349
20385
20336
20330
20303
20335
20304
20260
20259
20254
20231
20222
20248
20170
20194
20186
20193
20123
20139
20148
20144
20122
20114
20105
20112
20046
20072
20049
20088
20043
20038
20039
19994
20002
20008
19992
20000
19993
20000
19984
19982
19967
19982
20010
19951
19955
19967
19948
19947
19974
19972
19967
19954
19936
19964
19946
19891
19903
19910
19872
19880
19872
19856
19811
19802
19841
19787
19771
19763
19786
19789
19776
19800
19773
19801
19789
19816
19847
19825
19877
19857
19863
19903
19904
19913
19945
19955
19967
19998
20023
20051
20020
20101
20103
20152
20214
20235
20246
20328
20373
20411
20474
20493
20561
20613
20625
20685
20725
20692
20731
20748
20721
20685
20713
20674
20719
20675
20691
20661
20618
20633
20636
20605
20571
20564
20564
20578
20535
20519
20538
20512
20478
20498
20471
20458
20455
20433
20461
20424
20433
20426
20408
20373
20397
20401
20386
20327
20352
20330
20348
20330
20364
20297
20331
20294
20273
20278
20257
20272
20254
20202
20244
20248
20215
20221
20200
20161
20193
20185
20153
20159
20109
20141
20144
20138
20141
20081
20102
20098
20104
20069
20071
20088
20044
20065
20068
20061
20022
20060
20062
20066
20017
20052
20057
20061
20021
20023
20035
20019
19984
19960
19958
19931
19945
19931
19912
19865
19869
19846
19861
19863
19870
19839
19841
19869
19883
19904
19877
19906
19907
19905
19918
19921
19947
19969
19981
20015
20023
20033
20052
20064
20141
20149
20171
20224
20245
20261
20338
20392
20432
20483
20567
20632
20666
20720
20764
20802
20837
20851
20844
20866
20815
20848
20819
20790
20764
20758
20775
20738
20718
20732
20710
20666
20690
20661
20658
20641
20597
20641
20587
20573
20570
20558
20570
20529
20548
20551
20516
20517
20477
20486
20487
20438
20456
20440
20392
20413
20381
20344
20330
20337
20312
20296
20290
20276
20267
20264
20244
20243
20223
20207
20166
20195
20190
20138
20148
20172
20147
20131
20114
20107
20077
20092
20077
20086
20040
20048
20046
20034
20010
20022
20035
20040
20005
20010
20016
20003
19986
19972
19976
19989
19967
19957
19974
19919
19974
19966
19935
19923
19939
19929
19895
19873
19856
19848
19867
19843
19823
19836
19819
19838
19835
19821
19838
19844
19885
19887
19868
19878
19891
19909
19935
19938
19980
19972
19978
19997
20046
20003
20078
20109
20062
20120
20171
20185
20240
20262
20301
20371
20383
20445
20501
20583
20638
20720
20781
20821
20867
20942
20966
20956
20945
20940
20939
20958
20952
20942
20921
20871
20896
20871
20851
20801
20835
20835
20818
20782
20782
20755
20753
20678
20673
20696
20652
20676
20670
20654
20611
20629
20629
20601
20590
20589
20570
20533
20530
20540
20519
20503
20500
20502
20509
20451
20436
20467
20464
20418
20429
20408
20397
20413
20375
20364
20345
20356
20355
20336
20310
20314
20300
20292
20278
20268
20215
20228
20206
20182
20214
20167
20176
20176
20157
20098
20121
20122
20094
20085
20069
20039
20056
20030
20024
20005
19991
19988
20004
19942
19927
19930
19927
19925
19896
19909
19899
19884
19862
19883
19849
19856
19834
19818
19819
19822
19840
19838
19826
19822
19861
19888
19880
19865
19952
19896
19935
19954
19970
19973
19975
19996
20026
20051
20042
20074
20125
20167
20173
20208
20259
20278
20310
20366
20410
20427
20521
20564
20631
20684
20773
20812
20878
20867
20900
20944
20897
20920
20913
20902
20882
20885
20872
20853
20805
20811
20774
20790
20756
20748
20773
20732
20727
20739
20712
20703
20696
20664
20670
20683
20666
20625
20642
20589
20579
20616
20565
20601
20603
20568
20556
20552
20549
20526
20537
20502
20539
20494
20459
20447
20443
20442
20408
20416
20405
20373
20361
20399
20356
20318
20352
20348
20326
20332
20310
20307
20288
20263
20256
20260
20239
20220
20232
20237
20206
20187
20216
20217
20202
20183
20178
20162
20140
20155
20148
20161
20143
20126
20140
20120
20115
20112
20093
20112
20116
20119
20085
20077
20103
20055
20054
20053
20017
20050
19996
19990
19972
19994
19986
19993
19979
19963
19967
19976
20010
19995
19996
20018
20043
20037
20030
20055
20098
20081
20114
20117
20165
20160
20185
20166
20246
20231
20287
20335
20346
20418
20445
20510
20571
20629
20689
20786
20844
20907
20975
20999
21012
21051
21078
21067
21047
21045
21027
21026
21026
20981
21008
20953
20945
20949
20910
20891
20877
20877
20881
20860
20864
20838
20835
20779
20812
20813
20767
20788
20775
20775
20759
20808
20764
20747
20729
20745
20743
20705
20759
20734
20700
20705
20696
20707
20713
20648
20637
20666
20648
20616
20620
20588
20592
20595
20574
20575
20554
20531
20553
20546
20497
20491
20497
20491
20447
20451
20468
20425
20405
20391
20398
20405
20390
20402
20415
20338
20368
20398
20363
20328
20347
20348
20359
20362
20323
20376
20319
20306
20324
20307
20290
20280
20271
20283
20270
20252
20244
20209
20210
20202
20167
20147
20124
20130
20118
20118
20118
20118
20098
20053
20114
20124
20095
20121
20108
20144
20116
20120
20162
20198
20211
20227
20231
20281
20251
20289
20350
20337
20382
20411
20477
20496
20530
20604
20679
20763
20842
20941
21027
21067
21143
21253
21216
21229
21294
21293
21270
21278
21271
21245
21237
21216
21207
21202
21165
21145
21132
21115
21097
21098
21092
21063
21072
21040
21019
20988
20969
20977
20947
20946
20890
20876
20873
20855
20877
20837
20846
20795
20821
20854
20774
20768
20791
20754
20735
20736
20722
20736
20695
20683
20676
20645
20623
20600
20617
20599
20565
20548
20548
20531
20528
20501
20474
20441
20464
20437
20433
20396
20407
20409
20330
20350
20330
20336
20308
20288
20296
20320
20285
20256
20284
20248
20265
20244
20243
20252
20217
20213
20233
20200
20169
20161
20193
20169
20166
20152
20156
20127
20110
20121
20115
20082
20080
20068
20057
20026
20005
20031
20018
19990
20018
19987
19989
19996
20014
19999
19976
20004
20002
20037
20016
20052
20062
20071
20090
20100
20142
20136
20177
20218
20205
20221
20291
20293
20314
20324
20386
20434
20486
20535
20620
20714
20784
20877
20955
21019
21097
21172
21208
21252
21229
21240
21270
21215
21213
21198
21188
21153
21161
21178
21114
21086
21052
21049
21049
21003
21008
20979
20906
20907
20879
20877
20868
20842
20811
20792
20769
20766
20718
20725
20680
20701
20708
20674
20668
20646
20660
20618
20608
20621
20590
20538
20532
20533
20523
20510
20466
20490
20459
20454
20442
20463
20409
20376
20402
20391
20381
20370
20345
20318
20306
20309
20306
20314
20284
20253
20247
20273
20223
20192
20231
20211
20199
20159
20196
20161
20136
20150
20170
20117
20145
20135
20090
20121
20093
20089
20081
20098
20030
20092
20059
20044
20053
20027
20007
19994
20028
20002
19972
19977
19950
19921
19929
19898
19900
19884
19911
19881
19897
19862
19900
19903
19884
19903
19929
19971
19948
19958
19982
20007
19956
20018
20078
20094
20111
20133
20163
20176
20193
20266
20303
20309
20346
20413
20467
20506
20577
20643
20755
20831
20954
21065
21126
21168
21244
21260
21295
21314
21283
21269
21271
21244
21269
21230
21202
21170
21154
21171
21114
21123
21103
21077
21062
21052
21051
21014
21007
20978
20948
20956
20917
20931
20908
20858
20901
20888
20855
20856
20831
20854
20809
20804
20780
20793
20770
20768
20758
20740
20686
20697
20719
20681
20640
20645
20638
20641
20629
20615
20603
20573
20565
20531
20528
20499
20493
20495
20483
20435
20447
20412
20398
20417
20385
20392
20341
20352
20304
20313
20305
20270
20300
20271
20252
20237
20227
20168
20202
20242
20222
20208
20170
20185
20207
20173
20161
20172
20131
20127
20125
20126
20125
20106
20112
20075
20066
20032
20025
20005
19998
19980
19959
19940
19917
19934
19911
19908
19869
19905
19950
19894
19919
19936
19941
19945
19973
19954
19994
19992
19988
20039
20053
20037
20077
20116
20112
20131
20165
20232
20254
20269
20314
20360
20416
20465
20503
20588
20650
20775
20864
20944
20972
21077
21087
21115
21108
21152
21096
21105
21118
21119
21057
21037
21056
21064
21022
20990
20979
20996
20943
20926
20914
20906
20876
20878
20856
20819
20768
20793
20782
20793
20758
20752
20737
20697
20686
20694
20674
20629
20641
20645
20641
20611
20602
20605
20586
20542
20591
20550
20536
20541
20541
20520
20470
20488
20462
20485
20458
20407
20450
20433
20375
20387
20376
20336
20342
20343
20334
20295
20315
20268
20265
20233
20231
20243
20224
20185
20196
20204
20169
20165
20164
20196
20133
20136
20145
20123
20115
20118
20089
20129
20091
20103
20069
20067
20092
20070
20059
20042
20022
19997
20010
19989
20001
19987
19986
19919
19886
19914
19891
19873
19888
19879
19864
19850
19867
19887
19877
19889
19887
19911
19897
19929
19940
19988
19943
19976
20009
20044
20017
20086
20083
20115
20145
20186
20212
20218
20273
20336
20382
20411
20496
20543
20609
20700
20811
20924
21011
21052
21131
21190
21180
21210
21245
21226
21230
21211
21245
21198
21164
21157
21162
21102
21104
21087
21095
21040
21035
21008
21000
20961
20949
20973
20956
20892
20924
20883
20863
20856
20830
20852
20795
20788
20792
20761
20736
20737
20719
20703
20646
20653
20700
20642
20593
20618
20589
20563
20571
20538
20515
20498
20480
20483
20471
20410
20412
20423
20387
20364
20347
20351
20326
20303
20301
20253
20232
20228
20263
20200
20206
20176
20167
20148
20117
20164
20121
20132
20117
20103
20109
20028
20059
20059
20051
20058
20030
20053
20039
19993
20042
19996
20007
20000
19980
19987
19948
19977
19974
19947
19882
19902
19883
19893
19843
19836
19847
19819
19781
19785
19779
19736
19756
19775
19777
19788
19780
19809
19821
19820
19831
19875
19909
19863
19935
19947
19948
19997
20025
20073
20062
20082
20113
20161
20170
20211
20246
20307
20311
20423
20420
20515
20561
20651
20756
20838
20935
21041
21122
21144
21194
21259
21222
21204
21222
21241
21234
21186
21168
21168
21151
21141
21129
21116
21049
21048
21064
21023
21008
20990
20992
20937
20910
20928
20908
20891
20839
20844
20863
20806
20807
20806
20795
20745
20763
20753
20730
20714
20725
20691
20683
20657
20654
20668
20594
20592
20612
20556
20529
20549
20519
20486
20456
20478
20426
20451
20404
20383
20401
20330
20341
20331
20346
20303
20268
20308
20268
20228
20226
20221
20190
20180
20158
20164
20149
20134
20151
20135
20093
20072
20105
20079
20030
20051
20088
20053
20059
20033
20043
20035
20030
19999
19982
19952
19959
19989
19975
19927
19928
19911
19882
19875
19864
19863
19822
19796
19820
19817
19776
19782
19810
19794
19775
19807
19853
19815
19843
19869
19881
19893
19919
19907
19939
19927
20031
19971
20055
20047
20062
20128
20144
20150
20208
20248
20298
20327
20383
20455
20488
20527
20578
20664
20760
20851
20956
21030
21096
21185
21220
21270
21216
21214
21237
21193
21190
21212
21205
21146
21151
21106
21089
21085
21066
21082
21038
21005
21020
21003
20935
20957
20929
20920
20903
20874
20875
20854
20841
20809
20806
20815
20767
20746
20777
20750
20719
20713
20733
20665
20657
20652
20657
20629
20610
20594
20578
20539
20561
20536
20508
20473
20480
20472
20429
20429
20426
20422
20372
20365
20347
20324
20271
20295
20294
20233
20244
20220
20198
20202
20193
20208
20185
20139
20140
20136
20153
20144
20117
20112
20116
20078
20070
20080
20093
20069
20077
20069
20030
20044
20028
20029
19994
19996
19992
19970
19929
19934
19927
19905
19879
19877
19852
19827
19833
19829
19820
19831
19841
19844
19832
19823
19853
19869
19871
19901
19913
19931
19968
19975
20010
20021
20042
20037
20089
20112
20126
20168
20189
20224
20271
20311
20383
20389
20437
20499
20546
20583
20705
20770
20852
20918
20999
21040
21107
21075
21118
21120
21100
21134
21092
21109
21054
21072
21023
21013
20964
20961
20991
20937
20867
20904
20906
20871
20837
20833
20830
20794
20771
20798
20758
20732
20708
20706
20672
20665
20662
20666
20621
20627
20622
20630
20597
20577
20587
20565
20562
20537
20548
20536
20521
20535
20513
20503
20473
20481
20474
20439
20454
20435
20390
20381
20351
20363
20363
20338
20293
20273
20307
20281
20274
20258
20257
20196
20232
20243
20233
20210
20237
20196
20185
20190
20185
20204
20143
20183
20197
20179
20171
20190
20182
20130
20150
20134
20126
20096
20112
20110
20079
20054
20040
20044
20046
19982
19968
20015
19973
19963
19967
19994
19947
19963
19971
19977
19987
19967
20013
20019
20024
20072
20073
20098
20091
20134
20171
20183
20205
20232
20248
20286
20324
20352
20415
20425
20494
20547
20575
20642
20708
20757
20878
21004
21094
21203
21228
21300
21363
21375
21376
21361
21393
21378
21360
21344
21301
21274
21293
21287
21257
21214
21201
21163
21163
21097
21112
21107
21060
21051
21028
21038
20995
20960
20963
20942
20900
20874
20826
20857
20805
20806
20792
20782
20725
20748
20708
20683
20686
20679
20648
20617
20604
20622
20568
20558
20554
20539
20503
20468
20474
20478
20432
20421
20434
20434
20407
20376
20385
20364
20312
20305
20346
20287
20283
20275
20267
20250
20248
20259
20267
20233
20207
20205
20182
20158
20166
20158
20180
20135
20149
20133
20097
20104
20124
20105
20081
20095
20076
20045
20027
20039
20019
20017
19950
19949
19959
19947
19912
19909
19906
19934
19881
19913
19896
19890
19897
19907
19923
19930
19929
19948
19979
19963
19969
20047
20046
20058
20090
20122
20153
20186
20207
20219
20214
20246
20303
20320
20349
20397
20447
20471
20500
20562
20645
20673
20750
20788
20870
20943
20983
21052
21055
21039
21099
21096
21082
21078
21068
21048
21057
21006
21005
20996
20950
20944
20917
20913
20897
20882
20894
20868
20808
20818
20822
20774
20766
20803
20734
20718
20706
20710
20697
20678
20664
20665
20613
20618
20616
20597
20598
20589
20559
20543
20508
20519
20508
20475
20418
20419
20456
20436
20387
20404
20379
20360
20367
20358
20349
20355
20325
20315
20322
20302
20344
20339
20267
20259
20301
20289
20265
20226
20228
20240
20224
20218
20197
20215
20207
20208
20165
20214
20208
20208
20180
20213
20150
20167
20170
20146
20121
20155
20146
20093
20098
20121
20074
20051
20020
20053
20041
20013
20012
20021
20003
20028
20003
20013
19985
20032
20022
20075
20051
20074
20076
20144
20128
20155
20164
20213
20209
20245
20276
20274
20321
20400
20430
20446
20461
20535
20551
20611
20669
20739
20768
20809
20852
20933
21003
21054
21138
21184
21205
21202
21227
21257
21243
21226
21240
21243
21216
21205
21184
21196
21189
21163
21174
21155
21148
21145
21098
21095
21064
21097
21076
21013
21045
21010
20987
20947
20961
20920
20933
20875
20897
20875
20857
20847
20856
20845
20805
20832
20826
20812
20772
20771
20772
20746
20720
20703
20724
20669
20683
20657
20649
20602
20628
20608
20604
20571
20575
20570
20561
20543
20525
20521
20497
20464
20491
20452
20472
20450
20447
20442
20436
20446
20449
20447
20475
20452
20440
20457
20479
20449
20459
20437
20432
20467
20450
20410
20434
20414
20431
20412
20389
20363
20385
20363
20359
20370
20358
20326
20355
20367
20336
20347
20351
20319
20352
20360
20366
20393
20418
20425
20435
20459
20483
20521
20542
20530
20586
20654
20685
20726
20761
20847
20856
20929
20983
21074
21154
21232
21360
21414
21525
21580
21672
21654
21718
21723
21765
21767
21759
21784
21773
21739
21707
21703
21737
21684
21659
21642
21619
21583
21594
21581
21590
21545
21500
21500
21517
21481
21437
21440
21423
21389
21380
21369
21315
21314
21288
21270
21216
21211
21243
21199
21174
21173
21148
21147
21135
21097
21112
21096
21082
21066
21069
21016
21036
21004
20981
20970
20966
20951
20918
20920
20902
20908
20852
20833
20828
20833
20786
20807
20816
20817
20822
20771
20783
20778
20752
20733
20702
20656
20639
20593
20540
20521
20482
20438
20441
20382
20412
20388
20357
20365
20373
20363
20360
20324
20342
20320
20331
20312
20312
20308
20282
20291
20281
20271
20266
20276
20277
20244
20249
20230
20232
20246
20229
20259
20275
20247
20243
20312
20282
20287
20291
20300
20355
20340
20394
20411
20418
20448
20488
