31676
31888
31888
31797
31835
31618
31804
31747
31764
31662
31526
31756
31742
31899
31683
31552
31739
31391
31827
32159
31777
31728
31842
31929
32111
31827
32124
32014
32225
31986
32378
32000
31762
31916
32338
32109
32096
32345
32432
32141
31810
32123
32401
32174
32323
32212
32140
31925
32143
32525
32241
32336
32354
32333
32137
32319
32372
32449
32081
32185
32406
32345
32082
32385
32403
32399
32076
32311
32440
32661
32634
32547
32479
32523
32253
32790
32692
32595
32558
32821
32614
32345
32904
32796
32627
32910
32692
33120
32538
32697
32885
32989
32535
32737
33297
33059
33032
32810
32874
33109
33121
32899
33172
33271
33027
33048
33137
32727
33057
33125
33228
33124
33150
33079
33291
33164
33036
33284
33380
33161
33093
33281
32875
33084
33162
33357
33169
33130
33311
33487
32957
33360
33468
33009
33027
33501
33304
33380
33361
33143
33217
33543
33428
33645
33305
33314
33395
33159
33174
32736
33025
33149
33042
32576
32861
32918
32641
32329
32448
32379
32237
31976
32005
31812
31663
31810
31831
31854
31508
31678
31689
31235
31544
31436
31715
31529
31626
31560
31313
31374
31587
31408
31481
31186
31582
31429
31104
31290
31401
31269
31370
31506
31575
31421
31143
31424
31641
31478
31422
31483
31588
31324
31739
31594
31690
31522
31798
31747
31687
31821
31962
31858
31794
31699
31766
32097
31566
31981
32125
32204
32056
32041
32072
31879
32057
32015
32282
32035
32030
32150
32028
31714
32012
32242
32123
32018
32217
31902
32148
32140
31973
31908
31867
31883
32182
32095
32171
31853
32237
32187
31675
31912
32159
31975
32082
32033
31897
31891
32161
32401
32152
31932
32002
32153
32092
32015
32359
32142
32442
32261
32354
32434
31975
32098
32645
32511
32514
32263
32534
32311
32162
32596
32407
32724
32533
32497
32732
32717
32824
32708
32998
32532
32741
32860
33134
32510
33017
32864
32918
32685
33222
33119
33245
33079
32895
33131
32839
33037
33340
33263
33039
33245
33198
33068
32891
33256
33290
33206
33141
32947
33111
32818
32882
33003
33278
32575
33035
33030
32869
32566
32466
32602
32442
32392
32556
32125
32018
31791
31976
31686
31829
31604
31457
31792
31170
31643
31256
31547
31135
31602
31367
31304
31230
31528
31384
30850
31315
31091
31425
31039
31290
31270
31052
31023
31309
31063
31225
31097
31336
31011
30876
31022
31020
31373
30912
31130
31455
31193
31108
31633
31320
31336
31352
31557
31653
31160
31232
31749
31597
31159
31334
31603
31716
31264
31699
31621
31403
31373
31479
31791
31315
31662
31903
31528
31420
31516
31732
31829
31517
31636
31798
31970
31647
31781
31885
31511
31794
32028
31899
31708
31978
31932
31899
31878
31923
32099
31736
31904
31788
32020
31951
31869
32056
32221
31780
32237
32181
32122
32030
31983
32206
31983
31929
32444
32168
32036
32206
32301
32443
32352
32042
32483
32128
31878
32332
32173
32491
32098
32467
32481
32027
32346
32340
32589
32068
32555
32367
32439
32616
32558
32439
32229
32445
32853
32626
32311
32511
32556
32680
32635
32438
32591
32564
32516
32838
32707
32637
32610
32937
32794
32499
32681
32700
32743
32668
32703
32564
32819
32252
32690
32416
32749
32593
32695
32608
32087
32340
32382
31944
31755
31982
32008
31513
31787
31550
31367
31581
31351
31309
31271
31445
31126
31289
31253
30934
31071
31101
31074
30919
30917
30939
30861
30831
31087
30959
31063
30758
30985
30989
30916
30938
30795
30879
30431
30788
30685
30815
30525
30896
31202
30754
31161
30979
31316
31089
31032
31190
31356
30743
31358
30960
31018
31254
31239
31324
31164
31055
31298
31399
30924
31267
31309
31472
31182
31414
31495
31435
31244
31424
31524
31531
31063
31303
31613
31095
31576
31337
31720
31144
31411
31369
31608
31280
31832
31925
31522
31346
31520
31674
31434
31504
32034
31930
31683
31621
31694
31944
31563
32026
32002
31572
31850
32041
31999
31565
31787
32084
32067
31622
32110
31774
31790
31549
32097
32170
32129
31883
32240
32129
31977
31992
32383
32070
31905
31968
32136
32019
32187
32059
32366
32398
32041
32287
32397
32388
32041
32253
32153
32021
32115
32591
32530
32045
32323
32331
32378
32396
32409
32385
32322
32159
32522
32457
32471
32504
32455
32771
32343
32447
32732
32665
32380
32747
32740
32280
32523
32769
32674
32480
32472
32531
32539
32407
32476
32415
32258
32099
32261
32048
31593
31823
32064
31854
31724
31534
31690
31642
30969
31333
31089
31018
30756
31001
31184
31078
30988
30887
31224
30770
30695
30885
30733
30557
31003
30981
30722
30579
31044
31014
30558
30748
30691
30789
30647
30765
30608
30751
30693
30753
30739
31027
31017
31154
30914
31174
30884
30948
31106
31107
31005
31225
31151
31282
31114
31387
31295
30898
31339
31356
31198
31354
31660
31381
31533
31179
31721
31668
31111
31332
31802
31684
31557
31554
31770
31334
31426
31567
31479
31424
31319
31555
31599
31813
31705
31897
31601
31630
31832
31827
31838
31666
31841
31998
31778
31850
32200
32006
31967
31996
32173
31859
31775
32188
32245
32217
31781
31952
32337
31739
32173
32044
32325
32116
32175
32473
32076
32279
32362
32306
32305
32230
32363
32106
32006
32015
32590
32600
32218
32209
32724
32659
31983
32303
32793
32299
32221
32801
32599
32208
32306
32896
32522
32241
32402
32453
32802
32622
32709
32694
32471
32565
32730
32637
32361
32533
32522
32632
32408
32615
33094
32821
32544
32931
33116
32647
32587
32984
32823
32615
32656
32720
33096
33048
32985
33114
32977
32617
32668
32492
32820
32309
32559
32269
32447
32102
32003
32231
31638
31772
31626
31608
31728
31706
31632
31330
31084
31219
31448
31357
31141
31327
31223
30754
31060
31313
31176
30854
31251
31316
31140
30716
30899
30871
30886
30859
31135
31234
30897
30679
31077
31265
30926
31121
31400
31323
30831
31241
30999
31124
31215
31477
31396
31428
31363
31550
31383
31315
31408
31452
31504
31298
31478
31685
31616
31434
31638
31696
31315
31515
32021
31489
31296
31748
31744
31629
31682
31484
31684
31463
31529
32045
31776
31531
31686
31920
31704
31526
31744
32259
32122
31682
32168
32301
31873
31653
31898
32198
31899
32207
32378
31980
31922
31899
32312
32312
32071
32208
32374
32040
31951
32515
32320
32093
32155
32145
32478
32212
32348
32357
32262
32090
32502
32600
32461
32291
32525
32607
32142
32427
32771
32647
32102
32539
32523
32810
32458
32632
32550
32628
32685
32731
32827
32693
32623
32984
33054
32915
32619
33242
32964
32953
32854
32977
33060
32805
33124
33103
32780
32833
32994
33171
32755
32975
33207
33232
32956
33131
33247
33171
32981
33142
33352
32956
32987
33204
33024
32702
32756
33233
32798
32796
32917
32686
32848
32402
32462
32462
32113
32265
32004
32032
32105
31695
31595
31704
31745
31518
31818
31579
31456
31422
31752
31122
31181
31728
31584
31029
31475
31667
31325
31320
31148
31625
31523
31245
31477
31361
30968
31152
31346
31393
30971
31357
31803
31503
31058
31384
31601
31607
31329
31452
31790
31378
31587
31526
31759
31553
31655
31613
31982
31448
31722
31854
31891
31874
31964
31974
31742
31681
31796
31829
31688
31907
31926
32131
31879
31999
31917
32198
31683
32051
32221
32106
31994
32282
32219
32007
32074
32173
32254
32361
32242
32445
32391
32198
32417
32496
32405
32265
32448
32551
32528
32368
32799
32628
32351
32506
32934
32848
32503
32712
33028
32853
32637
32957
32766
32476
32884
32954
33016
32705
32749
32780
33158
32932
32814
33229
32877
32909
33092
33252
33071
32879
32923
33235
32744
33145
33455
33016
32987
33022
33098
33026
32994
33480
33428
33116
33167
33148
33388
32951
33236
33328
33522
32906
33358
33315
33459
33407
33589
33343
33518
33246
33524
33605
33150
33366
33642
33576
33285
33349
33758
33632
33529
33518
33796
33644
33076
33498
33565
33228
32911
33369
32994
32938
33129
33089
32691
32577
32693
32865
32239
32278
32494
32412
31935
32121
32397
32075
31848
31797
31965
31823
31489
31707
31777
31647
31518
31591
31685
31728
31459
31518
31482
31542
31381
31748
31358
31095
31357
31414
31649
31494
31809
31882
31737
31362
31961
31663
31788
31468
31939
31586
31737
31912
31652
31669
31755
32134
32014
31957
31713
32039
31886
31759
31783
31772
31979
31750
31893
32095
31971
31823
32257
32148
31740
32062
32086
32028
32174
32041
32097
32093
31749
32362
32325
32267
32182
32491
32341
32332
32025
32352
32352
31894
32242
32171
32172
31980
32349
32743
32491
32310
32313
32661
32096
32487
32685
32680
32543
32634
32367
32542
32655
32417
32666
32780
32699
32766
32843
32624
32422
32889
32729
32308
32540
32994
32804
32662
32652
32800
32934
32580
32646
32730
32812
32670
32636
32967
32463
32831
33154
33052
32969
33007
33188
32697
32857
33171
33071
32680
33031
32971
32886
33100
32989
32772
33153
32836
33033
33266
32836
33039
32954
33225
32805
33038
33045
33187
32910
33046
33190
32910
32537
32901
32659
32836
32458
32513
32660
32345
32193
32263
32338
32267
31936
32272
32007
31727
31613
32054
31448
31321
31476
31533
31529
31396
31711
31419
31407
31562
31589
31586
31310
31504
31461
31439
31513
31595
31312
31230
31062
31658
31460
31379
31283
31580
31548
31239
31399
31624
31563
31458
31604
31696
31713
31523
31808
31789
31732
31684
32030
31844
31495
31797
31727
31975
31520
31743
32083
32121
31704
32019
32097
32096
32073
32062
32015
31890
31783
32359
31913
31862
32149
32106
31990
32205
32388
32442
31913
32187
32461
32200
32009
32113
32597
32386
32145
32135
32512
32401
32371
32329
32498
32683
32082
32372
32509
32580
32480
32850
32543
32379
32624
32725
32563
32341
32499
32800
32823
32511
32813
32664
32781
32480
32908
32499
32718
32590
32537
32901
32764
32807
32870
32557
32784
33109
32753
32587
32658
32659
33120
32531
32754
32694
33087
32865
32799
33138
32964
32569
33013
33025
33025
32827
32954
32998
32775
32932
33263
32915
33117
32946
33023
33204
32850
33368
33290
32898
33226
33396
33052
32986
33187
33291
33081
32966
33058
33318
33009
32876
33059
32865
32583
32809
32588
32717
32574
32353
32746
32421
32228
32172
32213
32087
31745
31876
31828
31326
31474
31689
31598
31299
31490
31608
31496
31331
31475
31593
31462
31114
31566
31581
31007
31141
31504
31292
30967
31293
31502
31113
31149
31316
31351
31179
31288
31435
31454
31392
31274
31509
31504
31086
31408
31682
31547
31759
31800
31747
31689
31767
31828
31925
31735
31604
32000
31857
31455
31821
32124
31722
31598
31906
32028
31892
31490
31965
32345
31798
31681
32090
31982
31934
32119
32248
32031
31718
32039
32321
32394
32252
32402
32393
32184
32268
32579
32392
32369
32227
32408
32530
32129
32487
32648
32653
32228
32609
32560
32524
32563
32959
32624
32482
32419
32644
32505
32580
32487
33023
32979
32517
32772
32703
32821
32524
32993
33004
32427
32776
32732
32935
32493
32913
33369
32962
33010
33182
33033
32814
32782
33129
33242
33172
33006
33478
33034
32902
32911
32906
32944
32717
32967
33472
32998
32790
33523
33307
33165
33049
33117
33156
33311
33056
33201
33400
33117
33255
33170
33487
33349
33413
33179
33324
33003
33499
33374
32996
32967
33359
33061
32326
32724
32938
32536
32304
32419
32488
32050
32047
32521
32125
32077
32029
31765
32076
31546
31539
31596
31412
31347
31444
31436
30975
31053
31155
31432
31357
31143
31140
31190
31053
31087
31349
31095
30893
31073
31260
31122
30947
31012
31208
31055
31114
31564
31300
31051
31345
31342
31464
31309
31575
31556
31444
31361
31720
31648
31178
31628
31398
31658
31508
31584
31604
31494
31331
31684
31592
31557
31330
31771
31733
31796
31804
31916
31707
31621
31887
31921
31785
31813
32090
31991
31940
31776
32212
32359
31900
31827
32256
32129
32228
32279
32220
32187
32184
32039
32241
32071
31943
32126
32379
32414
32252
32201
32342
32084
32348
32238
32361
32085
32392
32303
32520
32312
32258
32658
32566
32267
32724
32484
32473
32484
32578
32454
32582
32396
32518
32787
32342
32571
32882
32781
32703
32585
32569
32541
32466
32825
32935
32218
32588
32659
32809
32320
33027
32935
32791
32732
33051
32846
32752
32762
32673
32866
32853
32899
32962
32856
32807
32920
33083
33101
32774
32943
32959
32550
32935
33248
32834
32409
32928
32583
32466
32676
32747
32724
32109
32390
32405
32199
31906
32085
31878
31911
31611
31890
31842
31603
31102
31522
31512
31126
31151
30996
31292
30797
31009
30955
31119
30767
31049
31128
31214
31095
31213
30962
30943
30725
30920
31149
31128
30950
31044
31187
31207
31177
31254
31246
31288
31178
31620
31339
31038
31156
31314
31101
31188
31376
31470
31085
31632
31641
31681
31168
31498
31673
31644
31239
31450
31610
31438
31456
32019
31744
31871
31743
31672
31785
31825
31742
31711
31946
31740
31937
31798
31542
31682
32245
32064
31507
32007
31782
32209
31536
32121
31872
31769
32031
32118
32386
31824
31945
32337
32135
31795
31979
32459
32289
31991
32140
32386
32202
32113
32216
32067
32046
31942
32463
32478
32292
32053
32330
32450
32427
32241
32555
32102
32265
32388
32623
32587
32286
32663
32407
32547
32127
32765
32526
32563
32543
32271
32394
32608
32684
33001
32438
32456
32516
32737
32543
32513
32744
32745
32865
32851
33042
32790
32853
32819
33147
32895
32606
33092
32978
33089
33026
32841
33214
32554
33109
33458
32918
32605
33127
32876
32823
32746
32861
33297
32866
32879
32707
32611
32644
32403
32831
32363
31958
32358
32348
32313
31988
32307
32142
32116
31766
31815
31822
31365
31597
31549
31561
31305
31481
31589
31249
31136
31148
31245
31279
31184
31382
31280
31091
30981
31276
31267
30703
31249
31039
31292
31119
31241
31090
31247
31302
31524
31278
31365
31433
31800
31680
31187
31703
31435
31455
31646
31604
31553
31844
31670
31638
31747
31835
31830
31657
31689
31409
31884
31771
31886
31558
31773
32030
32147
31717
32097
31967
31523
31934
32348
32030
32182
32017
32106
32126
32106
32108
32457
32308
31971
32279
32237
32101
32211
32555
32557
32335
32416
32376
32615
32073
32559
32418
32400
32205
32761
32622
32572
32316
32820
32557
32742
32524
32508
32904
32459
32739
32795
32694
32572
32849
32882
32645
32692
32894
32839
32654
32973
32914
32773
32534
32887
33039
32929
32786
33027
33050
32894
32845
33131
33085
32815
32993
33164
33081
32921
33122
33155
33077
32896
33230
33275
33123
33035
33305
33077
33236
33296
33235
33197
33088
33232
33358
33247
33067
33337
33381
33245
33073
33371
33205
32983
33134
33118
33042
32578
33130
33163
32760
32612
32674
32726
32674
32465
32514
32489
32184
32239
32249
32267
32116
32007
32187
32066
31765
32060
32043
31674
31583
31529
31673
31602
31211
31195
31606
31386
31232
31591
31441
31148
31417
31148
31268
31273
31590
31387
31199
31304
31486
31502
31457
31507
31490
31682
31461
31477
31515
31434
31726
31516
31605
31779
31715
32001
31763
31571
31735
31867
31999
31901
32041
31963
31869
31562
32111
32023
31480
31784
31929
32131
31864
31753
31780
32027
31943
31916
32096
31998
31756
32088
32176
31862
31889
32158
31960
31863
32211
32512
32289
32058
32326
32306
31958
32246
32267
32212
32113
32130
32073
32461
31959
32368
32491
32407
32019
32475
32546
32216
31960
32368
32765
32443
32288
32526
32444
32199
32440
32406
32636
32713
32418
32977
32493
32691
32870
32643
32700
32821
32977
32691
32408
32709
33219
32892
32580
32979
32771
32838
32727
33005
33043
32657
32714
33057
33136
32684
32947
33346
33163
32700
33229
33437
32974
32699
33244
32977
32936
32714
33072
33060
33007
32983
33273
33346
33010
32839
33104
33279
32603
33118
33118
32739
32666
32900
32835
32427
32450
32621
32404
32040
32351
32530
32238
31823
31930
31941
32031
31833
31710
31980
31552
31857
31664
31852
31185
31624
31829
31520
31268
31466
31389
31438
31055
31119
31409
31116
31180
31122
31329
30918
31314
31510
31600
31503
31648
31534
31502
31325
31692
31567
31457
31335
31861
31596
31754
31735
31862
31580
31762
31615
31822
32047
31536
32230
32028
32084
31606
32191
32023
31984
32044
31899
31830
32032
32156
32100
31963
32032
32416
32125
32230
31988
32160
32323
31788
32126
32219
32194
32352
32401
32592
32137
32331
32184
32494
32140
32205
32198
32387
32053
32173
32768
32580
32031
32503
32440
32337
32324
32681
32510
32640
32444
32445
32644
32448
32724
32922
32727
32481
32771
32569
32916
32304
32950
32670
32427
32679
32753
32709
32941
32902
32807
32693
32906
32820
32699
32877
32725
32981
33274
32721
32807
32981
33104
32871
33015
33432
33075
33170
33003
33336
33337
33147
33078
33133
32919
32928
32986
33337
32869
32981
33501
33413
32957
33338
33571
33167
33410
33163
33130
33051
32881
33053
33460
32962
32914
33090
32924
33067
32743
32959
32888
32863
33000
32611
32559
32608
32731
32653
32629
32368
32260
32352
32320
32231
32141
32228
31726
31905
32247
31767
31625
32177
31877
31940
31716
32145
31686
31827
31832
31992
31582
31442
31525
31798
31358
31287
31909
31725
31496
31678
31648
31902
31666
31819
31891
32005
31500
31676
31683
31707
31720
32169
31803
31883
31831
31895
32030
31749
31720
31983
32056
31893
32089
32169
31865
31684
32090
32151
31844
31844
32122
32193
31858
32311
32339
32378
32067
32295
32243
32151
32066
32395
32493
32330
32180
32466
32467
32498
32388
32192
32482
32526
32504
32229
32471
32496
32736
32821
32448
32455
32349
32534
32410
32523
33010
32781
32344
32522
33027
32452
32313
32855
32644
32684
32538
33063
32695
32864
32446
33152
32789
32434
32829
32991
32949
32707
32734
33235
32984
32607
32876
32707
32571
33001
32769
32955
33050
32780
33037
33127
32759
33126
33094
33101
32723
33135
33348
32998
32897
33247
33295
33190
33004
33097
33237
32965
33258
33212
33165
33084
33345
33259
33179
33181
33199
33337
33141
33352
33515
33265
33303
33029
33329
33142
32604
32925
32815
32784
32600
33094
33034
32371
32514
32878
32483
32721
32541
32865
32588
32189
32630
32385
32157
32029
32302
32249
32202
31981
32317
31875
31616
31839
32042
31989
31508
31629
31769
31495
31455
31787
31646
31344
31358
31812
31498
31263
31588
31447
31816
31289
31975
31724
31697
31717
32082
31965
31781
31896
31861
32064
31902
32000
32114
31914
32002
31778
32259
32136
31919
31893
32088
32256
31844
31909
32101
31891
32026
32140
32009
31834
32441
32542
32441
31980
32640
32395
31967
32224
32349
32414
32501
32259
32547
32330
32332
32315
32821
32528
32127
32349
32578
32483
32614
32825
32605
32215
32684
32977
32724
32572
32692
32642
32953
32782
33059
33132
33014
32706
32844
32842
32969
32782
33103
32787
32716
32835
33007
32725
32617
33137
33181
33036
32800
32786
33043
32844
32769
33164
33172
33049
33163
33214
33160
32929
32902
33208
33174
33089
33046
33041
33036
33284
33087
33316
33098
33083
33546
33126
33026
33491
33440
32939
33307
33507
33336
33237
33142
33474
33413
32970
33216
33702
33216
33257
33756
33442
33179
33185
33923
33584
33035
33267
33355
33613
33084
33311
33115
33173
32700
33451
33034
33341
32627
32891
33294
33007
32671
32796
32740
32288
32932
33134
32951
32629
32716
32429
32448
32466
32350
32671
32550
32188
32652
32314
32456
32195
32212
32471
32226
32450
32402
32086
31947
32600
32420
32288
32058
32335
32186
31723
32296
32738
32485
32083
32349
32587
32268
32090
32428
32525
32517
32242
32258
32353
32490
32246
32684
32404
32561
32347
32359
32325
32118
32476
32706
32547
32522
32942
32666
32476
32810
32554
32808
32451
32800
33105
32842
32869
32730
32942
32925
32622
33342
33063
32578
32974
32820
33189
32976
33233
33386
32867
33108
32972
32910
33160
33090
33483
33346
33014
33159
33177
33375
32935
33357
33451
33417
33265
33282
33638
33076
33323
33413
33607
33209
33190
33494
33360
33158
33336
33242
33571
33341
33457
33495
33341
33202
33506
33566
33238
33458
33690
33557
33269
33480
33587
33557
33272
33636
33668
33390
33343
33879
33628
33534
33609
33842
33666
33391
33648
33545
33735
33503
33556
33795
33531
33376
33641
33948
33657
33350
33668
33919
33828
33828
33665
33831
33114
33745
33506
33274
33222
33325
33461
33142
33163
33348
33244
32797
33073
33165
33033
32639
32902
32996
32925
32708
33064
32995
32516
32529
32879
32457
32608
32598
32753
32611
32116
32305
32212
32032
32044
32082
32231
32242
31950
31965
32156
31739
32033
32367
31909
31991
32245
32406
31908
32028
32124
31894
31970
32036
32292
32102
31726
32093
32533
32351
32291
32060
32331
32259
31870
32439
32409
32377
32040
32479
32355
32020
32246
32613
32327
31899
32299
32459
32369
32214
32411
32418
32073
32227
32654
32626
31935
32448
32807
32337
31970
32420
32873
32531
32621
32823
32891
32699
32665
32949
32795
32367
32598
32601
32820
32308
32856
32559
32816
32485
33056
32904
32612
32688
32944
33093
32878
32906
32770
32833
32800
32853
33044
33108
32786
33173
33297
32870
32877
32960
33231
32925
32933
33494
33261
32776
33202
33240
32982
33044
33381
33129
33391
32829
33350
33279
32987
33086
33280
33354
33092
33141
33291
33409
33094
33378
33596
33114
32992
33540
33354
32941
33000
33308
33361
33008
33368
33300
33154
32779
33160
33335
33194
32987
33385
33622
33309
33322
33066
33334
32737
32920
32908
33000
32656
32756
32620
32962
32382
32634
32722
32469
32416
32364
32532
31959
32218
32216
32415
32050
32101
31912
31892
31718
31801
31977
31944
31895
32095
31714
31327
31413
31661
31402
31637
31226
31775
31178
31445
31318
31635
31041
30981
31319
31653
31208
31323
31692
31718
31105
31688
31332
31468
31519
31717
31594
31684
31709
31565
31874
31897
31889
32197
31978
31929
31785
31797
32131
31570
32165
32290
32104
31935
31978
32153
32113
31995
32347
32301
31959
32120
32410
32394
31879
32357
32597
32055
32377
32177
32346
31947
32469
32307
32340
32377
32378
32833
32692
32468
32790
32507
32543
32483
32609
32805
32544
32363
32941
32609
32211
32477
32915
32588
32384
32968
33000
32701
32649
32921
32966
32740
32859
33211
33104
32975
32740
33363
33089
32842
32888
33462
33120
32845
33271
33163
32975
32929
33124
33172
32715
33026
33535
33196
32751
33194
33193
33337
32955
33321
33341
32998
33075
33584
33354
32953
33115
33282
33381
32953
33439
33142
33151
32882
33217
33386
33140
32973
33240
33556
33449
33396
33247
33310
33165
33307
33465
32851
33124
32911
32899
33069
32606
33114
32688
32624
32628
32980
32601
32152
32481
32248
32161
31794
32189
32326
31805
31903
31917
32211
31858
31849
31920
31721
31437
31483
31528
31629
31111
31463
31214
31482
31038
31141
31521
30859
31277
31142
31350
31325
31137
31326
31394
31331
31447
31490
31325
31317
31619
31556
31463
31334
31635
31549
31087
31521
31961
31681
31746
31887
32130
31756
31376
31753
31859
31886
31744
32065
31844
31940
31953
31953
31739
31456
31729
32100
32042
31433
32197
31894
31569
32019
31861
32253
31808
32103
32066
32040
31896
32178
31997
32026
31883
32103
32176
32214
32069
32272
32283
31794
32070
32270
32336
32169
32275
32612
32023
31974
32409
32262
31974
32259
32408
32380
32110
32154
32418
32389
32486
32524
32165
32661
32103
32347
32497
32553
32501
32820
32458
32140
32637
32703
32447
32362
32681
32330
32697
32260
32685
32508
32710
32444
32396
32792
32226
32593
32813
32707
32362
32719
32941
32873
32452
32663
32996
32772
32599
33096
32693
32498
32420
32908
32922
32681
32773
32931
32700
32265
32786
32651
32667
32610
32918
32646
32117
32146
32650
32305
32383
32189
32484
32017
31633
31943
31877
31953
31610
31971
31766
31497
31445
31617
31411
30876
31239
31486
31146
31187
31058
31115
30705
30934
30712
31203
30593
30496
30927
31068
30475
30653
30673
30990
30887
30991
30760
30670
30465
30801
31070
30807
30739
31221
31016
30738
31016
31443
31068
31217
31310
31259
31372
30905
31404
31213
30892
31093
31443
31246
31311
31174
31784
31279
30911
31405
31313
31428
31243
31225
31495
31357
31263
31619
31520
31603
31211
31257
31676
31546
31500
31569
31660
31514
31573
31772
31610
31742
31717
31724
31448
31450
31836
31605
31457
31814
31855
31696
31813
31648
31820
31680
31660
31697
31930
31461
31752
31949
32011
31993
31923
32334
31817
31469
32117
31791
31800
32008
32287
32163
31925
31918
32050
32274
32208
32225
31961
32189
31867
32049
31996
32384
31898
32058
32080
31976
32282
32579
32091
32340
32282
32159
32123
32164
32520
32716
32513
32147
32429
32150
32134
32125
32719
32533
31956
32142
32519
32524
32241
32685
32400
32346
32289
32236
32540
32652
32463
32309
32609
32573
32354
32558
32437
32077
32246
32281
32135
31950
32392
32080
32109
31911
32226
31878
31364
31372
31382
31793
31011
31443
31349
31466
30816
30980
30942
30916
30965
30968
30650
30627
30867
30794
30685
30272
30425
30393
30418
30606
30464
30696
30605
30409
30681
30612
30206
30465
30744
30702
30112
30572
30817
30494
30432
30655
30914
30959
30723
31084
31060
30563
30983
30735
31045
30460
31132
30898
30779
31085
30829
30963
31040
30729
31024
31049
30692
31133
30950
31212
30825
31203
31085
31274
30755
31366
31616
31051
30845
31506
31382
30840
31246
31115
31407
31394
31143
31480
31128
31470
31628
31701
31235
31242
31730
31662
31107
31552
31304
31728
31296
31548
31527
31457
31191
31729
31696
31850
31453
31504
31789
31880
31546
31831
31776
31438
31748
32057
31949
31792
31914
31713
31743
31663
31686
32130
31491
31709
31980
31791
31943
31704
32341
31727
31911
32045
31666
32000
31509
32032
31725
31794
31720
31841
32129
32125
32037
32276
32067
31849
32065
32128
32029
31915
32262
32248
32314
32037
32462
32263
31868
32144
32228
32219
32384
32257
32384
32156
31813
32421
32434
32000
32198
32151
32469
31931
31856
32298
31866
31723
32050
32063
31966
31161
31789
31891
31141
31311
31412
31304
31217
31118
30842
31052
30498
30729
30972
30761
30466
30686
30745
30679
30377
30765
30543
30618
30350
30815
30460
29963
30469
30273
30267
30306
30507
30733
30592
30238
30314
30500
30117
30397
30664
30751
30733
30627
30796
30437
30411
30613
30823
30842
30642
31129
31183
30699
30803
30786
30995
30616
31088
30891
30895
31109
30915
30903
30760
30906
31274
31077
31019
31003
31275
31151
30666
31033
31396
31124
31135
31392
31325
31095
31384
31662
31456
31242
31220
31443
31240
31014
31277
31367
31279
30928
31441
31474
31306
31566
31543
31630
31186
31372
31365
31443
31450
31692
31473
31523
31341
31863
31705
31595
31747
31841
31916
31991
31579
32129
31954
31457
31684
31995
32075
31670
31699
31638
31737
31774
32147
31899
31964
31987
31870
32103
31692
31833
31926
32238
32140
31885
32543
32297
31917
31964
32007
32435
32103
32088
32267
31828
32086
32555
32287
32144
32379
32450
32440
32062
32288
32475
32171
32356
32757
32441
31952
32341
32220
32417
32032
32188
32651
32196
31757
32368
31866
31742
32073
31850
31920
31593
31427
31928
31691
31111
31260
31783
31519
30864
31386
31319
31092
30752
30687
30988
30618
30670
30566
30710
30328
30682
30764
30831
30292
30801
30996
30576
30404
30943
30622
30476
30408
30536
30707
30423
30510
31081
30579
30755
30707
30778
30821
30944
30957
31216
31137
30666
31070
31046
30670
31041
31394
30926
30916
31315
31413
31336
31029
30956
31163
31454
31194
31600
31273
30921
31373
31155
31391
30947
31130
31132
31275
30956
31206
31684
31272
31323
31719
31458
31450
31436
31313
31394
31603
31560
31684
31483
31130
31702
31703
31780
31530
31318
31703
31782
31664
31589
31884
31322
31668
32059
31687
31437
31792
32072
31412
31655
31621
31915
31960
31643
32227
31953
31752
32000
31703
31737
31902
31909
32278
31944
31630
31860
32030
31516
31742
32190
31974
31860
32096
32407
32093
31712
32237
32145
31835
31690
32190
32091
32169
32196
31983
32178
31918
32090
32007
32040
31831
32057
32309
32323
32118
32386
32358
32265
32158
32661
32205
32292
32146
32187
32524
32383
32470
32210
32481
31917
32346
32342
32262
32016
31923
32072
31892
31943
31697
31934
31139
31478
31341
31633
31243
31081
31152
31199
30808
30875
31038
30425
30800
30682
30482
30653
30655
30373
30651
30337
30576
30452
30526
30175
30404
30289
30376
30045
30387
30255
29967
30108
30522
30378
29953
30223
30377
30556
30071
30450
30268
30077
30608
30593
30577
30301
30616
30541
30749
30497
30846
30860
30715
30620
30629
30789
30564
30703
30871
30822
30680
30770
30935
30877
30648
30852
31012
30893
30757
31014
31009
30910
30909
31024
31197
31048
31126
31053
31329
31135
31006
31503
31012
31143
31352
31571
30842
31471
31163
31470
31418
31145
31335
31227
30978
31503
31568
31170
31353
31689
31575
31675
31320
31403
31520
31213
31653
31452
31487
31220
31603
31516
31660
31366
31638
31549
31679
31477
31353
31543
31524
31425
31680
31516
31164
31643
31785
31524
31399
31437
31509
31413
31484
31875
31796
31648
31761
31867
31991
31599
31952
31792
32050
31577
32112
32367
32022
32051
32447
32515
32336
32307
32800
32601
32109
32696
32494
32478
32454
32589
32857
32433
32599
33183
32795
32463
32826
32873
32497
32115
32696
32550
32660
31950
32349
32582
31755
31682
32361
31963
31700
31614
31532
31587
31418
31316
31207
31012
30876
30880
30812
30740
30348
30773
30529
30395
30155
30012
30254
30157
29852
30082
30147
30046
29980
30168
30075
29778
29862
29975
30005
29826
30426
30069
30111
30109
30527
30239
29868
30581
30188
30381
30363
30539
30524
30481
30424
30323
30689
30324
30681
30481
30807
30745
30531
31039
30878
30712
31182
30757
30552
30889
31183
31157
31098
30899
31128
30951
30687
31181
31092
31364
31343
31455
31470
31528
31230
31767
31530
30956
31459
31599
31543
31161
31560
31657
31609
31338
31726
31582
31270
31298
31723
31508
31314
31704
31943
31490
31651
31814
31549
31542
31389
31529
31832
31832
31681
31872
31669
31746
31482
32083
31551
31163
31544
32054
31613
31542
31786
31761
31932
31652
32162
31916
31637
31625
32110
31976
31836
31731
31921
31664
31890
32017
31863
31848
31695
32009
32076
31719
31877
32021
31973
31776
32070
32133
32115
31810
31924
31900
31732
31794
32327
32019
31557
31869
31779
32040
31796
31952
31583
31662
31644
31344
31629
30984
31318
31320
31081
30779
30763
30957
30908
30155
30662
30399
30406
30250
30359
30353
30325
30027
30615
30318
30330
30102
30016
30289
30139
30084
30246
30093
29900
30067
30155
29934
29880
30179
30177
29957
30026
30209
30124
29995
30080
30240
30169
30023
30361
30280
30387
30106
30208
30362
30188
30323
30819
30349
30172
30576
30602
30614
30247
30556
30704
30557
30310
30689
30629
30563
30655
30701
30644
30547
30857
30847
30717
30353
30660
30650
30629
30911
31226
30910
30871
30723
30966
30921
30615
31007
31202
31185
30546
30883
31244
31040
30772
31164
31195
30880
31014
31018
31212
30786
31027
31435
31192
31147
31180
31181
31334
31192
31157
31401
31418
31170
31153
31429
30829
31270
31118
31459
31263
31071
31637
31102
31386
31431
31609
31071
31260
31164
31490
31184
31146
31821
31403
31104
31411
31327
31326
31026
31354
31719
31403
31395
31882
31500
31700
31289
31721
31434
31137
31670
31346
31373
31503
31582
31901
31819
31420
31477
31906
31873
31587
31987
31845
31573
31952
32336
32282
31610
32194
31951
31787
31763
32231
32005
31878
31508
31971
31614
31100
31659
31477
31357
31314
31461
31502
30856
30829
30822
31114
30809
30436
30754
30801
30615
30508
30932
30643
30273
30666
30494
30564
30348
30853
30638
30316
30038
30178
30527
30031
30361
30480
30234
29800
30139
30329
30384
30045
30215
30354
30558
30329
30701
30549
30054
30299
30375
30581
30159
30681
30792
30695
30670
30877
30593
30437
30654
31067
30641
30806
30502
31040
30827
30797
30660
30736
30758
30549
31260
31206
30664
30859
31290
31358
31082
31216
31365
31224
31189
31292
31527
31398
31139
31442
31390
31402
31497
31512
31583
31355
31420
31811
31578
31280
31500
31632
31504
31406
31637
31694
31505
31424
31699
31725
31635
31605
31463
31553
31733
31814
31578
31897
31741
31961
31973
31606
31684
31930
31949
31355
31664
31835
31827
31639
31800
31804
31777
31649
31885
32042
31775
31726
32042
31949
31772
31787
31878
31986
31671
32047
32359
31824
31881
32122
31981
32046
31776
32092
31999
32011
32013
32236
32171
31938
32160
32084
32164
31827
32054
32337
32146
31972
32052
32268
32139
31856
31839
31975
31752
31763
31446
31659
30973
31423
31393
31137
30856
31038
31094
30737
30688
31078
30896
30533
30722
31041
30602
30612
30444
30632
30508
30284
30741
30572
30626
30329
30536
30392
30526
30480
30276
30437
30466
30549
30244
30234
30135
30498
30332
30129
30242
30778
30817
30516
30633
31025
30764
30313
30775
30675
31043
30762
30750
31190
30757
30709
31164
31049
30644
30861
31329
31094
31129
30897
31119
30849
31033
30970
30998
31064
30836
31386
31352
31212
31202
31070
31249
31113
31171
31192
31417
31025
31494
31249
31488
31109
31793
31676
31524
31590
31452
31541
31499
31722
31607
31605
31705
31481
31862
31813
31565
31677
31725
31203
31508
31909
31719
31597
31637
31902
31658
31459
31775
31810
31745
31662
31595
31859
31607
31628
31768
31811
31672
31713
32096
31834
31442
31641
31905
31872
31539
31896
31891
31517
31679
31804
31926
31951
31748
31945
32057
31846
32044
32090
31782
31743
32051
31978
32018
32022
31874
32280
32121
31975
31871
32232
31745
32123
32419
31981
31861
32380
32319
31841
31870
32475
32224
31763
32016
32214
32307
31884
31842
31750
31777
31759
31760
31879
31710
31515
31683
31461
30877
31212
31395
31249
30553
30830
30684
30528
30634
30596
30424
30224
30138
30636
30546
30394
30264
30626
30539
29900
30209
30517
30156
30015
30169
30427
30286
30035
30437
30378
29927
30135
30265
30629
30284
30412
30828
30473
30460
30688
30615
30422
30534
31023
30772
30778
30534
30958
30749
30466
30556
30554
30965
30322
30850
30630
30633
30625
31046
30944
30486
30492
30726
30838
30977
30744
30935
30907
30434
31113
30877
31117
30785
30866
31010
30975
30822
31412
31185
30739
30896
31424
30992
30738
31228
30966
31064
31038
31100
31267
30947
31093
31256
31396
30975
31237
31471
31146
31228
31315
31550
31011
31117
31352
31306
31221
30849
31350
31401
31084
31233
31334
31531
31186
31276
31226
31386
31151
31628
31490
31482
31360
31416
31555
31169
31373
31441
31457
31305
31506
31758
31500
31559
31623
31807
31390
31756
32015
31811
31619
31987
31831
32166
31589
32062
31954
32108
31629
32066
31762
31694
31648
32096
31954
31956
31915
32297
31936
31734
31835
31864
32016
31860
31752
31900
31836
31600
31958
31694
31489
31462
31297
31446
30821
30964
31017
31183
30535
30975
30759
30506
30402
30908
30605
30564
30275
30533
30475
30103
30147
30120
30168
30057
30140
30268
30006
29935
30165
30290
30026
30000
29996
30136
30163
30159
30205
30336
30008
30128
30125
30121
30284
30102
30170
30340
30082
30292
30481
30330
30547
30525
30603
30152
30346
30467
30268
30333
30692
30693
30492
30291
30583
30702
30503
30579
30674
30694
30403
30734
30901
30864
30479
30931
30754
30585
30550
30817
30849
30582
30789
30903
30840
30668
30902
30950
30942
30694
31015
30942
30892
30839
30820
31074
30652
30973
31000
30956
30694
30923
31077
31291
30782
31330
31289
30934
31340
31405
31123
31218
31318
31550
31361
31203
31512
31325
31389
31095
31350
31511
31306
31363
31495
31327
31249
31143
31488
31605
31286
31523
31729
31484
31020
31688
31697
31315
31367
31800
31593
31536
31550
31830
31673
31667
31504
31580
31915
31431
31845
31875
31696
31574
31808
31767
31709
31753
31979
31833
31480
31802
32087
31807
31989
32116
31781
31836
31756
32023
32306
32065
31960
32038
32039
31426
31586
31528
31665
31118
31541
31566
31391
31161
31615
31512
31271
31117
31074
31189
30743
31026
31132
31033
30529
30876
30994
30665
30625
31070
30865
30630
30566
31026
30585
30648
30743
30708
30662
30471
30626
30785
30599
30179
30714
30419
30490
30565
30858
30728
30586
30561
30887
30743
30386
30756
30836
30784
30818
30888
31010
30781
30765
30961
31037
30799
30858
31140
30962
30703
30993
30871
30843
31072
30951
31001
31208
30968
30973
31270
30872
30782
31138
31320
30851
30873
31394
31125
30651
31168
31478
30912
30804
31359
31439
31116
31355
31203
31552
30905
31355
31764
31250
31471
31507
31668
31574
31197
31689
31588
31253
31451
31867
31578
31571
31599
31942
31566
31355
31653
31738
31523
31522
31698
31723
31561
31534
31729
31730
31475
31619
31710
31844
31619
31869
31932
31815
31683
31941
32019
31827
31766
32032
31809
31944
31908
32062
31973
31705
31963
32178
31937
31798
31892
32288
31797
32066
32067
31968
31839
31958
32027
31898
31635
31848
31976
31989
31758
31919
32090
31805
31870
32010
32006
31783
31920
32112
32041
31808
32014
32034
31908
31713
31813
31922
31599
31658
32048
31773
31403
31443
31671
31454
31019
31080
31396
31117
30824
31088
30876
30763
30808
30698
30747
30389
30178
30370
30174
30323
30110
30523
30095
30071
30245
30235
30328
30022
30002
30166
29835
30037
30205
30255
29937
30067
30329
29826
29649
30203
29901
30125
29785
30242
30166
30054
29951
30365
30309
30395
30175
30218
30655
30287
30505
30418
30513
30496
30652
30694
30487
30491
30730
30689
30502
30635
30689
30535
30653
30691
30960
30733
30642
30860
30902
30647
30709
30919
30912
30726
30869
30978
30938
30723
30981
31069
31032
30858
31144
31132
30995
31027
30940
31143
31194
30983
31204
31201
31035
31247
31321
31218
31079
31319
31308
31170
31240
31374
31264
31247
31077
31264
31145
31427
31179
31202
31122
31261
31341
31573
31227
31228
31638
31494
31313
31353
31338
31470
31261
31515
31603
31531
31404
31659
31734
31706
31442
31806
31778
31686
31619
31750
31775
31486
31780
31871
31989
31583
32068
32167
31960
31882
32123
31948
31775
32078
32143
32150
31901
32233
32205
32323
31836
32342
32257
31978
32238
32112
32446
32026
32096
32320
32400
32336
32202
32235
32289
31982
31863
32128
32070
31572
31626
31793
31339
31507
31521
31529
31117
31308
31357
31206
30781
31268
31350
30768
30926
31142
30905
30473
30651
30965
30509
30243
30427
30960
30604
30662
30421
30661
30444
30067
30542
30908
30234
30252
30531
30422
30491
30594
30695
30969
30790
30709
30819
30977
30760
31221
30859
31017
30631
31276
31077
30838
30920
31268
30953
30774
30903
31315
30891
30811
31281
31140
31251
31023
30959
31080
30811
31163
31346
31039
31108
31083
31146
31353
30920
31428
31342
30873
31078
31336
31312
31105
31223
31203
31410
31338
31200
31342
31357
30972
31460
31616
31498
31088
31310
31540
30958
31391
31680
31426
31523
31355
31221
31511
30941
31377
31514
31366
31266
31326
31393
31478
31637
31625
31770
31622
31448
31930
31487
31584
31955
31771
31963
31525
32107
31876
31495
31677
31626
31883
31433
31766
31914
32061
31725
31811
31947
31769
31810
31857
32109
31623
31995
32247
31875
32072
32138
32156
32190
32106
32058
32305
32019
32042
31925
32188
32034
32112
32394
32112
32161
32358
32518
32334
31783
32358
32302
31986
32129
32406
31992
32169
31727
32253
31851
31779
31802
31661
31601
31199
31756
31799
31636
31513
31196
31526
31164
31016
31074
31269
30674
30691
31115
30639
30513
30919
31073
30581
30194
30471
30554
30426
30383
30703
30638
30773
30508
30393
30683
30556
30610
30722
30691
30598
30814
30911
30839
30649
30908
30968
30956
30917
31133
30912
30793
30939
31382
31046
30708
31021
31008
30875
31110
31211
31214
30820
31014
31251
31287
31177
31422
31118
31273
31423
31442
31377
31059
31359
31277
31401
31042
31165
31312
31295
31017
31570
31716
31327
31578
31625
31602
31698
31446
31567
31708
31670
31567
31936
31716
31631
31795
31841
31760
31500
31618
31973
31833
31488
31941
32057
31584
31864
31880
32029
31677
31913
31816
31730
31930
32104
31786
31731
31933
32153
32207
32070
31650
32075
32150
31768
32124
31862
32179
31957
32272
32417
32186
32040
32499
32291
32094
32128
32063
32359
32349
32188
32198
32118
32293
32291
32101
32159
32015
32622
32465
32311
32069
32309
32300
32221
32145
32635
32529
31951
32352
32674
32192
32232
32209
32577
32477
32337
32239
32329
32108
32437
32427
32527
32119
32166
32612
32114
32135
32065
32270
32346
31850
32246
32067
31846
31854
31620
31708
31175
31513
31282
31640
31017
31203
31473
31192
30875
31146
31065
30763
30704
31221
31004
30522
30793
31008
30646
30695
30716
30775
30732
30625
30450
30639
30232
30423
30657
30736
30445
30513
30528
30795
30637
30831
30989
30330
30351
30928
30845
30707
30801
30694
30957
30563
30730
30795
31132
30943
31099
31084
31108
30767
31145
31048
30757
30859
30920
31069
31011
31070
31286
31133
30793
31280
31237
31101
31065
31240
31277
31219
31042
31514
31177
30759
31277
31570
31246
31182
31336
31202
31144
31255
31373
31354
30939
31157
31414
31329
31176
31496
31299
31557
30969
31465
31533
31544
31231
31267
31243
31444
31474
31551
31653
31559
31304
31530
31484
31623
31711
31473
31456
31255
31610
31519
31811
31666
31693
31908
31572
31704
31532
31542
31739
31757
31757
31587
31576
32035
31801
31875
31681
31694
31804
31719
31779
31794
31980
31629
32035
31981
32088
31959
32065
31705
31907
31480
32031
31957
31774
31924
32066
31929
31781
31801
32015
31994
31928
32050
31931
32077
31967
31911
32097
31894
32004
32387
31969
31737
31930
32202
32024
31916
31999
31960
31388
31367
31554
31768
31397
31080
31641
31429
31037
30884
31140
31256
30517
30973
31007
30493
30511
30859
30547
30279
30460
30294
30589
30172
30593
30411
30415
30238
30431
30460
30301
30181
30329
30478
30185
30167
30363
30168
29987
30314
30187
30423
30309
30493
30610
30432
30390
30533
30667
30478
30454
30566
30654
30492
30583
30680
30785
30417
30477
30637
30592
30215
30467
30758
30704
30738
30615
30842
30477
30541
30970
30759
30650
30819
31070
30546
30630
31133
30897
30961
30717
30816
30735
30961
30748
31226
30783
30516
30714
31258
31102
30503
30916
31104
31044
30651
31052
30912
30776
30778
31070
31004
31034
31174
31438
30895
31190
30915
30965
31295
31171
31215
31028
31090
31080
31374
31385
31166
31324
31462
31491
31021
31122
31267
31309
31285
31384
31486
31204
31367
31289
31518
31095
31335
31252
31660
31492
31262
31453
31108
31378
31746
31460
31497
31568
31395
31673
31149
31453
31353
31488
31663
31598
31638
31622
31587
31429
31675
31696
31395
31457
31445
31518
31353
31914
31814
31709
31465
31529
31432
31574
31478
31527
31351
31479
31652
31691
31238
31495
31382
31259
31028
31244
30999
31155
30650
31026
31077
30775
30617
30541
30576
30424
30359
30357
30361
30054
30176
30130
29991
29864
30130
30011
29994
29737
29999
29981
30050
29930
30209
29992
29737
29907
30020
29928
29742
29972
30034
29767
29865
30072
30066
29991
29953
30087
30053
29863
30129
30241
30121
30073
30234
30267
30336
30110
30352
30303
30423
30035
30668
30323
29951
30152
30384
30406
30301
30407
30343
30302
30131
30470
30595
30252
30321
30478
30458
30277
30431
30486
30478
30350
30512
30568
30500
30575
30639
30682
30446
30531
30692
30697
30451
30638
30756
30685
30510
30785
30851
30705
30606
30816
30800
30661
30732
30874
30860
30944
31013
31025
30834
30701
30955
30964
30873
30823
30972
30886
30870
31019
30977
31153
30841
30938
30929
31103
30839
31090
31119
31125
30953
31241
31111
31005
31014
31188
31194
30978
31115
31277
31222
31044
31157
31212
31186
31021
31219
31279
30924
31355
31205
31316
31074
31229
31331
31284
31142
31265
31470
31330
31304
31422
31644
31396
31195
31320
31566
31445
31367
31331
31511
31275
31448
31553
31447
31333
31501
31516
31494
31219
31243
31452
31021
31168
31355
31230
31147
31095
31193
30923
30653
30694
30768
30447
30380
30744
30461
30454
30336
30257
30297
29940
30244
30065
30307
30116
30360
30421
29833
29949
30366
30087
29871
29777
30343
29967
29614
29848
30063
30158
29835
30045
30368
30028
30022
30230
30260
29977
30078
30336
30036
30163
30219
30400
30324
30073
30237
30654
30465
30494
30369
30535
30399
30509
30389
30540
30586
30435
30542
30542
30448
30591
30897
30509
30417
30529
30776
30404
30616
30885
30726
30587
30739
30987
30847
30679
30912
30993
30834
30694
30970
31061
31125
30999
31032
31220
30889
30953
31154
31125
30886
31064
31066
31039
30886
31405
31369
31121
31133
31071
31260
31000
31162
31466
31390
31150
31341
31396
31369
31248
31496
31462
31291
31300
31495
31503
31350
31419
31595
31508
31110
31609
31700
31557
31392
31709
31682
31549
31492
31657
31698
31577
31656
31943
31992
31648
31617
31607
31841
31485
32094
31912
31903
31838
31966
31969
31813
31929
32166
32075
31636
32036
31929
31861
31969
32175
32184
31930
31890
32157
32169
31970
32029
32351
32288
31799
32087
32258
32205
31964
32210
32255
32079
31959
32175
32141
31924
31875
32049
31784
31800
31774
31774
31706
31472
31606
31608
31447
31222
31404
31385
31176
31107
31280
31156
30895
30998
31129
30920
30644
30803
30885
30686
30505
30923
30626
30586
30591
30631
30476
30740
30408
30659
30624
30532
30631
30548
30651
30315
30781
30853
30634
30633
30801
30985
30710
31020
30960
31047
30956
30928
31105
30869
30740
31048
31023
30896
30853
30993
31042
30838
30922
31323
31004
30869
30915
31051
31241
30825
31146
31208
31225
31011
31084
31230
31000
31159
31318
31236
31241
31138
31272
31235
31079
31484
31393
31089
31174
31660
31541
31247
31429
31695
31367
31051
31293
31226
31620
31112
31485
31790
31462
31427
31345
31465
31231
31318
31673
31500
31179
31600
31713
31600
31497
31639
31714
31457
31479
31593
31704
31360
31595
31767
31749
31380
31780
32004
31609
31344
31783
31703
31738
31658
31771
31795
31851
31550
31843
31901
31531
32013
31881
31897
31677
31919
31980
31894
31811
32005
31980
31814
31871
32098
31873
31979
31796
31876
32057
31857
31999
32007
31997
31819
32148
32125
31913
31940
32201
32148
31962
32017
32188
31880
31845
32010
32030
31680
31541
31880
31511
31169
31352
31690
31331
31183
31133
31242
31270
30613
30929
31069
30582
30607
30911
30633
30593
30301
30501
30441
30103
30225
30363
30300
29999
30185
30287
30122
30047
30193
30231
30003
29792
30161
30045
29928
30040
30207
30199
29919
30131
30235
30205
30043
30354
30221
30143
29984
30355
30541
30235
30159
30391
30429
30247
30402
30554
30395
30239
30545
30541
30394
30074
30571
30333
30283
30359
30456
30592
30312
30575
30657
30670
30439
30704
30720
30598
30476
30685
30769
30486
30660
30860
30837
30667
30722
30995
30865
30593
30848
30929
30808
30748
31101
30922
30721
30725
31063
30988
30870
30986
31100
31025
30806
31108
31156
31043
30947
31207
31149
31005
31102
31258
31336
30986
31269
31613
31213
31014
31323
31426
31259
31148
31350
31354
31127
31256
31424
31396
31218
31365
31550
31385
31257
31466
31500
31469
31450
31474
31589
31129
31426
31720
31478
31601
31494
31851
31637
31257
31484
31478
31430
31706
31662
31680
31753
31674
31585
31852
31454
31774
31567
31747
31315
31834
31580
31672
31491
31985
31789
31600
31559
31815
31753
31398
31597
31501
31693
31665
31789
31699
31321
31158
31450
31348
31138
31099
31227
31171
30839
30626
30972
30888
30285
30679
30657
30650
30244
30394
30385
30118
30176
30134
30226
30042
30099
30171
30208
29920
30066
30068
30064
29817
30064
30054
29858
29960
30193
30143
29753
30032
30171
30050
29707
30028
30132
30030
30092
30154
30068
30102
30040
30307
30355
30150
30350
30389
30331
29998
30375
30693
30402
30427
30362
30517
30309
30350
30345
30577
30244
30439
30591
30533
30370
30460
30629
30452
30284
30605
30690
30491
30299
30591
30629
30509
30545
30709
30721
30526
30648
30843
30955
30737
30622
30825
30839
30808
30851
30664
30674
30724
30955
31178
31085
30948
30906
31100
30911
31208
31065
31031
30899
30996
31189
30937
31032
31098
31201
30835
31181
31028
31338
31275
31269
31371
31519
31264
31604
31406
31574
31231
31366
31653
31503
31399
31628
31623
31252
31861
32043
31824
31620
31860
31673
31665
31583
31863
31843
31741
31769
31990
32115
31638
31988
31996
32105
31542
32119
31933
32018
31639
32214
32012
31929
31958
32087
32047
31901
32003
32137
32059
31879
31973
32166
32075
32014
32159
32182
32223
31854
32083
31964
31663
32016
31978
31661
31549
31656
31841
31347
31348
31349
31601
31022
31328
31518
31467
31242
31280
31409
30829
30989
30884
31050
30879
30241
30663
30690
30361
30245
30557
30313
30536
30604
30323
30664
30242
30395
30710
30442
30130
30396
30465
30105
30322
30481
30645
30118
30547
30430
30263
30196
30699
30762
30393
30468
30685
30721
30606
30534
30929
30846
30690
30776
30902
30893
30810
31026
31180
30907
30866
31169
31235
30854
30843
30931
31091
30692
30940
30920
30887
31092
31116
31073
30947
30777
30892
31294
30885
30975
30953
31066
30849
31288
30936
31101
31280
31082
31390
31040
31333
31186
31437
31107
30984
31335
31396
31217
31398
31215
31199
31482
31226
31632
31285
31067
31230
31445
31601
31359
31846
31576
31412
31428
31584
31581
31436
31563
31761
31608
31466
31711
31800
31615
31529
31768
31846
31692
31720
31662
31818
31948
31867
32248
31867
31972
32123
31739
31677
31655
31929
32111
31712
31768
31927
32175
31683
32084
31796
32257
31864
32324
31959
32018
32046
31991
32369
32149
32019
32029
32312
32269
32240
32090
32273
31965
32142
32279
32109
32136
32272
32364
32300
32191
32251
32468
32007
32444
32086
32181
32097
32225
32402
32225
31600
31956
32169
31650
31793
31754
31960
31742
31407
31657
31654
31273
31373
31356
31185
31201
31111
30981
30664
30794
30813
30752
30496
30555
30575
30491
30326
30438
30428
30319
30213
30406
30360
30146
30093
30341
30264
29814
30204
30535
30240
29798
30127
30582
30464
29962
30090
30310
30378
30428
30211
30460
30236
30403
30599
30310
30124
30370
30736
30696
30379
30924
30493
30765
30472
30948
30729
30782
30646
30979
30783
30353
30860
30645
30627
30622
30821
30847
31052
30673
31069
30879
30666
30827
31117
30847
30617
30991
31063
30828
30636
30862
31197
30969
31014
31013
31028
31202
31156
31575
31150
30898
31212
31290
31445
30859
31557
31531
31513
31265
31655
31467
31118
31364
31567
31577
31362
31514
31290
31471
31277
31684
31687
31220
31224
31636
31724
31441
31578
31707
31735
31480
31417
31807
31674
31538
31865
31719
31690
31561
31715
31927
31907
31626
31708
31732
31562
31818
31959
31652
31748
31668
31977
31589
31735
31872
31904
31802
31898
31923
32095
31645
32076
31734
31989
31909
31860
32062
31915
31806
31861
32018
31936
31875
32149
32049
31726
31830
32073
32072
31694
32120
32257
32057
31769
32052
32082
31895
31909
31846
31922
31888
31864
31557
31664
31705
31682
31669
31564
31176
31618
31234
31122
30958
31247
30917
30883
30647
31103
30605
30345
30752
30574
30630
30076
30498
30512
29933
30078
30559
30240
30254
30016
30011
30254
30241
30135
30487
30208
29751
30333
30052
30348
30071
30573
30412
29833
30357
30604
30488
30114
30434
30706
30383
30124
30593
30555
30478
30370
30701
30698
30549
30387
30727
30581
30684
30493
30670
30683
30521
30505
30849
30586
30434
30790
30838
30395
30816
30567
30836
30565
30735
30699
30794
30586
30969
31131
31068
30689
30980
30842
31103
30888
31221
31068
30767
30966
31267
31156
30715
31209
31201
30767
30910
31346
31250
30726
30953
31100
31092
31087
30958
31477
31034
31199
31078
31231
31152
31017
31254
31550
30974
31132
31088
31290
31085
31292
31364
31196
31323
31623
31341
31252
31134
31222
31538
31263
31414
31789
31700
31103
31698
31572
31643
31177
31743
31446
31363
31447
31908
31708
31490
31581
31943
31673
31507
31667
31979
31768
31818
31826
31990
31915
31781
31997
32024
31856
31878
32159
31925
31980
31857
32086
31743
31767
31894
32248
31852
31643
32092
31831
32072
31864
32138
32052
32081
31935
31989
32002
31779
31703
31628
31959
31747
31853
31581
31694
31354
31342
31485
31339
31255
31285
31177
30981
31124
31014
31009
30739
30889
30901
30820
30530
30445
30648
30559
30423
30299
30623
30593
30618
30287
30395
30497
30650
30486
30187
30037
30510
30662
30521
30361
30665
30740
30238
30380
30390
30757
30736
30557
30924
30615
30599
31136
31079
30448
30764
31318
30993
30693
30998
31180
31046
30947
30915
31129
30904
30914
31292
31194
30765
31061
31048
31184
31181
31187
31259
31265
31167
31323
31572
31061
31110
31702
31461
31337
31164
31713
31712
31430
31333
31566
31477
31665
31853
31838
31524
31273
31550
31777
31747
31660
31875
32022
31470
31924
31842
31890
31975
31865
32025
31775
31815
32116
32032
31959
31914
32022
32213
31678
32113
32189
32220
32077
31990
32557
32199
31849
32095
32262
32203
31988
32507
32544
32329
32279
32555
32267
32274
32558
32275
32462
32489
32388
32574
32521
32169
32804
32535
32120
32542
32386
32587
32531
32695
32498
32598
32445
32533
32729
32472
32534
32774
32735
32588
32640
32592
32906
32426
32742
32729
32708
32437
32984
32877
32874
32608
32798
32957
32852
32766
33220
32724
32936
32762
32792
33011
32951
32873
32597
32598
32461
32579
32491
32462
32239
32725
32567
32265
32292
32432
32002
32121
32155
32371
32059
31532
31696
31961
31860
31704
31815
31830
31249
31671
31488
31638
31142
31579
31520
31234
31042
31564
31381
31029
31191
31319
31063
31264
31246
31484
31245
30919
30974
31324
30857
30787
31128
31148
31160
31112
31279
31336
31161
31119
31327
31102
30990
31522
31497
31485
31333
31669
31466
31530
31343
31408
31400
31106
31414
31370
31387
31580
31372
31479
31673
31306
31752
31700
31437
31548
31616
31541
31470
31636
31785
31599
31698
31546
31567
31717
31493
31735
31755
31359
31555
32094
31963
31416
31576
32020
31709
31775
31908
32219
31966
31683
32228
31781
31829
31730
31735
31924
31786
31930
31807
31865
31870
31800
32034
32063
31823
32231
32020
31913
31914
32323
32079
31608
32152
32102
32292
32164
31959
32099
32265
32065
32109
32179
31835
32204
32041
32085
32186
31968
32476
32474
32236
32357
32299
32294
32137
32541
32368
32048
31880
32353
32213
32332
32248
32419
32224
32359
32258
32568
32330
32362
32278
32454
32041
32309
32549
32468
32233
32364
32571
32418
32503
32616
32245
32552
32119
32480
32387
32188
32530
32553
32459
32563
32224
32352
32652
32207
32126
32374
32084
32232
32264
32168
32142
32098
31807
32074
31832
31864
31551
31866
31410
31699
31684
31222
31232
31452
31267
31233
30876
31018
31091
31060
30884
31182
30890
30549
30758
30545
30624
30439
30780
30790
30706
30553
30859
30542
30580
30424
30400
30681
30421
30757
30560
30633
30271
30553
30592
30941
30449
31025
30760
30980
30805
30833
30991
31039
30870
30821
31012
31140
31195
31082
30798
30983
31203
31290
31052
30924
31014
31162
30806
31197
31332
31134
31053
31402
31280
31058
30886
31309
31324
31132
31225
31287
31560
31138
31443
31508
31522
31496
31586
31750
31422
31203
31802
31799
31269
31506
31433
31572
31379
31523
31760
31645
31795
31598
31672
31858
31687
31891
31941
31526
31928
31955
32101
31475
31832
31978
31983
31776
31833
32228
31904
32104
32255
31962
32091
31923
31939
32313
31907
31996
32104
32030
31903
32002
32397
32325
32145
32414
32248
31994
32204
32193
32467
32161
32275
32199
32445
32276
32319
32170
32232
32042
32525
32494
32597
32395
32383
32468
32420
32540
32674
32688
32320
32569
32758
32459
32200
32765
32832
32710
32382
32789
32664
32456
32547
32805
32800
32313
32758
32529
32770
32368
32482
32581
32322
32365
32687
32501
32095
32314
32051
32420
32140
32178
32141
31969
31880
31872
31799
31900
31632
31940
31681
31140
31359
31539
31403
31396
31265
31393
31199
31034
31125
30916
30747
30735
31115
30549
30368
30425
30577
30433
30139
30406
30821
30686
30012
30566
30653
30162
30333
30214
30345
30488
30518
30487
30406
30204
30539
30673
30505
30451
30385
30479
30327
30281
30713
30540
30693
30529
30719
30629
30439
30492
30602
30550
30567
30602
30681
30699
30362
30481
30662
30470
30614
30462
30650
30328
30746
30448
30515
30645
30567
30623
30932
30755
30844
30953
30822
30595
31122
30911
30495
30790
31126
30953
30909
31079
31294
30958
30523
31062
30920
30689
30941
30875
31044
30788
31054
31367
31013
31167
31223
31435
31417
30957
31372
31560
31365
31127
31180
31324
30932
31334
31541
31186
31287
31219
31454
31334
31400
31675
31607
31364
31503
31368
31682
31184
31292
31650
31761
31301
31729
31983
31701
31778
31735
31668
31627
31661
31739
31782
31485
31683
31702
31877
31696
31782
31685
31960
31834
32079
32315
31740
31608
32178
32268
32160
31785
32055
32211
31936
31921
32172
31868
31673
31889
31870
31969
31595
31887
32204
31910
31772
31971
31771
31754
31684
31641
31666
31083
31462
31374
31318
31074
31373
31172
30779
30943
31379
31133
30764
30924
31082
30547
30543
30586
30771
30711
30097
30666
30598
30428
30201
30798
30583
30619
30322
30394
30362
30464
30379
30390
30332
30597
30555
30758
30421
30583
30761
30779
30805
30846
30923
30877
30439
31031
30833
31121
30748
31270
31083
30929
30980
31429
31108
30628
31083
31090
31421
30976
31169
31607
31337
31040
31552
31420
31031
31222
31512
31347
31055
31243
31802
31343
31172
31397
31459
31488
31576
31489
31868
31688
31483
31868
31795
31857
31643
31598
31999
31803
31875
31853
31984
31779
32089
31946
31860
31791
31888
32116
31881
31981
32350
32018
31840
32115
32444
31997
31690
32140
32132
32017
32136
32378
32215
32033
32052
32379
32086
32117
32147
32099
32290
32007
32465
32626
32263
32032
32546
32286
32110
32114
32441
32262
32392
32350
32311
32612
32333
32606
32569
32291
32240
32595
32495
32483
32297
32618
32525
32060
32464
32629
32474
32203
32405
32260
32455
32352
32343
32642
32635
32530
32475
32482
32214
32299
32320
32364
32331
32320
32373
32418
32426
32591
32553
32194
32398
32494
32408
32110
32203
32344
32345
31768
32252
32179
31782
31800
32300
31853
31733
31713
32135
31863
31228
31627
31918
31632
31547
31277
31247
31508
30859
31458
31337
30917
31105
30973
31180
30830
30972
30911
30666
30777
30697
30844
30559
30803
30667
30578
30784
30888
30718
30970
30344
30554
30605
30901
30390
30787
31033
30691
30851
31097
30873
31127
30820
31260
31056
31007
30979
30956
31208
30863
31112
31077
31255
31055
31222
31107
30913
31187
31471
31243
31346
31071
31618
31265
31151
31372
31642
31225
31148
31396
31689
31094
31043
31270
31583
31302
31442
31641
31420
31213
31650
31841
31625
31389
31551
31688
31318
31288
31470
31849
31426
31708
31777
31795
31713
31941
32018
31654
31727
31917
31885
31757
31760
32098
31891
31492
31776
32028
32008
31622
31993
31924
32070
31642
31968
32072
31776
31608
31836
32341
31820
32160
32145
32395
31796
32347
32253
32090
31732
32317
32416
32049
32281
32080
32468
32288
32146
32271
32525
32164
32175
32239
32517
32388
32584
32556
32142
32041
32430
32579
32005
32267
32694
32488
32450
32408
32809
32374
32163
32420
32585
32644
32413
32866
32578
32165
32417
32380
32623
32083
32317
32655
32365
32101
32549
32480
32166
32140
32276
32292
31723
31964
31828
32056
31919
31718
31606
31679
31487
31517
31976
31359
31648
31539
31379
31483
31428
31215
31366
31166
31116
31187
31067
30610
31000
31353
30911
30686
31159
30778
30476
30654
31049
30863
30419
30719
31110
30830
30433
30802
31012
30788
30770
31205
31319
31015
30817
31214
31263
30849
31059
31145
31051
30996
31027
31245
31025
31282
31047
31221
31178
31043
31541
31305
31211
31125
31291
31248
31108
31285
31445
31319
31175
31401
31432
31189
31218
31396
31484
31545
31498
31317
31706
31444
31374
31669
31726
31611
31811
31492
31419
31126
31629
31597
31383
31809
31861
31784
31397
31824
32023
31653
31293
31664
32134
31974
31718
31646
31755
31600
31548
31830
31870
31879
31846
32216
32039
31549
32026
32090
31905
31853
32240
32054
31982
31932
32392
31910
31592
32166
31953
32006
31934
32050
31998
32212
32059
32163
32182
32227
32237
32166
32456
32075
31999
32033
32121
32117
32220
32543
32077
32160
32186
32385
31987
32082
32735
32297
31853
32183
32425
32133
32243
32199
32244
32149
32359
32179
32260
31925
32193
32798
32553
32462
32429
32500
32278
32177
32587
32424
32343
32135
32753
32403
32251
32073
32249
32423
31807
31948
31920
31953
32180
31828
32066
31822
31345
31637
31747
31655
31394
31569
31715
31191
31230
31719
31310
30759
31228
31086
31002
30852
30918
31068
30929
30671
30594
30779
30322
30372
30893
30621
30290
30307
30285
30709
30467
30372
30799
30689
30211
30601
30718
30523
30417
30817
30899
30247
30650
30555
30564
30313
31079
30880
30845
30793
31109
31065
30641
30974
31332
30947
31073
30977
30959
30976
30942
30960
30977
30993
30984
31116
31263
30735
31093
31632
31417
31350
31329
31385
31162
31154
31512
31765
31496
31447
31228
31412
31437
31245
31373
31420
31080
31353
31593
31731
31481
31493
31951
31492
31402
31892
31828
31706
31571
31514
31855
31229
31870
31592
31934
31295
32041
31868
31621
31681
31790
31929
31919
31859
32092
31713
31843
32078
32286
31811
31922
32190
32294
31936
31771
32038
32102
31799
31921
32129
32219
31993
32083
32477
32319
31666
32305
32117
32113
31823
32510
32042
31973
32210
32506
32367
31846
32385
32620
32524
31862
32521
32604
32228
32011
32529
32278
32445
32131
32161
32388
32358
32249
32629
32493
32140
32161
32751
32481
31936
32717
32542
32038
32061
32637
32340
32348
32099
32564
32385
31827
32385
31966
32089
31826
32305
32029
32061
31969
32191
31782
31418
31653
31803
31750
31550
31411
31584
31514
31118
31356
31289
31283
31025
30973
31214
30638
31002
31209
31000
30570
30990
30926
30596
30785
30883
30916
30381
30721
30574
30564
30412
30654
30975
30453
30141
30412
30681
30471
30200
30614
30711
30570
30480
31081
30879
30942
30851
31098
30906
31052
30844
31127
31144
30775
30902
30949
31079
30916
31108
31295
30921
31016
31349
31045
30645
31048
30926
31373
30992
31454
31344
31344
31123
31169
31427
30985
31270
31351
31526
30973
31326
31778
31224
31119
31336
31458
31230
31128
31449
31462
31192
31614
31495
31834
31292
31553
32033
31705
31481
31793
31795
31698
31503
31661
31832
31795
31624
32151
31943
31359
31757
32082
31873
31930
31727
31887
31656
31949
32292
31967
31577
31695
32048
32238
32024
32220
31922
32235
31762
32279
32240
32253
32133
32461
32456
32201
32007
31980
32163
32267
32162
32565
32029
31857
32277
32291
32010
32129
32593
32447
31901
32028
32251
32247
31799
32204
32549
32473
32242
32411
32510
32279
32125
32133
32416
32208
32230
32724
32489
32351
32339
32587
32378
32078
32353
32549
32444
32177
32419
32274
32288
31990
32370
32015
32071
32144
31780
31707
31408
31865
31569
31756
31307
31911
32031
31758
31083
31834
31385
31406
31399
31496
31596
30691
30991
31033
31013
31122
30952
31073
30959
31024
31297
30923
30922
30787
30993
30716
30896
30889
30692
31035
30665
30761
31106
30640
30822
31322
31094
30566
30746
30861
30909
30621
31058
31411
31357
31098
31353
31227
30977
30858
31050
31443
31165
31203
31643
31193
31195
31198
31692
31197
31388
31469
31544
31441
30914
31557
31456
31482
31407
31746
31637
31077
31340
31585
31663
31078
31625
31617
31678
31509
31532
31932
31840
31775
32116
31830
31472
31656
32268
32062
31874
32134
32137
31930
31671
32295
32120
32108
31964
31830
32199
31515
32124
32130
31886
31874
32333
32106
32048
32189
32021
32422
32151
32045
32682
32135
31985
32304
32685
32120
32220
32556
32599
32541
32419
32320
32659
32152
32133
32830
32427
32003
32327
32738
32696
32239
32692
32779
32569
32174
32620
32714
32734
32525
32534
32790
32723
32766
32532
32895
32790
32889
32921
32550
32474
33136
33152
32880
32724
32752
33088
32412
32953
33156
32721
32756
33119
32836
32867
32897
33131
32877
32720
32833
33074
32720
32748
32636
32678
32579
32119
32522
32416
32265
31991
32433
32354
32179
32055
32227
32110
32090
32067
32132
32129
31573
31860
31888
32150
31813
32002
32170
31610
31467
31691
31738
31444
31583
31660
31712
31323
31836
31728
31641
31493
31789
31903
31828
31747
31954
31741
31725
31726
31574
31866
31393
31727
31876
31915
31657
32112
32034
31627
31756
32208
31903
31790
31881
31819
32007
31486
32088
32233
31776
31887
31984
32104
31574
31988
32301
32025
31760
31869
31986
32321
32184
32268
32048
32310
32219
32123
32089
32195
31996
32488
32266
31995
32183
32232
32382
31883
32177
32746
32170
31938
32302
32480
32254
32435
32555
32758
32521
32524
32390
32395
32372
32589
32321
32340
32097
32535
32512
32688
32334
32396
32776
32345
32322
32640
32620
32257
32292
32468
32339
32207
32496
32490
32447
32392
32785
32504
32246
32600
32609
32433
32599
32661
32939
32742
32702
32860
32578
32752
32480
33090
32711
32415
32534
33093
32748
32311
32608
32506
32661
32242
32769
32931
32734
32447
32628
32882
32866
32609
32792
32820
32765
32846
32814
32765
32854
32588
32739
32871
32323
32783
33207
32374
32430
32821
32814
32566
32619
32729
32273
32022
32548
32204
32338
32151
32349
32087
31823
31602
32260
31861
31604
31912
31769
31633
31505
31513
31476
31613
31457
31402
31571
31399
31164
31365
31353
31070
31157
31149
31216
30709
31238
31173
30789
30851
31033
31226
30738
30653
30846
30806
30910
30668
30653
30718
30443
30815
31167
30695
30556
31147
30975
30629
30681
31393
31120
30595
30920
30922
31087
30944
30944
31487
30913
30705
31321
31054
31392
30823
31452
31143
30911
31234
31497
31266
30916
31449
31416
31177
30990
31253
31624
31175
31167
31286
31375
31412
31503
31420
31756
31109
31680
31746
31396
31141
31668
31462
31367
31254
31679
31491
31767
31520
32066
31869
31286
31802
32085
31871
31736
31711
31854
31513
31615
31850
31918
31510
31703
31657
31782
31417
31895
32176
32119
31804
32033
32215
31898
32023
31844
32223
31766
31641
31885
31924
31946
32173
32183
32110
31945
32216
32339
31900
31918
32069
32246
31729
31900
32072
32121
31684
32112
31986
32168
31958
32066
32062
32281
32095
32513
32267
32274
32248
32281
32320
32024
32398
32266
32084
32188
32458
32487
32400
31869
32205
32129
31980
32005
32512
32033
31811
31998
31780
31993
31723
31892
31928
31840
31267
31842
31497
31124
31295
31301
31374
31321
31055
31321
30966
31004
30916
31146
30687
30682
30775
30499
30674
30237
30398
30571
30018
30491
30377
30158
30315
30401
30200
30050
29926
30262
30553
30222
30020
30400
30543
30013
30274
30401
30314
30446
30315
30729
30520
30331
30629
30604
30449
30503
30703
30728
30393
30582
30983
30808
30566
30623
30955
30820
30373
30658
30695
30913
30739
30675
31037
31097
30764
30746
31017
31058
30813
31126
31091
31116
31230
31355
31132
30862
31129
31354
30964
31240
31138
31190
31092
31319
31169
31354
31130
31375
31119
31405
31237
31470
31363
31393
31185
31596
31417
31098
31347
31555
31256
30994
31621
31211
31399
31354
31623
31410
31496
31388
31306
31445
31513
31685
31449
31347
31021
31697
31667
31620
31208
31532
31822
31211
31467
31763
31832
31738
31655
31657
31499
31241
31906
31490
31441
31399
31890
31680
31687
31747
32069
31679
31828
31885
31608
31797
31422
31867
32035
31616
31425
31997
32218
31786
32003
31879
31832
31917
31879
31977
31871
31928
32111
31952
31707
31483
32109
32047
31518
31520
31745
31592
31362
31368
31535
31246
31047
31102
31134
30949
30700
30855
30841
30578
30480
30340
30473
29960
30173
30524
30329
29961
29859
30089
30171
29568
30079
29843
29811
29566
29754
29687
29776
29939
29950
29941
29832
29815
29899
29976
29610
29781
30172
29615
29784
30164
29958
29637
29814
29853
29920
30042
29999
30203
30034
29840
29995
30186
30345
30132
30413
30126
30249
30258
30284
30285
29913
30230
30258
30443
29999
30488
30465
30315
30316
30332
30256
30216
30490
30352
30594
30165
30635
30462
30653
30128
30766
30564
30297
30221
30884
30715
30447
30419
31017
30637
30857
30635
30985
30693
30598
30831
30844
30942
30684
30904
30945
30792
30833
31180
30986
30835
30837
31271
30961
30970
31087
30993
30899
30919
31139
31299
30706
30897
31146
30980
30610
30905
31448
31141
30876
31327
31411
30893
31244
31114
31081
31174
30906
31140
31436
30796
31097
31282
31033
30846
31515
31459
31170
31004
31664
31421
31318
31283
31733
31498
31502
31347
31712
31495
31250
31594
31537
31663
31201
31440
31770
31374
31265
31574
31581
31600
31346
31431
31660
31033
31474
31358
31047
31359
31245
31175
30781
30878
31191
30731
30897
30864
30827
30407
30206
30220
30467
30363
30195
30174
30023
29542
29780
30039
29746
29582
29550
29533
29937
29745
29727
29911
29743
29539
29599
29712
29757
29501
29818
29613
29155
29497
29576
29698
29456
29439
29683
29676
29526
29631
29796
29819
29809
30197
29774
29605
29962
29806
29747
29923
29953
29920
30032
29478
29937
29730
30048
29953
29962
30206
29681
29879
30240
29958
29715
30169
30372
30006
29788
30018
30187
30239
30077
30529
30352
29814
30202
30052
30280
30317
30149
30263
30294
30284
30316
30524
30526
30528
30462
30528
30091
30643
30662
30674
30707
30664
30905
30681
30182
30643
30996
30679
30724
30781
30598
30323
30824
30669
30574
30421
30722
30640
30546
30689
30822
30866
31056
30571
31269
30961
30648
30793
30702
30890
30532
30840
30806
31194
30925
30850
31134
30936
30909
31261
30982
31116
30769
31039
31367
30720
31320
31187
31025
31222
31450
31575
31036
31128
31206
31323
30959
31247
31231
31367
31163
31395
31098
31393
31122
31601
31440
31410
31058
31575
31676
31206
31473
31730
31438
31363
31203
31581
31474
31320
31112
31200
31113
30876
31210
30941
30969
30646
31107
30803
30267
30610
30276
30134
29882
30101
30372
30030
29847
29764
30208
29668
29835
29659
29735
29781
29539
29665
29877
29463
29740
29980
29708
29376
29774
29762
29412
29407
29544
29638
29657
29545
29932
29436
29587
29777
29826
29498
29417
30074
29869
29654
29843
30003
29909
29627
30058
30162
29922
29822
30068
29939
30008
29904
29876
29884
29806
30024
29943
30166
29663
30000
30036
30285
30086
30361
30515
30306
30092
30362
30332
29884
30048
30164
30312
29933
30346
30689
30367
30305
30236
30524
30520
30042
30375
30722
30614
30595
30521
30758
30488
30407
30652
30811
30262
30781
30512
30593
30315
30833
30790
30863
30558
30988
30831
30451
30895
31094
31065
30833
30977
30784
30603
30652
30812
30824
30517
30714
31016
30944
30918
30951
31264
31137
31010
31173
31313
31139
30666
31185
31492
31207
31081
31481
31231
31324
31148
31540
31373
31389
31259
31110
31087
31281
31498
31303
30965
31194
31607
31364
30959
31268
31637
31406
31173
31598
31745
31193
31530
31489
31338
31490
31613
31783
31633
31633
31375
31382
31376
31421
31652
31741
31497
31243
31442
31661
31419
31340
31372
31372
31257
31115
31141
31286
30681
30704
30705
30841
30361
30644
30727
30349
30236
30335
29973
29912
30033
29860
29744
29704
29873
30114
29938
29641
29652
30041
29796
29586
29461
29518
29453
29414
29693
29401
29469
29454
29359
29697
29197
29542
29841
29639
29208
29829
29521
29423
29551
29844
29808
29544
29777
30099
30017
29654
29867
30025
29883
29750
30014
30111
29785
29878
30140
30070
29918
29980
30150
30099
29884
30112
30223
30124
29933
30123
30304
30265
30211
30054
30390
30359
30089
30611
30157
30266
30572
30656
30304
30369
30596
30346
30344
30552
30782
30614
30646
30399
30677
30713
30296
30794
30422
30705
30124
30845
30933
30708
30734
30811
30810
30381
30510
30566
30706
30649
30801
30917
30887
30584
30864
30913
30595
30721
30877
30947
30677
30925
31266
30795
30859
30773
31278
30993
30619
31142
31358
30781
31211
31195
31030
30748
31061
31006
30996
30785
31168
31443
31133
30842
31366
31639
31384
31139
31563
31419
31521
31237
31545
31401
31338
31288
31825
31589
31351
31616
31662
31489
31351
31418
31651
31551
31484
31952
31562
31557
31464
31976
31587
31119
31616
31826
31346
31194
31626
31294
31109
31317
31066
31293
30934
30980
30661
30733
30499
30923
30780
30191
30447
30632
30501
30268
30195
30095
29853
30068
29817
29777
29929
29939
29715
29679
29500
29429
29597
29957
29796
29750
29524
29895
29411
29714
30010
29621
29568
30037
29882
29685
29839
29856
30022
29896
29915
30422
30157
30250
30026
30215
30323
30027
30454
30329
30009
30186
30403
30345
30490
30288
30245
30539
30114
30498
30364
30620
30559
30600
30919
30317
30585
30765
30910
30634
30405
30660
30909
30700
30744
30535
30855
30901
31019
30820
30799
30800
30732
30785
30516
30902
30820
31062
31128
30851
30870
31286
30733
30944
30961
30902
31053
30982
31378
30858
31065
31561
31318
30954
31341
31283
31233
30936
31352
31468
31461
31060
31421
31703
31306
31232
31510
31681
31592
31583
31840
31520
31590
31604
31560
31414
31306
31585
31707
31710
31552
31960
31906
31626
31875
31868
31760
31715
31777
31894
31948
31633
32107
31760
31586
31664
31952
32026
31997
31833
31946
31975
31803
32041
32138
32066
31836
32154
32139
32007
32044
32108
32176
32253
32120
32077
32044
32012
32246
32105
32372
31935
32169
32081
32089
32221
32174
32148
31899
31808
31963
31636
31528
31744
31541
31358
31623
31732
31732
31181
31077
31209
31360
30774
30777
31209
31152
30557
30959
30858
30836
30319
30759
30534
30224
30264
30281
30490
30052
30276
30233
30250
30055
30133
30271
30241
30210
30340
29905
29863
30087
29978
30322
30017
30132
30062
30317
29933
30406
30550
30513
30398
30419
30549
30437
30407
30820
30626
30594
30506
30477
30621
30595
30389
30738
30484
30269
30887
31055
30438
30352
30925
30778
30456
30646
30623
30985
30723
30716
30838
30828
30835
31060
30890
31055
30738
30855
31153
30773
31069
30902
30897
30667
30883
30936
31316
31221
31097
31214
31199
31094
31023
31127
31104
31009
31249
31198
31359
31256
31142
31350
31033
31427
31470
31378
31241
31528
31393
31511
31232
31297
31582
31516
31552
31639
31383
31585
31662
31880
31322
31617
31335
31833
31469
31327
31629
31587
31476
31685
31979
31564
31778
31883
31641
31497
31428
31566
31887
31916
31696
31787
31883
31671
31643
31923
31742
31786
31799
32013
31859
31733
31979
32016
31750
31796
31643
32049
31899
31968
32198
31737
31825
32048
31721
31851
32027
31993
32268
31787
31914
31989
31996
31833
31560
31705
31585
31775
31660
31607
31271
31332
31493
31395
31367
31057
31356
31109
30998
30802
30805
30880
30775
30566
30520
30539
30456
30715
30409
30061
30147
30525
30100
30133
30062
29915
29829
30160
29861
29808
29741
29888
30107
29815
29991
29980
29898
30158
29796
30135
30187
30188
29703
30087
30156
30310
29803
30220
30552
30400
30195
30167
30530
30260
30360
30488
30469
30375
30611
30507
30357
30070
30468
30737
30547
30421
30613
30623
30556
30449
30392
30696
30538
30487
31008
30907
30767
30772
30951
30486
30816
30636
31006
30929
30831
30850
30911
30961
31094
31240
31012
30895
30875
30859
31108
31000
31441
31086
31096
31159
30906
31334
31279
31244
31073
31040
31093
31146
31118
31254
31183
31257
31424
31177
31230
31267
31378
31030
31285
31356
31519
31396
31622
31517
31681
31308
31367
31528
31431
31427
31861
31704
31401
31484
31450
31423
31692
31694
31578
31454
31242
31538
31600
31617
31526
31851
31690
31623
31542
31996
31578
31732
31946
32003
31923
31439
32082
32075
31796
31554
31825
31723
31855
31622
31944
31741
31368
31830
32021
31959
31704
32009
31929
31746
31724
31754
31919
31714
31822
31699
31799
31700
31665
31764
31652
31353
31384
31509
31117
31025
31403
31142
30746
30911
31064
30691
30490
30755
30991
30711
30194
30683
30252
30496
30349
30559
30283
29710
29848
30061
30236
29539
29884
30196
30008
29949
30098
29786
29972
29879
29684
29953
29972
29846
29806
30069
29470
30110
30253
30015
29841
30046
29995
29848
29995
30417
30414
30420
