25185
25097
24840
25118
25349
25137
24921
25284
25306
25276
25298
25466
25457
25326
25533
25539
25640
25491
25707
25796
25680
25689
25874
25873
25745
25695
25984
25984
25803
25728
25866
25913
25598
25834
26010
25912
25861
26006
25976
25917
25875
26070
26081
25905
25901
26096
26087
25939
25978
26195
26040
25904
26114
26261
26041
26020
26299
26264
26066
26070
26385
26241
26085
26174
26510
26306
26036
26408
26530
26283
26216
26387
26528
26357
26231
26483
26482
26171
26357
26579
26312
25961
26236
26150
26038
25991
26066
25913
25863
25633
25856
25769
25574
25676
25623
25620
25303
25534
25446
25410
25185
25417
25327
25215
25136
25480
25356
24959
25182
25348
25204
25161
25271
25221
25231
25092
25246
25397
25165
25184
25484
25232
25190
25361
25541
25442
25260
25538
25554
25351
25420
25551
25497
25409
25423
25702
25528
25384
25519
25685
25575
25303
25660
25634
25594
25399
25703
25648
25533
25579
25769
25687
25544
25653
25730
25765
25616
25757
25766
25766
25571
25922
25831
25727
25685
26052
25812
25759
25815
26057
25927
25757
26010
26066
25966
25947
26168
26181
25939
25904
26285
26099
26055
26074
26258
26184
25993
26224
26374
26207
26052
26322
26310
26192
26165
26318
26282
26057
26155
26189
26177
25809
26083
25993
25813
25722
25829
25880
25590
25654
25677
25528
25357
25473
25464
25524
25393
25495
25451
25356
25109
25347
25424
25186
25244
25357
25195
25136
25118
25202
25212
25062
25239
25443
25276
25214
25397
25438
25387
25282
25521
25497
25407
25475
25597
25711
25400
25681
25897
25732
25512
25779
25747
25710
25596
25838
25781
25768
25905
25973
25846
25825
25884
25917
25949
25829
26109
26120
25956
25906
26042
26144
25883
25885
26216
26026
25959
26242
26291
26173
26200
26408
26438
26209
26333
26449
26340
26288
26324
26490
26411
26155
26445
26577
26447
26334
26568
26560
26461
26404
26592
26640
26452
26524
26674
26656
26365
26624
26774
26614
26547
26714
26657
26549
26466
26732
26734
26561
26536
26716
26481
26296
26360
26433
26134
25964
26063
26037
25858
25732
25961
25999
25775
25716
25941
25780
25479
25782
25770
25679
25405
25717
25646
25552
25464
25658
25599
25512
25465
25734
25616
25362
25586
25818
25649
25553
25760
25768
25754
25710
25962
25911
25742
25824
26026
26029
25906
26079
26092
26147
25971
26044
26207
26128
25864
26239
26169
26023
25977
26142
26201
25998
26111
26238
26196
26018
26300
26376
26237
26239
26448
26351
26222
26307
26438
26437
26303
26434
26574
26445
26346
26533
26471
26475
26313
26462
26533
26442
26432
26565
26500
26457
26543
26700
26526
26528
26683
26790
26579
26644
26756
26769
26633
26707
26799
26889
26546
26824
26865
26772
26516
26704
26796
26573
26564
26687
26432
26402
26237
26316
26265
25988
26102
26170
26012
25814
25982
26067
25892
25689
25976
25912
25748
25712
25854
25775
25474
25727
25921
25706
25432
25713
25834
25606
25497
25750
25894
25638
25725
25817
25817
25576
25883
26085
25850
25621
25984
26114
25915
25898
26107
26140
25942
26046
26111
26030
25779
25986
26152
26003
25902
26169
26043
26028
25989
26217
26303
26150
25908
26185
26155
26008
26136
26267
26295
25988
26266
26532
26443
26303
26596
26601
26478
26415
26737
26622
26457
26572
26800
26695
26514
26811
26776
26742
26594
26890
26815
26833
26884
26915
26994
26871
26877
27135
27037
26805
27061
27201
26925
26818
27051
27140
26928
26826
27092
26984
26858
27007
27234
26981
26740
26901
26858
26678
26500
26723
26633
26435
26316
26461
26346
26071
26142
26295
26103
25779
26019
25970
25822
25576
25875
25888
25631
25551
25729
25708
25494
25529
25774
25550
25451
25640
25534
25425
25302
25539
25556
25548
25303
25575
25483
25405
25575
25773
25633
25479
25714
25741
25684
25424
25778
25802
25636
25628
25802
25735
25627
25663
25887
25717
25635
25767
25871
25693
25583
25777
25771
25684
25548
25891
25752
25677
25739
25980
25772
25654
25825
25859
25915
25766
26044
25956
25861
25937
25983
26129
25815
26076
26229
26184
25870
26062
26170
26199
26066
26270
26259
26100
26064
26245
26219
26107
26130
26406
26270
26088
26303
26398
26310
26234
26415
26470
26329
26308
26445
26417
26354
26236
26572
26370
26188
26292
26413
26266
26042
26305
26216
25992
25845
26127
26038
25873
25719
25860
25846
25666
25661
25711
25564
25434
25619
25619
25460
25367
25566
25394
25324
25302
25517
25470
25134
25457
25514
25428
25381
25581
25574
25530
25477
25671
25671
25615
25647
25921
25817
25729
25819
26006
25907
25746
26126
26258
26121
26103
26249
26139
26050
26138
26232
26261
26148
26236
26380
26267
25992
26232
26364
26287
26098
26315
26366
26121
26242
26319
26304
26001
26262
26355
26321
26144
26434
26365
26311
26177
26514
26471
26298
26462
26619
26480
26218
26444
26614
26551
26377
26678
26741
26528
26344
26692
26593
26391
26410
26565
26511
26277
26579
26663
26483
26425
26607
26583
26522
26486
26608
26694
26503
26418
26590
26492
26296
26359
26435
26295
26141
26275
26282
26039
25949
26127
26040
25835
25767
25895
25817
25593
25758
25853
25711
25394
25696
25579
25569
25487
25576
25664
25384
25444
25608
25466
25133
25301
25568
25356
25179
25424
25335
25266
25185
25363
25383
25245
25230
25534
25424
25191
25422
25702
25466
25265
25497
25724
25514
25388
25700
25704
25603
25442
25843
25627
25466
25591
25878
25801
25637
25844
25758
25746
25562
25881
25868
25785
25744
25919
25889
25643
25817
26035
25937
25631
26001
26026
25943
25795
26059
25997
26031
25901
26153
26205
26009
26187
26374
26272
26054
26519
26623
26494
26440
26670
26733
26625
26564
26784
26897
26676
26809
27006
26979
26816
27103
27036
27050
26892
27210
27160
27175
27157
27292
27241
27090
27080
27298
27057
26837
26912
26860
26724
26496
26712
26536
26347
26304
26458
26424
26237
26234
26451
26245
26021
26109
26316
26060
25884
26250
26277
26099
25974
26118
26004
25985
26026
26152
26054
25831
26043
26101
25961
25959
26162
26276
26078
26019
26274
26242
26029
26041
26324
26301
26167
26305
26390
26254
26173
26492
26384
26267
26298
26523
26447
26184
26266
26405
26386
26150
26385
26560
26406
26293
26461
26556
26446
26429
26658
26612
26311
26508
26677
26533
26462
26548
26556
26634
26374
26727
26735
26578
26471
26625
26695
26408
26437
26641
26572
26378
26784
26806
26777
26464
26869
26823
26703
26674
26914
26916
26856
26866
27149
27034
26965
27080
27173
27060
26821
27161
27234
27002
26933
27124
26985
26761
26757
26992
26742
26384
26553
26575
26286
26251
26355
26399
26080
25963
26177
25960
25757
25888
25974
25983
25665
25721
25879
25778
25504
25790
25892
25674
25433
25794
25592
25543
25548
25662
25592
25400
25621
25579
25567
25476
25657
25650
25545
25446
25630
25589
25357
25411
25585
25540
25392
25516
25697
25493
25304
25649
25625
25456
25517
25619
25500
25434
25401
25744
25622
25360
25569
25832
25692
25577
25747
25808
25690
25685
25908
25936
25699
25861
25873
25937
25805
25915
26051
25895
25704
25958
25931
25858
25788
25989
25972
25801
25799
25954
25892
25684
25839
25947
25861
25578
25914
26023
25906
25753
26029
26043
25916
25934
26187
26038
25960
26202
26183
26201
26056
26198
26270
26273
26055
26390
26248
26088
26098
26295
26095
25811
25966
25968
25802
25728
25824
25761
25551
25363
25576
25514
25340
25213
25389
25248
25067
25147
25335
25107
24935
25149
25222
25011
24748
25144
25004
24874
24999
25019
24984
24722
24956
25167
25030
24803
25145
25194
25186
25093
25363
25389
25199
25277
25333
25394
25074
25385
25511
25400
25076
25347
25520
25382
25199
25487
25332
25233
25205
25535
25401
25238
25384
25553
25427
25127
25487
25540
25408
25374
25488
25534
25402
25374
25561
25458
25230
25391
25502
25537
25249
25511
25726
25548
25323
25662
25742
25622
25456
25860
25810
25495
25685
25791
25763
25551
25743
25750
25692
25707
25828
25775
25742
25713
25856
25914
25715
25787
26011
25826
25709
25868
25888
25777
25740
25931
25825
25717
25627
25899
25775
25503
25543
25561
25516
25371
25444
25423
25242
25054
25286
25167
25067
24907
25044
24947
24836
24839
24853
24817
24540
24836
24984
24759
24705
24823
24698
24664
24650
24846
24712
24558
24550
24849
24863
24552
24738
24917
24807
24741
24864
24822
24774
24787
25016
24991
24790
24892
25091
25030
24785
25029
25149
24990
24880
25151
25108
25041
24972
25263
25231
24949
24992
25193
25170
24923
25112
25146
25082
25087
25223
25320
25084
25015
25242
25290
24951
24993
25318
25127
24962
25231
25349
25269
25076
25254
25223
25252
25129
25436
25355
25075
25259
25449
25355
25132
25400
25578
25369
25254
25522
25581
25352
25440
25598
25513
25438
25358
25661
25543
25280
25557
25646
25509
25401
25590
25680
25587
25474
25583
25614
25235
25193
25463
25274
25130
25103
25146
24912
24744
25018
24800
24759
24690
24899
24772
24527
24593
24809
24599
24244
24512
24665
24371
24129
24477
24395
24388
24190
24410
24463
24190
24287
24430
24378
24344
24466
24497
24387
24210
24390
24428
24464
24392
24629
24535
24469
24491
24869
24703
24492
24716
24764
24642
24414
24710
24704
24697
24589
24784
24812
24685
24720
24837
24804
24565
24733
24982
24804
24607
24832
24915
24915
24630
25046
25085
24849
24908
25037
25128
24912
24941
25031
25038
24822
25069
25279
25029
24808
25096
25171
25113
25079
25216
25204
25082
25192
25219
25221
25154
25259
25382
25197
24998
25406
25287
25133
25087
25394
25262
25094
25280
25235
25278
25125
25322
25336
25162
25222
25275
25392
25204
25180
25300
25278
24805
25033
25143
24934
24792
24906
24927
24698
24446
24697
24759
24462
24500
24629
24481
24335
24355
24403
24338
24033
24349
24308
24290
24078
24267
24254
24064
24118
24379
24161
24095
24098
24207
24230
24102
24175
24315
24130
24022
24408
24307
24177
24326
24417
24405
24296
24323
24600
24457
24268
24502
24582
24443
24415
24591
24484
24384
24325
24633
24568
24325
24479
24674
24508
24481
24621
24620
24581
24400
24722
24817
24532
24517
24896
24703
24525
24585
24776
24713
24410
24662
24901
24775
24539
24903
24936
24769
24590
24832
24783
24715
24772
24892
24884
24642
24884
25068
24810
24801
25046
25033
24884
24891
24977
24862
24717
24767
24963
24977
24704
24886
24981
24873
24782
24963
25004
24805
24789
24931
24844
24652
24710
24852
24743
24519
24710
24717
24574
24301
24635
24582
24453
24303
24528
24432
24218
24294
24307
24327
23962
24335
24329
24128
24034
24295
24173
24142
24108
24361
24336
24029
24044
24287
24153
24041
24337
24483
24354
24049
24549
24625
24436
24443
24625
24666
24497
24556
24848
24766
24574
24752
24913
24771
24582
24884
24812
24743
24633
24933
24863
24706
24783
24920
24889
24817
24878
24912
24951
24815
25045
24956
24849
24749
25032
25103
24976
25028
25197
25055
24859
25057
25216
25063
24911
25171
25169
25129
25013
25342
25305
24998
25135
25259
25232
25124
25255
25392
25252
25167
25429
25436
25301
25248
25461
25451
25287
25290
25562
25503
25277
25517
25533
25519
25299
25598
25682
25448
25375
25600
25557
25363
25401
25538
25284
25173
25099
25305
25141
24926
25109
25049
24900
24823
24894
24789
24542
24546
24755
24623
24512
24591
24792
24558
24395
24621
24563
24492
24302
24580
24642
24424
24412
24574
24562
24374
24527
24605
24611
24421
24645
24651
24605
24418
24803
24812
24715
24531
24900
24767
24450
24653
24931
24741
24528
24726
24937
24832
24582
24893
24940
24810
24819
24870
24983
24594
24838
24972
24855
24634
24934
24929
24816
24645
24958
24984
24827
24732
25003
24902
24761
24886
24992
24922
24787
25003
25108
24958
24925
25113
25058
25026
24886
25229
25073
25008
25044
25112
25167
24825
25100
25318
25083
25027
25234
25174
25274
25254
25466
25395
25042
25255
25356
25375
25118
25416
25472
25217
25056
25401
25505
25253
25180
25274
25214
24911
25000
25124
24991
24603
24840
24721
24641
24261
24500
24368
24156
24113
24050
23938
23723
23679
23776
23554
23380
23485
23363
23155
23045
23270
23210
23109
23049
23369
23358
23157
23251
23439
23362
23293
23550
23681
23637
23543
23897
23847
23963
23918
24253
24271
24143
24131
24297
24297
24080
24264
24521
24212
24269
24409
24284
24157
24237
24459
24379
24154
24201
24504
24310
23978
24325
24322
24298
24284
24413
24375
24313
24325
24500
24520
24401
24364
24624
24539
24269
24563
24753
24529
24506
24640
24688
24605
24579
24725
24769
24593
24711
24936
24885
24570
24781
25023
24813
24770
25028
25111
24789
24773
25028
24879
24748
24915
25073
24964
24917
25063
25256
25048
24942
25104
25197
25032
24792
25118
25088
24827
24814
24978
24791
24588
24671
24776
24540
24218
24458
24339
24208
24079
24296
24151
23990
23960
24078
24008
23801
23913
24084
23795
23631
23832
23765
23603
23519
23849
23818
23613
23596
23710
23672
23465
23695
23818
23600
23388
23793
23713
23777
23760
23981
23949
23690
23733
24131
24069
23733
24064
24329
24062
23936
24261
24302
24111
23949
24343
24263
24016
24203
24273
24152
24129
24174
24265
24226
24097
24283
24403
24251
23975
24417
24178
24108
24271
24424
24296
24164
24373
24503
24281
24185
24341
24417
24379
24270
24511
24526
24328
24359
24565
24489
24314
24445
24634
24507
24320
24600
24552
24467
24399
24670
24631
24501
24537
24773
24719
24560
24665
24899
24746
24372
24761
24912
24737
24644
24864
24685
24582
24556
24835
24547
24326
24487
24478
24378
24077
24281
24444
24175
23970
24133
24063
23970
23918
23970
23967
23630
23715
23910
23741
23464
23776
23778
23604
23526
23732
23665
23563
23483
23738
23645
23452
23567
23821
23620
23537
23667
23891
23661
23674
23795
23724
23690
23653
23969
23866
23627
23840
24063
24007
23758
24075
24163
24078
24037
24287
24323
24096
24135
24471
24235
24214
24196
24396
24347
24087
24422
24486
24300
24257
24452
24476
24353
24291
24565
24503
24254
24400
24654
24534
24371
24580
24678
24556
24502
24709
24727
24651
24567
24818
24873
24737
24783
24987
24924
24613
24830
24901
24875
24637
24881
24961
24824
24827
24972
24971
24755
24920
24922
24879
24624
24966
25055
24898
24764
24960
24798
24691
24714
24810
24726
24531
24484
24650
24486
24368
24454
24537
24337
24135
24396
24309
24161
23990
24302
24130
23979
23926
24188
24036
23710
24001
24110
23967
23772
23934
24098
23850
23723
24036
23910
23801
23839
24041
23833
23653
23817
23967
23843
23698
23972
23953
23805
23752
24056
24057
23749
23775
23990
23965
23788
24015
24055
23941
23779
24076
24042
23975
23937
24159
24160
23975
24015
24260
24188
23969
24223
24305
24193
24122
24367
24395
24292
24264
24344
24441
24282
24189
24490
24492
24237
24388
24522
24377
24179
24450
24464
24373
24217
24429
24561
24282
24324
24654
24572
24404
24583
24687
24494
24375
24613
24635
24500
24390
24697
24690
24549
24570
24782
24742
24541
24780
24845
24771
24587
24785
24787
24565
24457
24639
24473
24264
24116
24273
23985
23662
23685
23648
23398
22950
22962
22904
22592
22318
22393
22328
22076
21924
22215
22132
21951
22066
22143
22006
21912
22262
22193
22248
22041
22418
22427
22291
22236
22501
22436
22240
22392
22540
22428
22227
22525
22609
22458
22400
22638
22597
22525
22569
22745
22710
22439
22620
22913
22694
22399
22751
22677
22716
22645
22747
22850
22554
22631
22737
22638
22622
22647
23010
22748
22739
22908
22931
22912
22784
23016
23096
23092
22925
23381
23294
23190
23359
23650
23470
23170
23591
23672
23600
23476
23786
23691
23647
23628
23880
23840
23743
23779
24065
23874
23659
23984
23967
23946
23823
23981
24002
23936
23854
24002
23905
23873
23864
24134
23939
23829
24003
24088
23806
23788
23998
23821
23804
23504
23897
23659
23597
23600
23825
23547
23346
23541
23483
23384
23156
23312
23362
23144
23016
23242
23075
22911
22960
23062
22931
22686
22934
22945
22809
22589
22947
22988
22733
22784
22962
22903
22800
22863
22970
22981
22713
23040
23201
23015
22989
23202
23200
23224
23262
23538
23335
23207
23428
23512
23436
23231
23583
23643
23501
23269
23643
23676
23366
23445
23506
23568
23365
23442
23504
23501
23338
23519
23623
23476
23291
23578
23570
23441
23368
23627
23644
23448
23434
23791
23574
23432
23632
23784
23600
23340
23644
23809
23608
23468
23790
23753
23499
23476
23890
23707
23400
23643
23793
23609
23593
23790
23807
23709
23678
23878
23693
23664
23699
23976
23861
23565
23915
24009
23886
23747
23809
23903
23688
23489
23646
23691
23471
23345
23555
23355
23027
23255
23172
23095
22996
23118
23021
22840
22662
22964
22932
22673
22636
22889
22778
22417
22702
22837
22672
22458
22681
22750
22622
22602
22699
22770
22639
22581
22916
22749
22418
22686
22928
22714
22671
22808
22965
22663
22722
22837
22974
22696
22695
23040
22961
22815
22920
22977
22859
22768
22979
23112
22841
22760
22979
22909
22904
22887
22989
22990
22815
22992
23189
23000
22757
23099
23148
23041
22887
23188
23155
22964
23056
23246
23136
22872
23079
23366
23076
22763
23146
23065
23025
22993
23126
23118
23097
22979
23216
23093
23047
23113
23269
23212
22938
23392
23341
23184
23237
23391
23459
23338
23212
23545
23459
23303
23363
23579
23377
23080
23469
23402
23317
23205
23382
23233
23033
22914
23225
22921
22856
22804
23091
22852
22490
22751
22758
22661
22336
22588
22734
22477
22509
22643
22431
22423
22428
22488
22530
22236
22513
22401
22297
22163
22476
22489
22464
22426
22555
22443
22229
22565
22822
22659
22424
22709
22943
22773
22660
22945
23045
22794
22784
23069
22958
22754
22933
23140
22959
22714
22955
22952
22871
22708
22941
23095
22842
22902
23035
23003
22780
22825
23202
22989
22666
23029
23125
22989
22961
23099
23104
23199
23001
23379
23192
23173
23126
23545
23405
23029
23444
23582
23280
23275
23499
23415
23403
23198
23479
23490
23351
23399
23549
23622
23328
23601
23821
23588
23488
23739
23897
23581
23655
23895
23751
23633
23540
23839
23618
23421
23568
23675
23494
23305
23500
23460
23212
23027
23331
23303
22998
23006
23144
23079
22788
22953
23058
22897
22696
22934
22946
22746
22662
22909
22837
22638
22683
22873
22804
22609
22779
22885
22799
22576
22938
23051
22823
22858
22961
23008
22845
22814
23087
23161
22796
23023
23083
23106
22826
23123
23246
23091
22930
23217
23247
22895
22900
23371
23155
22841
23118
23277
23195
22858
23277
23235
23190
23028
23210
23361
23066
23089
23245
23276
22894
23176
23259
23224
23110
23349
23306
23226
23191
23297
23264
23092
23152
23335
23258
22996
23241
23302
23260
23089
23341
23287
23197
23210
23392
23371
23082
23262
23474
23303
23127
23225
23359
23263
23080
23371
23292
23234
23226
23464
23371
23199
23014
23393
23150
23033
23232
23216
23070
22877
23094
23106
22838
22729
22883
22736
22595
22664
22750
22640
22397
22528
22627
22492
22183
22459
22395
22305
22264
22449
22458
22235
22114
22403
22295
22010
22204
22510
22312
22211
22373
22430
22338
22175
22551
22553
22387
22330
22638
22551
22500
22754
22959
22855
22632
23004
22964
22859
22695
23153
22965
23036
22984
23049
23184
22944
23003
23207
23135
22993
23174
23337
23090
23044
23258
23265
23102
23071
23353
23240
23039
23182
23320
23315
23100
23353
23452
23359
23134
23512
23561
23298
23384
23693
23511
23326
23314
23636
23407
23288
23511
23631
23489
23321
23563
23543
23435
23292
23510
23555
23343
23365
23705
23564
23285
23600
23600
23546
23350
23707
23676
23523
23477
23733
23615
23458
23414
23609
23409
23098
23294
23332
23166
23069
23230
23227
22961
22894
22990
23021
22556
22584
22950
22622
22548
22565
22574
22541
22288
22490
22544
22270
22369
22531
22268
22302
22275
22354
22213
22185
22370
22445
22335
22230
22383
22490
22318
22395
22565
22578
22434
22431
22657
22600
22333
22679
22781
22640
22434
22761
22722
22611
22470
22791
22792
22598
22603
22852
22750
22415
22699
22911
22732
22431
22731
22729
22671
22728
22901
22940
22692
22624
22920
22971
22723
22896
23005
22821
22696
23013
23149
22822
22911
23057
23153
22783
22912
23228
22954
22944
23066
23082
23082
22821
23172
23162
23075
22965
23235
23233
23014
23076
23367
23136
23042
23211
23467
23255
23171
23360
23540
23251
23144
23502
23447
23121
23059
23454
23253
23002
23100
23151
23011
22909
23168
23116
22777
22615
22833
22839
22572
22452
22764
22491
22409
22441
22759
22392
22084
22476
22474
22310
22230
22373
22322
22181
22121
22358
22254
21977
22135
22282
22191
22022
22273
22384
22240
21948
22411
22365
22145
22214
22452
22469
22202
22353
22680
22497
22212
22518
22669
22411
22250
22570
22617
22490
22591
22728
22670
22538
22678
22735
22733
22542
22888
22865
22673
22631
22845
22751
22729
22628
22837
22874
22666
22783
22935
22864
22587
22877
22919
22845
22678
22989
22952
22822
22708
22984
22945
22650
22871
23168
22936
22701
23078
23050
22956
22900
23043
23233
23071
22832
23164
23006
22818
23163
23156
23158
22855
23175
23376
23164
23060
23245
23155
23014
23126
23162
23094
22918
22980
23141
22976
22790
22966
23047
22789
22629
22874
22765
22607
22603
22823
22650
22379
22553
22791
22555
22456
22666
22720
22420
22369
22522
22494
22289
22324
22561
22578
22206
22193
22538
22471
22116
22501
22646
22453
22405
22483
22678
22511
22293
22771
22509
22482
22432
22872
22659
22513
22688
22824
22681
22568
22804
22870
22693
22632
22915
22800
22590
22703
22804
22843
22734
22846
22951
22826
22794
22975
22925
22872
22843
22988
22883
22849
22919
23010
22911
22770
22997
23158
23027
22831
23123
23144
23016
22896
23219
23113
23050
22976
23219
23166
22906
23112
23274
23120
22952
23241
23304
23121
23039
23340
23267
23095
23113
23356
23288
22973
23236
23410
23266
23090
23352
23473
23288
23019
23370
23193
23165
22951
23352
23223
22838
23009
23158
22870
22695
22923
23026
22688
22605
22839
22796
22580
22410
22590
22473
22215
22421
22477
22383
22121
22418
22453
22215
22048
22353
22242
22083
22024
22257
22165
21808
22081
22133
22051
21977
22119
22084
22094
21832
22290
22175
22025
22041
22367
22298
22014
22193
22220
22271
22174
22409
22461
22299
22212
22614
22658
22332
22440
22667
22563
22343
22591
22655
22577
22294
22700
22725
22652
22596
22701
22830
22600
22570
22928
22706
22454
22695
22993
22788
22445
22855
23051
22759
22754
22958
22936
22807
22775
23007
22924
22664
22855
22986
22981
22865
22999
23134
22855
22768
23005
23036
22912
22926
23187
23000
22895
23000
23077
23046
22703
23115
23251
23042
22987
23180
23218
23058
22854
23085
23131
22833
22898
22955
22828
22725
22876
22869
22730
22351
22742
22634
22464
22357
22465
22314
22061
22165
22484
22239
22060
22296
22438
22200
21843
22270
22250
22066
21942
22287
22237
21845
21879
22084
21994
21909
22121
22208
22138
21973
22270
22332
22074
21877
22293
22206
21993
22128
22358
22270
22097
22248
22450
22250
22027
22396
22445
22266
22102
22401
22393
22303
22291
22461
22423
22143
22422
22519
22404
22167
22655
22602
22504
22413
22673
22709
22312
22436
22642
22515
22427
22599
22731
22560
22459
22766
22668
22636
22487
22826
22754
22547
22654
22847
22766
22577
22784
22938
22779
22530
22931
23007
22746
22805
22996
22958
22845
22727
23001
22944
22594
22820
23173
22988
22733
22955
22947
22907
22606
23058
23007
22635
22613
22973
22789
22554
22584
22677
22544
22191
22550
22498
22335
22210
22348
22448
22163
22107
22380
22242
22044
22101
22351
22116
21956
22172
22207
22060
21846
22178
22206
22040
22000
22182
22115
21969
22087
22313
22159
21835
22246
22417
22218
21935
22302
22336
22188
22260
22521
22244
22223
22178
22354
22248
22171
22466
22390
22390
22061
22491
22313
22186
22090
22419
22331
22080
22351
22524
22408
22078
22460
22605
22389
22102
22542
22479
22434
22338
22559
22539
22236
22454
22671
22540
22339
22559
22547
22487
22253
22598
22731
22427
22369
22704
22545
22458
22496
22709
22693
22513
22735
22691
22648
22380
22751
22846
22654
22518
22955
22853
22636
22679
22884
22749
22664
22804
22923
22766
22681
22772
22805
22547
22439
22769
22730
22241
22424
22670
22395
22223
22328
22305
22175
21847
22240
22182
22074
21905
22180
21966
21933
21832
22188
21918
21670
21969
21976
21830
21504
21922
21910
21652
21642
21808
21805
21639
21638
21798
21833
21482
21822
22028
21694
21539
21917
21863
21840
21830
22134
21882
21905
21860
22009
22107
21781
22089
22066
21963
21874
22066
22141
22047
22081
22335
22176
22023
22072
22331
22180
21837
22184
22307
22194
21934
22294
22399
22195
22049
22336
22342
22151
22308
22573
22458
22312
22353
22554
22504
22188
22575
22622
22437
22342
22595
22583
22375
22535
22607
22630
22253
22601
22741
22626
22511
22725
22770
22634
22562
22712
22620
22489
22454
22673
22633
22421
22695
22826
22599
22472
22641
22588
22570
22461
22637
22566
22369
22257
22427
22356
22196
22302
22236
22107
21941
22036
22176
21964
21831
22025
21948
21710
21718
21983
21836
21620
21771
22071
21847
21526
21965
21929
21807
21652
21901
21794
21626
21632
21899
21812
21624
21781
22082
21879
21510
21989
22146
21856
21875
22097
22068
21894
21833
22199
22040
21966
22043
22205
22073
21813
22177
22173
22047
21910
22205
22291
22135
22217
22413
22402
22163
22304
22342
22329
22212
22428
22521
22279
22050
22503
22418
22336
22337
22612
22389
22163
22368
22458
22432
22143
22465
22738
22437
22347
22533
22679
22449
22490
22751
22696
22451
22500
22831
22607
22397
22696
22709
22660
22513
22773
22759
22594
22542
22741
22842
22649
22574
22980
22775
22515
22728
22944
22794
22475
22850
22857
22597
22574
22644
22520
22220
22459
22552
22404
21972
22378
22348
22222
22095
22305
22271
22143
22064
22166
22121
21948
21941
22207
22012
21836
22019
22196
21956
21714
22082
22047
22003
21735
22214
21974
21855
21885
22212
22119
22003
22187
22475
22297
22078
22532
22338
22368
22374
22568
22562
22342
22375
22768
22626
22217
22515
22782
22631
22414
22757
22589
22655
22554
22677
22602
22410
22541
22775
22619
22576
22679
22777
22751
22621
22787
22782
22756
22522
22893
22964
22727
22661
23130
22887
22670
22871
22931
22920
22624
23011
22982
22881
22707
23144
23162
22822
23028
23252
23021
22760
23041
23130
23112
22872
23147
23280
23034
23013
23270
23294
23119
23046
23336
23184
22872
23181
23361
23103
23016
23139
23202
22999
22795
23097
23045
22750
22770
23005
22856
22501
22707
22769
22616
22282
22629
22773
22447
22222
22563
22523
22499
22254
22716
22363
22258
22499
22620
22378
22229
22466
22494
22328
22330
22449
22384
22332
22264
22542
22645
22247
22519
22804
22607
22263
22687
22705
22537
22458
22734
22634
22563
22450
22741
22644
22404
22566
22818
22666
22447
22745
22848
22609
22550
22791
22751
22647
22640
22870
22610
22576
22607
22747
22650
22479
22677
22872
22658
22344
22824
22759
22609
22543
22845
22746
22565
22733
22734
22734
22595
22815
22772
22808
22515
22898
22872
22752
22660
22983
22899
22748
22786
23061
22888
22563
22892
22892
22829
22672
22925
22881
22745
22659
23033
22886
22719
22652
22943
22767
22532
22671
22797
22570
22244
22462
22479
22323
22284
22378
22233
21961
21957
22278
22034
21889
22111
22127
22043
21854
22069
21943
21851
21854
22023
21992
21637
21730
21922
21791
21487
21714
21781
21755
21381
21805
21739
21626
21526
21810
21876
21565
21630
21922
21777
21635
21849
22046
21805
21716
21967
21952
21854
21623
22044
22052
21723
21887
22112
22013
21550
21887
21924
21893
21578
22041
22147
21864
21871
22040
21901
21721
21897
22005
21855
21821
21931
22021
21920
21613
21982
22153
21961
21876
21992
21995
21869
21695
22016
22036
21820
22051
22100
21954
21933
22061
22045
22006
21898
22198
22193
22044
22058
22332
22179
21932
22143
22366
22254
22000
22327
22481
22238
21987
22354
22441
22208
22248
22466
22272
21989
22216
22226
22136
21782
22102
22196
21953
21727
21874
21841
21751
21666
21834
21759
21514
21619
21702
21603
21160
21559
21698
21331
21157
21530
21552
21259
21176
21514
21415
21244
21299
21476
21276
21135
21332
21538
21256
21191
21491
21301
21289
21303
21532
21555
21326
21335
21510
21605
21198
21600
21781
21504
21433
21807
21654
21574
21538
21744
21729
21531
21603
21829
21680
21423
21759
21851
21688
21451
21782
21601
21690
21495
21908
21801
21631
21607
21904
21738
21415
21728
21781
21819
21561
21867
21944
21795
21704
21966
21962
21675
21880
22095
21814
21605
21897
22132
21884
21548
22052
22056
21880
21935
22196
22166
21916
21973
22344
22182
21941
22310
22436
22242
21933
22374
22425
22151
22058
22330
22217
21976
22038
22272
22061
21840
21976
22005
21771
21565
21750
21681
21549
21320
21741
21446
21212
21441
21613
21304
21016
21394
21516
21324
20994
21274
21238
21154
20898
21192
21308
20953
21131
21216
21201
20839
21175
21179
21172
20919
21233
21273
21139
20910
21274
21300
20983
21063
21248
21262
20855
21091
21281
21074
20882
21221
21209
21051
20912
21186
21113
20892
20900
21194
21210
20801
20928
21161
20993
20691
21171
21248
21103
20996
21198
21151
20939
20932
21199
21073
20810
21014
21233
21019
20797
21095
21106
20972
20860
21096
21096
20935
20883
21152
21045
20759
21041
21181
21017
20775
21053
21173
20921
20728
21038
21076
20950
20934
21087
20993
20675
20956
21098
20849
20593
20869
21031
20895
20725
20934
20849
20684
20781
20965
20802
20445
20603
20687
20593
20393
20609
20713
20407
20240
20552
20376
20347
20175
20579
20430
20173
20274
20527
20308
20056
20303
20356
20114
20023
20379
20392
20042
19971
20275
20252
19894
20053
20300
20191
19897
20179
20295
20148
19924
20340
20392
20078
20024
20411
20234
19994
20129
20192
20183
20046
20165
20456
20204
20133
20317
20449
20221
20210
20512
20379
20057
20237
20389
20340
20150
20277
20364
20264
20004
20435
20458
20217
20183
20403
20294
20065
20173
20600
20318
20167
20348
20622
20307
20218
20539
20604
20351
20282
20507
20447
20289
20334
20573
20457
20075
20319
20665
20370
20039
20449
20490
20405
20189
20608
20627
20295
20453
20609
20651
20226
20661
20842
20497
20382
20690
20581
20581
20368
20658
20677
20346
20365
20534
20456
20022
20381
20355
20282
20091
20287
20413
20117
19885
20300
20121
19852
19994
20221
20070
19872
19907
19963
19923
19616
19904
19933
19781
19549
19926
19800
19747
19650
19970
19887
19767
19996
20076
19933
19847
20117
20105
20080
19773
20197
20059
19949
20028
20438
20236
20099
20264
20379
20222
20022
20361
20380
20220
20078
20356
20303
20171
20075
20388
20301
20064
20213
20409
20267
19902
20276
20301
20121
20159
20279
20182
20176
20247
20377
20320
20061
20333
20595
20363
20090
20419
20567
20254
20176
20437
20357
20406
20170
20441
20555
20122
20229
20592
20358
20066
20470
20463
20330
20308
20582
20665
20474
20249
20668
20518
20331
20420
20878
20706
20506
20722
20791
20631
20547
20797
20859
20646
20485
20752
20628
20237
20400
20687
20357
20035
20349
20371
20209
20055
20190
20161
19913
19893
20129
20001
19693
19761
20034
19845
19671
19839
20033
19751
19468
19835
19858
19810
19699
19890
20063
19789
19679
20114
20009
19899
20170
20394
20136
19853
20287
20188
20161
19866
20247
20282
20019
20120
20250
20248
20026
20229
20295
20217
20048
20458
20277
20262
20131
20485
20474
20193
20287
20613
20354
20070
20389
20626
20366
20007
20401
20454
20257
20115
20499
20476
20326
20400
20635
20527
20413
20510
20752
20509
20354
20742
20622
20589
20545
20833
20735
20490
20478
20767
20636
20426
20776
20935
20813
20475
20838
20869
20622
20685
20970
20941
20636
20655
20898
20788
20485
20655
20784
20608
20329
20601
20599
20375
20248
20439
20250
20132
20053
20248
20137
19848
19969
20100
19920
19649
19917
19945
19747
19554
19832
19748
19625
19570
19828
19726
19470
19630
19804
19750
19300
19744
19841
19696
19544
19764
19834
19681
19595
19934
19726
19612
19627
19893
19788
19503
19836
19909
19833
19619
19938
19974
19649
19666
19842
19829
19610
19752
20082
19834
19592
19835
19914
19739
19668
19945
19940
19729
19696
20003
19900
19647
19820
20052
19851
19482
19883
20084
19798
19737
19953
19851
19700
19829
19899
20006
19793
19792
20101
19960
19583
19970
19941
19926
19610
19955
20142
19815
19906
19957
19932
19710
19899
20007
20065
19726
20079
20286
19916
19662
20171
20178
20025
19911
20140
19983
19952
19938
20112
20073
19611
19940
20067
19841
19541
19870
19765
19628
19461
19849
19655
19461
19396
19742
19562
19347
19504
19519
19467
19211
19554
19574
19371
19298
19549
19474
19178
19289
19535
19356
19029
19296
19538
19267
19128
19377
19395
19280
18990
19423
19412
19171
19328
19479
19376
19050
19380
19389
19375
19143
19481
19467
19445
19307
19472
19635
19389
19356
19654
19489
19219
19430
19585
19596
19177
19557
19812
19444
19377
19761
19662
19409
19385
19844
19663
19353
19551
19688
19615
19368
19680
19707
19576
19451
19708
19784
19506
19439
19814
19615
19549
19643
19833
19627
19468
19728
19803
19633
19451
19839
19704
19603
19466
19886
19712
19533
19491
20003
19727
19397
19773
19725
19637
19468
19749
19747
19520
19505
19732
19661
19402
19440
19697
19533
19280
19477
19623
19381
19054
19396
19290
19181
19066
19441
19184
18933
19198
19457
19184
18850
19078
19134
19039
18858
19181
19073
18995
18963
19079
19145
18849
18915
19216
18948
18656
18981
19056
19007
18937
19222
19169
19090
18942
19341
19172
18927
19136
19513
19222
18902
19250
19254
19181
18900
19360
19274
19167
19044
19338
19310
19119
19153
19493
19285
19099
19264
19262
19228
18918
19284
19343
19273
19087
19345
19269
19099
19089
19479
19363
19111
19271
19499
19184
19124
19334
19387
19137
19208
19411
19236
19227
19091
19371
19299
18992
19308
19315
19236
19031
19402
19506
19258
19194
19462
19395
19173
19217
19629
19448
19099
19406
19545
19421
19218
19406
19371
19304
19183
19374
19456
19011
19141
19200
19106
18988
18962
19075
18987
18796
18938
18965
18852
18634
18946
18885
18770
18847
18971
18787
18566
18640
18808
18830
18371
18785
18748
18583
18468
18723
18741
18628
18574
18828
18752
18564
18700
18989
18808
18617
18879
18866
18792
18685
18955
18882
18680
18684
18933
18992
18713
18753
19098
18824
18751
18831
18945
18779
18706
19018
19122
18883
18956
19106
19218
18992
18908
19236
19151
18885
19103
19332
19142
18842
19385
19416
19163
19040
19453
19448
19182
19289
19568
19367
19038
19468
19571
19359
19156
19562
19692
19420
19419
19486
19639
19317
19511
19564
19558
19243
19603
19660
19586
19521
19847
19836
19696
19632
19960
20046
19785
19849
20278
20042
19763
19964
20243
19865
19773
19917
19733
19622
19559
19749
19544
19366
19232
19532
19181
18768
19121
19051
18920
18847
18971
18978
18781
18599
19025
18922
18899
18810
19028
19016
18952
19077
19325
19193
19108
19472
19361
19334
19226
19622
19669
19432
19589
19828
19778
19484
19751
19990
19740
19574
19761
19690
19655
19652
19853
19669
19614
19684
19859
19563
19286
19653
19820
19644
19417
19814
19925
19794
19666
20066
19974
19888
19954
20125
20134
19837
20190
20434
20382
20248
20547
20616
20465
20327
20760
20796
20654
20630
20864
20843
20704
20807
21131
20988
20807
21018
21031
21078
20792
21096
21254
20953
21085
21240
21037
20806
21129
21187
20977
20806
21138
21266
21100
20779
21075
21167
20984
21051
21239
21251
20977
21038
21237
21081
20686
21066
21194
20913
20614
20934
20873
20628
20516
20705
20625
20237
20297
20421
20282
19893
20250
20329
20124
19762
20141
20046
19970
19963
20135
20142
19735
19716
20131
20006
19506
19816
19898
19778
19588
20033
19849
19685
19781
19973
20020
19547
19731
19848
19908
19533
19701
19954
19623
19467
19758
19710
19637
19458
19769
19752
19515
19343
19810
19601
19364
19598
19892
19606
19405
19770
19788
19621
19574
19830
19825
19607
19645
19992
19858
19492
19872
20116
19887
19471
19972
20102
19770
19778
19938
19935
19862
19654
20116
19904
19589
19781
20006
19737
19618
20001
19854
19648
19476
19854
20001
19838
19865
20144
19908
19810
20038
20100
20083
19705
20245
20358
20221
20086
20416
20492
20191
20193
20438
20465
20224
20267
20386
20223
20100
20256
20293
20015
19756
20083
20068
19915
19664
20008
19874
19684
19745
20043
19732
19412
19753
20023
19706
19386
19735
19760
19552
19604
19891
19769
19520
19539
19775
19533
19198
19752
19636
19552
19356
19700
19587
19571
19424
19708
19650
19339
19550
19843
19626
19362
19652
19641
19535
19443
19783
19796
19514
19349
19706
19668
19481
19473
19721
19570
19427
19730
19894
19725
19466
19754
19852
19660
19402
19747
19764
19575
19492
19789
19767
19533
19636
19674
19607
19395
19839
19677
19639
19481
19833
19706
19453
19589
19743
19732
19580
19706
19946
19655
19413
19910
19986
19728
19692
19882
19814
19753
19732
20189
19919
19674
19894
20109
19850
19644
19972
20044
19722
19825
20054
19841
19725
19605
20093
19775
19622
19758
19821
19759
19333
19711
19616
19574
19563
19759
19638
19411
19391
19662
19585
19271
19543
19611
19460
19359
19527
19428
19285
19249
19507
19468
19141
19094
19361
19230
18910
19219
19514
19282
18954
19369
19565
19447
19125
19514
19646
19346
19431
19847
19779
19223
19681
19666
19587
19421
19712
19651
19476
19384
19812
19786
19576
19356
19865
19697
19359
19629
19981
19755
19378
19790
19860
19633
19402
19764
19750
19556
19512
19789
19613
19416
19530
19643
19582
19314
19666
19776
19581
19188
19651
19539
19530
19272
19802
19622
19386
19677
19861
19666
19387
19606
19687
19598
19510
19702
19630
19518
19399
19842
19638
19585
19565
19726
19700
19352
19688
19812
19639
19520
19754
19689
19625
19455
19833
19728
19348
19477
19632
19529
19211
19528
19654
19352
19011
19361
19371
19263
19043
19259
19257
18904
18963
19248
19171
18652
19036
19350
18938
18604
19000
19167
18963
18659
18957
19075
18696
18689
19179
18930
18467
18798
18890
18795
18518
18817
18825
18754
18580
18903
19013
18662
18669
18906
18900
18479
18857
18906
18956
18615
18982
18964
18882
18640
18963
18987
18708
18901
19041
18985
18659
18951
19226
18915
18716
19026
18907
18996
18610
19144
19120
18825
18943
19078
19070
18644
19094
19283
19088
18688
19193
19265
19033
18833
19141
19310
18896
19045
19335
19062
18759
19119
19224
19074
18785
19119
19242
19046
18907
19232
18986
18884
18916
19168
18984
18853
19010
19292
19085
18970
19244
19106
19090
19032
19274
19406
19179
19208
19390
19243
18935
19077
19449
19253
19073
19213
19217
19139
18908
19227
19413
19111
18987
19379
19233
18956
19015
19313
19061
18754
19137
19178
19018
18885
19100
18989
18838
18737
19037
18942
18606
18868
18957
18945
18701
18843
19033
18956
18851
19040
19160
18876
19008
19098
19141
18998
19064
19231
19091
18767
19181
19446
19148
18835
19237
19314
19173
18945
19304
19362
18983
19122
19492
19189
18832
19190
19315
19125
18950
19258
19406
19011
18889
19302
19376
19136
19144
19533
19263
18969
19244
19435
19261
19005
19418
19501
19304
19279
19547
19526
19335
19341
19719
19595
19341
19579
19834
19635
19329
19768
19698
19749
19593
19835
19803
19681
19519
19963
19639
19661
19771
20001
19782
19575
19877
19889
19658
19412
19874
19868
19601
19731
19848
19873
19558
19574
19886
19624
19400
19583
19645
19445
19304
19495
19654
19281
19144
19608
19454
19052
19249
19444
19402
19110
19361
19535
19213
19019
19338
19432
19111
19171
19258
19283
19118
19139
19504
19263
18883
19252
19424
19132
19001
19401
19246
19068
19184
19453
19150
19109
18957
19437
19160
18963
19230
19438
19298
18872
19350
19498
19172
19046
19326
19493
19030
19255
19451
19421
19263
19478
19616
19422
19256
19611
19687
19467
19414
19663
19716
19443
19443
19714
19539
19228
19527
19707
19525
19346
19617
19757
19432
19297
19699
19577
19353
19356
19931
19684
19313
19750
19753
19680
19379
19941
19802
19870
19710
19921
20136
19811
20012
20101
20191
20002
20221
20498
20315
20128
20412
20553
20236
20206
20404
20427
20022
19976
20271
20164
19813
19925
19991
19869
19624
19848
19998
19664
19395
19811
19636
19460
19523
19718
19726
19327
19601
19934
19551
19441
19615
19776
19668
19413
19750
19968
19743
19499
20074
19797
19639
19861
20004
19811
19713
19921
19935
19795
19744
20133
20065
19896
19711
20111
19988
19762
19926
20181
20008
19681
20037
20183
19913
19875
20117
20136
19998
19872
20194
20200
19931
20228
20358
20289
20017
20347
20474
20204
20100
20458
20416
20305
20160
20748
20702
20356
20476
20822
20501
20319
20553
20684
20450
20301
20693
20712
20442
20318
20681
20588
20322
20313
20568
20467
20088
20444
20608
20438
20255
20558
20657
20442
20236
20648
20498
20370
20322
20549
20519
20291
20523
20538
20471
20146
20516
20422
20429
20091
20588
20381
20262
20236
20518
20289
19907
20169
20330
19939
19799
20092
20108
19869
19450
19926
19931
19466
19672
19980
19631
19323
19604
19871
19476
19280
19565
19501
19436
19320
19658
19703
19345
19306
19702
19473
19158
19475
19671
19456
19272
19549
19556
19435
19390
19626
19622
19382
19401
19623
19587
19256
19504
19677
19513
19326
19459
19700
19274
19046
19562
19467
19420
19125
19721
19595
19121
19408
19588
19578
19098
19471
19583
19371
19429
19624
19616
19333
19437
19759
19613
19278
19458
19781
19556
19245
19631
19783
19512
19384
19749
19746
19579
19533
19776
19891
19565
19661
20076
19766
19642
19747
19792
19726
19491
19919
19832
19761
19779
19962
19764
19505
19595
20079
19816
19674
19875
20095
19864
19430
19824
19876
19741
19751
20000
19731
19435
19627
19737
19622
19351
19611
19928
19569
19288
19764
19691
19423
19255
19682
19683
19275
19468
19553
19576
19201
19440
19660
19446
19174
19524
19585
19431
19321
19538
19428
19163
19196
19397
19337
19050
19325
19700
19337
19169
19370
19423
19366
19328
19636
19704
19291
19382
19615
19499
19208
19451
19515
19490
19168
19570
19620
19401
19297
19613
19461
19367
19380
19709
19454
19350
19444
19658
19499
19149
19513
19647
19419
19293
19644
19618
19343
19145
19576
19445
19306
19230
19693
19484
18991
19340
19524
19360
19296
19421
19565
19263
19323
19463
19315
19218
19228
19407
19487
19025
19442
19680
19417
19328
19517
19768
19314
19255
19583
19517
19441
19638
19773
19699
19336
19586
19715
19534
19356
19655
19648
19475
19342
19580
19586
19262
19126
19431
19277
18931
19372
19413
19139
19056
19395
19415
19059
18840
19199
19182
18853
18845
19236
19138
18758
19161
19212
19148
18727
19299
19060
18986
18772
19213
19318
19146
19013
19317
19163
19145
19276
19346
19381
19213
19506
19415
19439
19088
19411
19581
19157
19301
19394
19295
18988
19378
19558
19400
19191
19449
19594
19460
19383
19687
19658
19459
19283
19803
19502
19453
19535
19621
19648
19394
19684
19787
19698
19487
19829
19729
19596
19521
19802
19672
19404
19596
19846
19668
19338
19697
19737
19552
19386
19694
19646
19491
19442
19716
19658
19389
19562
19800
19499
19468
19577
19798
19558
19327
19672
19747
19655
19630
19993
19675
19551
19688
19858
19799
19657
19947
20124
19673
19528
19978
19955
19561
19405
19923
19581
19441
19584
19709
19565
19210
19496
19424
19354
19015
19399
19466
19182
19052
19442
19296
19069
19131
19434
19172
18820
19125
19136
19092
18748
19232
19234
18878
18959
19003
19205
18815
18796
19312
19051
18910
19090
19348
19067
18901
19151
19127
18930
18878
19158
19237
18847
19131
19388
19199
18888
19118
19366
19063
18979
19290
19404
19138
19159
19378
19155
19028
18963
19251
19096
18648
19059
19082
19048
18714
19170
19081
19065
18847
19332
19175
19143
19049
19498
19444
18988
19452
19439
19552
19263
19595
19736
19540
19285
19712
19553
19485
19413
19883
19524
19431
19760
19711
19631
19451
19726
19634
19518
19464
19853
19740
19569
19618
19901
19861
19356
19610
19775
19669
19432
19720
19671
19610
19555
19662
19772
19471
19252
19689
19478
19258
19273
19599
19320
19139
19281
19260
19200
18837
19255
19081
18991
18937
19145
19068
18920
19011
19171
19223
18783
19058
19198
18928
18668
19034
19248
18854
18641
19163
19111
18838
18938
19082
19078
18884
19052
19141
18996
18824
19111
19140
18879
18653
19137
19064
18939
18924
19331
19005
18626
19145
19071
19057
18656
19118
19178
18819
19003
19130
18950
18771
18874
19040
19161
18863
19133
19087
19062
18700
19134
19098
19068
19057
19342
19336
19056
19186
19421
19292
19071
19244
19261
19214
19006
19418
19369
19212
18963
19313
19163
19148
19188
19419
19423
18868
19261
19554
19293
18922
19424
19435
19196
19273
19532
19485
19161
19248
19466
19515
19010
19316
19575
19347
18962
19453
19430
19305
19232
19308
19264
19086
19142
19276
19282
19009
19083
19034
19079
18830
19099
18964
18885
18537
19088
18913
18731
18725
18917
18954
18516
18527
18979
18830
18385
18755
19020
18681
18568
18807
18992
18594
18575
18911
18957
18734
18803
18857
18858
18620
18903
19020
18908
18721
19113
19150
19093
18855
19207
19141
19135
19032
19586
19371
18954
19291
19468
19303
19165
19405
19384
19220
19055
19476
19503
19202
19221
19484
19400
19132
19360
19681
19408
19302
19426
19609
19280
19049
19425
19475
19327
19475
19520
19684
19243
19604
19697
19698
19577
19765
19720
19653
19388
19797
19925
19600
19645
19917
19788
19547
19805
19955
19795
19527
19875
19926
19758
19587
19923
19907
19727
19595
19857
19876
19463
19729
19785
19722
19524
19746
19782
19530
19371
19654
19632
19384
19336
19647
19439
19163
19313
19551
19373
19005
19372
19386
19179
19022
19309
19305
19103
18998
19465
19239
18968
19136
19233
19204
19094
19251
19222
19223
19162
19328
19133
19209
19015
19541
19244
19102
19309
19308
19439
19029
19322
19337
19201
18927
19400
19470
19064
19129
19457
19461
19098
19208
19559
19265
19038
19219
19227
19302
19124
19219
19362
19148
19042
19227
19120
19101
19157
19456
19142
18898
19280
19589
19319
19050
19411
19374
19291
19176
19439
19417
19187
19264
19563
19401
19125
19423
19584
19349
19118
19523
19538
19347
19210
19543
19536
19254
19302
19626
19468
19029
19492
19765
19412
19157
19580
19657
19372
19199
19522
19619
19361
19246
19622
19523
19210
19580
19814
19604
19195
19647
19778
19394
19167
19691
19688
19454
19243
19732
19614
19052
19361
19676
19443
18961
19491
19690
19379
19166
19478
19321
19238
19273
19489
19525
19115
19240
19330
19338
19260
19480
19616
19319
19044
19665
19545
19347
19471
19656
19575
19390
19493
19725
19693
19393
19767
20018
19729
19510
19879
19994
19802
19782
20129
19966
19812
19752
20290
19985
19747
19921
20106
20023
19699
20063
19897
19955
19911
20044
19828
19599
19675
20209
19894
19753
20034
19956
19843
19706
19955
19970
19844
19739
20166
20158
19877
19849
20194
20043
19599
20023
20047
19962
19790
20076
19978
19873
19732
20037
20037
19791
19834
20237
20004
19689
20011
20051
19976
19526
20034
19870
19886
19692
20030
19811
19632
19695
19787
19831
19246
19513
19630
19301
19006
19331
19302
19129
19071
19242
19394
19048
18925
19315
19213
19005
18983
19342
19008
18798
19067
19232
18861
18621
19096
19057
18863
18846
19180
19010
18789
18960
19284
19048
18837
19093
19167
19019
18955
19214
18980
18845
18832
19245
19175
18858
19035
19243
18944
18743
19129
19273
18935
18576
19030
18907
18832
18688
19021
18842
18844
18704
18988
19055
18703
18858
19147
18886
18516
18916
19155
18750
18765
19065
18861
18670
18769
18966
19047
18663
19039
19069
18951
18592
19213
18962
19019
18963
19125
19196
18824
18949
19236
19033
18800
19061
19346
19079
18902
19085
18968
19031
18816
19196
19121
18886
19009
19223
19196
18879
19213
19414
19280
19065
19201
19362
19218
18752
19274
19142
18879
18798
19298
19115
18804
18961
18924
18912
18764
18922
18964
18651
18641
18861
18827
18451
18453
18701
18716
18431
18679
18980
18678
18166
18546
18433
18274
17944
18369
18100
18013
17871
18022
17782
17634
17756
18025
17660
17355
17622
17744
17739
17550
17782
17798
17756
17797
18205
18066
17784
18141
18357
18358
18202
18494
18737
18534
18317
18720
18754
18589
18448
18818
18763
18475
18571
18948
18649
18292
18640
18870
18512
18470
18772
18664
18416
18413
18613
18813
18451
18288
18798
18605
18560
18763
18963
18635
18457
18804
19014
18699
18497
18881
19126
18815
19038
19092
19075
18878
19156
19314
19343
19117
19460
19240
19324
19214
19313
19319
19016
19108
19245
19210
19036
19214
19180
19182
18780
19236
19121
19039
18914
19016
19133
18914
18807
19131
19051
18609
18776
18783
18779
18310
18642
18575
18515
18538
18791
18818
18559
18519
18807
18740
18365
18460
18839
18665
18215
18814
18940
18575
18432
18838
18732
18573
18535
18745
18626
18262
18468
18765
18592
18290
18685
18543
18487
18277
18732
18520
18635
18542
18774
18690
18355
18646
19018
18813
18312
18816
18705
18662
18619
18891
18836
18597
18612
18868
18972
18699
18703
19148
18796
18486
18800
18913
18763
18710
18947
18900
18664
18733
18977
18834
18673
18536
18904
18882
18668
18750
18748
18783
18346
18849
18805
18614
18584
18797
18817
18611
18605
18937
18749
18503
18781
18858
18777
18498
18892
18875
18798
18764
19156
19114
19008
19032
19173
19035
19061
19210
19424
19061
18862
19151
19111
19150
18805
19044
19079
18918
18783
18933
18983
18515
18710
18864
18588
18292
18685
18596
18550
18217
18772
18469
18488
18570
18561
18411
18427
18304
18567
18444
18243
18475
18381
18435
18379
18566
18520
18414
18459
18763
18714
18315
18588
18714
18712
18409
18777
18796
18759
18447
19008
19093
18836
18872
18996
18954
18742
18848
19048
18955
18873
18907
18996
18882
18745
19055
18903
18971
18587
19229
19106
18892
18778
19095
18932
18709
18954
19081
19097
18968
19159
19237
19023
18956
19357
19059
18906
18954
19354
19197
18770
19145
19193
19331
19172
19278
19511
19197
19309
19523
19460
19470
19448
19756
19583
19425
19671
19696
19637
19509
19743
19657
19690
19617
19853
19787
19640
19562
19965
19812
19398
19685
19836
19699
19388
19708
19628
19502
19367
19681
19553
19337
19287
19769
19533
19243
19401
19478
19408
19190
19644
19578
19380
19403
19583
19589
19382
19358
19506
19502
19161
19218
19604
19354
18899
19373
19425
19296
18923
19269
19386
19332
19038
19547
19333
19223
19309
19618
19395
19223
19399
19684
19400
19140
19386
19511
19260
19262
19565
19507
19221
19282
19551
19505
19356
19568
19748
19570
19342
19673
19803
19498
19341
19864
19861
19481
19353
19985
19900
19467
19766
19761
19840
19702
19995
20043
19813
19805
19872
20102
19676
19621
20010
19880
19528
19971
20168
19904
19750
19939
20038
19866
19769
20093
19991
19857
19813
20040
20033
19596
19981
20117
20001
19708
20150
20349
19975
19989
20186
20196
19917
19931
20334
20182
19993
20074
20091
20116
19788
20061
20191
19814
19764
19892
19787
19622
19495
19932
19633
19283
19593
19723
19669
19233
19628
19732
19272
19101
19607
19623
19415
19305
19442
19343
19255
19335
19436
19425
19085
19562
19554
19499
19457
19731
19735
19698
19465
19813
19889
19529
19682
19799
19762
19509
19751
19960
19791
19545
19853
19719
19821
19625
19912
19687
19454
19757
19993
19736
19379
19791
19887
19689
19333
19737
19854
19773
19504
19842
19899
19596
19685
19964
19945
19745
19884
19928
19856
19787
19984
20069
19829
19678
20056
20031
19752
19779
20027
19993
19617
19899
19965
19960
19578
20001
20091
19840
19785
20200
20150
20014
20040
20087
19937
19813
19944
20046
20035
19605
20150
20128
20105
19807
20270
20045
19849
19916
20254
19946
19991
20010
20136
19928
19520
19911
20089
19805
19753
20059
20001
19822
19474
20012
19688
19396
19744
19982
19768
19316
19778
19717
19661
19376
19893
19746
19616
19627
19735
19862
19661
19587
19913
19654
19537
19705
19856
19665
19572
19899
20000
19655
19805
20076
19792
19796
19939
19877
19900
19780
19944
20314
19880
19656
20004
20107
19822
19702
20137
20015
19803
19809
20136
19961
19751
19958
20043
19952
19678
20097
20110
19879
19723
20035
20010
19974
19733
20048
19934
19661
19944
20363
20076
19803
20149
20321
20065
19949
20251
20154
19890
20080
20178
20216
19900
19943
20479
20053
19700
20343
20501
20203
20235
20403
20501
20370
20209
20690
20504
20033
20438
20799
20561
20078
20568
20568
20466
20185
20381
20145
20071
20020
20122
20050
19536
19650
19848
19659
19133
19556
19792
19313
19114
19549
19356
19408
19328
19482
19291
19046
19229
19423
19379
19252
19452
19392
19269
19087
19446
19458
19161
19347
19561
19569
19154
19144
19759
19535
19242
19417
19610
19443
19007
19469
19470
19315
19268
19520
19574
19435
19286
19712
19663
19221
19493
19732
19548
19079
19646
19483
19495
19306
19757
19620
19311
19504
19862
19593
19297
19640
19652
19644
19365
19782
19810
19632
19600
19850
19737
19476
19645
19799
19866
19482
19595
19763
19700
19564
19743
19676
19663
19495
19773
19805
19463
19488
19853
19857
19555
19744
19979
19582
19272
19721
19983
19518
19532
19904
19905
19494
19642
19818
19723
19414
19609
19929
19710
19307
19646
19654
19493
19191
19659
19544
19345
19164
19519
19395
18972
19149
19202
19072
18696
19096
19026
18867
18515
19077
18899
18844
18729
18905
19030
18527
18573
18863
18624
18406
18758
19043
18757
18367
18973
18980
18589
18483
18841
18856
18780
18755
19103
18920
18737
18960
19277
18929
18629
18964
19015
18838
18814
18954
19110
18668
18759
19161
18831
18777
18813
18927
18978
18429
18966
19140
18926
18901
19069
18862
18839
18928
19007
19063
18588
19108
19004
19142
18610
19065
19217
19138
18904
19260
19296
18974
18915
19382
19128
18989
19038
19211
19146
18915
19166
19425
19110
18843
19204
19204
18979
19032
19235
19236
18784
19061
19337
19204
18823
19283
19339
19116
18896
19294
19268
19197
19175
19496
19270
19064
19340
19570
19298
18789
19335
19244
19145
18838
19213
19065
18954
18925
19074
19026
18668
18831
19147
18832
18510
18777
18742
18566
18314
18691
18725
18435
18553
18719
18781
18297
18333
18603
18515
18403
18508
18594
18527
18481
18728
18760
18444
18297
18746
18737
18405
18524
18770
18407
18425
18587
18724
18535
18248
18648
18853
18425
18255
18883
18758
18425
18393
18995
18627
18599
18792
19060
18772
18609
18916
18815
18781
18620
19029
18914
18761
18693
19079
18906
18661
18834
19207
18900
18474
18958
19212
18738
18584
19045
18909
18955
18673
18980
19071
18628
18824
19036
18907
18799
19120
18993
18916
18633
19310
19211
18977
18715
19100
19175
18674
18861
19389
19098
18761
19122
19337
19071
19091
19349
19422
19029
19064
19495
19295
19150
19160
19587
19338
19118
19289
19289
19138
18792
19171
19245
18875
18999
19195
19096
18778
18899
19041
18882
18731
18929
19126
18765
18721
18834
18858
18674
18537
18874
18831
18487
18573
18941
18703
18458
18674
18771
18578
18431
18729
18933
18717
18351
18884
18907
18611
18626
19013
18752
18339
18702
19068
18797
18463
18836
18792
18652
18643
18869
18870
18692
18544
18948
19006
18645
18723
18850
18729
18613
18983
19103
18837
18776
19001
18780
18872
18777
19185
18892
18516
18774
19114
18868
18450
18989
19033
18872
18675
19066
18945
18853
18831
19158
19020
18663
18862
19078
19091
18912
19138
18986
19104
18910
19301
19129
19059
18676
19168
18930
18756
18959
19374
19178
18761
19222
19471
19241
18879
19221
19475
19140
19023
19407
19465
19167
19174
19397
19242
18964
19243
19431
19108
18831
19123
19281
18848
18738
19032
18995
18844
18858
19254
18922
18490
18902
19035
18878
18636
18965
18783
18605
18672
18877
18841
18612
18621
18771
18689
18519
18777
18878
18630
18525
18929
19066
18594
18706
19063
19006
18789
18735
19207
18803
18472
18843
19130
18876
18597
18964
18893
18770
18838
19136
18934
18885
18756
19240
19149
18755
18959
19005
18930
18857
19215
19058
18836
18899
19285
19041
18911
19026
19227
19245
18849
19107
19149
19035
18650
19222
19152
19149
18724
19157
19396
18985
19138
19247
19209
19140
19120
19431
19294
19186
19421
19618
19395
19098
19600
19530
19638
19330
19774
19838
19656
19778
20173
19860
19444
20025
20115
19951
19691
20123
19987
19844
19780
20200
20084
19701
19906
20047
19900
19606
19978
20176
19889
19603
20008
19842
19684
19477
20025
19925
19466
19626
19881
19640
19425
19532
19792
19558
19349
19603
19648
19336
19224
19431
19382
19092
19207
19447
19217
19092
19245
19562
19214
19064
19359
19510
19069
18845
19359
19257
19131
18958
19322
19264
19043
19124
19239
19293
18825
19207
19166
19191
19007
19182
19348
19120
18767
19398
19074
18865
19135
19567
19319
18926
19387
19273
19248
19072
19168
19176
19078
18772
19252
19019
18973
18788
19213
18935
18606
19046
19291
18954
18824
19137
19015
18902
18760
19098
18933
18660
18765
19043
18895
18586
18846
19200
18895
18749
19086
19068
18717
18721
19040
18855
18764
18735
18952
18837
18503
18881
19121
18950
18702
19025
18896
18931
18628
19044
18862
18605
18694
19080
18755
18319
18743
19004
18646
18339
18725
18690
18574
18403
18638
18607
18374
18337
18502
18476
18138
18328
18411
18366
17920
18384
18504
18282
18128
18427
18487
18074
18201
18301
18220
18154
18125
18580
18226
18111
18427
18614
18168
17914
18426
18494
18169
18229
18642
18535
18045
18456
18493
18420
18028
18562
18620
18372
18111
18629
18372
18299
18327
18627
18645
18254
18446
18764
18499
18081
18561
18681
18454
18331
18688
18571
18470
18156
18614
18516
18391
18404
18837
18535
18435
18758
18950
18535
18511
18684
18772
18715
18645
18838
18991
18627
18473
19070
18875
18402
18896
19083
18791
18460
18899
18901
18726
18628
18761
18870
18536
18683
19045
18710
18452
18808
18983
18730
18514
18879
18761
18654
18448
18825
18800
18413
18421
18785
18616
18195
18519
18670
18444
18021
18658
18669
18372
18314
18424
18329
18302
18157
18400
18242
18165
18347
18302
18345
18066
18365
18292
18271
17766
18409
18466
17982
18138
18395
18342
18033
18113
18382
18212
17709
18327
18472
18094
18100
18376
18395
18128
18043
18311
18340
18133
18255
18411
18283
18079
18350
18460
18210
18027
18550
18342
18302
18407
18519
18311
18344
18200
18608
18620
18195
18529
18693
18532
18309
18716
18525
18339
18334
18864
18678
18186
18447
18741
18612
18167
18720
18630
18637
18209
18730
19021
18521
18687
18775
19033
18762
18712
19200
18937
18585
18980
19169
19001
18722
19107
19289
19019
18846
19307
19301
18963
19010
19241
19207
19072
19214
19549
19187
18804
19407
19493
19165
18888
19285
19057
18996
18892
19167
18983
18570
18844
19308
18924
18625
18984
19085
18716
18419
18897
18740
18672
18632
19011
18768
18406
18620
18803
18637
18244
18757
18781
18553
18242
18731
18663
18495
18523
18677
18667
18244
18583
19024
18785
18485
18672
18931
18610
18505
18864
18720
18584
18471
19128
18744
18610
18808
19025
18799
18510
18778
19081
18695
18286
18760
18762
18618
18627
18812
18775
18551
18590
18736
18675
18218
18712
18870
18580
18467
18785
18712
18576
18447
18931
18783
18461
18571
18871
18733
18153
18584
18567
18587
18133
18565
18789
18547
18441
18781
18644
18161
18540
18650
18433
18194
18572
18603
18601
18320
18771
18510
18471
18496
18664
18729
18380
18626
19016
18638
18483
18657
18924
18613
18286
18685
18760
18464
18398
18674
18557
18291
18212
18626
18353
17905
18301
18591
18314
18004
18408
18380
18252
17976
18413
18498
18077
17897
18447
18368
18023
18245
18352
18228
18012
18190
18220
18232
17921
18477
18504
18106
18016
18669
18264
18277
18420
18409
18359
18090
18546
18542
18399
18204
18576
18706
18385
18276
18517
18497
18361
18403
18737
18496
18339
18552
18690
18494
18135
18721
18807
18591
18523
18787
18829
18551
18727
18995
18624
18235
18898
18998
18747
18426
18813
18650
18500
18643
18990
18786
18335
18705
19011
18824
18502
18770
18933
18657
18344
18798
18983
18700
18409
18773
18746
18586
18690
19019
18918
18657
18819
18875
18833
18405
19105
19078
18788
18572
19126
19143
18666
18844
19191
18919
18514
18919
19113
18893
18774
18983
19067
18944
18646
19070
18986
18673
18721
18846
18908
18440
18701
18796
18645
18405
18639
18872
18579
18264
18663
18638
18263
18357
18753
18709
18412
18389
18712
18596
18174
18735
18983
18681
18353
18865
18697
18771
18718
19080
18811
18447
18794
18868
18788
18511
18966
19092
18901
18769
18974
18857
18706
18663
19076
19070
18663
18985
18997
18985
18825
19065
19040
18976
18553
19088
19124
18915
18812
19281
19314
18793
19027
19385
19125
18901
19147
19445
19095
18986
19371
19455
19125
19145
19544
19438
19214
19267
19569
19176
18866
19166
19316
19342
18962
19254
19206
19077
18854
19539
19329
19125
19136
19647
19502
19013
19368
19477
19327
18963
19445
19338
19267
19007
19493
19456
19092
19053
19481
19280
18973
19067
19305
19016
18502
19028
19155
18811
18709
19122
18805
18781
18511
18930
18778
18438
18509
18633
18578
18184
18476
18502
18358
17901
18272
18198
17944
17854
18208
18214
17717
17961
18435
18117
17929
18298
18399
18012
17761
18303
18502
18078
18099
18401
18488
18093
18319
18486
18415
18120
18523
18612
18387
18248
18606
18615
18316
18333
18545
18422
18126
18246
18587
18486
18025
18552
18595
18363
18370
18604
18538
18273
18457
18747
18369
18143
18505
18655
18709
18256
18661
18813
18416
18365
18765
18811
18491
18274
18944
18907
18553
18558
19057
18912
18641
18896
19181
18806
18589
19001
18988
18790
18607
19043
18952
18619
18769
19221
18975
18434
18959
19237
18799
18557
19003
18964
18699
18499
18860
18744
18485
18388
18742
18457
18175
18503
18663
18299
18104
18375
18465
18081
17875
18257
18190
17989
17824
18235
18119
17757
17994
18235
17978
17687
18087
18188
17937
17762
18194
18208
18010
17830
18383
18076
17975
17888
18458
18079
17826
18180
18241
18213
17905
18281
18156
18028
17939
18314
18452
18055
18200
18325
18366
17993
18419
18415
18222
17816
18458
18267
18137
17894
18453
18348
18034
18104
18377
18274
18111
18394
18376
18351
17991
18599
18397
18208
17972
18670
18374
18027
18271
18438
18483
18167
18447
18452
18481
18037
18573
18411
18337
18260
18710
18430
18358
18274
18512
18417
18085
18386
18807
18585
18380
18554
18473
18362
18197
18741
18753
18253
18394
18596
18576
18191
18469
18587
18450
18243
18544
18449
18363
18240
18539
18341
18021
18195
18470
18264
17707
18006
18169
17992
17676
18089
18239
17985
17636
17990
17917
17751
17700
18101
18004
17629
17858
18092
17901
17505
18053
17929
17778
17636
17996
17919
17857
17653
18236
18082
17704
17860
18294
17925
17498
18001
18187
17838
17830
18057
18231
17848
18009
18380
18029
17973
18073
18211
18205
17889
18176
18475
17986
17709
18306
18350
18111
18126
18487
18387
17971
18131
18364
18317
18059
18331
18472
18275
18123
18386
18362
18346
18149
18487
18338
18096
18398
18709
18509
18248
18526
18678
18663
18385
18844
18741
18747
18695
19081
19070
18692
18785
19058
18977
18867
19240
19161
19086
18864
19239
19398
19029
18891
19310
19210
18920
18851
19351
19078
18537
18852
19167
18710
18550
18826
18964
18462
18179
18572
18481
18235
18266
18535
18362
18164
18473
18499
18537
18200
18565
18449
18371
18256
18543
18535
18256
18250
18634
18498
18051
18358
18551
18397
18249
18536
18769
18377
18382
18577
18658
18325
18453
18735
18473
18316
18480
18670
18534
18186
18558
18553
18545
18282
18775
18864
18440
18501
18901
18663
18220
18491
18934
18640
18363
18557
18612
18497
18047
18641
18485
18377
18400
18758
18519
18156
18224
18812
18497
18200
18409
18687
18350
18135
18596
18348
18374
18100
18588
18454
18179
18168
18801
18605
18174
18490
18513
18541
18298
18604
18805
18466
18294
18632
18680
18287
18578
18961
18668
18402
18612
18809
18599
18451
18715
18812
18474
18313
18669
18797
18461
18363
18515
18465
17914
18309
18646
18341
18069
18314
18226
18180
17867
18356
18042
18007
17966
18145
18012
17889
17870
17991
18002
17746
18158
18037
17751
17642
18138
18099
17832
17592
17926
17794
17714
17759
18137
17878
17373
18049
18034
17843
17700
18038
18106
17758
17868
18235
18162
17679
17843
18176
18055
17532
17929
17966
17858
17743
18039
18210
18021
17610
18091
17957
17834
17874
18076
18025
17609
18027
18206
17984
17639
18092
17995
17909
17824
18126
18121
17797
17860
18173
18059
17654
18106
18341
17997
17810
18092
18080
18072
17681
18226
18344
17854
17981
18474
18043
17655
18218
18282
18120
17792
18203
18282
18082
17895
18329
18165
18114
18036
18517
18240
17909
18242
18215
18153
17881
18294
18403
18006
17769
18188
18189
17898
17931
18092
18044
17363
17837
18132
17659
17546
17802
17944
17535
17528
17745
17597
17455
17463
17570
17505
17296
17490
17664
17370
17139
17536
17571
17272
17029
17591
17659
17142
17150
17623
17406
16993
17267
17790
17468
17301
17561
17488
17440
17301
17684
17690
17476
17349
17728
17610
17428
17439
17902
17523
17159
17685
17584
17568
17246
17649
17520
17444
17237
17606
17678
17420
17346
17559
17567
17258
17570
17637
17423
17054
17713
17486
17484
17510
17781
17801
17488
17375
17947
17670
17378
17723
17811
17665
17498
17821
17738
17696
17585
17903
17915
17631
17557
17823
17755
17641
17704
17970
17730
17490
17847
17961
17818
17552
17899
17875
17570
17718
17937
17984
17437
17821
18010
17692
17639
17979
18023
17804
17439
17898
17532
17519
17321
17692
17565
17453
17448
17782
17454
17290
17581
17543
17434
17348
17441
17691
17192
17257
17666
17380
17202
17357
17694
17308
16962
17438
17488
17186
16919
17518
17437
17336
17320
17621
17470
17045
17348
17635
17368
17162
17466
17468
17293
17275
17361
17325
17304
17279
17467
17323
17170
17324
17644
17424
17025
17507
17638
17418
17314
17541
17533
17300
17172
17568
17607
17205
17384
17538
17558
17457
17635
17606
17582
17363
17802
17823
17647
17563
17896
17599
17290
17569
17644
17724
17344
17527
17652
17617
17471
17819
17588
17583
17512
17923
17664
17620
17571
18119
17845
17449
17807
18181
17879
17654
18017
18174
17852
17823
18070
17990
17666
17721
18064
17823
17578
17717
17687
17611
17381
17713
17824
17517
17267
17597
17487
17187
17125
17496
17450
17255
17419
17733
17362
17064
17421
17424
17465
17379
17652
17529
17247
17249
17731
17400
17290
17523
17663
17417
17347
17544
17604
17380
17424
17669
17798
17503
17173
17605
17513
17185
17363
17918
17512
17438
17652
17871
17447
17242
17685
17787
17520
17501
17878
17659
17542
17559
17676
17661
17203
17758
17928
17615
17523
17836
17969
17653
17687
17873
18057
17620
17785
18165
17804
17467
17824
18217
18017
17648
18055
17909
17762
17766
18067
17892
17799
17881
18304
17941
17785
17984
17967
17953
17720
18113
18182
18010
17792
18113
18207
17850
17799
18351
18159
17852
18169
18427
18023
17711
18198
18285
18016
18062
18109
18276
17913
17861
18371
18025
17640
17919
18195
17856
17555
18008
17934
17709
17712
17884
17802
17590
17480
17787
17606
17363
17548
17745
17635
17283
17673
17617
17576
17444
17634
17744
17485
17398
17859
17579
17411
17504
17641
17528
17280
17789
17731
17519
17559
17752
17792
17649
17661
18035
17956
17421
17803
18044
17939
17652
17897
17898
17746
17734
17988
18265
17869
17968
18248
18030
17835
18019
18114
18000
17517
18049
18247
17980
17848
18214
18229
17831
17869
18142
18277
17946
17839
18062
18152
17933
18163
18433
18067
17889
18270
18202
18032
18012
18312
18225
17965
18065
18330
18204
17955
18245
18502
18180
17951
18279
18465
18157
17877
18372
18502
18119
18301
18398
18255
17904
18412
18626
18306
17899
18452
18258
18043
17802
18186
18084
17984
17958
18185
18093
17651
17932
18163
18016
17455
18101
18088
17854
17718
18053
17705
17569
17688
17846
17905
17697
17715
17954
17811
17395
17909
17979
17831
17705
17991
17981
17741
17671
17921
17948
17828
18006
18177
18048
17712
18093
18058
18085
17645
18085
17924
18033
17692
18129
18070
17656
17952
18342
18025
17953
18233
18069
18148
17755
18292
18065
17955
18016
18321
18226
18081
18213
18387
18297
17999
18261
18577
18221
18148
18430
18421
18198
18088
18511
18304
18261
18226
18733
18373
17897
18308
18735
18278
18173
18387
18524
18428
17999
18453
18450
18350
18266
18740
18408
18217
18445
18575
18486
18315
18602
18613
18457
18385
18751
18657
18436
18570
18963
18751
18371
18857
19058
18830
18426
19067
19136
18876
18640
19189
18964
18657
18928
19173
19019
18672
18689
18990
18574
18349
18658
18925
18501
18249
18723
18509
18542
18441
18795
18364
18290
18426
18542
18540
18200
18565
18861
18476
18479
18921
18703
18533
18742
19023
18927
18633
18935
19403
19106
18858
19202
19398
19052
19041
19394
19097
19086
19136
19292
19211
18858
19128
19424
19280
18779
19293
19370
19231
19145
19316
19266
19266
19188
19445
19334
18951
19282
19628
19389
18940
19184
19350
19165
18838
19202
19302
19125
18976
19282
19152
18860
18975
19420
19244
18690
19186
19158
19141
18740
19347
19518
19085
18945
19385
19292
19060
19060
19590
19186
18867
19218
19431
19053
18885
19199
19126
19211
18779
19259
19259
19031
18966
19477
19086
18647
19022
19029
18879
18481
18850
19116
18696
18426
18909
18875
18417
18485
18970
18705
18130
18608
18699
18512
18015
18569
18508
18426
18298
18486
18575
18286
18292
18498
18477
18122
18342
18638
18461
18062
18496
18788
18466
18059
18495
18678
18492
18486
18581
18512
18360
18414
18877
18516
18419
18663
18651
18517
18500
18811
18481
18390
18245
18780
18511
18395
18363
18693
18472
18055
18468
18812
18331
18137
18632
18592
18451
18436
18611
18476
18207
18364
18614
18724
18211
18596
18662
18488
18279
18655
18593
18427
18250
18664
18568
18305
18183
18541
18570
18122
18527
18676
18450
18229
18627
18673
18498
18345
18757
18728
18426
18452
18803
18624
18260
18645
18921
18722
18331
18695
18793
18549
18428
18796
18699
18430
18377
18689
18703
18243
18330
18480
18333
17890
18416
18472
18234
18078
18350
18290
18014
18019
18444
18308
17873
18086
18281
18070
17701
18093
18183
17958
17672
18178
18137
18025
17978
18203
18250
17678
18086
18233
18070
17852
18221
18313
18197
18037
18489
18430
18156
18099
18596
18243
18202
18321
18627
18245
18181
18457
18648
18297
18134
18457
18542
18125
18136
18471
18355
18189
18192
18383
18299
18191
18395
18342
18350
17969
18492
18718
18281
18400
18882
18592
18233
18629
19104
18773
18600
18825
18862
18650
18322
18814
19097
18570
18455
19040
18856
18673
18588
19090
18745
18328
18872
18955
18693
18509
18986
18834
18782
18693
18831
18734
18596
18595
18967
18744
18294
18713
18903
18603
18184
18782
18627
18594
18354
18667
18705
18360
18463
18571
18447
18189
18239
18305
18314
17826
18269
18436
17966
17820
18311
18268
18023
17665
18217
18183
17667
18020
18120
17979
17536
18051
18129
17864
17757
18024
17815
17616
17768
18130
17925
17563
17732
17876
17823
17539
17890
18001
17798
17520
17972
18022
17705
17710
18014
17841
17720
17736
18132
17893
17672
17944
17898
17754
17676
17890
17669
17633
17655
17945
17643
17318
17728
17994
17703
17221
17519
17755
17440
17200
17661
17620
17421
17329
17690
17590
17295
17379
17644
17472
17089
17464
17625
17423
17066
17578
17619
17388
17264
17628
17566
17298
17347
17662
17514
17172
17503
17701
17527
17257
17651
17656
17418
17321
17675
17576
17484
17218
17634
17595
17253
17450
17618
17426
17129
17470
17488
17204
17037
17323
17295
16952
16821
17239
16894
16725
16934
17249
16969
16833
17044
16867
16800
16615
16928
16851
16666
16678
16988
16813
16430
16785
16940
16735
16473
16806
16809
16687
16401
16869
16873
16741
16714
16862
16981
16788
16892
17042
17113
16795
17050
17177
17001
16715
17274
17337
17082
16807
17286
17175
16971
16877
17142
17122
16776
17089
17128
17227
16934
17255
17223
17077
16893
17426
17296
16933
17079
17429
17140
16831
17263
17224
17232
17199
17386
17423
17248
17008
17425
17473
17225
17286
17486
17534
17159
17492
17767
17419
17132
17485
17514
17209
17359
17558
17445
17389
17379
17740
17393
17064
17382
17806
17601
17206
17702
17669
17502
17323
17934
17710
17670
17391
17906
17801
17274
17620
17781
17651
17494
17611
17542
17564
17319
17701
17628
17240
17133
17726
17539
17224
17382
17441
17356
17136
17379
17352
17210
17117
17216
17393
17046
16986
17189
17108
16782
17047
17146
17102
16974
17227
17085
17095
16810
17214
17196
17107
16788
17145
17238
16833
17064
17287
17111
16702
17011
17237
16999
16802
17334
17163
17179
17120
17465
17104
16887
17040
17420
17241
16835
17272
17522
17249
16960
17417
17332
17246
17140
17458
17385
17195
17226
17513
17387
17105
17365
17565
17323
17145
17533
17637
17408
17124
17430
17508
17445
17500
17469
17391
17274
17476
17663
17558
17164
17604
17813
17387
17270
17722
17505
17490
17561
17738
17712
17432
17453
17808
17608
17125
17772
17686
17411
17460
17699
17696
17326
17452
17801
17639
17281
17562
17612
17465
17169
17492
17605
17281
17031
17370
17358
17081
17126
17285
17183
17052
17101
17397
17108
16960
17202
17321
17038
16634
17163
17204
16974
17050
17149
17083
16870
16904
17043
16978
16797
17199
17078
17132
17113
17303
17047
17073
16947
17369
17119
16887
16940
17322
17095
17021
17306
17287
17123
16972
17301
17332
17111
17053
17462
17303
17156
17134
17305
17359
16805
17268
17347
17216
17028
17458
17469
17262
16976
17467
17337
17194
17123
17521
17276
17288
17456
17482
17478
17317
17573
17683
17188
17066
17599
17401
17287
17407
17476
17394
17058
17491
17584
17353
17031
17589
17781
17368
17522
17682
17454
17502
17345
17746
17680
17317
17594
17849
17591
17132
17672
17726
17560
17353
17695
17448
17329
17334
17685
17325
16943
17362
17553
17222
17049
17199
17202
17022
16649
17125
17120
17036
16817
17289
17176
16731
16931
16985
16961
16714
17051
17167
16986
16774
17177
17103
16978
17017
17230
17214
16771
17012
17451
17070
16752
17263
17334
17149
16939
17327
17033
16970
16910
17198
17000
16900
17234
17222
17036
16939
17293
17349
17226
17010
17324
17345
17166
17055
17399
17312
17100
17268
17472
17267
17006
17264
17408
17255
16970
17380
17396
17196
17101
17427
17436
17131
17260
17584
17409
17126
17412
17560
17399
17332
17448
17557
17272
17432
17625
17664
17308
17190
17497
17422
17169
17482
17558
17595
17228
17680
17648
17551
17180
17863
17817
17435
17336
17716
17855
17204
17613
17869
17598
17357
17543
17698
17627
17180
17715
17585
17269
17199
17522
17422
17070
17214
17414
17278
17073
17301
17349
17098
16932
17305
17249
17013
16891
17353
17192
17039
16989
17115
17137
16952
17166
17382
16950
16740
17273
17378
16854
16820
17122
17339
16747
17179
17328
17309
16791
17105
17513
17106
16980
17455
17223
17053
17307
17347
17272
17077
17124
17417
17387
17166
17398
17496
17298
17064
17507
17645
17322
17203
17600
17389
17390
17397
17716
17506
17324
17577
17721
17458
17454
17592
17843
17554
17523
17640
17820
17544
17615
17736
17636
17449
17606
17875
17585
17522
17829
17984
17623
17559
17815
17745
17566
17634
17943
17922
17636
17777
18087
17720
17665
17919
18096
17891
17741
17982
18048
17739
17702
18049
17943
17793
17830
17873
17834
17397
17840
17896
17746
17517
17816
17723
17452
17312
17819
17527
17405
17315
17634
17406
16990
17478
17692
17302
17162
17443
17613
17362
17018
17695
17242
17069
17198
17476
17340
17144
17475
17311
17268
17216
17489
17396
17198
17313
17579
17494
17101
17359
17604
17549
17109
17642
17580
17521
17375
17612
17543
17585
17359
17645
17666
17588
17337
17865
17707
17538
17791
17689
17644
17264
17856
17638
17677
17456
17994
17608
17529
17709
17886
17867
17412
17920
18102
17862
17506
17835
