25873
25775
25813
25754
25894
25849
25693
25878
25855
25969
25889
25881
26116
26046
25885
25944
26091
25867
26064
25980
26024
26076
26040
26083
26134
25977
26214
26206
26195
26129
26299
26069
26041
26107
26250
26201
26088
26210
26232
26305
26270
26334
26342
26350
26285
26389
26352
26407
26333
26542
26448
26292
26409
26354
26449
26268
26426
26294
26434
26350
26257
26215
26284
26261
26200
25962
26060
26098
26119
25865
25821
25975
25966
25923
25690
25751
25912
25781
25748
25743
25677
25593
25593
25601
25624
25569
25655
25705
25543
25333
25645
25474
25419
25448
25651
25541
25384
25566
25772
25643
25411
25709
25559
25627
25464
25767
25624
25768
25636
25642
25738
25712
25726
25863
25712
25632
25728
25741
25772
25520
25728
25790
25683
25697
25850
25925
25941
25797
26078
25831
25865
26017
26098
25902
25784
26149
25980
25875
26079
26029
26217
26055
25994
26314
26208
25954
26168
26248
26263
26206
26189
26380
26204
26332
26259
26382
26217
26245
26454
26380
26214
26513
26491
26364
26439
26541
26674
26472
26447
26646
26598
26487
26595
26575
26559
26584
26716
26773
26620
26540
26767
26857
26811
26576
26941
26906
26694
26681
26957
26761
26523
26653
26583
26640
26446
26598
26679
26459
26446
26391
26323
26376
26205
26404
26337
25993
26292
26249
26055
26134
26242
26176
26087
25885
26232
25965
25896
25886
25898
26042
25762
25958
26005
25920
25959
25877
25902
25964
25994
26116
26018
26026
26003
26097
26071
25878
26051
26029
26148
26144
26192
26284
26088
25958
26158
26286
26047
26157
26221
26215
26182
26150
26421
26252
26010
26301
26275
26308
26112
26415
26461
26255
26148
26281
26226
26422
26494
26433
26314
26426
26405
26573
26378
26312
26373
26378
26530
26357
26639
26612
26611
26468
26660
26596
26670
26736
26591
26671
26507
26745
26719
26629
26706
26925
26799
26579
26696
26947
26810
26608
26814
26936
26747
26900
27020
26832
26962
26902
26976
26800
26749
26687
27020
26960
26880
26938
26841
26884
26785
26893
26865
26798
26737
26856
26633
26460
26554
26764
26535
26321
26462
26375
26415
26412
26339
26267
26391
26334
26306
26173
26161
26304
26162
26057
26090
26049
26190
26072
26010
26186
26024
26092
25866
26157
26144
25937
26034
26027
26102
25945
26147
26226
26094
26071
26170
26235
26142
26112
26234
26247
26047
26070
26392
26208
26362
26161
26252
26272
25990
26190
26336
26254
26064
26201
26246
26221
26330
26270
26288
26358
26438
26360
26444
26268
26431
26286
26469
26460
26602
26380
26531
26399
26465
26519
26526
26517
26718
26566
26382
26659
26656
26644
26446
26697
26654
26619
26579
26798
26631
26575
26673
26954
26708
26767
26823
26707
26912
26778
26950
26927
26815
26722
26816
26822
26830
26947
26819
26819
26829
26942
26939
27067
26895
27040
27071
26872
26843
27141
26953
26706
26793
26955
26806
26799
26810
26732
26551
26602
26538
26633
26518
26519
26554
26552
26298
26293
26570
26383
26246
26272
26434
26340
26303
26198
26368
26255
26097
26276
26299
26257
26082
26227
26254
26090
26205
26388
26102
26073
26207
26373
26103
26108
26328
26369
26228
26325
26267
26394
26318
26345
26519
26388
26282
26400
26322
26323
26323
26447
26434
26266
26355
26592
26447
26261
26370
26361
26338
26365
26556
26453
26544
26396
26490
26528
26447
26622
26764
26700
26638
26683
26783
26606
26707
26752
26672
26641
26621
26844
26773
26686
26750
26886
26878
26831
26883
26921
26931
26760
26969
27065
27057
27067
27150
27100
27024
27112
27374
27196
27096
27118
27418
27223
27104
27354
27461
27166
27310
27440
27235
27194
27373
27260
27508
27251
27459
27515
27385
27271
27342
27441
27232
27097
27118
27068
27112
26872
27046
27129
26848
26988
27013
26872
26770
26922
26878
26703
26685
26749
26747
26627
26583
26623
26614
26535
26568
26679
26576
26533
26534
26546
26441
26491
26657
26718
26510
26467
26518
26486
26592
26576
26503
26543
26418
26713
26750
26541
26684
26620
26701
26584
26700
26685
26723
26501
26753
26855
26812
26655
26685
26805
26652
26758
26838
26882
26829
26769
26910
26752
26627
26750
26826
26936
26671
26962
26985
26909
26754
27038
26851
26902
26797
26892
26901
27011
26938
26931
26988
27102
26975
27009
26964
26933
27256
27044
27091
27136
27174
27183
26959
27079
27178
27220
27183
27284
27343
27226
27039
27226
27291
27343
27312
27445
27373
27273
27295
27313
27363
27327
27324
27319
27381
27434
27477
27407
27255
27448
27366
27425
27229
27280
27475
27277
27230
27209
27214
27060
26967
27011
27004
26871
26966
26843
26744
26733
26916
26946
26734
26708
26589
26692
26639
26664
26610
26689
26590
26510
26556
26661
26553
26490
26692
26519
26370
26502
26468
26471
26316
26521
26703
26507
26383
26654
26484
26641
26564
26749
26559
26622
26601
26714
26722
26678
26744
26677
26678
26522
26767
26852
26633
26553
26577
26635
26551
26551
26747
26760
26615
26679
26786
26701
26629
26858
26753
26729
26701
26688
26724
26856
26837
26809
26865
26818
26876
26927
26872
26904
26910
26964
26919
26845
26932
26983
26839
26974
26990
27001
26910
27050
27066
26978
26960
26989
27170
26980
26883
27115
27019
26984
26989
27249
27092
27053
27190
27024
27030
26978
27151
27120
27067
27021
27381
27332
27235
27193
27172
27229
27096
27253
27110
27085
26871
27052
26979
26946
26836
27014
26759
26798
26604
26642
26686
26644
26547
26490
26434
26324
26571
26587
26248
26387
26488
26510
26231
26256
26342
26380
26110
26358
26167
26157
26057
26232
26112
26249
26258
26391
26250
26279
26229
26383
26201
26263
26335
26274
26235
26085
26213
26218
26227
26332
26314
26308
26357
26176
26253
26306
26209
26284
26312
26429
26366
26433
26466
26335
26363
26326
26461
26183
26453
26469
26457
26275
26486
26487
26463
26414
26576
26522
26532
26448
26511
26516
26407
26463
26612
26571
26337
26647
26506
26505
26479
26702
26516
26658
26459
26685
26734
26452
26536
26576
26651
26486
26632
26610
26588
26684
26798
26673
26809
26566
26899
26911
26783
26716
26993
26744
26799
26832
27022
26866
26829
26794
27005
26872
26840
26796
26783
26546
26668
26674
26501
26340
26483
26604
26471
26162
26368
26386
26285
26227
26358
26160
26062
26072
26221
25981
26085
25901
26042
26049
25706
25827
26044
25822
25679
25901
25994
25692
25856
25974
25882
25663
25812
25933
25767
25762
25924
25896
25896
25911
26001
25874
25884
25837
25889
25904
25919
25900
25841
25948
25890
25895
25995
25894
25766
26085
26046
25924
25959
26010
25977
25961
26152
26163
26028
25925
25961
25978
26058
25928
26004
26029
26121
26128
26170
26096
26177
26024
26173
26167
26193
26174
26184
26182
26198
26218
26324
26283
26073
26292
26298
26055
26274
26482
26305
26124
26423
26366
26289
26274
26387
26545
26259
26436
26599
26529
26502
26354
26473
26485
26354
26623
26474
26601
26431
26672
26534
26445
26450
26651
26558
26608
26423
26547
26555
26542
26469
26573
26371
26260
26312
26299
26274
26272
26378
26274
26154
26139
26071
25988
25854
25923
25886
25813
25763
25778
25969
25856
25684
25746
25610
25603
25655
25792
25652
25467
25628
25441
25572
25346
25478
25681
25518
25246
25519
25620
25493
25301
25576
25529
25349
25538
25552
25588
25452
25556
25745
25583
25479
25552
25705
25470
25498
25754
25651
25663
25681
25663
25731
25628
25657
25584
25671
25513
25831
25755
25667
25747
25881
25781
25596
25733
25855
25775
25603
25796
25689
25754
25781
25910
25949
25886
25873
26073
25892
25728
25859
25962
25855
25822
26015
25935
25853
25942
26077
25923
25995
25857
25964
26021
25929
25971
26236
26136
25995
26074
26266
26183
25947
26244
26241
26189
26071
26116
26182
26254
26180
26289
26157
26192
26221
26147
26139
26256
26225
26215
26205
26144
26257
26002
25985
25941
25876
25897
25853
25943
25719
25704
25560
25796
25715
25693
25666
25528
25670
25469
25348
25404
25352
25217
25292
25382
25249
25101
25385
25199
25284
25253
25327
25149
25197
25164
25167
25178
25251
25289
25177
25202
25120
25186
25420
25278
25278
25265
25442
25319
25301
25555
25363
25306
25465
25543
25400
25355
25380
25495
25348
25352
25477
25568
25423
25342
25561
25443
25445
25472
25644
25605
25481
25669
25720
25610
25645
25765
25787
25596
25604
25619
25739
25571
25779
25706
25751
25687
25812
25845
25812
25767
25897
25876
25801
25862
25889
25876
25793
25926
26000
25932
25771
25993
25880
26086
26013
26033
25928
25967
25983
26108
25990
26010
26032
26147
26216
26094
26117
26241
26263
26156
26188
26311
26205
26170
26293
26257
26209
26200
26305
26176
26134
26090
26121
26009
25968
26011
26078
25966
25898
25764
25796
25678
25811
25761
25742
25494
25733
25802
25677
25456
25710
25430
25366
25449
25515
25493
25235
25477
25397
25458
25165
25418
25373
25282
25365
25484
25459
25188
25324
25512
25408
25193
25348
25304
25437
25222
25528
25556
25518
25511
25463
25436
25457
25329
25584
25582
25571
25548
25487
25560
25488
25550
25521
25504
25533
25682
25492
25726
25471
25629
25711
25681
25597
25584
25721
25660
25747
25611
25683
25771
25801
25647
25671
25787
25865
25825
25820
25653
25909
25839
25699
25844
26006
25795
25773
25968
25942
25872
25778
25896
26003
25890
25916
25965
26077
25956
25996
26014
26087
25834
26095
26209
26034
26058
26254
26101
26077
26017
26073
26086
26142
26151
26285
26214
25916
26150
26281
26119
26010
26203
26032
25966
26008
25927
25942
25907
25839
25752
25779
25769
25703
25775
25723
25597
25764
25602
25556
25549
25490
25510
25336
25445
25240
25257
25297
25178
25140
25191
25012
25323
25106
25176
24965
25099
25205
25034
25181
25153
25029
25006
25151
25161
25138
25016
25272
25052
25174
25146
25234
25207
25059
25194
25339
25225
25129
25292
25319
25312
25217
25332
25334
25305
25279
25508
25281
25352
25400
25490
25308
25313
25414
25373
25471
25438
25481
25537
25435
25373
25643
25401
25501
25435
25510
25546
25445
25501
25683
25591
25476
25716
25560
25485
25645
25656
25654
25454
25613
25792
25560
25428
25604
25866
25605
25509
25875
25825
25674
25566
25918
25686
25751
25889
25997
25746
25680
25845
25936
25798
25762
25957
25987
25756
25932
26002
25922
25884
25868
26041
25845
25706
25856
25776
25837
25537
25665
25831
25568
25460
25552
25506
25297
25521
25558
25442
25104
25276
25398
25135
25102
25134
25230
24942
25102
25112
24958
24839
25008
24883
24989
24745
24974
24894
24842
24569
24926
24820
24631
24607
24764
24754
24682
24743
24662
24739
24568
24768
24914
24713
24616
24779
24954
24657
24651
24921
24798
24759
24689
24888
24822
24749
24794
24780
24932
24774
24968
24862
24734
24766
24804
24881
24832
24982
24952
24984
24908
24923
25059
25031
24923
25096
24998
24893
24967
25153
24922
24967
25063
24961
24961
24803
25096
24970
24998
24921
25111
25244
25080
24944
25120
25189
25198
25070
25120
25175
25063
25181
25399
25281
25092
25300
25230
25236
25217
25416
25437
25382
25310
25395
25414
25186
25404
25355
25555
25439
25535
25591
25404
25499
25392
25395
25256
25227
25540
25329
25303
25296
25173
25266
25018
25242
25084
25146
24850
25064
25131
24781
24866
25022
24804
24675
24822
24719
24724
24716
24625
24581
24531
24499
24556
24537
24508
24482
24662
24518
24432
24374
24520
24478
24329
24374
24645
24515
24395
24597
24624
24492
24535
24548
24493
24405
24516
24513
24574
24436
24717
24562
24538
24633
24774
24741
24692
24737
24773
24834
24614
24871
24773
24761
24795
24760
24795
24745
24853
24897
24970
24861
24862
25076
24962
24806
24927
25169
24963
24833
25050
25089
25031
24924
25021
25004
25002
25148
25102
25303
25007
25216
25118
25173
25113
25151
25244
25335
25126
25475
25480
25241
25319
25424
25402
25247
25521
25645
25442
25293
25459
25420
25412
25476
25650
25512
25459
25387
25684
25520
25649
25509
25470
25539
25421
25491
25621
25426
25252
25549
25538
25429
25209
25170
25222
25221
25151
25336
25135
24981
25086
25015
24970
24793
24814
25000
24696
24712
24903
24866
24623
24550
24751
24643
24442
24497
24625
24496
24275
24552
24490
24495
24304
24403
24406
24405
24349
24356
24447
24247
24453
24363
24535
24258
24565
24693
24572
24595
24554
24500
24482
24575
24827
24695
24378
24719
24682
24719
24446
24748
24712
24577
24731
24883
24845
24596
24778
24970
24876
24776
24844
24921
24898
24605
24970
24779
24751
24771
24863
24864
24738
24807
25070
25007
25005
25005
25133
24938
24880
25084
25197
24933
25055
25107
25195
25099
25093
25023
25063
24894
25096
25116
25138
25020
25174
25330
25178
25074
25267
25358
25239
25282
25499
25399
25272
25340
25249
25395
25201
25267
25364
25413
25247
25359
25413
25325
25099
25203
25221
25047
25113
25246
25072
25055
25094
25051
25015
24916
24775
24703
24699
24719
24633
24807
24427
24693
24647
24571
24490
24479
24632
24359
24412
24402
24481
24374
24226
24268
24291
24158
24253
24223
24313
24201
24263
24205
24259
24082
24216
24195
24210
24304
24201
24324
24113
24401
24250
24357
24252
24465
24408
24265
24315
24387
24376
24501
24353
24425
24318
24273
24561
24456
24517
24548
24569
24577
24546
24484
24635
24544
24637
24508
24704
24679
24614
24696
24770
24667
24620
24721
24700
24681
24620
24797
24768
24730
24717
24846
24791
24746
24753
24884
24961
24749
24794
24807
24881
24816
24944
24974
24923
24896
24986
24976
24908
24956
25078
25003
24934
25011
25088
25027
24994
25075
25088
25043
25018
25166
25204
24979
25064
25063
24989
24927
24940
24978
24927
24757
24870
24783
24756
24580
24731
24705
24499
24343
24532
24544
24363
24331
24448
24288
24283
24169
24047
24101
24039
24126
24057
23984
23842
24078
23902
23623
23769
23882
23687
23649
23671
23616
23704
23640
23626
23832
23695
23738
23681
23726
23624
23857
23860
23909
23862
23886
23817
23808
23753
23831
23922
23976
23947
23849
23982
23977
23931
23988
23970
24055
24028
24139
24079
23941
24181
24057
24109
24080
24286
24159
24047
24033
24280
24159
24010
24215
24059
24194
24239
24220
24204
24235
24199
24251
24295
24207
24302
24326
24399
24198
24424
24411
24459
24417
24516
24471
24486
24417
24518
24540
24609
24677
24538
24590
24647
24786
24599
24569
24685
24635
24842
24792
24722
24908
24703
24755
24735
24914
24717
24558
24725
24498
24625
24494
24558
24406
24497
24271
24396
24232
24243
24120
24273
24151
23858
23987
24052
23809
23859
23944
23769
23662
23594
23551
23665
23437
23433
23615
23372
23382
23394
23543
23419
23370
23447
23263
23360
23275
23294
23302
23352
23228
23396
23304
23161
23312
23545
23439
23354
23426
23550
23401
23328
23577
23624
23424
23452
23706
23552
23361
23541
23596
23529
23366
23725
23669
23541
23591
23811
23749
23500
23614
23952
23712
23692
23671
23798
23780
23776
23911
23855
23835
23875
23804
23767
23763
23845
23943
23897
23914
24083
23905
23907
23944
24137
24010
24085
24030
24096
24271
24150
24066
24340
24197
24008
24238
24347
24258
24246
24349
24284
24316
24225
24394
24323
24328
24323
24412
24371
24259
24383
24328
24358
24339
24539
24486
24379
24330
24317
24287
24298
24191
24111
24283
24105
24112
24211
23997
23733
24012
23732
23655
23695
23793
23571
23584
23558
23387
23317
23227
23356
23481
23231
23263
23212
23327
23017
23153
23192
23231
23029
22985
23096
23219
22968
23212
23322
23132
23209
23231
23325
23307
23144
23309
23380
23361
23293
23623
23423
23450
23433
23525
23402
23294
23572
23479
23544
23468
23680
23528
23550
23477
23550
23686
23697
23529
23848
23800
23649
23749
23757
23753
23747
23832
23880
23774
23753
23927
23948
23797
23806
23877
23917
23952
24013
24012
23993
23932
24072
24091
24045
24073
24182
24166
24075
24180
24291
24196
24134
24257
24320
24217
24274
24241
24241
24264
24209
24338
24508
24305
24318
24501
24412
24287
24584
24543
24561
24374
24547
24515
24512
24519
24585
24377
24432
24301
24352
24410
24174
24297
24100
24197
24167
24152
24023
23968
23874
23915
23813
23711
23669
23606
23594
23334
23435
23442
23344
23126
23250
23310
23077
23113
23195
23040
23149
23084
23106
23155
23036
23169
23164
23111
23058
23151
23041
23169
23264
23223
23164
23095
23255
23313
23315
23414
23526
23426
23329
23287
23440
23411
23550
23341
23511
23479
23595
23700
23551
23665
23412
23686
23603
23648
23545
23700
23721
23671
23633
23728
23832
23705
23840
23829
23892
23821
23944
23944
23950
23831
24138
24077
24079
24007
24156
24139
24131
24064
24382
24179
24011
24258
24220
24315
24304
24301
24296
24335
24217
24587
24364
24430
24375
24686
24507
24371
24468
24465
24474
24471
24560
24429
24487
24366
24589
24664
24616
24539
24541
24626
24513
24574
24643
24385
24343
24309
24421
24245
24182
24224
24097
23952
24096
24215
24104
23661
23711
23913
23687
23464
23685
23445
23521
23240
23324
23353
23285
23115
23160
23162
22903
23133
23091
23057
22973
22908
23000
22883
22761
23147
23032
23005
23006
23008
22997
23103
23101
23037
23109
23176
23197
23218
23239
23175
23226
23306
23157
23234
23488
23270
23192
23329
23321
23335
23284
23471
23394
23339
23210
23596
23460
23310
23347
23549
23633
23362
23447
23563
23639
23549
23711
23602
23657
23547
23804
23638
23737
23768
23918
23840
23741
23748
23888
23817
23783
23790
24024
23907
23932
23859
23998
23861
23783
24011
24013
23765
23867
23954
23971
23794
24009
24044
24014
24000
24151
23989
24045
23953
24215
24001
24115
24043
24166
24135
23826
24088
24219
23919
23810
24078
23999
23960
23675
23708
23755
23591
23534
23605
23479
23346
23299
23210
23157
22834
22888
22975
22866
22596
22853
22538
22537
22419
22669
22582
22235
22464
22605
22381
22290
22420
22391
22357
22229
22393
22430
22220
22320
22517
22418
22383
22464
22578
22543
22288
22500
22643
22622
22552
22632
22602
22486
22595
22604
22787
22540
22567
22787
22815
22673
22829
22821
22747
22592
22785
22664
22689
22852
22811
22659
22706
22854
22845
22793
22751
22777
22862
22800
22903
22901
22922
22836
22913
23059
23001
22853
23028
23092
23079
22968
23101
23132
23090
23051
23239
23249
23188
23228
23443
23332
23149
23339
23436
23418
23321
23403
23556
23529
23533
23636
23676
23480
23378
23754
23560
23528
23643
23744
23589
23441
23714
23756
23600
23471
23551
23696
23459
23324
23623
23356
23248
23147
23313
23096
22801
22973
23059
22922
22703
22702
22784
22521
22518
22601
22495
22536
22423
22506
22385
22422
22333
22521
22351
22168
22347
22543
22289
22339
22366
22433
22404
22435
22407
22459
22252
22512
22511
22576
22419
22589
22663
22559
22643
22716
22748
22562
22688
22813
22717
22644
22780
22756
22770
22745
22779
22899
22958
22812
23058
23063
22781
22799
23007
22893
22975
23132
23181
23136
23085
23105
23136
23219
23126
23164
23218
23256
23313
23431
23243
23097
23265
23474
23393
23389
23390
23394
23462
23456
23441
23535
23384
23381
23491
23620
23562
23614
23683
23584
23411
23720
23823
23700
23546
23824
23804
23770
23810
23757
23820
23853
23854
24049
23784
23891
23951
23989
23905
23844
23940
23696
23811
23600
23817
23635
23374
23624
23478
23450
23243
23300
23351
23110
23066
23130
23088
22914
22792
22798
22708
22598
22596
22607
22528
22535
22457
22568
22455
22386
22487
22400
22385
22309
22496
22367
22157
22269
22489
22455
22265
22435
22451
22412
22290
22601
22541
22376
22496
22650
22618
22426
22698
22735
22607
22546
22642
22682
22773
22588
22833
22772
22561
22618
22955
22874
22794
22733
22775
22764
22752
22850
22934
22732
22646
22960
22784
22705
22702
22816
22959
22699
22928
22852
22979
22902
22947
22954
22974
22905
22963
22995
23012
22986
23077
23156
23120
23146
23287
23145
23154
23125
23379
23213
23055
23281
23262
23327
23231
23516
23257
23166
23272
23277
23305
23381
23278
23466
23408
23199
23344
23464
23391
23207
23467
23391
23111
23140
23347
23232
23058
23019
23051
22869
22783
22874
22841
22615
22467
22606
22489
22424
22274
22204
22300
22032
22172
22086
22099
21781
21966
22076
21827
21850
21909
21897
21751
21844
21856
21862
21734
21861
21915
21869
21818
21951
21905
21881
21876
22010
22043
21934
21961
22115
21991
22054
22187
22139
22145
22043
22164
22164
22114
22040
22212
22224
22126
22160
22213
22167
22110
22163
22230
22199
22150
22297
22164
22118
22212
22211
22379
22314
22252
22366
22325
22254
22354
22465
22385
22343
22470
22454
22451
22398
22599
22556
22561
22449
22556
22618
22421
22614
22832
22649
22666
22657
22755
22579
22661
22841
22677
22771
22600
22964
22774
22837
22894
22948
22886
22900
23035
23031
23002
22895
23150
23044
22961
22901
23132
22925
22662
22829
22700
22766
22468
22668
22658
22455
22351
22490
22243
22150
22090
22211
21923
21893
21936
21845
21652
21671
21795
21733
21624
21500
21582
21644
21428
21519
21576
21440
21369
21614
21505
21509
21328
21526
21595
21508
21438
21666
21668
21571
21547
21692
21680
21624
21672
21813
21679
21557
21817
21947
21860
21703
21759
21828
21910
21811
22059
21802
21885
21797
21925
22025
21851
21974
21945
21904
21816
22112
22151
21997
21962
22183
22260
22080
22226
22155
22079
22032
22285
22443
22284
22293
22247
22235
22294
22327
22354
22361
22213
22382
22532
22418
22327
22469
22583
22514
22472
22670
22583
22487
22527
22703
22777
22480
22640
22880
22756
22741
22780
22784
22806
22821
22943
22812
22927
22897
22886
22928
22736
22858
23095
22879
22816
22972
22928
22830
22609
22690
22718
22513
22401
22611
22389
22223
22125
22293
22250
22010
22004
22113
21955
21858
22018
21833
21930
21675
21992
21813
21773
21721
21759
21745
21626
21726
21751
21724
21626
21769
21733
21667
21627
21848
21758
21704
21803
21779
21873
21884
21995
21896
22008
21958
22004
22148
21995
22108
22031
22196
21974
21993
22222
22190
22063
22287
22298
22305
22057
22367
22439
22204
22318
22284
22343
22433
22326
22455
22382
22205
22489
22623
22524
22431
22594
22644
22539
22560
22665
22645
22561
22603
22625
22716
22642
22823
22692
22771
22724
22875
22756
22727
22777
23009
22901
22804
22937
22972
22954
22942
23099
23002
23157
23045
23239
23204
22968
23150
23118
23339
23103
23174
23194
23228
23018
23275
23425
23277
23073
23249
23204
23246
23193
23276
23190
23064
22989
23203
22941
22728
22767
22780
22637
22487
22474
22395
22443
22178
22336
22222
22090
21904
22003
22110
21825
22062
22090
21994
21914
22014
21977
21995
21668
22065
21905
21770
21884
21957
22054
21727
21885
21983
22078
22001
22094
22185
22060
22023
22173
22279
22214
22189
22403
22329
22144
22360
22402
22455
22409
22438
22566
22550
22305
22660
22548
22434
22616
22770
22750
22471
22619
22777
22734
22605
22831
22779
22765
22630
22891
22816
22775
22736
22987
23050
22895
22808
22879
22906
22838
22906
23212
22964
22968
23103
23076
23036
22999
23203
23098
22969
23154
23231
23185
23125
23299
23222
23211
23167
23250
23344
23174
23195
23430
23483
23428
23420
23445
23348
23223
23409
23450
23594
23515
23660
23684
23577
23311
23598
23558
23382
23326
23514
23473
23322
23425
23241
23272
23102
23258
23100
23067
22885
23003
22856
22670
22618
22591
22575
22189
22437
22433
22273
22012
22273
22273
22235
22110
22103
22103
21920
22118
22100
22008
21861
22141
21973
22138
21942
22102
22269
22203
21964
22328
22320
22054
22209
22362
22400
22248
22476
22419
22441
22193
22574
22442
22361
22298
22620
22685
22531
22559
22471
22515
22349
22605
22687
22587
22599
22565
22692
22605
22504
22842
22757
22752
22685
22917
22710
22744
22856
22940
22832
22814
22820
22843
22774
22661
22856
22820
22747
22837
22876
23022
22779
22972
23010
23032
22983
23032
23225
22974
22851
23186
23232
23072
23094
23004
23064
22948
23250
23196
23148
23006
23230
23238
23176
23085
23309
23471
23285
23322
23324
23406
23304
23444
23532
23358
23183
23287
23498
23372
23252
23247
23162
23172
23034
23258
23051
22948
22868
22726
22752
22528
22704
22528
22454
22268
22461
22299
22201
22113
22193
22226
22010
22075
22009
22075
21952
22073
21957
21905
21996
21974
21934
21886
21825
22184
22110
22037
21997
22169
22020
22062
22247
22292
22062
22120
22373
22322
22300
22181
22231
22209
22161
22343
22480
22394
22417
22518
22602
22380
22475
22660
22514
22599
22540
22603
22644
22422
22538
22753
22707
22609
22654
22848
22813
22592
22848
22940
22684
22655
22802
22790
22855
22924
22957
22835
22827
22882
22994
22980
22770
22966
23190
22957
22985
23075
23109
22943
23104
23248
23163
23211
23241
23314
23294
23048
23360
23360
23384
23214
23525
23516
23356
23412
23524
23471
23431
23430
23723
23552
23539
23633
23733
23629
23580
23604
23554
23425
23564
23540
23573
23314
23442
23384
23392
23297
23201
23121
23166
23106
23150
22973
22988
22810
22690
22731
22637
22608
22789
22552
22338
22621
22377
22321
22292
22516
22409
22198
22304
22273
22299
22288
22357
22505
22264
22158
22431
22318
22396
22402
22432
22514
22386
22385
22543
22521
22514
22594
22590
22720
22644
22720
22844
22588
22731
22869
22667
22787
22616
22954
22799
22722
22733
22975
22696
22583
22888
22684
22789
22792
22862
22789
22825
22759
23030
22879
22734
22857
22902
22970
22689
22858
22842
22829
22715
22939
23158
22995
23013
22980
23174
23029
23121
23224
23187
22993
23137
23220
23031
23177
23291
23280
23238
23117
23383
23193
23187
23311
23394
23341
23231
23397
23475
23342
23360
23541
23620
23518
23421
23483
23532
23382
23487
23518
23461
23343
23484
23460
23354
23245
23377
23294
23181
23084
23208
23085
22862
22966
23127
22894
22629
22796
22737
22646
22411
22715
22487
22471
22458
22389
22403
22235
22270
22340
22189
22219
22185
22190
22134
22072
22229
22255
22148
22113
22324
22344
22232
22230
22339
22305
22130
22421
22522
22562
22377
22584
22550
22561
22513
22676
22665
22546
22635
22829
22684
22662
22725
22837
22613
22583
22695
22672
22632
22780
22936
22864
22605
22795
22894
22912
22744
22782
22919
22862
22836
22901
23004
22837
22791
23040
22884
23005
22831
23148
23021
22843
23018
23066
23035
22926
23119
23115
23083
23038
23268
23210
23141
23152
23288
23268
23122
23336
23446
23257
23161
23274
23268
23418
23368
23318
23494
23193
23345
23492
23423
23283
23569
23581
23389
23279
23608
23530
23322
23446
23458
23493
23234
23329
23506
23282
23152
23164
23070
23009
22810
23003
22911
22822
22741
22672
22685
22598
22446
22402
22316
22123
22277
22356
22128
22182
22309
22178
22007
21933
22179
21962
21966
21838
22042
22109
21988
22032
22115
21972
21866
22110
22234
22017
22152
22240
22259
22115
22232
22253
22423
22229
22212
22316
22305
22127
22318
22484
22359
22282
22468
22483
22378
22449
22692
22486
22336
22516
22593
22575
22510
22634
22528
22619
22451
22627
22724
22518
22463
22802
22628
22663
22748
22734
22667
22714
22725
22899
22826
22729
22779
22946
22710
22772
23084
22901
22910
22863
22961
22965
22857
23053
22988
23132
22943
23120
23107
22981
23168
23095
23233
23170
23153
23386
23327
23077
23377
23505
23434
23304
23354
23436
23406
23322
23647
23537
23335
23460
23514
23357
23358
23434
23363
23358
23168
23250
23231
22919
22879
22985
22876
22594
22777
22922
22559
22582
22668
22423
22304
22293
22475
22456
22168
22098
22176
22103
22166
22114
22015
22116
21870
22099
22004
21967
21920
22212
22220
22022
21930
22271
22297
21992
22106
22298
22227
22067
22238
22253
22214
22248
22375
22430
22264
22261
22599
22518
22426
22422
22528
22549
22239
22490
22615
22468
22275
22558
22629
22540
22443
22586
22550
22494
22538
22578
22568
22636
22738
22648
22707
22616
22884
22691
22726
22608
22832
22927
22732
22865
22833
22831
22713
22950
22823
22920
22858
23007
22982
22913
22960
23089
23035
22914
23013
23036
23077
23039
23076
23072
23059
23132
23137
23248
23085
23026
23366
23329
23234
23170
23235
23191
23115
23228
23340
23263
23137
23268
23355
23240
23101
23379
23341
23148
23215
23388
23147
23137
23103
23088
22873
22852
22950
22863
22721
22442
22652
22503
22337
22430
22276
22331
22040
22213
22290
22201
21862
21986
21996
22076
21837
22023
21977
21860
21865
22118
21942
21776
22022
22147
22003
21899
22073
22220
22069
22121
22245
22103
21999
22261
22221
22265
22124
22357
22406
22234
22260
22456
22324
22363
22443
22599
22497
22470
22301
22582
22495
22494
22497
22720
22596
22590
22680
22665
22711
22596
22677
22709
22706
22660
22696
22847
22799
22766
22784
22825
22839
22896
22985
23013
22737
23116
22946
23044
22915
23086
23201
23020
23155
23139
23170
23068
23128
23354
23122
23083
23294
23391
23251
23145
23393
23240
23159
23284
23523
23365
23141
23474
23459
23431
23283
23498
23570
23492
23408
23576
23684
23426
23440
23680
23626
23370
23551
23677
23461
23262
23537
23563
23392
23362
23343
23293
23052
23118
23161
23100
22791
23045
23018
22876
22647
22764
22870
22621
22520
22684
22560
22460
22415
22417
22449
22292
22358
22465
22238
22180
22434
22406
22372
22244
22332
22342
22235
22309
22552
22470
22395
22547
22694
22623
22472
22638
22633
22603
22591
22792
22727
22632
22680
22817
22772
22760
22838
23007
22867
22744
22890
22959
22875
22831
22999
22963
22878
22908
23062
22997
22855
22995
22975
23033
22998
23015
23121
23142
23136
23145
23143
23118
23240
23177
23306
23102
23128
23304
23333
23168
23440
23222
23213
23157
23467
23434
23295
23368
23555
23433
23217
23354
23613
23480
23406
23611
23467
23387
23441
23533
23532
23447
23518
23505
23564
23449
23634
23752
23663
23484
23626
23620
23499
23426
23791
23751
23450
23504
23685
23569
23339
23463
23591
23485
23245
23377
23256
23295
23136
23221
23226
22926
22958
22982
22996
22743
22741
22878
22704
22434
22583
22462
22407
22405
22462
22455
22285
22173
22282
22199
22125
22297
22298
22169
22123
22170
22256
22234
22039
22262
22295
22138
22171
22406
22272
22154
22348
22557
22419
22392
22484
22595
22457
22455
22521
22478
22455
22545
22784
22564
22620
22601
22584
22629
22569
22591
22581
22573
22690
22846
22761
22634
22688
22795
22756
22702
22733
22896
22797
22555
22923
22765
22926
22681
22867
22807
22975
22788
22921
22994
22883
22934
23202
22993
22803
22979
23150
22987
23041
23111
23226
23151
23099
23304
23142
23032
23100
23329
23153
23175
23092
23389
23268
23150
23337
23165
23213
23289
23508
23346
23082
23290
23386
23349
23274
23370
23387
23265
23310
23409
23389
23102
23096
23174
23235
22965
22957
23026
22976
22713
22893
22786
22856
22620
22725
22640
22443
22298
22630
22457
22437
22408
22462
22357
22087
22412
22251
22297
22297
22205
22208
22182
22240
22268
22320
22263
22263
22326
22346
22298
22305
22321
22395
22398
22436
22587
22452
22498
22617
22685
22511
22420
22627
22525
22598
22623
22634
22745
22616
22706
22682
22799
22760
22844
22753
22808
22650
23051
22927
22634
22761
22776
22805
22825
22984
23092
22939
22929
23006
22999
22866
22983
23103
23080
23067
23081
23267
23152
23097
23249
23283
23254
23109
23194
23333
23289
23185
23428
23412
23312
23381
23395
23412
23234
23506
23477
23491
23273
23600
23487
23498
23457
23610
23529
23496
23601
23520
23608
23653
23698
23633
23669
23539
23751
23817
23649
23554
23845
23673
23642
23599
23740
23559
23511
23497
23601
23339
23364
23328
23445
23218
23114
23056
23176
22834
22927
22937
22932
22740
22926
22807
22699
22777
22847
22669
22674
22647
22576
22651
22471
22675
22621
22625
22571
22606
22602
22611
22527
22843
22665
22631
22765
22913
22900
22753
22857
23055
23031
22962
22965
23066
23043
22865
22998
23241
23061
22866
23242
23142
22939
23166
23307
23212
23163
23283
23393
23296
23187
23310
23226
23316
23112
23326
23485
23325
23379
23445
23306
23419
23530
23602
23421
23259
23504
23643
23611
23450
23646
23627
23530
23613
23841
23655
23501
23699
23707
23834
23630
23824
23943
23672
23742
24023
23937
23659
23715
23954
23899
23804
23878
24070
23983
23877
24143
23933
23937
23828
24085
24123
24053
23950
24047
24073
24111
24049
24123
24156
23958
24092
24116
23841
23915
23977
23929
23837
23695
23945
23722
23463
23612
23650
23499
23438
23470
23519
23275
23207
23420
23294
23183
23232
23311
23149
22866
22982
23170
23002
22927
23111
22996
22825
22719
23046
22911
22916
22852
22893
22976
22921
22996
23066
23028
23078
23217
23258
23008
23033
23190
23330
23155
23068
23420
23158
23199
23277
23381
23292
23220
23313
23396
23257
23318
23422
23362
23356
23237
23289
23425
23294
23420
23465
23395
23387
23475
23447
23459
23388
23605
23513
23473
23441
23660
23579
23471
23531
23709
23527
23342
23629
23596
23682
23546
23714
23781
23642
23462
23817
23832
23574
23648
23858
23789
23653
23683
23855
23804
23707
23838
23864
23659
23809
23972
23823
23783
23827
23911
23873
23798
23889
23887
23854
23750
23930
23882
23756
23716
23709
23745
23508
23622
23831
23615
23468
23618
23517
23449
23155
23494
23347
23157
22951
23196
22969
22762
22853
22803
22852
22728
22791
22593
22510
22339
22548
22659
22444
22471
22547
22441
22203
22384
22625
22467
22437
22512
22605
22561
22501
22629
22521
22588
22481
22684
22658
22481
22616
22617
22707
22518
22712
22863
22607
22675
22732
22729
22828
22628
22819
22809
22782
22763
22815
22852
22819
22779
23000
22895
22888
22955
22960
22837
22806
23113
22952
22861
22991
22990
23038
22903
23056
23148
22976
23013
23104
23120
23118
23017
23242
23168
23102
23143
23288
23287
23163
23250
23368
23421
23172
23357
23373
23381
23285
23515
23494
23419
23449
23569
23514
23402
23544
23609
23556
23473
23630
23651
23575
23540
23691
23729
23546
23606
23795
23672
23612
23528
23604
23629
23365
23534
23496
23363
23232
23383
23308
23079
23044
23151
22953
22844
22831
22941
22731
22611
22843
22819
22558
22533
22699
22434
22278
22327
22556
22391
22192
22344
22437
22307
22155
22314
22388
22170
22212
22411
22362
22261
22288
22576
22327
22332
22459
22435
22513
22362
22405
22616
22543
22539
22702
22585
22482
22449
22646
22572
22497
22496
22735
22648
22603
22632
22792
22645
22499
22866
22914
22657
22706
22910
22776
22796
22737
22877
22847
22712
22874
22919
22858
22739
22904
22953
22940
22884
23069
22963
23021
22976
23061
23019
22980
22980
23079
23036
23000
23067
23109
22986
23135
23159
23105
23118
23219
23262
23119
23018
23218
23206
23161
23246
23407
23301
23224
23190
23315
23505
23336
23401
23425
23498
23261
23489
23472
23324
23182
23499
23367
23303
23137
23206
23307
23132
23112
23117
22901
22725
22880
22837
22749
22618
22692
22640
22500
22369
22464
22506
22212
22300
22376
22255
22169
22136
22277
22088
21985
22150
22113
22030
21987
22081
22096
22026
22067
22288
22086
22151
22130
22226
22287
22289
22421
22460
22290
22182
22376
22551
22428
22575
22579
22514
22451
22595
22590
22585
22519
22673
22688
22535
22503
22820
22749
22589
22631
22642
22687
22505
22719
22850
22705
22670
22802
22882
22730
22817
22908
23000
22841
23002
22875
22951
22878
22979
23070
23002
22939
23057
22993
23120
22879
23210
23260
23104
23062
23357
23304
23080
23256
23336
23265
23180
23400
23305
23410
23258
23557
23518
23355
23488
23582
23569
23323
23417
23589
23479
23345
23544
23695
23613
23474
23687
23646
23548
23536
23791
23601
23370
23470
23454
23382
23322
23308
23437
23126
23065
23240
23121
22913
22965
23018
22928
22756
22733
22762
22630
22616
22611
22549
22607
22305
22450
22408
22469
22398
22411
22443
22293
22370
22527
22426
22229
22472
22446
22353
22289
22552
22574
22478
22484
22771
22641
22452
22605
22748
22678
22571
22825
22758
22691
22739
22778
22923
22835
22871
23037
22754
22676
22753
22888
22861
22809
23012
22965
22794
22705
23034
23102
22823
22942
23020
23080
22825
22973
23051
22971
22902
23152
23081
23033
23021
23098
23096
23052
22987
23226
23148
22920
23088
23307
23171
23128
23208
23373
23120
23076
23342
23244
23126
23156
23306
23235
23210
23308
23381
23493
23305
23525
23398
23310
23215
23579
23592
23514
23505
23675
23412
23256
23423
23432
23487
23236
23417
23373
23249
23062
23319
23233
23012
22924
23129
23083
22887
22942
22847
22837
22599
22611
22631
22456
22301
22436
22400
22247
22143
22308
22314
22123
22126
22192
22102
21968
22114
22122
22085
21986
22122
22218
22042
22070
22228
22201
22105
22130
22274
22238
22113
22280
22321
22304
22169
22343
22424
22328
22296
22470
22418
22330
22385
22547
22495
22324
22532
22577
22516
22388
22564
22570
22500
22497
22641
22633
22443
22546
22746
22632
22463
22596
22711
22591
22593
22786
22840
22715
22634
22765
22693
22701
22700
22903
22836
22721
22830
22910
22882
22765
22906
22999
22898
22753
23039
22892
22789
22956
23152
23039
22929
23032
23108
23044
22939
23143
23121
23073
23046
23209
23204
23213
23195
23178
23295
23098
23299
23225
23107
23055
23122
23181
23056
23107
23033
23031
22959
22964
23032
22880
22765
22716
22633
22574
22491
22456
22454
22407
22232
22142
22311
22002
22088
21960
21967
21833
21835
22001
21938
21703
21787
21911
21764
21757
21800
21732
21648
21704
21830
21868
21646
21757
21775
21935
21671
21902
22041
21923
21830
22170
22149
21950
22074
22080
22188
22092
22153
22206
22221
22170
22269
22281
22274
22064
22329
22312
22237
22100
22426
22301
22319
22405
22316
22485
22393
22513
22465
22448
22445
22443
22594
22450
22508
22558
22545
22464
22724
22798
22761
22471
22732
22787
22785
22528
22736
22938
22840
22683
23044
22935
22685
22900
23162
22966
22753
23057
22990
23029
22864
23185
23186
23055
23049
23320
23204
23097
23199
23385
23303
23051
23326
23377
23335
23148
23307
23241
23220
23241
23477
23280
23190
23303
23442
23206
23006
23271
23149
22942
22816
22965
22987
22825
22721
22794
22691
22625
22526
22633
22494
22312
22434
22466
22314
22310
22386
22415
22181
22211
22400
22309
22060
22255
22192
22305
22064
22267
22231
22157
22039
22299
22394
22252
22297
22514
22346
22235
22466
22622
22427
22256
22493
22551
22502
22410
22490
22577
22618
22391
22662
22643
22544
22593
22646
22683
22610
22724
22770
22753
22686
22752
22813
22849
22646
22920
23005
22776
22905
23134
22888
22887
23016
22989
22919
22882
23122
22986
23073
22887
23064
23087
22932
22987
23218
23016
23030
23224
23167
23079
23053
23195
23278
23146
23263
23254
23276
23171
23245
23386
23387
23156
23337
23401
23413
23307
23437
23449
23375
23288
23524
23474
23362
23409
23613
23539
23216
23390
23551
23376
23092
23224
23221
23258
23123
23122
23044
22931
22805
22854
22851
22664
22688
22755
22691
22391
22346
22393
22400
22069
22202
22122
22083
22175
22059
22177
21929
21972
22121
22046
21810
22039
22048
21929
21886
22068
22046
22034
21969
22126
22104
22048
22076
22183
22178
22076
22200
22317
22143
22050
22244
22367
22312
22118
22495
22474
22340
22367
22310
22418
22222
22485
22385
22344
22248
22450
22370
22322
22244
22574
22579
22401
22310
22634
22475
22370
22546
22552
22515
22455
22608
22713
22499
22529
22790
22701
22479
22598
22726
22697
22620
22764
22853
22731
22707
22842
22902
22674
22823
22786
22900
22747
22821
22882
22890
22769
22909
23025
22968
22741
23036
23129
22896
22982
23088
23051
23018
22922
23242
23082
22930
23153
23250
22961
23025
22975
22956
22988
22833
22858
22892
22689
22638
22624
22687
22494
22442
22482
22322
22048
22284
22320
22220
21967
22191
22179
21912
21999
22056
21934
21667
21825
21797
21902
21639
21883
21764
21750
21780
21967
21906
21863
21890
22060
21887
21682
21877
21993
21938
22007
22097
22178
22101
22039
22259
22218
22154
22098
22127
22219
22220
22205
22305
22283
22080
22262
22454
22274
22180
22329
22370
22223
22261
22342
22315
22163
22406
22425
22360
22301
22526
22401
22335
22397
22479
22548
22434
22372
22543
22447
22342
22569
22621
22589
22356
22582
22772
22578
22531
22746
22730
22599
22614
22723
22731
22751
22771
22874
22799
22611
22919
22896
22794
22778
23023
22933
22817
22719
22994
22857
22883
22983
23005
23039
22808
22948
23011
22977
22846
22889
22993
22774
22785
22929
22830
22641
22599
22747
22598
22375
22375
22365
22300
22037
22285
22205
22013
22037
21975
21931
21748
21822
21816
21894
21595
21813
21776
21705
21530
21798
21754
21565
21677
21877
21679
21557
21698
21837
21859
21580
21854
21919
21930
21901
21940
22097
21882
21806
22115
22140
21864
22027
22125
22206
22123
22243
22257
22253
22206
22311
22245
22205
22104
22272
22403
22278
22243
22487
22474
22183
22350
22446
22495
22249
22487
22419
22404
22400
22699
22535
22520
22435
22715
22647
22525
22687
22720
22713
22535
22801
22763
22706
22708
22901
22957
22743
22834
23071
22988
22811
22871
22991
22937
22837
23164
23178
23141
23176
23204
23273
23215
23305
23249
23303
23112
23227
23286
23384
23335
23409
23305
23436
23335
23421
23323
23299
23363
23513
23282
23053
23181
23168
23095
22916
23052
22935
22933
22779
22906
22830
22688
22631
22711
22616
22383
22531
22616
22495
22392
22447
22475
22353
22298
22365
22351
22246
22149
22326
22330
22090
22386
22430
22268
22236
22461
22400
22436
22293
22435
22569
22351
22502
22660
22635
22490
22565
22699
22675
22472
22687
22615
22742
22660
22697
22696
22574
22696
22923
22786
22590
22752
22747
22770
22548
22846
22949
22791
22657
22890
22935
22776
22785
23077
23006
22950
22967
22937
23086
22898
23119
23172
23036
22863
23090
23203
22942
23028
23379
23192
22927
23118
23334
23209
23096
23200
23224
23218
23280
23519
23341
23368
23187
23622
23273
23211
23334
23599
23448
23341
23463
23479
23469
23533
23527
23601
23478
23482
23576
23551
23514
23466
23523
23439
23168
23378
23482
23346
23140
23149
23198
23092
22879
23033
22940
22883
22819
22862
22693
22471
22589
22511
22333
22202
22391
22387
22246
22032
22132
22133
21896
22008
22091
22007
21977
22026
22064
21984
21905
22101
22043
21967
21937
22036
22077
21877
22036
22293
22142
21900
22185
22289
22097
22060
22352
22199
22165
22014
22322
22245
22048
22259
22207
22208
22183
22211
22433
22191
22195
22270
22471
22273
22283
22412
22369
22217
22412
22354
22316
22301
22492
22517
22515
22324
22575
22588
22359
22372
22617
22511
22428
22504
22720
22571
22570
22613
22603
22620
22472
22694
22699
22630
22600
22797
22818
22672
22727
22782
22817
22711
22806
22903
22848
22779
22933
22980
22932
22796
23013
22973
22906
22841
23050
23028
22925
22958
23106
22874
22828
22823
22972
22760
22533
22670
22550
22518
22273
22533
22387
22129
22103
22177
22144
21876
21933
21974
21818
21810
21786
21872
21586
21723
21712
21567
21513
21629
21605
21528
21553
21709
21670
21463
21593
21618
21558
21570
21522
21608
21668
21516
21678
21807
21714
21607
21801
21920
21773
21868
21869
21891
21910
21804
22033
21938
21734
21838
21889
21931
21728
21947
21936
21996
21898
22065
22050
22013
21975
22064
22093
22075
22082
22168
22119
21924
22181
22195
22148
21974
22267
22198
22140
22124
22287
22231
22154
22203
22363
22316
22177
22318
22329
22282
22217
22458
22279
22332
22328
22558
22403
22399
22303
22404
22446
22361
22520
22564
22552
22478
22646
22601
22598
22527
22713
22630
22595
22570
22771
22742
22567
22622
22655
22585
22535
22635
22666
22443
22455
22566
22432
22244
22274
22319
22199
22079
22062
22047
21928
21838
21871
21806
21770
21530
21597
21567
21516
21560
21473
21515
21362
21438
21474
21412
21277
21450
21406
21324
21269
21445
21411
21314
21312
21495
21409
21232
21357
21424
21561
21297
21468
21601
21528
21491
21635
21651
21509
21576
21630
21659
21591
21570
21821
21730
21526
21633
21773
21700
21710
21765
21798
21750
21724
21852
21863
21728
21878
21928
21865
21799
21948
21896
21926
21817
22036
22009
21953
21823
22002
21922
21872
22038
22071
22012
21858
22072
22216
22040
21887
22191
22279
22084
22122
22099
22151
22004
22211
22429
22306
22156
22274
22430
22259
22276
22304
22326
22315
22282
22443
22533
22282
22559
22517
22430
22410
22508
22447
22568
22567
22685
22542
22530
22403
22598
22515
22252
22339
22403
22242
22017
22167
22015
21965
21932
21927
21888
21746
21659
21800
21640
21519
21538
21499
21515
21247
21476
21388
21448
21192
21418
21365
21267
21203
21454
21360
21305
21323
21354
21374
21367
21402
21398
21496
21254
21520
21478
21470
21374
21718
21674
21466
21457
21603
21620
21531
21625
21725
21648
21642
21784
21653
21796
21730
21809
21837
21693
21762
21915
21852
21775
21872
21971
21900
21804
22012
22034
21918
21847
22136
22083
21857
21987
22140
22139
21930
22062
22216
22141
22016
22195
22125
22223
21962
22220
22230
22238
22214
22210
22289
22229
22316
22305
22340
22230
22347
22449
22373
22300
22545
22537
22441
22408
22566
22554
22458
22584
22710
22615
22485
22750
22747
22696
22458
22802
22764
22645
22634
22693
22705
22375
22533
22667
22529
22306
22517
22327
22294
22143
22325
22235
22105
22041
22082
21892
21787
21749
21801
21609
21400
21606
21539
21431
21396
21492
21415
21287
21260
21398
21270
21114
21225
21317
21097
20912
21295
21076
21223
20980
21153
21346
21176
21239
21455
21207
21252
21300
21398
21479
21386
21529
21406
21488
21421
21677
21535
21450
21515
21555
21645
21600
21637
21599
21626
21407
21573
21791
21652
21649
21805
21616
21526
21556
21825
21570
21616
21702
21774
21801
21587
21848
21808
21689
21752
21958
22006
21743
21887
21832
21772
21877
21957
21979
21913
21707
21967
21977
21938
21892
22039
22060
21984
21951
22155
22087
22047
22061
22081
22135
22119
22188
22140
22180
22235
22315
22402
22272
22292
22436
22406
22303
22440
22405
22294
22179
22249
22302
22192
22124
22285
22049
22110
21952
22050
21888
21734
21716
21781
21617
21396
21523
21534
21378
21193
21334
21317
21128
21049
21203
21125
20847
20888
21073
20956
20785
20977
20917
20858
20811
20893
20881
20829
20723
20919
20833
20768
20759
20921
20911
20769
20841
21041
21012
20781
20940
20950
21034
20968
21055
21017
20965
21034
21127
21113
20950
21146
21161
21136
21031
21160
21200
21099
21031
21259
21179
20949
21138
21226
21174
21054
21182
21252
21212
21116
21277
21276
21215
21211
21345
21319
21234
21244
21339
21377
21268
21392
21458
21403
21308
21472
21495
21457
21362
21561
21542
21443
21438
21669
21568
21465
21581
21712
21619
21537
21699
21705
21673
21609
21813
21775
21675
21698
21840
21803
21704
21782
21966
21849
21776
21862
21895
21768
21695
21860
21811
21623
21580
21721
21585
21486
21353
21368
21246
21046
21266
21184
21023
20888
20935
20860
20755
20720
20824
20773
20591
20592
20633
20675
20402
20501
20647
20626
20443
20562
20536
20500
20435
20601
20539
20325
20543
20529
20534
20407
20604
20599
20599
20365
20656
20585
20530
20540
20763
20728
20702
20700
20714
20784
20656
20802
20818
20799
20740
20892
20926
20890
20845
21008
20982
20893
20985
21010
21029
20831
21098
21073
21077
20981
21162
21099
21040
21020
21214
21144
21124
21127
21302
21218
20962
21281
21297
21372
21276
21456
21338
21262
21132
21367
21486
21249
21431
21449
21376
21371
21481
21526
21423
21395
21705
21691
21600
21470
21688
21657
21747
21648
21844
21805
21665
21795
21878
21821
21748
21864
21860
21832
21802
21923
21884
21651
21693
21844
21777
21605
21649
21648
21544
21372
21486
21462
21293
21136
21277
21165
21054
20984
21096
20966
20806
20886
20963
20906
20595
20840
20797
20709
20579
20778
20689
20584
20601
20686
20708
20517
20640
20679
20706
20525
20806
20790
20689
20785
20801
20917
20845
20775
20972
20936
20784
20899
20884
20986
20955
21019
20926
21114
20979
21028
21132
21007
21072
21188
21132
21033
21149
21222
21180
21053
21224
21278
21199
21058
21289
21308
21222
21191
21320
21321
21157
21365
21483
21395
21349
21443
21650
21463
21497
21581
21606
21537
21368
21608
21447
21426
21489
21591
21525
21449
21573
21666
21576
21533
21678
21768
21701
21698
21910
21682
21525
21704
21774
21801
21581
21894
21821
21798
21612
21840
21931
21766
21744
21869
21893
21706
21753
21908
21802
21654
21734
21672
21605
21449
21552
21424
21252
21175
21393
21172
21111
21000
21042
20880
20780
20785
20867
20579
20630
20581
20570
20426
20461
20533
20574
20401
20310
20494
20331
20262
20435
20378
20264
20200
20382
20309
20202
20134
20512
20390
20236
20308
20361
20438
20299
20441
20635
20482
20326
20630
20539
20562
20518
20665
20662
20548
20579
20714
20682
20516
20648
20804
20663
20665
20666
20818
20737
20515
20870
20710
20582
20679
20736
20806
20723
20731
20832
20744
20604
20795
20707
20665
20657
20878
20763
20728
20735
20865
20944
20830
20968
20885
20931
20787
21022
20977
20876
20970
20994
20984
20956
21041
21170
21098
20825
21007
21208
21072
21013
21180
21217
21141
21146
21313
21317
21171
21195
21333
21354
21163
21274
21259
21122
21035
21204
21179
20986
20865
21161
20880
20718
20638
20734
20699
20424
20512
20564
20367
20231
20273
20174
20135
20001
20020
19990
19859
19831
19969
19867
19654
19838
19949
19741
19691
19801
19682
19804
19597
19708
19757
19733
19752
19776
19712
19649
19819
19766
19811
19609
19862
19946
19840
19792
19938
19967
19854
19861
19999
20028
19957
19995
20079
20050
19857
20135
20128
20090
19994
20185
20288
20067
20172
20161
20116
20229
20250
20296
20340
20166
20344
20335
20240
20116
20398
20480
20276
20337
20407
20457
20248
20499
20538
20525
20301
20552
20541
20426
20401
20538
20510
20416
20416
20520
20595
20479
20562
20564
20617
20627
20690
20679
20623
20635
20751
20713
20796
20678
20815
20886
20781
20693
20961
20830
20709
20747
20988
20732
20733
20794
20821
20809
20724
20720
20778
20580
20573
20686
20608
20479
20480
20433
20266
20175
20186
20186
19951
19987
19931
19913
19709
19745
19835
19695
19489
19598
19609
19541
19565
19644
19649
19541
19388
19512
19652
19388
19369
19613
19516
19480
19591
19518
19584
19435
19565
19811
19658
19584
19832
19726
19694
19747
19934
19847
19620
19828
19997
19993
19912
19996
20012
19860
19961
19962
20095
19977
19974
20068
20140
20003
19970
20123
20078
19995
20217
20179
20162
19954
20163
20183
20156
20107
20241
20221
20123
20247
20313
20292
20187
20359
20408
20363
20301
20366
20476
20274
20487
20582
20571
20366
20402
20579
20410
20382
20486
20608
20639
20431
20559
20618
20514
20564
20672
20698
20556
20643
20704
20645
20643
20759
20851
20822
20575
20771
20924
20797
20768
20848
20892
20728
20814
20799
20860
20738
20768
20857
20691
20529
20664
20574
20398
20317
20495
20292
20164
20125
20092
20082
19904
19975
19907
19923
19813
19892
19865
19844
19782
19831
19744
19580
19797
19940
19754
19703
19856
19750
19693
19627
19807
19842
19813
19756
19943
19889
19775
19898
19985
19969
19897
20050
20051
20005
19923
20129
20157
20050
20025
20212
20147
20066
20088
20273
20186
20131
20237
20314
20250
20185
20342
20316
20304
20218
20384
20360
20335
20361
20505
20407
20254
20429
20532
20347
20354
20481
20512
20433
20438
20573
20595
20459
20507
20611
20505
20433
20611
20620
20670
20588
20678
20887
20766
20757
20863
20860
20834
20767
20890
20863
20716
20904
21062
20945
20863
20967
20996
21010
20991
21082
21104
21112
20959
21189
21058
20922
21234
21305
21203
20958
21254
21086
21166
21026
21114
20913
20820
20856
20949
20818
20628
20545
20645
20473
20317
20331
20271
20212
20016
20211
20128
20106
19967
20002
19950
19934
19911
19856
19882
19633
19869
19907
19700
19633
19847
19790
19804
19671
19850
19849
19600
19797
19828
19833
19725
19877
19968
19919
19907
20026
19930
19941
19962
20246
20150
20105
20026
20309
20207
20135
20211
20121
20186
19972
20153
20134
20203
20066
20193
20176
20185
20050
20236
20173
20081
20234
20159
20181
20135
20212
20345
20264
20049
20363
20292
20203
20147
20401
20326
20227
20220
20462
20270
20123
20384
20478
20411
20227
20311
20343
20292
20301
20330
20418
20364
20410
20462
20443
20450
20538
20540
20476
20453
20658
20502
20377
20470
20542
20590
20542
20593
20536
20585
20587
20539
20693
20418
20454
20462
20567
20410
20198
20329
20274
19928
20014
20110
19851
19644
19828
19722
19570
19504
19565
19546
19400
19363
19402
19411
19381
19320
19405
19275
19247
19321
19278
19148
19135
19188
19280
19184
19156
19364
19209
19070
19135
19163
19190
19091
19237
19389
19203
19175
19261
19359
19283
19306
19577
19438
19395
19461
19482
19508
19333
19660
19628
19517
19487
19599
19692
19470
19595
19619
19713
19430
19576
19674
19723
19482
19654
19705
19612
19743
19726
19865
19695
19749
19947
19842
19811
19775
19881
19869
19748
19912
19909
19872
19796
19963
19963
19924
19866
20054
19987
19907
20013
20063
20096
20040
20092
20216
20198
19958
20291
20101
20171
20190
20376
20325
20108
20257
20441
20262
20291
20415
20486
20303
20170
20438
20324
20395
20190
20335
20404
20229
20174
20237
20191
19978
20084
19922
19845
19597
19731
19685
19545
19501
19564
19631
19369
19338
19388
19379
19311
19355
19396
19223
19205
19258
19307
19169
19082
19248
19134
19049
19012
19281
19146
19037
19157
19202
19207
19194
19310
19389
19123
19160
19448
19230
19190
19384
19401
19331
19298
19329
19469
19535
19340
19525
19553
19423
19312
19480
19499
19347
19309
19602
19434
19429
19447
19538
19428
19365
19502
19461
19522
19516
19679
19601
19607
19517
19612
19683
19544
19665
19698
19706
19516
19712
19859
19627
19765
19878
19673
19727
19618
19830
19891
19626
19861
19902
19858
19645
19733
19746
19890
19658
19931
20002
19881
19823
19951
19964
19980
20009
20181
19995
20075
20071
20114
20060
20027
20156
20070
20009
20062
20227
20137
19927
20067
20115
19954
19876
19934
19901
19662
19533
19717
19641
19461
19393
19425
19472
19268
19210
19383
19215
18984
19205
19186
19010
18900
19078
19116
18919
18907
19195
19020
18851
19024
19043
18988
18849
19025
19010
18990
19079
19086
19269
19155
19003
19311
19356
19246
19292
19489
19401
19161
19420
19404
19481
19235
19413
19588
19365
19337
19437
19347
19362
19479
19640
19555
19409
19483
19450
19508
19500
19602
19567
19589
19427
19654
19565
19638
19552
19756
19615
19599
19682
19605
19682
19451
19665
19616
19625
19674
19736
19770
19743
19801
19759
19712
19542
19800
19946
19677
19741
19926
19911
19866
19734
19990
19843
19909
19757
19933
19990
19760
19918
19926
19979
19854
19924
19897
20017
19936
20025
19959
19912
19858
19957
19969
19918
19904
20046
19862
19770
19852
19664
19704
19391
19654
19541
19256
19187
19240
19187
18954
19120
19179
19007
18754
19012
18994
18815
18846
18910
18865
18684
18717
18903
18677
18546
18631
18833
18681
18601
18759
18794
18594
18683
18670
18653
18586
18626
18837
18747
18731
18766
18874
18830
18634
18962
18997
18823
18919
18898
18991
18862
18990
19019
19089
18939
19029
19076
18971
18816
19034
18986
18971
18826
19049
19108
18947
18928
19069
19171
18901
18979
19081
19074
19042
19196
19073
19131
19134
19326
19266
19270
19272
19376
19329
19183
19314
19379
19424
19362
19403
19485
19437
19256
19531
19357
19448
19463
19505
19575
19396
19502
19510
19619
19452
19514
19685
19705
19572
19702
19666
19575
19678
19717
19722
19673
19673
19827
19759
19492
19679
19699
19651
19412
19465
19380
19346
19249
19412
19234
19093
19130
19044
19001
18954
18949
18822
18742
18780
18862
18680
18632
18655
18737
18737
18586
18603
18666
18569
18352
18533
18566
18570
18341
18503
18480
18463
18485
18559
18699
18546
18664
18765
18737
18641
18675
18880
18805
18552
18862
18871
18703
18729
18821
18896
18864
18883
19033
18878
18885
18958
18925
18930
18823
18992
19082
18951
18859
19137
19036
19011
19009
19010
19010
19044
19140
19145
19172
19018
19216
19238
19056
19157
19194
19279
19118
19081
19390
19237
19190
19236
19394
19298
19247
19253
19461
19327
19218
19331
19337
19355
19336
19595
19419
19325
19406
19471
19467
19524
19464
19492
19523
19562
19667
19696
19506
19546
19779
19754
19579
19649
19620
19607
19497
19677
19617
19548
19226
19352
19362
19326
19170
19116
19058
18918
18911
19012
18866
18715
18692
18669
18634
18442
18583
18622
18429
18361
18489
18504
18379
18496
18448
18399
18344
18388
18412
18340
18178
18441
18561
18398
18390
18413
18540
18513
18502
18510
18601
18409
18607
18655
18721
18676
18768
18876
18848
18615
18915
18956
18895
18758
18981
18863
18875
18920
18976
18979
18814
19065
19108
18923
18818
18997
19005
19026
18930
19189
19146
19072
19165
19223
19266
19046
19299
19228
19259
19245
19433
19437
19410
19375
19423
19488
19316
19464
19638
19509
19385
19587
19512
19503
19434
19636
19697
19530
19614
19855
19829
19762
19722
19834
19886
19852
19935
20094
20026
19896
20184
20079
20074
19995
20120
20136
19960
20132
20347
20218
20129
20175
20259
20187
20149
20120
20092
19991
19864
19924
19875
19625
19734
19770
19655
19518
19513
19553
19394
19203
19272
19353
19243
19168
19348
19293
18942
19104
19121
19122
18923
19188
19121
19036
18891
19233
19256
19051
19114
19117
19270
19138
19142
19296
19229
19072
19384
19474
19317
19235
19592
19497
19436
19524
19714
19481
19507
19534
19559
19662
19584
19616
19682
19714
19601
19781
19661
19626
19681
19755
19856
19694
19720
19836
19767
19766
19742
19814
19754
19739
19796
19966
19748
19679
19905
19874
19908
19868
19885
19945
19801
19928
20030
19953
19792
20045
19975
19951
19879
20107
20053
20024
19974
20088
20049
20047
20150
20180
20097
19943
20119
20306
20130
20118
20340
20441
20315
20188
20359
20390
20331
20388
20492
20367
20130
20333
20489
20351
20096
20276
20155
20003
19960
20138
20051
19765
19876
19706
19719
19576
19702
19564
19361
19332
19381
19398
19230
19157
19281
19205
18946
19057
19185
19048
18782
18945
19087
18949
18935
18970
18921
18768
18890
19016
18928
18858
18925
19070
18894
18962
19089
18924
19089
19003
19236
19185
19088
19111
19370
19178
19200
19262
19178
19228
19184
19278
19338
19359
19263
19238
19392
19214
19148
19492
19348
19337
19251
19401
19291
19151
19312
19287
19293
19327
19415
19352
19338
19399
19387
19412
19380
19342
19395
19452
19312
19482
19551
19372
19490
19622
19553
19425
19428
19699
19552
19523
19547
19664
19565
19586
19557
19604
19637
19621
19647
19673
19702
19705
19801
19703
19623
19638
19814
19916
19664
19835
19807
19922
19673
19957
19817
19835
19797
19805
19856
19521
19686
19636
19595
19275
19434
19326
19223
19138
19129
19215
19012
18846
19002
18914
18810
18685
18735
18719
18508
18637
18725
18576
18378
18558
18500
18445
18374
18567
18500
18411
18359
18391
18422
18285
18488
18466
18422
18474
18604
18569
18532
18594
18573
18546
18512
18587
18702
18707
18631
18653
18825
18805
18588
18813
18786
18736
18608
18824
18817
18743
18745
18785
18827
18665
18814
18843
18878
18779
18875
18987
18885
18742
18922
18920
18978
18839
19070
18991
18888
19051
19132
19143
18973
19171
19248
19109
19104
19298
19240
19208
19118
19331
19179
19257
19252
19275
19308
19249
19351
19336
19393
19314
19451
19496
19445
19462
19632
19466
19470
19533
19550
19562
19462
19544
19621
19701
19431
19706
19713
19541
19538
19789
19646
19577
19488
19682
19591
19390
19532
19379
19367
19306
19301
19306
19080
18979
19000
19056
18873
18742
18766
18749
18564
18720
18763
18644
18375
18566
18508
18443
18379
18467
18508
18501
18396
18501
18531
18281
18489
18396
18377
18282
18464
18576
18347
18308
18453
18489
18382
18400
18676
18574
18551
18616
18812
18630
18725
18799
18894
18757
18637
18912
18890
18714
18837
18928
18807
18813
18959
19029
18941
18747
19018
19042
18924
18984
19073
19048
18960
19053
19203
19125
18871
19081
19090
19145
18958
19266
19239
19157
19130
19326
19240
19210
19197
19355
19339
19304
19326
19303
19294
19363
19525
19484
19373
19454
19540
19488
19447
19525
19689
19684
19433
19569
19785
19645
19578
19794
19913
19801
19645
19994
19898
19899
19906
19887
19858
19812
19990
20040
20000
19895
20026
20013
19928
19776
19800
19783
19649
19590
19635
19618
19422
19391
19486
19337
19223
19193
19306
19106
18965
19047
19067
18918
18880
19065
18982
18776
18860
18835
18798
18613
18812
18722
18708
18750
18787
18872
18860
18639
18912
18878
18864
18726
18956
18887
18693
18991
18895
18991
18993
18993
18983
19118
18989
19130
19224
18970
19068
19358
19304
19241
19302
19213
19239
19265
19275
19375
19333
19152
19367
19386
19410
19391
19397
19405
19272
19500
19451
19504
19299
19612
19479
19557
19432
19539
19591
19623
19573
19634
19741
19548
19671
19862
19653
19542
19727
19850
19772
19667
19900
19862
19744
19753
20084
20098
19917
20023
20178
20202
19916
20064
20125
20250
20164
20390
20230
20166
20309
20519
20329
20194
20395
20564
20463
20290
20588
20583
20523
20387
20704
20607
20460
20448
20601
20575
20500
20463
20426
20365
20214
20372
20186
20085
20059
20030
19913
19873
19796
19957
19805
19488
19587
19735
19514
19350
19491
19634
19440
19230
19447
19478
19243
19348
19487
19353
19275
19265
19304
19338
19339
19379
19303
19373
19231
19441
19388
19291
19288
19463
19484
19495
19464
19633
19614
19500
19608
19677
19611
19641
19612
19771
19693
19497
19653
19627
19625
19633
19671
19668
19663
19716
19656
19696
19564
19778
19707
19648
19622
19934
19829
19693
19855
19984
19842
19910
19898
19910
20025
19913
19969
20108
20049
19925
20210
20045
20063
20055
20272
20109
19960
20100
20234
20175
20151
20198
20338
20224
20283
20425
20318
20286
20224
20510
20510
20291
20359
20518
20495
20425
20492
20557
20550
20518
20595
20638
20536
20561
20822
20648
20491
20667
20618
20642
20530
20623
20554
20485
20390
20470
20407
20272
20194
20190
20148
19986
19973
20006
19947
19789
19754
19657
19579
19564
19532
19629
19513
19331
19534
19390
19329
19439
19499
19286
19179
19359
19402
19314
19152
19273
19252
19172
19229
19477
19407
19387
19386
19444
19483
19433
19549
19588
19550
19427
19744
19656
19679
19689
19685
19831
19756
19682
19858
19875
19729
19925
19826
19903
19847
19906
20052
19816
19817
19973
19908
19893
19930
20136
20012
19832
20002
20032
20085
19895
20147
20090
20161
20095
20199
20277
20054
20145
20381
20246
20211
20231
20415
20324
20249
20392
20290
20243
20196
20429
20560
20457
20448
20510
20441
20353
20500
20526
20601
20595
20669
20695
20595
20520
20654
20808
20674
20810
20807
20668
20735
20857
20863
20766
20768
20924
20788
20708
20725
20798
20815
20642
20674
20772
20646
20538
20504
20531
20333
20214
20306
20195
20058
20017
20050
19923
19878
19701
19850
19756
19455
19554
19534
19566
19424
19514
19477
19390
19449
19475
19453
19314
19217
19412
19366
19114
19315
19288
19231
19141
19301
19349
19300
19186
19393
19512
19372
19438
19543
19454
19361
19462
19604
19505
19390
19543
19582
19612
19528
19712
19625
19549
19461
19636
19734
19627
19712
19826
19760
19706
19787
19709
19765
19814
19778
19807
19728
19833
19920
19840
19870
19870
20032
19920
19739
19915
20079
19881
19820
19924
20054
19903
19948
20102
19993
20052
19909
20093
20024
19876
20053
20093
20154
20140
20152
20195
20157
20116
20396
20204
20290
20371
20292
20440
20177
20448
20456
20380
20353
20420
20420
20508
20332
20572
20557
20528
20394
20712
20630
20431
20552
20511
20549
20352
20417
20491
20271
20232
20308
20221
20155
20053
20152
20061
19759
19861
20016
19883
19572
19792
19755
19626
19626
19730
19582
19539
19577
19556
19706
19558
19554
19678
19636
19535
19553
19619
19536
19427
19594
19644
19565
19580
19840
19782
19751
19732
19772
19788
19806
19896
19870
19851
19941
20020
19928
19917
20074
20156
20069
20028
20003
20242
20043
19901
20082
20120
20063
20122
20177
20128
20070
20179
20331
20236
20061
20163
20236
20238
20096
20360
20432
20315
20264
20439
20485
20343
20361
20552
20486
20439
20318
20483
20467
20341
20428
20633
20632
20420
20587
20711
20623
20630
20806
20656
20651
20681
20727
20779
20715
20694
20774
20779
20765
20882
20882
20886
20825
20997
20828
20813
20789
20893
20991
20937
20906
21100
20973
20770
21002
21067
20915
20732
20887
20788
20687
20675
20831
20555
20480
20383
20450
20309
20097
20297
20266
20029
20028
19976
19930
19753
19737
19774
19786
19701
19726
19765
19598
19525
19738
19607
19713
19606
19651
19738
19570
19632
19761
19607
19612
19724
19831
19702
19707
19843
19931
19852
19812
19944
20045
19952
19903
20099
20029
19891
19941
19991
20035
19822
20016
20122
20062
19938
20049
20047
20002
19881
20022
20067
20061
19991
20058
20020
19886
20055
20046
19990
20041
20143
20238
19991
19961
20154
20126
20156
20190
20298
20166
20011
20227
20294
20252
20141
20197
20334
20279
20147
20206
20230
20098
20085
20459
20250
20142
20253
20262
20215
20091
20301
20344
20359
20185
20320
20305
20357
20370
20583
20425
20238
20499
20433
20398
20299
20464
20416
20367
20292
20447
20523
20258
20239
20378
20255
20185
20120
20137
20016
19737
19898
19767
19766
19656
19710
19539
19451
19308
19521
19323
19127
19128
19144
19172
19116
19202
19026
19061
18910
19139
19084
18944
18956
19049
19080
18997
18979
19028
19079
18973
19119
19221
19255
19032
19194
19188
19223
19259
19369
19298
19228
19292
19512
19346
19173
19358
19414
19479
19344
19610
19594
19544
19481
19683
19557
19398
19479
19691
19583
19425
19694
19743
19666
19640
19726
19754
19674
19697
19891
19862
19686
19774
19889
19914
19702
19825
19854
19916
19908
19930
20016
20011
19931
20008
20126
19933
19875
20100
20103
19920
20118
20157
20077
19935
20074
20055
20215
20125
20278
20248
20160
20236
20410
20389
20153
20308
20393
20339
20320
20341
20469
20368
20132
20490
20460
20295
20264
20468
20281
20186
20131
20108
20099
19857
19992
20057
19831
19644
19903
19786
19527
19571
19554
19564
19297
19453
19342
19347
19287
19238
19207
19117
19163
19203
19257
19127
19011
19098
19246
19096
19018
19210
19136
18961
19177
19254
19220
19088
19249
19368
19192
19161
19457
19322
19274
19339
19327
19341
19270
19455
19531
19507
19355
19444
19514
19524
19476
19458
19458
19438
19405
19455
19522
19495
19554
19508
19596
19566
19651
19616
19550
19496
19745
19691
19659
19613
19789
19724
19673
19799
19856
19778
19718
19746
19930
19863
19752
19822
19946
19896
19817
19948
20001
19773
20031
19997
19992
19980
20150
20111
19945
19850
20032
20014
19895
20017
20207
20161
19923
20158
20114
20181
20000
20104
20249
20120
20049
20227
20265
20240
20232
20240
20257
20204
20246
20400
20271
20057
20211
20212
20097
20001
20067
19998
19798
19804
19962
19743
19705
19639
19708
19475
19356
19387
19510
19302
19130
19408
19313
19114
19152
19190
19190
18962
19144
19317
19248
19096
19230
19204
19286
19069
19268
19365
19267
19188
19368
19349
19188
19342
19538
19473
19281
19596
19597
19516
19483
19788
19792
19665
19530
19883
19721
19767
19668
19886
19839
19700
19830
19818
19795
19753
19868
19959
19793
19774
19956
19960
19719
19894
20049
19976
19885
19980
20044
20007
19899
20184
20029
20155
19992
20092
20226
20106
20171
20323
20168
20041
20289
20395
20280
20082
20411
20349
20321
20326
20403
20412
20456
20397
20540
20517
20359
20571
20729
20636
20631
20683
20758
20546
20558
20691
20785
20615
20696
20921
20841
20743
20757
20783
20795
20605
20713
20745
20689
20549
20539
20507
20454
20465
20523
20453
20311
20241
20319
20169
20071
20144
20195
19896
19762
20014
19967
19757
19782
19832
19763
19577
19687
19789
19621
19530
19578
19740
19635
19600
19627
19683
19559
19608
19634
19672
19583
19583
19842
19797
19550
19849
19856
19837
19816
19926
19832
19830
19784
19945
19954
19780
19804
20025
19941
19929
19917
19933
20032
19877
20047
20117
19953
19987
20163
20000
20034
20061
20087
20004
19853
20092
20153
20027
19903
20077
20126
20142
20187
20229
20217
20247
20177
20346
20214
20188
20318
20259
20177
20109
20253
20455
20232
20321
20421
20484
20374
20369
20439
20543
20406
20407
20460
20410
20340
20628
20497
20486
20351
20656
20703
20537
20536
20619
20648
20574
20663
20630
20605
20586
20706
20715
20560
20467
20605
20530
20388
20373
20546
20370
20123
20172
20122
20111
19804
19947
19960
19788
19583
19832
19653
19547
19493
19492
19418
19265
19316
19385
19372
19280
19210
19239
19131
19005
19241
19167
19090
19174
19306
19115
19054
19257
19309
19225
19208
19265
19245
19347
19115
19443
19316
19307
19367
19558
19485
19329
19462
19464
19506
19482
19520
19522
19540
19481
19622
19570
19473
19400
19609
19579
19489
19571
19561
19646
19552
19558
19654
19583
19591
19576
19653
19572
19638
19653
19727
19682
19688
19674
19765
19593
19789
19736
19722
19610
19775
19909
19821
19825
19848
19955
19694
19809
19897
19884
19725
19887
19963
19971
19862
20023
20131
19966
19894
20127
20110
19992
19965
20267
20123
19965
20103
20179
20144
20035
20219
20130
20158
20135
20255
20176
20236
20154
20110
20097
19978
20010
19887
19839
19656
19742
19753
19505
19327
19500
19501
19378
19253
19304
19263
19035
19056
19091
19117
18906
19064
19017
18972
18813
18845
18982
18787
18774
19006
18788
18867
18903
19009
18885
18847
18890
18942
18833
18772
18910
18983
18823
18917
19063
19116
18998
19024
19232
19108
18894
19055
19065
19057
18898
19192
19139
19176
18999
19185
19219
19008
19130
19113
19141
19056
19211
19285
19184
19147
19303
19341
19232
19201
19400
19301
19191
19236
19313
19388
19179
19267
19390
19362
19254
19452
19412
19299
19398
19521
19444
19379
19420
19436
19515
19382
19569
19570
19670
19621
19636
19628
19643
19486
19708
19697
19696
19528
19729
19844
19636
19660
19822
19722
19678
19888
19826
19823
19789
20024
19983
19846
19845
20017
19899
19834
19838
19952
19807
19680
19704
19680
19583
19483
19519
19460
19331
19253
19374
19261
18984
19078
19099
19097
18917
19034
19014
18939
18725
18959
18933
18701
18629
18871
18686
18743
18811
18858
18781
18597
18738
18904
18864
18744
18787
18857
18770
18738
18859
18938
18936
18949
18962
18993
19031
19041
19232
19053
18979
19121
19259
19188
19073
19232
19221
19161
19171
19343
19295
19109
19268
19226
19281
19168
19401
19381
19340
19233
19357
19539
19289
19386
19638
19464
19468
19457
19493
19521
19457
19609
19633
19526
19560
19555
19711
19606
19491
19781
19764
19544
19743
19797
19776
19581
19814
19795
19840
19696
19909
19875
19853
19798
20098
19871
19779
19904
20000
19995
20034
20014
20164
20152
19967
20063
20209
20025
19986
20170
20186
20051
20116
20150
20127
20171
20250
20139
20203
20133
20200
20183
19940
19759
19825
19895
19590
19592
19679
19609
19403
19396
19387
19337
19305
19333
19305
19113
19185
19262
19171
19019
19042
19217
19079
18893
19020
19253
19136
18888
19038
19125
19023
18963
19145
19179
18992
19118
19098
19110
19078
19218
19315
19289
19087
19244
19293
19361
19311
19385
19395
19237
19379
19372
19414
19223
19332
19436
19434
19318
19475
19365
19453
19345
19559
19499
19325
19423
19479
19534
19291
19468
19473
19532
19482
19545
19531
19469
19556
19615
19682
19486
19448
19599
19535
19595
19521
19632
19575
19619
19649
19724
19651
19649
19796
19667
19594
19541
19773
19868
19586
19783
19815
19890
19800
19770
19826
19821
19750
19954
20123
19925
19874
20149
20087
19933
20004
19980
20042
19944
20038
20095
20013
19822
20009
19983
19904
19786
20023
19863
19762
19680
19678
19674
19517
19515
19391
19337
19142
19273
19299
19122
19037
19073
19210
18889
18914
19107
18954
18898
18848
18915
18889
18849
18941
18932
18790
18650
18881
18946
18747
18765
18818
18951
18733
18869
18917
18936
18940
18997
19014
19063
18894
19073
19189
18997
19070
19142
19183
19133
19254
19205
19261
19117
19328
19423
19353
19147
19421
19409
19268
19195
19508
19450
19198
19299
19473
19337
19282
19509
19398
19486
19292
19571
19408
19531
19379
19671
19507
19475
19446
19502
19491
19350
19522
19597
19525
19384
19621
19580
19629
19525
19699
19789
19477
19693
19726
19787
19704
19815
19801
19813
19725
19724
19789
19686
19784
19930
19919
19851
19790
19861
19820
19721
19910
19945
19875
19932
19998
20044
19962
19839
19986
19938
19671
19681
19742
19691
19395
19471
19572
19364
19292
19258
19239
19107
18927
19158
19081
18955
18854
18938
18835
18709
18608
18808
18697
18520
18530
18628
18475
18419
18489
18590
18454
18276
18532
18458
18301
18359
18520
18438
18400
18422
18446
18421
18348
18562
18547
18528
18452
18690
18673
18604
18573
18796
18641
18470
18632
18639
18614
18666
18766
18801
18631
18597
18885
18794
18767
18724
18842
18704
18579
18846
18863
18804
18681
18736
18980
18824
18749
18995
19014
18768
18840
18957
19051
19001
19042
19191
18997
18888
19199
19140
19008
19146
19194
19148
19021
19203
19344
19250
19227
19274
19305
19361
19363
19372
19575
19525
19292
19539
19517
19352
19432
19556
19553
19491
19623
19771
19616
19448
19634
19769
19703
19656
19782
19760
19617
19623
19750
19678
19597
19635
19638
19572
19412
19473
19485
19282
19171
19284
19333
19080
19084
19189
19074
18815
18897
19083
18843
18655
18920
18890
18713
18556
18776
18872
18713
18633
18758
18691
18439
18588
18766
18669
18452
18626
18770
18558
18705
18688
18770
18800
18730
19018
18900
18855
18892
18890
18908
18819
18973
19143
19082
18930
19108
19082
19033
18969
19269
19205
19046
19221
19383
19176
19054
19278
19248
19207
19062
19240
19379
19250
19152
19462
19312
19301
19444
19500
19516
19479
19530
19652
19520
19448
19522
19733
19531
19464
19721
19636
19626
19572
19890
19688
19698
19777
19837
19762
19648
19769
19935
19885
19819
19965
19918
19894
19908
20158
20123
20079
20140
20258
20188
20166
20283
20412
20240
20209
20400
20412
20231
20268
20497
20307
20368
20414
20341
20363
20153
20276
20321
20167
19943
20155
20058
20043
20009
20073
19932
19752
19696
19708
19642
19611
19621
19499
19523
19420
19359
19399
19332
19141
19273
19252
18955
19058
19077
19139
19051
19091
19030
19085
19019
19043
19039
19082
18927
19156
19022
19115
19029
19195
19247
19203
19194
19280
19335
19099
19313
19321
19327
19329
19348
19376
19252
19381
19419
19459
19292
19480
19560
19550
19441
19527
19476
19490
19531
19618
19559
19539
19447
19638
19600
19606
19698
19643
19608
19634
19785
19757
19653
19594
19821
19716
19586
19590
19697
19819
19587
19780
19738
19714
19655
19801
19844
19766
19795
20002
19964
19798
19865
20062
19970
19753
19889
20112
19965
19962
20025
19972
20094
20027
20122
20191
20161
20025
20090
20162
19961
20120
20272
20158
20144
20211
20203
20094
20152
20131
20218
19993
19906
20129
19927
19757
19831
19922
19768
19547
19543
19589
19536
19403
19330
19382
19124
19164
19138
19289
19029
19011
19089
19060
18966
19040
19124
19016
18931
19004
19017
18936
18943
18978
18988
18822
18902
19084
19034
18832
18978
19159
19104
19045
19142
19180
19020
19041
19268
19241
19187
19037
19379
19163
19246
19180
19256
19316
19082
19310
19286
19250
19228
19453
19423
19369
19309
19426
19462
19265
19389
19502
19402
19293
19512
19573
19420
19234
19432
19431
19502
19371
19647
19600
19488
19485
19531
19578
19575
19576
19582
19668
19488
19694
19728
19608
19680
19678
19796
19723
19762
19907
19838
19672
19794
19952
19892
19838
19949
19976
19936
19778
20005
20004
19839
19960
19979
20016
19798
20038
20002
19995
19999
20014
20047
19895
19876
20063
19941
19851
19740
19913
19710
19546
19670
19554
19439
19242
19397
19417
19164
19137
19138
19189
19045
18912
18900
18983
18857
18828
18793
18826
18607
18775
18709
18622
18557
18823
18760
18669
18538
18803
18588
18501
18695
18775
18695
18598
18805
18912
18723
18747
18929
18809
18798
18799
18927
18822
18777
18910
18991
18992
18875
18972
19127
18991
18934
19090
19077
