21678
21683
21920
21951
21708
21756
22150
21683
21749
21771
21788
21949
21987
22109
22112
21985
22184
22077
22245
22475
22354
22225
22290
22205
22253
22378
22513
22509
22486
22436
22522
22533
22604
22513
22627
22607
22642
22769
22606
22879
22835
22858
22878
22957
23024
22963
23024
23073
22739
22995
23065
22796
23123
23151
23155
23086
23134
23192
23187
23144
23219
23165
23250
23050
23171
23157
23177
23118
23096
23144
23318
23279
23222
23374
23226
23253
23221
23240
23310
23254
23136
23122
23176
23015
23032
22852
22873
22808
22800
22797
22888
22948
22998
22903
22859
22924
23006
22867
23152
22879
22737
22881
22840
22811
22544
22681
22820
22599
22673
22481
22512
22625
22504
22438
22390
22270
22396
22250
22279
22278
22379
22354
22495
22272
22427
22325
22095
22239
22283
22223
22234
22223
22046
22190
21960
22169
21998
22058
22191
21999
22035
22049
22079
22131
22197
22255
22319
22203
22333
22419
22307
22533
22523
22544
22634
22585
22672
22644
22741
22696
22352
22690
22672
22695
22641
22747
22726
22671
22584
22676
22608
22429
22601
22386
22727
22680
22766
22644
22761
22961
22739
22912
22744
22790
22760
22972
22843
22714
22840
22918
22876
22938
22948
22939
22901
22852
22981
22793
22931
22742
22817
22860
22776
22731
22857
22659
22598
22567
22521
22560
22578
22379
22413
22450
22453
22479
22320
22276
22190
22304
22397
22353
22365
22186
22216
22302
22162
22232
22235
22318
22611
22409
22455
22419
22447
22459
22392
22489
22402
22558
22447
22300
22564
22567
22470
22567
22599
22570
22776
22862
22869
22927
22819
22888
22659
22678
22692
22590
22496
22574
22428
22449
22557
22406
22298
22295
22359
22260
22239
22449
22361
22365
22383
22410
22615
22794
22694
22757
22793
22743
22943
22832
22882
22832
23105
22854
22809
22759
22814
22738
22694
22652
22506
22549
22627
22786
22603
22746
22557
22558
22692
22539
22575
22463
22496
22558
22590
22528
22393
22356
22428
22345
22427
22308
22429
22339
22335
22517
22265
22328
22131
22187
22275
22187
22075
22044
21879
22008
22079
21967
22233
22120
22041
22027
22349
22108
22000
22134
22164
21744
22196
22285
22199
22312
22206
22265
22347
22593
22380
22365
22357
22728
22368
22523
22443
22574
22618
22620
22615
22657
22757
22639
22746
22779
22684
22856
22667
22778
22767
22672
22655
22692
22769
22647
22707
22670
22596
22603
22650
22601
22586
22646
22591
22690
22534
22433
22638
22530
22417
22384
22319
22392
22359
22466
22282
22313
22203
22335
22404
22310
22207
22378
22385
22345
22290
22492
22343
22353
22295
22467
22372
22443
22268
22256
22459
22414
22327
22299
22406
22564
22505
22479
22278
22466
22491
22499
22453
22492
22428
22552
22545
22697
22747
22854
22839
22848
22710
22661
22766
22475
22726
22629
22945
22530
22640
22514
22641
22792
22619
22771
22723
22674
22817
22722
22717
22724
22694
22753
22937
22668
22696
22728
22890
22519
22845
22856
22670
23030
22902
22802
22968
22869
22921
23034
22911
22963
22933
23076
22884
23013
23057
23206
22918
23056
22892
23068
23116
23012
23105
23106
23141
23086
23083
23089
23014
23182
23116
23261
23072
23336
23461
23225
23396
23343
23384
23353
23308
23416
23371
23196
23297
23197
23202
23267
23309
23227
23135
23058
23028
23032
22960
22920
23082
22822
22903
22866
22724
22765
22781
22717
22616
22605
22577
22679
22608
22571
22763
22670
22461
22485
22419
22868
22481
22628
22499
22526
22493
22458
22532
22656
22687
22714
22730
22896
22947
23088
23117
23205
23383
23434
23366
23561
23654
23578
23525
23550
23733
23697
23739
23710
23798
23688
23764
23706
23809
23783
23811
23798
23684
23627
23883
23738
23678
23582
23721
23750
23481
23676
23559
23742
23578
23639
23774
23690
23618
23680
23788
23773
23823
23906
23877
23962
23934
23693
23861
23567
23785
23852
23894
23948
23818
23809
23919
23923
23802
23800
23825
23800
23560
23534
23637
23533
23270
23368
23537
23365
23493
23485
23442
23576
23692
23323
23644
23902
23778
23958
23784
23777
23781
23913
23881
23607
23686
23874
23601
23732
23908
23536
23544
23511
23405
23433
23220
23216
23233
23243
23312
23169
23104
23231
23407
23080
23210
23109
23111
23272
23116
22988
23133
23467
23193
23151
23194
23145
23179
23090
23135
23126
23410
23367
23078
23236
23246
23184
23222
23409
23334
23377
23463
23501
23249
23504
23645
23654
23578
23749
23633
23731
23864
23983
23981
24119
24003
24177
24096
23908
24138
24099
23981
23959
23940
23765
23935
23862
23736
23889
23819
23864
23821
23933
24058
24133
24514
24083
23930
23759
24070
24161
23988
24177
24249
24277
24287
24283
24555
24355
24606
24615
24621
24712
24698
24723
24708
24723
24764
24750
24642
24839
24821
25069
25462
24822
25143
25204
25189
25303
25361
25190
25271
25274
25394
25379
25424
25352
25341
25426
25440
25530
25609
25529
25725
25460
25582
25794
25638
25689
25545
25380
25450
25270
24870
25190
24726
24714
25135
24605
24545
24531
24557
24252
24435
24263
24208
24059
24123
24076
24008
24079
23892
23831
23749
23737
23690
23551
23511
23458
23493
23550
23263
23225
23411
23204
23157
23201
23169
23150
23247
23069
23145
23235
23186
23006
23181
23061
22945
23137
23033
23170
23028
23098
22887
22778
22822
22757
22802
22814
22920
23172
23146
23145
23247
23262
23321
23219
23375
23193
23328
23355
23237
23276
23133
23262
23077
23020
23237
23251
23223
23314
23273
23371
23388
23134
23225
23085
23100
23045
23005
22720
22757
22799
22625
22659
22582
22499
22459
22442
22422
22459
22459
22416
22359
22355
22441
22336
22240
22202
22299
22185
22078
22038
21959
21939
21832
21896
21885
21830
21962
21891
21797
21863
21807
21446
21842
21891
21785
21681
21835
22069
21944
22132
22014
22030
22007
22226
22177
22212
22202
22213
22136
22164
22211
22081
21996
22186
22257
22251
22181
22077
22247
22300
22189
22181
22130
22146
22102
22222
22022
22057
22009
21977
21850
21838
21815
21831
21714
21692
21711
21782
21828
21691
21682
21499
21532
21525
21505
21589
21595
21556
21651
21603
21703
21793
21918
22129
21869
21781
21988
21859
21916
22034
21841
21930
21863
21948
21803
21712
21729
21745
21749
21590
21695
21592
21517
21634
21597
21493
21593
21499
21893
21667
21257
21743
21853
21314
21536
21707
21703
21790
21875
22092
21920
21875
22046
21877
22187
21950
22053
21871
22176
21878
21967
22121
22187
22151
22509
22251
22212
22234
22156
22398
22367
22281
22069
22272
22402
22263
22259
22180
22283
22361
22301
22405
22403
22281
22430
22452
22443
22619
22438
22578
22530
22650
22921
22539
22590
22589
22668
22579
22453
22525
22614
22698
22472
22253
22560
22344
22351
22294
22364
21862
22442
22684
22410
22459
22047
22394
22298
22462
22482
22515
22330
22055
22442
22179
21764
21897
22098
22013
21942
21923
21889
21917
21715
21886
21870
22023
21990
21904
22103
22006
21924
22507
22236
22147
22338
22454
22233
22239
22170
22177
22174
22654
22280
22172
22148
22551
22356
22302
22544
22002
22320
22337
22747
22337
22436
22476
22445
22201
22149
22517
22271
22355
22917
22020
22231
22927
22535
22035
22431
22324
22347
22080
22345
22379
22268
22209
22304
22452
22334
22208
22301
22459
22303
22346
22230
22352
22518
22305
22190
21881
22068
22435
22149
22086
21990
21740
22203
21948
22158
21914
22304
22102
22190
22360
22169
22266
22615
22411
22303
21804
22466
22305
22652
22308
22406
22382
22778
22401
22326
22402
22618
22328
22237
22473
22419
22443
22335
22417
22265
22459
22411
22416
22405
22500
22551
22776
22468
22176
22412
22531
22452
22640
22580
22430
22418
22368
22463
22415
22418
22458
22439
22487
22532
22517
22649
22443
22535
22544
22666
22640
22630
22678
22770
22762
22805
22829
22843
22847
22890
22761
22961
22934
22909
23293
22993
23104
23140
23357
23367
23425
23494
23601
23594
23650
23657
23712
23622
23751
23706
23791
23660
23789
23771
23600
23699
23597
23740
23618
23517
23829
23685
23470
23722
23640
23560
23531
23639
23752
23819
24004
23906
23756
24012
23785
23671
23708
23771
23642
23508
23501
23445
23415
23246
23373
23451
23309
23406
23340
23333
23502
23556
23323
23232
23318
23225
23351
23256
23438
23183
23347
23199
23034
23322
23077
22790
23247
23668
23409
23007
23359
23106
23206
23289
23542
23432
23092
22869
23210
23023
22926
23139
23067
23030
23012
23003
23039
22863
23054
22916
22943
22876
22889
22833
22700
22727
22736
22700
22653
22769
22676
22660
22580
22855
22701
22666
22626
22796
22641
22579
22596
22668
22690
22931
22879
22772
22862
22805
23133
22971
23317
23319
23383
23518
23606
23680
23522
23731
23876
23759
23928
23934
24020
24250
24317
24536
24583
24691
24700
24185
24525
24386
24403
24387
24464
24172
24252
24223
24005
23887
23798
23666
23665
23618
23226
23546
23906
23653
23798
23502
24012
23727
23989
23821
23748
23691
23666
23672
23556
23606
23642
23638
23669
23887
23908
23938
24203
24103
23945
24556
24364
24317
24676
24293
24661
24358
24711
24621
24527
24636
24971
24765
24568
24787
24632
24219
24493
24403
24829
24903
24833
25044
25150
25234
25427
25575
25552
25763
26024
26165
25803
26430
25990
25886
25944
25887
25589
25734
25651
25659
25163
25558
25547
25578
25634
25552
25554
25364
25323
25271
25357
25234
25105
25283
25312
25419
25348
25250
25530
24976
25296
25494
25659
25373
25794
25137
25310
25256
25147
25311
25243
25258
25192
25253
25212
25341
25253
25349
25514
25324
25553
25389
25499
25451
25573
25595
25558
25798
25630
25432
25602
25503
25795
25571
25625
25590
25615
25651
25538
25807
25665
25717
25693
25692
25754
25887
25807
25903
25831
25928
26018
25978
25782
25834
25976
26006
25944
25779
25821
25786
25795
25963
25852
25614
25883
25995
25798
25975
25997
25897
26118
26156
26115
26213
26119
26320
26282
26336
26256
26232
26444
26318
26171
26257
26230
26143
26178
26241
26243
26175
26136
26292
26094
26037
26108
26185
26218
26368
26303
26244
26395
26443
26499
26586
26467
26547
26547
26599
26592
26570
26491
26398
26378
26361
26170
26215
26231
26133
26187
26036
26145
25852
25915
25825
25843
25803
25726
25637
25561
25623
25580
25382
25598
25574
25344
25359
25255
25470
25176
25432
25656
25293
25258
25242
25555
25574
25420
25400
25515
25500
25418
25616
25491
25613
25681
25564
25533
25851
25495
25679
25639
25962
25943
25640
25822
25739
25870
25859
25752
25832
25843
25950
25996
25907
26507
26046
25841
26208
25953
26405
25850
26003
25961
26154
26353
26111
26116
25821
26099
26255
26437
26209
26352
26530
26330
26366
25782
25896
25847
26149
26214
25977
26034
26138
26626
26371
25997
26422
26230
26457
26508
26707
26805
26440
26388
26496
26491
26185
26169
25933
26086
26464
26099
26252
26398
25940
25896
26122
26176
26248
26010
25907
26233
26232
26160
26044
25871
26206
26548
26064
26564
26141
26718
26595
26421
26116
26155
26485
26736
26344
26817
26553
26429
26627
26962
26794
26517
26935
26898
26630
26831
26514
26903
26968
26448
26747
26467
26445
26844
26481
26597
26515
26325
26272
26682
26154
26751
26035
26116
26445
25895
26263
25883
25726
26105
25693
25973
25857
25997
25826
26002
26072
26019
25793
26208
26007
26261
26000
26157
25867
25856
26047
26033
25982
25434
25784
26377
25956
25773
25850
26011
25751
25701
25795
25719
25860
25859
25676
26166
25927
25702
25840
25730
25839
25737
25712
25811
25847
25819
25810
25879
25953
25949
25896
26024
25926
25881
26276
26210
26009
26018
26089
25896
26030
26112
26053
26117
26110
26284
26069
26273
26084
26255
26154
26053
26206
25983
26154
25934
26045
26157
26303
25791
25956
25798
25896
25707
26011
26063
26049
25914
25968
25943
25999
25986
26053
26062
26135
26112
26183
26004
26318
26120
26206
26166
26222
25713
25944
25833
25821
25982
25986
25939
25730
25764
25565
25591
25359
25427
25420
25590
25534
25262
25531
25227
25459
25249
25322
25135
24913
24829
24904
24889
24849
24736
24791
24679
24713
24762
24741
24815
24571
24654
24555
24645
24541
24208
24544
24316
24616
24276
24365
24551
24755
24416
24369
24362
24381
25057
24281
24605
24273
24599
24588
24792
24629
25001
24821
24961
24674
24884
24464
24909
24468
24920
24192
24580
24733
24143
24207
24149
24715
24368
24269
24529
24313
24469
24356
24148
24348
24291
24219
24312
24449
24148
24542
23836
24093
24138
24203
24502
24302
23868
23894
23993
24251
23965
24253
23948
24082
24009
24350
24573
23881
24244
24172
23903
24057
24529
24067
24297
24057
24280
24278
23954
24281
24061
24619
24531
24102
24205
24420
24117
24130
24085
24068
23953
24191
24009
24278
24104
23923
23891
24122
24187
23758
23914
23689
23634
23913
23386
23633
23442
23761
23657
23555
23711
23429
23588
23772
23466
23758
23501
23340
23559
23527
23022
23460
23425
22950
23436
23598
23360
23557
23221
23697
23341
23775
23343
23792
23347
23683
23319
23587
23840
23620
23557
23623
23810
23806
23739
23894
24144
23980
23945
24017
24035
23988
23855
24170
23921
23975
23740
23726
23801
23623
23989
23237
23677
23372
24072
23938
24211
23616
23819
24289
24395
24092
24351
24100
24019
24277
24149
23872
24589
24088
24721
24504
24386
24450
24540
24983
24504
24970
24684
24668
24699
24490
24848
25020
24533
24649
24735
24642
24721
24753
24592
24580
24562
24647
24886
24657
24597
24568
24733
24237
24075
24153
24178
24580
24745
24291
24458
24296
24614
24445
24266
24697
24116
23891
24223
24260
24240
24256
24193
24419
24162
24070
23880
23993
23824
23861
23931
23851
23919
23825
23440
23983
24273
24065
24354
24200
23777
24069
24358
23732
23679
23802
23754
24177
23645
23428
23725
24069
23781
23615
23617
23762
23681
23924
24192
23942
23644
23870
23786
23888
24040
24219
23720
24301
24124
24207
24167
24364
24137
24257
23983
23975
23681
24339
24252
23735
24042
23846
24244
23600
23817
24179
23670
23471
24106
23860
23514
23695
23659
23973
23998
23566
24151
23795
23957
24137
24113
24008
23369
24015
23713
23916
24249
24081
24216
24456
24403
24599
24245
24142
24199
24368
24244
23825
24155
24462
24221
24084
23993
24328
24238
24372
24106
24335
24409
24325
24131
24395
23971
23888
23967
24211
23960
24464
23963
23842
23816
24010
24532
24407
24219
24138
24187
24403
24144
24266
24356
24084
24289
24732
23924
24168
24022
23979
24522
23891
24174
24218
24140
24010
24193
24223
24153
23930
23876
23902
24118
24148
24220
23705
23896
24038
23815
23604
23928
24327
23839
24096
23767
23593
23865
23601
23784
23625
23872
24190
24336
24079
23826
24169
24477
24382
23938
23809
23883
23813
23739
23707
23831
23874
23849
24132
24220
24113
24314
24119
24269
24036
24382
24616
24122
24368
24226
23962
24118
24508
24113
23935
24396
24053
24265
24080
24363
24109
24185
24195
24393
24152
24058
23844
24407
23842
24159
24307
23701
23878
24126
23575
23795
24006
24074
23831
23944
24208
23908
24515
24583
24664
24177
24166
24610
24677
24655
24275
24958
24531
24992
24680
24639
24830
24820
24801
25167
24933
24830
24729
25086
24599
24710
25177
25088
25165
24970
25080
25327
25017
25376
25225
25162
25091
25093
25109
25093
25287
25203
24847
25178
25323
25325
25387
25233
25396
25588
25538
25353
25427
25465
25181
25095
25284
25277
25186
25212
25221
25046
25213
25140
24808
24994
24697
24772
24860
24619
24656
24736
24606
24796
24501
24834
24406
24925
24267
24803
24455
24408
24074
24186
24210
24589
24697
24406
24598
24349
24418
24390
24557
24125
24260
24427
24286
24342
24791
24335
24531
24690
24999
24632
24528
24685
24643
24705
24652
24848
24866
25034
24895
24850
24976
25146
25075
25074
25097
25379
25346
25382
25189
25363
25399
25320
25206
25158
25544
25399
25266
25471
25508
25493
25541
25451
25245
25383
24947
24994
25021
25421
25506
25087
25279
25475
24979
25244
25181
25344
25028
25480
24882
24770
25503
25059
24958
24988
25213
25585
25796
25270
25132
25271
25258
25218
25242
25150
25227
25242
25191
25107
25151
25349
25311
25274
25344
24928
25151
25648
25268
25191
25400
25033
24987
25243
25050
25196
25156
24766
25183
24937
24577
24795
25139
24921
24601
24991
25092
24407
24343
24640
24367
24368
24259
24181
24508
23945
24146
24268
24203
23857
24092
24063
24297
23959
24085
24189
24639
24520
24238
24547
23957
24407
24431
23902
24242
23963
23778
23886
24335
23991
23805
24119
24418
24158
24102
24140
23905
24329
23904
24182
23697
24323
24272
23693
23938
23790
24302
23917
23893
24167
24245
23996
24039
23586
23689
23868
23872
23845
24008
24088
24063
23500
23751
23754
24057
24105
23797
24063
23970
23523
23704
23816
23794
24042
23765
23737
23747
23955
23638
24037
23676
23523
23568
23578
23734
23681
23369
23643
23693
23716
23711
23821
23727
23167
23581
23857
23543
23622
23356
23295
23359
23275
23254
23111
23044
23386
22942
23039
23079
22909
23400
23028
23188
23030
23316
23209
23338
23347
23237
23254
23219
23205
23225
23258
23230
23150
23341
23212
22803
22956
23242
23234
23073
23208
22898
22748
23161
22759
22848
22995
22468
22462
22991
22747
22329
23083
23059
23069
23068
23006
22609
22528
22591
22930
22579
22984
22683
22649
23004
23118
23090
22749
22764
22646
22849
22814
22912
23129
23173
22992
23098
22840
23073
22912
23012
23254
23361
23113
23058
23029
23183
23074
23267
23211
23270
23148
23391
23269
23399
23195
23017
23375
22967
22920
23089
23146
22961
23327
23215
23225
23102
23058
23517
22973
23321
23300
22928
23183
22991
23509
23403
23554
23656
23109
23623
23066
23548
23125
23066
23204
23626
23303
23055
23241
23446
23207
23163
23092
22699
23210
23200
22913
23307
23031
22815
23336
23112
23026
22888
23409
23349
23005
23037
23427
23393
22611
23195
23105
22719
22595
22848
22733
22809
22943
23165
22661
22851
22490
22519
22671
22931
22916
22787
22674
22698
22756
22463
22186
22409
22632
22654
22781
22575
22801
22780
22952
22466
22459
22523
22307
22369
23154
22426
22396
22534
22912
22605
22847
22744
22506
22895
22905
22633
22538
22230
22397
22494
22493
22652
22692
22756
22682
22886
22779
22717
22817
22693
23131
22989
22396
23001
22751
23093
22835
22646
22468
22726
23215
22866
23048
23211
22984
23435
22837
22726
22880
22916
22985
23667
23604
23385
23121
22947
23484
23476
23290
23493
23631
23293
23234
23197
23693
23646
23465
23651
23078
23642
22996
23054
23331
23422
23479
23168
23295
23376
23640
23472
23703
23472
23352
23310
23558
23697
23667
22988
23331
23353
23547
23410
23701
23371
23515
23484
23292
23207
23477
23430
23520
23524
23508
23552
23758
23538
23949
24093
23744
23927
23592
24158
23498
23687
23519
23930
23693
24013
23833
23530
23672
24097
23827
23934
23686
24182
23555
24022
23858
23771
24211
23823
24627
23838
24331
24503
24400
24144
24135
24177
24490
24279
24721
24516
24397
24767
24102
24459
24510
24555
24726
24700
24354
24698
24420
24570
24805
24843
24613
24993
25202
25063
24778
25191
24839
25419
25028
25411
25614
25188
24994
25276
25446
25628
25555
25342
25413
25804
25778
25633
25294
25632
25961
25374
25901
25675
25890
25827
25526
25771
26063
25700
25746
26235
25878
25755
25617
26094
25586
26268
26491
26134
26441
26454
26151
26491
26336
26327
26533
26102
26150
26434
26741
26700
26689
26708
26773
26767
26806
26612
26763
26661
26981
26613
26220
26716
26924
26521
26718
26677
26821
26571
26442
26978
27280
26677
27074
26862
26832
27297
26960
27342
27084
27625
27087
27266
27638
27356
27276
27585
27254
26880
26839
27075
27139
27031
26876
26987
26482
26677
27128
26680
26837
26863
26743
26678
26324
26392
26977
26388
26412
26066
26472
26246
26543
26222
26581
26505
26529
26418
26571
25884
26069
26182
25940
26474
26050
26519
26543
26119
26608
26274
25923
26050
25884
26251
25692
25904
26477
26042
25916
26093
25992
25747
25951
26140
25963
25464
25953
26115
25766
25632
25971
25534
25512
25458
25464
25641
25935
25577
25522
25461
25863
25720
25056
25338
25635
25763
25799
25506
25842
25616
25597
25670
25480
25575
25808
25589
25212
25437
25558
25331
25062
25158
25230
25086
25228
25404
25435
25164
25581
25083
25345
24996
24998
25008
24720
24939
24965
24915
24844
25002
24909
24815
24917
24755
25168
24953
25263
25081
25064
24932
25195
25254
24884
24767
24761
24830
24663
24922
25102
25145
24887
24739
25067
24960
24550
24840
24508
24875
24887
24929
24208
24664
24216
24604
24848
24387
24074
24454
24173
24388
24121
24411
23897
23750
24138
23591
24272
23727
23742
23916
23775
23558
24134
23790
23468
24116
23892
23851
23497
23985
23495
23982
23614
23918
23668
23810
23537
23592
23732
23425
23865
23868
23757
23207
23524
23521
23392
23510
23630
23737
23132
23698
23180
23380
23651
23492
23729
23275
23477
23387
23465
23366
23432
23563
23390
23745
23322
23868
23374
23814
23869
23863
23633
23549
23791
24054
23947
23456
23906
23729
23846
24364
23902
24193
23618
24177
23579
23849
24161
23506
23745
23755
23861
23852
24223
24139
24332
23707
23904
24237
23999
24095
24309
23799
24190
24223
24116
24115
24394
24267
24355
24219
24196
24172
23870
24050
24154
23783
23790
23993
24002
24241
23957
24257
24275
23975
23491
23984
23628
23870
23577
23571
23787
23797
23488
23731
23727
23569
23580
23297
23653
23921
23484
23508
23623
23647
23468
23734
23834
23840
23543
23184
23726
23741
23887
23828
23723
23499
23184
23489
23603
23508
23179
23602
23342
23610
23402
23079
23318
23240
23566
23472
23539
23241
23482
23016
23516
23720
23265
23359
23130
23244
23545
23169
23294
23795
23274
23642
23381
23487
23185
23726
23386
23505
23451
23313
23553
23364
23552
23166
23122
23627
23439
23689
23641
23571
23101
23817
23259
23766
23226
23732
23650
23540
23567
23771
23235
23694
23833
23518
23491
23415
23312
23301
22980
23113
23478
23170
23311
23524
22807
23607
23077
23421
23529
22798
23178
23122
23141
23641
23301
22853
23235
22882
23331
23138
23640
23707
23310
23206
23245
23604
23743
23691
23063
23612
23365
23151
23491
23538
23097
23334
23028
23493
23214
23165
23020
22829
22997
22826
23181
22933
22928
22785
22904
22929
22832
23325
22755
22800
22922
22740
23199
22811
23329
23219
22742
23052
23282
23096
23073
23031
22843
23041
23669
23344
23028
22899
23658
23287
23260
23540
23192
23790
23598
23559
23585
23730
23419
23408
23370
23803
23809
23763
24019
23943
24127
24175
24255
24204
24256
24201
24189
24246
24197
24593
24212
24686
24535
24645
24607
24729
24680
24729
24877
25009
24792
24760
24795
24967
24935
25265
25086
24906
25135
25156
25222
25283
25039
25082
25105
25029
25368
24958
24997
25111
24505
25181
25015
24780
24914
24754
24795
25119
24699
24821
25460
24913
25291
24794
24940
25019
25384
24905
25451
25038
25008
25533
25477
25561
24977
25187
25117
25461
25852
25419
25601
25587
25347
25716
25766
25776
25853
25697
25938
25714
25952
25991
25925
25558
25793
25707
25817
25855
25493
25652
25851
25507
25397
25635
25387
25738
25910
25940
25882
25184
25473
25197
25557
25264
25171
25458
25599
25729
26017
25790
25780
25578
25828
25470
25729
25589
25860
26254
26020
26014
25898
25576
25881
25870
25593
25620
25834
25841
26065
25820
25716
25731
26042
26005
26343
26302
25363
26371
26311
26024
26395
26489
26541
26360
26792
26190
26597
26479
26378
26807
26615
26224
26407
26695
26404
26574
26466
26520
26484
26047
25918
26384
26299
26401
26229
26173
26181
26303
26182
25866
25979
26263
26049
25878
25883
25518
25956
26115
26151
25715
25618
25782
25373
25485
25444
24912
25430
25530
25407
25063
25316
25440
25360
24966
25135
25363
25442
25504
25217
24747
25207
24852
25186
24915
24514
25143
24521
25140
25183
24470
24457
25037
24473
24798
24569
24211
24239
24203
24590
24770
24419
24690
24206
24031
24462
24593
24386
23960
24231
23998
23914
23992
24224
23796
23408
23693
23418
23590
23756
24014
23884
23804
23890
23771
23651
23624
23368
23646
23807
23421
23953
23566
23726
23867
24026
23432
23794
23962
23901
24197
23963
23873
24089
23798
24191
23798
23817
23956
23578
23808
23959
23653
23571
23611
23671
23950
23706
23679
23420
23621
24133
23605
23578
23599
23518
23798
23345
23728
23236
23571
23691
23790
23778
23310
23685
23469
22969
23234
23439
23283
23507
23218
23372
23163
22945
23047
23188
23251
23059
23442
23402
23124
23221
23681
23069
23043
23294
23579
23037
23049
23130
23070
23239
23135
23400
23261
23275
23649
23408
23055
23502
23377
23098
23261
23371
23073
23067
23164
23466
23210
23206
23504
23658
23314
23320
23522
23027
22945
23139
23321
22995
23392
22927
23010
22875
23173
22788
23082
22413
22366
22667
22628
22578
22537
21874
22368
22524
22485
22074
22000
22232
22445
22045
22177
22535
22393
21895
22142
22107
22322
21812
21869
22170
21850
22464
22661
22468
22298
22671
22774
22186
22002
22158
22151
22531
22150
22397
22305
22517
22333
21938
22361
22334
22652
22048
22455
22218
22699
22507
22302
22158
22393
22243
21883
22237
22650
22454
22173
22149
22286
22164
22509
22398
22308
22047
22371
22186
22377
22272
22265
22765
22443
22266
22633
22213
22809
22641
22264
22853
23112
22497
22983
23036
22866
22561
22962
22655
22882
22793
22891
22897
23002
22981
23236
22857
22838
22630
23046
22880
23161
22685
22880
23052
22821
23110
23127
23078
23153
23296
23120
23176
23249
23481
23576
23974
23956
23565
23586
23447
23240
23406
23211
23379
23500
23275
23609
22901
23330
23417
23041
23072
23111
22760
22494
22929
22650
22891
22868
22956
23031
22644
22684
22930
22613
23031
22742
22868
22915
22573
23195
22985
22617
22758
22586
22586
22512
22856
22716
22942
22660
22862
22532
22981
22358
22939
22538
22382
22659
22650
22804
22608
22771
22882
22557
22479
22578
22010
22789
22040
22213
22070
22439
22424
22457
22498
22218
22033
21904
22523
21944
21964
22579
22143
22544
22514
22436
22263
22426
22440
22378
22571
22419
22538
22454
22827
22166
22623
22269
22743
22710
22483
22592
22897
22875
22387
22677
22507
22928
22464
22794
22583
22454
22667
22972
22897
23143
23105
23221
23132
23059
22800
22875
23103
23081
22887
22831
23190
22725
22816
22987
23015
22539
22704
22711
22901
22946
22831
22725
22921
23057
22920
23292
23289
23538
23052
23465
23205
23110
23002
23201
23125
23078
22958
22868
23072
23348
22707
23057
22939
22849
22486
22727
22791
22748
22612
22472
22572
22371
22806
22788
22285
22823
22498
22261
22422
22108
22241
22753
22301
22510
22255
22779
22497
21990
22498
22233
22135
22317
22396
22111
22055
22302
22166
22423
22581
22203
22505
22383
21925
22085
22245
22128
22316
22680
22082
22568
22672
22247
22414
22563
22783
22630
22103
22834
22215
22339
22354
22953
22533
22781
22393
22702
23074
22761
23150
22827
22840
22896
23183
22722
23273
22828
22798
23212
23085
22954
23496
23073
23168
22943
23202
23206
23117
22963
23464
22951
23488
23225
23375
22918
23623
23279
23130
23470
23167
23664
23712
23664
23939
23686
23387
24071
24081
23788
24296
23919
24279
23770
24059
23622
23792
23968
24104
23751
24308
23956
23738
23822
24332
24304
24101
23960
24516
24310
24383
23946
23807
23966
24124
24220
24130
24240
23668
23559
23864
23892
23987
23416
23204
23518
23410
23725
23637
23617
23493
23814
23465
23320
23335
23519
23513
23450
23151
22902
23682
23503
23324
23211
23769
23175
23548
23725
23375
23356
23693
23626
24095
23729
23953
24123
23855
23752
23810
23781
23890
23738
23848
23847
23995
24446
23931
23960
23685
23447
23496
24218
23920
23537
23769
23462
23556
23956
23665
23857
23786
24215
24298
23853
24530
24084
23861
24314
23571
23874
23563
24261
24260
23818
24189
24011
24317
24548
24188
24311
24200
24089
24287
24468
25001
24905
24909
24879
24665
24487
24657
25027
24973
24860
24744
24531
24391
24625
24717
24685
25109
24730
24721
25058
25163
24733
25018
24820
25118
25274
24852
24981
24800
24957
24813
24686
25383
24864
25250
25105
24908
24896
24932
24816
24878
24827
24714
24483
24829
24609
24234
24699
24091
24398
24117
24191
24476
24318
24636
24623
24317
24740
24387
24198
24474
24390
24020
24345
24633
24021
23970
24443
24390
23912
24407
24013
24191
23954
23634
23695
23741
23644
23138
23745
23776
23760
23621
23487
23442
23602
23508
23639
23458
23073
23372
23259
23682
23417
23271
23770
23814
23076
23653
23686
23806
23714
23914
23585
24144
23684
23608
23866
24019
24239
24129
24282
24250
24163
24010
23773
24012
23848
23934
23807
24431
24644
24047
24267
24150
23916
24033
24008
24227
24474
24180
23661
24483
24394
24400
24057
23759
24151
23944
24028
23752
23879
23766
23732
23597
24279
23907
23776
23784
23760
23598
23683
23623
23664
23329
23539
23507
23691
23597
23583
23692
23621
23334
23339
23456
23719
23732
23583
23565
23491
23517
23402
23516
23497
23944
23496
23305
23615
23286
23370
23215
23321
23778
23553
23631
23651
23389
23450
23393
23309
22889
22947
23502
23494
22890
23059
23327
23014
23242
23421
22841
22729
23352
22832
22764
23091
23054
23219
23389
23028
22963
22636
22806
23237
23194
22855
22543
22721
22989
22598
23119
23393
22870
23302
22864
22791
23226
23211
22622
23024
22434
22653
22967
22932
22632
23069
22550
22782
23008
22946
22997
22762
22871
22925
22880
22641
22577
22738
22773
23003
22644
22626
22897
23192
22955
22924
23188
22824
23377
23389
23498
23733
23152
23553
23503
23367
23634
23512
23562
23564
23605
23449
23751
23968
23758
23515
24116
23570
24233
24298
24030
23760
24088
23991
23786
23845
23614
23537
23422
23469
23575
23906
23471
23712
23099
23605
23160
23420
23454
23148
22943
23298
23539
23423
23557
23202
23361
22923
23324
23373
23010
22966
23292
23233
23406
23619
23240
23597
23240
23615
23701
23720
23907
23643
23961
23877
23252
23806
23235
23373
23542
23559
23511
23480
23559
23619
23418
23771
23916
23867
23788
23917
23637
23981
24102
23922
24045
24261
23632
23883
23755
23888
24048
24055
23621
23711
23906
23822
24161
23547
24046
24082
23970
23786
24104
24167
23597
23785
23520
23735
24125
23869
23563
24046
23399
23567
23456
23247
23266
23426
23414
23168
23576
23243
23266
23511
23308
23926
23320
23417
23728
23715
23727
23822
23310
23293
23463
23636
23200
23702
23285
23484
23141
23244
23612
23227
23578
23481
23345
22974
22953
23078
23658
23554
23541
23258
23304
23607
23452
23419
23418
23739
23715
23169
23637
23068
23266
23586
23681
23829
23574
23745
23528
23868
23572
23968
24164
24162
24484
24324
24085
24246
24401
24527
24256
24311
24276
24363
24347
24584
24472
24644
24495
24096
24027
24505
23880
24110
23988
23652
23984
24230
23783
23626
23890
23943
23767
23766
23507
23872
23813
24031
23758
23628
23952
23789
23922
23918
23860
23570
23271
23754
23472
23826
23391
23104
23411
23640
23707
23373
23538
23321
23458
23876
23450
23781
23338
23852
23605
23809
23813
24168
23672
24244
24031
24237
24035
24132
23786
23772
23313
23628
23576
23598
23599
23794
23685
23936
23714
23808
23592
24169
23714
23501
23967
23657
24086
24218
24117
24208
24577
24553
24709
24591
24346
24972
25137
24881
24877
25205
25026
24914
24568
25026
24673
25122
24905
24574
24998
25071
24745
25007
25034
25236
25169
24787
25094
24660
25208
24885
24720
24569
24723
24931
25094
24970
24698
24957
24559
24772
24764
25162
24634
24861
24553
25016
25000
24854
25128
25372
25203
25142
25284
25196
25610
25430
25164
25664
25082
25579
25060
25059
25215
25048
24908
25303
25462
25018
24530
25118
24442
24885
24939
24841
24475
24865
24350
24933
24661
24560
24441
24886
24564
24356
24889
24818
24619
24316
24498
24878
24412
24352
24521
24074
24353
24140
24629
24267
24511
24186
24313
24380
24066
23944
24187
24033
24225
23856
24149
23740
23516
23918
23711
23999
23621
24050
23763
23543
23653
23949
23815
23695
23559
23470
23430
23249
23590
23946
23663
23700
23065
23303
23434
23583
23102
23140
23432
23602
23407
23318
23290
23746
23518
23462
23298
23322
23478
23260
23432
23553
23615
23638
23619
23167
23499
23653
23379
23236
23594
23677
23556
23548
23048
23386
23088
23188
23312
23029
23486
22964
23271
22850
23184
23077
23025
22969
22707
23112
23381
23151
23198
23510
23178
23482
23373
23285
23275
22848
23112
23299
23193
23184
23125
23193
22992
23099
23055
22932
23057
22914
22944
22608
22427
22985
22628
22428
22514
22839
22685
22304
22466
22423
22387
22462
22150
22497
22257
22713
22406
22292
22008
22057
22321
22666
22356
22262
22014
22176
22093
22253
22482
22451
22213
22558
22642
22216
22661
22699
22067
22271
22281
22414
22308
22673
22469
22859
22757
22918
22714
22565
22805
23003
22551
23224
22552
23151
22734
22850
23094
23003
22661
22671
22765
22793
22961
22866
22546
23043
23135
23328
23228
23265
22818
22850
22791
22911
22661
23169
22913
22738
22979
23022
22922
22431
22833
22937
23277
23237
22874
23044
22874
22861
23255
22753
22934
23023
23171
23169
22865
23039
22611
22919
22627
22705
22788
22507
22645
22745
22684
22595
22781
22878
22745
22660
22951
22592
22671
22773
22738
22680
23088
22435
22605
22584
23082
22841
22390
22869
22938
22628
22803
22615
22356
22592
22986
22518
22706
22827
22217
22604
22624
22375
22235
22743
22293
22855
22255
22448
22203
22777
22424
22605
22416
22218
22528
22371
22315
22554
22474
22291
21990
22414
22441
22375
22508
21925
22625
22420
22149
22029
22549
22218
21910
22632
22491
22085
22396
22283
22589
22835
22576
22263
22769
22470
22983
22894
22368
22960
22836
23133
22710
22562
22814
22891
23264
22689
22839
22888
23058
22610
22557
22819
23516
22785
23439
23389
22954
22930
23250
22924
23355
23566
23135
23699
23194
23242
23324
23281
23308
23606
23574
23308
23113
23396
22943
23597
23845
23597
23302
23810
23490
23797
23334
23990
23363
23904
23452
23532
23595
23539
23890
23595
23655
23367
23632
23243
23712
23240
23600
23718
23350
23888
23617
23778
24086
23950
23884
23916
23699
23786
23553
23804
23919
23989
23785
23405
23896
24042
23718
23838
23256
23852
23652
23729
23384
23575
23633
23613
23641
23134
23333
23762
23111
23768
23265
23395
23298
23874
23622
23733
23400
23624
23991
23840
23537
23362
23762
23612
23291
23866
23391
24025
23791
23687
23850
24172
24034
23751
23916
23900
23809
23907
23561
23643
23940
23037
24039
23606
23542
23862
23500
23568
23496
23614
23401
23325
23677
23584
23584
23278
23667
23588
23858
23141
23589
23217
23259
23719
23463
23761
23227
23137
23118
23726
23342
23194
22982
23292
23512
23115
23183
22818
23153
23352
23162
23068
22901
23347
22794
23382
22808
23325
23047
23240
22818
22560
22798
23121
22886
22943
22826
22511
22818
22774
22476
22814
22623
22660
22651
22329
22406
22596
22808
22724
22330
22342
22691
22891
22369
22588
23025
22720
22597
22401
23101
22182
22770
22580
22541
22514
22702
22575
22016
22232
22200
21836
22235
21950
21959
21866
21969
22066
22044
22027
21863
22053
22272
21805
22257
22265
21972
21839
21753
22124
21906
22084
21992
21983
22056
21928
21795
22088
21628
21585
21975
21792
21621
21648
22111
22075
22074
21716
21796
21619
21791
21410
21509
21982
22065
22117
22172
21620
22274
21854
21727
21977
21971
21894
21902
21926
21956
21732
22167
21718
22161
21790
22221
22339
21783
21773
22133
21876
22202
21889
22275
21765
22139
22394
21970
22019
21879
22035
22089
22171
22193
22094
22413
22270
21980
22171
22440
22262
21740
21849
22258
22148
22292
22104
22044
22293
22496
22303
22487
22623
22380
22267
22142
22218
22224
21788
22235
22408
21831
21847
22419
22300
21827
22491
22613
22279
22418
22535
22269
22480
22193
22479
22358
22439
22234
21852
21979
22359
21766
21963
22174
21867
22038
22226
21732
21969
21662
21417
21563
21592
21763
21837
21742
21738
21754
21349
21874
21544
21966
21568
21856
21699
21682
22167
21917
21664
21638
21651
22230
21704
21940
21871
21900
22422
21949
22363
21888
22412
22340
21918
21993
22312
22021
22068
22177
22576
22425
22111
22265
22217
22380
22197
22019
22257
22220
22298
21973
22007
22094
22538
21848
21964
22508
22169
22106
22107
22075
22077
22384
22548
22436
22284
22109
21991
22685
22233
22365
22540
22136
22658
22442
22535
22945
22483
22445
22654
22792
22483
22587
22870
22628
22713
22795
22801
23020
23015
22747
22652
22875
23204
23227
22788
23132
23061
23131
22664
23192
23149
23047
23208
22988
22855
23077
22619
22854
23005
22880
22857
22721
22472
22740
22556
22888
23067
22662
22541
22559
23003
23173
22974
22628
22874
22814
22294
22559
22390
22483
22496
22468
22550
22268
21929
22161
22459
22371
22134
22191
22238
22068
22275
22086
22205
21734
22334
22386
22325
22318
22078
22098
21829
22142
22129
21760
21852
21902
22069
21955
21930
21791
22141
22004
22247
22018
22019
22569
22360
22569
22165
22308
21815
22009
22211
21931
22063
22350
22120
21942
22017
22118
21885
22445
22506
22158
22010
22344
21901
22409
22583
22265
22587
22352
22031
21925
22399
22419
22204
22109
21800
22365
21811
22436
22319
22075
22458
22122
22257
22259
22283
21990
22500
21816
22197
22591
21797
22583
22398
22203
22159
22033
22197
22150
22137
22297
21990
22249
22634
22575
22404
22185
22584
22559
22582
22111
22078
22691
22016
22617
22179
22398
22344
22269
22280
22427
22597
22692
22390
22686
22539
22563
22851
22499
22603
22580
22860
22521
22801
22619
22095
22609
22640
22030
21862
21874
22439
22037
22124
22003
22052
22008
21891
22185
21772
21964
21948
21914
21650
21577
21521
21505
21895
21642
21460
21733
21992
21744
21574
21702
21968
21715
21995
21638
21674
21588
21706
21374
21965
21769
21781
21578
21702
21478
22005
21514
22090
22181
21690
21650
21747
21618
22298
21675
21764
22078
22141
22223
22273
21684
22224
22148
21860
21639
21852
22147
21986
21990
21886
21665
22276
21724
21607
21600
21668
21583
22023
21486
21499
21445
21530
21475
21643
21514
21804
21479
21555
21894
21749
22068
22135
22252
22340
21968
21925
22255
22460
22087
22150
22115
22445
22159
21824
22264
22394
21744
22269
22231
22134
22101
22501
22110
22081
22233
22136
22352
21942
22430
22118
22003
22065
22214
22153
22335
22185
22133
22042
22346
22652
22583
22193
22725
22329
22885
22941
22678
22873
22634
22646
23097
22998
23084
22997
23157
22906
22803
22990
22490
23020
23161
22772
23023
22974
22516
22944
22991
23258
22740
22126
23003
23435
22764
22408
22484
23088
22538
22665
22891
23337
23164
23250
22764
22905
22895
23232
23104
23201
23005
23294
23535
23100
23714
23091
23684
23481
23546
23659
23681
23610
23639
23759
23797
23737
23649
23818
23874
24154
23756
23661
23783
23850
23662
23821
23860
23838
23801
23899
23831
23944
23949
24059
24146
24049
24449
24031
24679
24662
24116
24267
24368
24531
24823
24527
24588
24561
24616
24560
24645
24720
24444
24731
24942
24717
24392
25109
24749
24980
24900
24628
24982
24710
25023
24718
24776
24784
25066
24812
24504
25036
24619
24603
24950
25037
24909
25002
24887
25084
25151
24720
25034
25036
25145
25041
24779
25095
25292
24909
25203
25319
25073
25257
25206
24849
24724
25040
24743
24967
24996
24857
24929
24875
24546
24776
24918
24745
24946
24747
24674
24509
24676
25030
24497
24614
24609
24718
24709
24364
24861
24631
24947
24760
24353
24470
24192
24323
24486
24751
24657
24618
24474
24851
24530
24707
24387
24728
24301
24706
24648
24818
24435
24589
24454
24602
24914
24489
24882
24849
24530
24764
25045
24547
24773
24554
25165
24420
24527
24363
24898
24547
24573
24706
24363
24851
25032
24354
24839
24739
24921
25041
24771
24472
24752
24811
24651
25078
24867
24395
24515
24618
24745
24284
24738
24492
24264
24096
24823
24740
24397
24042
24281
24023
23818
24379
24048
24291
23760
24376
24373
24142
23858
24132
24398
24300
24378
24198
24123
24246
24080
23751
24081
24452
24087
23957
23884
23768
23808
24072
23956
23587
23992
23604
23923
23894
24171
23666
23741
23593
23882
23617
23407
23436
23604
23453
23240
23360
23585
23510
23105
23246
22944
23013
23409
22951
23136
23467
23445
23321
23266
23703
23036
23034
23491
23000
23135
23171
23248
23085
23268
22914
22772
23238
22605
22948
22770
22947
23384
23161
23219
22884
23171
22771
23042
22833
22856
23424
22733
22892
22672
22809
22861
22893
22944
22902
23022
23064
22992
23069
23108
23264
23184
23213
22669
22896
23130
22928
23258
22904
22636
22985
22839
22894
22861
22799
22806
22759
22896
22834
22628
23020
22881
23009
22993
23042
23004
23072
23099
23154
22977
22997
23046
22528
23103
23012
22767
23013
22911
22961
22870
22951
23093
22913
22830
22912
22882
23044
22963
22996
23112
22862
22980
23155
23082
22973
22920
23049
22829
22904
23177
22365
22816
22889
23020
22875
22655
22316
22912
22547
22560
22769
22657
22686
22929
22483
22926
22466
22184
22460
22548
22551
22295
22196
22432
21891
22329
22633
22278
22447
22187
22625
22219
22065
22400
22246
22249
22210
22146
22400
22484
22566
22385
22582
22650
22245
22250
22227
22801
22466
22328
22338
22316
22422
22597
22543
22405
22396
22212
22340
22089
22354
22082
22493
22255
22271
22100
22377
22385
22393
22638
21972
21887
22209
22220
22262
22176
22169
21899
22060
22343
22263
22161
21980
21818
22085
21807
22437
22065
22022
22181
21836
22121
21913
22140
21884
21651
21942
21721
22200
21514
21956
21562
21231
21837
21732
21918
21574
21688
21724
21836
21711
21565
22109
22441
22106
21923
21920
22051
22144
22120
22464
22165
21855
22302
21955
22320
21909
22151
22216
22408
21787
22287
22207
22423
21773
22265
22013
22164
22051
21883
21776
21981
21824
21833
21702
21830
21759
22018
21883
22110
21741
21607
21631
21605
21525
21760
21818
21898
22012
22034
21676
21666
22183
21894
21933
21598
21821
21631
21655
21852
21735
21570
21723
21978
21770
21528
21778
21993
21836
22038
21468
21568
21627
21513
21913
21450
21362
21567
21401
21767
21924
21741
21628
21988
21546
21447
22181
21566
21477
21716
21928
21667
22135
21931
21830
21697
21781
21662
22026
21616
21365
21565
21995
21918
21507
21479
21489
21764
21566
21854
21437
21905
21995
21821
21923
21789
21547
21940
21901
21656
21630
21733
21736
21695
21858
21403
21609
21309
21474
21663
21710
21794
21952
21838
21740
21585
21410
21884
21722
21442
21281
21522
21589
21347
21645
21139
21427
21558
21086
21695
21668
21701
21708
21137
21653
21619
21413
21553
21416
21492
21411
21338
21508
21617
21404
21863
21646
21729
21575
21619
21997
21518
20990
21793
21701
21842
21901
21665
21400
21448
21950
21912
21494
21967
21630
22064
21469
21560
21452
21714
22040
21675
21666
21698
22027
21785
21649
21833
21835
21949
21998
22074
21740
22179
22194
22009
21896
21960
21942
21974
21618
21782
22094
22072
21782
21819
22240
22048
22080
21878
22086
21958
21860
21766
21956
21943
21833
21883
21976
22025
22150
22328
21796
22305
21800
22220
22302
22470
22007
21810
21743
22116
22189
21937
22198
21984
22179
22526
22102
22470
22544
22337
22154
22073
21772
21780
21870
21785
21810
21894
21981
22235
21827
21924
21759
21911
21926
21954
21994
21988
22176
22005
21959
22062
21899
22093
22236
21790
22231
22119
21622
21923
21640
22117
21655
22049
21877
21801
22160
21569
21663
21442
21556
21738
21924
21582
21329
21492
21626
21544
21651
21758
21407
21749
21396
21625
21621
21560
21429
21570
21658
21453
21359
21583
21712
21584
21419
21234
21288
21524
21429
21587
21228
21030
21361
21098
21517
21448
20956
21014
21050
21429
21044
21003
21289
20825
21085
21239
21459
21128
20956
21468
21382
20908
21062
21002
21121
20901
20870
21248
21148
21356
21199
20978
21610
21297
21410
21902
21466
21684
21482
21388
21641
21916
21893
21643
21390
21657
21452
21503
21703
21520
21530
21508
21398
21417
21361
21379
21285
21385
21444
21355
21162
21438
21476
21631
21553
21490
21575
21190
21506
21323
21586
21470
21372
21267
21233
21204
21378
21542
21412
21440
21565
21677
21659
21598
21626
21538
21720
21837
21730
21796
21605
21570
21344
21289
21371
21516
21606
21764
21668
21509
21725
21888
21678
21789
21669
21804
21597
21669
21529
21260
21464
21581
21166
21005
21342
21361
21187
21103
21358
21576
21268
21363
21404
20928
21290
20993
21189
20825
21129
21030
20858
21334
21074
21082
21310
21098
21501
21003
21090
21580
21157
21383
21351
21774
21043
21302
21304
21333
21118
21345
21172
21486
21707
21229
21214
21398
21373
21164
21473
21307
21236
21299
21258
21553
21247
21151
21089
20819
21068
21137
21373
20781
20842
20726
21129
21229
20963
21005
21446
21121
21282
21005
21185
21524
21251
21409
21073
21734
21408
21662
21188
21713
21613
21735
21935
21780
21475
21648
21696
21328
21765
21949
21434
21561
21365
21686
21467
21143
21398
21065
21201
21533
21317
21482
21147
21182
21111
21451
21407
21271
21528
21572
21286
21639
21507
21182
21362
21560
21866
21423
21772
21773
21799
21807
21730
21643
21952
22036
21701
22134
21803
22174
21672
21753
21901
21538
21800
21448
21723
21667
21731
21490
21470
21258
21906
21737
21827
21369
21744
21464
21417
21212
21472
21109
21523
21649
21623
21749
21456
21323
21406
21152
21091
21611
21283
20932
21352
21072
20755
21162
20906
20834
21216
21104
20857
21073
21193
20718
20832
20991
21113
21210
21274
21172
20793
21097
21092
20528
20943
21186
20588
21129
20868
21080
21116
20547
20631
20942
21156
20965
21185
21012
21095
21054
20605
20555
21129
20658
20495
20861
20775
20690
20654
20806
20975
20906
20800
20830
20889
20909
20878
20951
20373
20305
20316
20526
20755
20477
20695
20357
20607
20329
20515
20724
20276
20500
20683
20700
20239
20488
20569
20586
20378
20673
20747
20428
20557
19906
20522
19581
20325
20160
19963
20272
19817
19586
19620
20186
19863
20053
20023
20102
20217
20058
19877
19978
20295
20106
20059
20067
20181
20110
20017
19973
19905
20190
20584
20461
20261
20472
20173
20351
20587
20199
20307
20362
20174
20461
20230
19981
20187
20210
20166
20754
20549
20424
20197
20422
20541
20339
20232
20298
20368
20323
20318
20429
20563
20554
20642
20596
20514
20605
20669
20950
20823
20636
20762
20911
20791
20566
20750
20917
20606
20928
20728
20342
20630
20522
20835
20878
20689
20723
20654
20686
20627
20658
20706
20665
20694
20757
20938
20707
20820
20877
20946
21010
21282
21085
21089
21037
20783
21061
21145
20912
20825
21029
21107
20952
21133
21073
21114
21233
20929
21574
21154
21644
21793
21685
21581
21860
21550
22012
21724
21661
21767
22097
21833
21826
21743
22258
22229
22059
22493
22257
22312
22370
22180
22323
22197
22837
22624
22628
22691
22826
22721
22948
22662
22652
22930
22994
22653
23111
23358
23020
22641
23141
22987
23257
22986
22894
23029
23354
23021
23365
23338
22820
23034
23419
23160
22936
23598
23513
23013
23574
23345
23070
23237
23354
23764
23141
23959
23264
23411
23107
23273
23796
23052
23741
23545
23735
23470
23894
23637
23799
23479
23552
23612
23874
24096
24148
23455
24221
23818
24034
23620
23486
24009
23812
24073
23914
24355
23841
23695
24065
24232
24113
24013
23972
24167
23819
23864
24189
24324
24204
23802
23666
24223
23817
24376
24296
24370
23941
24126
24491
23954
24402
24313
24457
24379
24641
24522
24119
24112
24397
24093
24625
24772
24280
24111
24676
24428
24493
24302
24785
24770
24612
24943
24993
24770
24851
24876
25008
24772
24555
25261
24861
25113
24623
24675
25029
25067
24536
24649
25066
24648
24701
25206
25073
25042
25210
25215
24757
25271
25066
25063
25166
24770
24791
24878
24781
24513
24953
24645
24610
24418
24910
24797
24774
24888
24921
24476
24181
24141
24374
24440
24163
23885
24139
23870
23977
23726
23888
23793
23895
24308
23912
23579
24182
23623
23718
23953
23693
23748
23601
24048
23868
23913
23584
23529
23547
23944
23771
23955
23179
23990
23727
23313
23262
23465
23862
23252
23308
23499
23852
23443
23915
23774
23737
23432
23577
23950
23494
23241
23472
23707
23353
23803
23693
23576
23379
23679
23208
23474
23447
23496
23785
23203
23147
23336
23519
23268
23152
23456
23560
23860
23646
23053
23394
23416
23178
23679
23080
23684
23759
23642
23104
23386
23422
23448
23434
23154
23211
23242
23035
23148
23223
22935
23518
22817
23236
22880
23435
22851
23209
23371
23051
23001
23107
23083
23151
22825
23100
22798
23393
23005
23100
23431
22978
23087
23218
23017
22714
22967
22807
22831
23148
22973
22439
22753
22814
22668
22947
22880
22543
22847
22446
22704
22616
22798
22704
22262
22377
22400
22459
22635
22464
22131
22032
22391
22483
22256
22481
22017
22449
22465
22220
22593
22303
22616
22644
22559
22530
22238
21917
22102
22181
22181
22180
22314
22176
22091
22132
21931
22070
22053
22293
22381
22401
22293
22365
21958
22118
21537
21907
22264
22281
21497
22209
21997
21845
22020
21447
21563
21838
21673
22093
21803
22666
22373
22366
22309
22294
22188
22638
22369
22263
22530
22393
22186
22111
22290
22120
22173
22253
22646
22673
22568
22351
22457
22319
22532
22819
22480
22139
22479
22513
22449
22130
22308
21908
22250
22188
22134
22218
22451
22327
22573
22439
22826
22510
22552
22509
22189
22346
22235
22140
22454
22182
22173
22211
21727
21967
21756
22112
22192
21798
21665
22413
21942
22299
22225
21837
21983
21712
21684
21771
21861
21891
21505
21573
21874
21689
21950
21550
21652
21568
21383
21689
21432
21897
21962
21310
21698
21411
21630
21588
21395
21321
21344
21498
21935
21548
21473
21711
21989
21977
21590
21881
21579
21667
21337
21168
21496
21537
21164
21156
21488
21684
21496
21392
21551
21256
21203
21677
21411
21719
21624
21621
21295
21401
21140
21372
21522
20413
21463
21021
21312
21362
20836
21193
20743
20982
20925
21048
20512
20588
20443
20947
21036
20817
20576
20601
20860
20680
20954
20901
20554
20561
20972
21150
20799
20488
21038
20847
21056
20798
20636
20704
20685
20782
20627
20501
20654
20281
20628
20672
20911
21125
21019
21051
20737
20968
21243
21006
21027
21139
21237
21128
21060
21130
21021
21151
21164
21188
21101
21220
21064
21137
21021
21161
20780
21141
20706
21046
20695
20878
20982
21062
20736
21331
21171
21331
21132
21480
21190
21026
21248
21092
21091
21058
20792
21158
20898
21046
21331
21227
21092
21339
20904
21363
21142
20928
21258
21143
20967
21282
21200
21467
21502
21324
21663
21644
21655
21568
21866
21474
21597
21270
21619
21463
21522
20952
20899
21290
21243
21427
21118
21642
21511
21653
21515
21102
21034
21544
21080
21381
21348
20838
21339
21471
21250
21038
21454
21590
21344
21233
21323
21387
21235
21015
20688
20895
21163
20888
21227
21094
21042
21094
21095
21267
20865
20927
20705
20793
20770
21146
20780
20431
20893
20582
20552
20749
20662
20976
20743
20679
20800
20756
20882
20871
20568
20727
21104
20970
20586
20762
20738
20537
20868
20918
21017
20895
20631
20878
20683
20657
20496
20243
20374
20231
20348
20317
20291
20210
20324
19909
20215
20049
20276
19823
20028
19804
19963
20033
20099
20229
20153
19579
20251
20058
19564
19866
19913
19897
19955
19804
19682
20013
19753
20002
19700
19691
19560
19283
20034
19512
20036
19614
19609
19428
19738
19808
20180
19934
19628
19897
19606
19959
19618
19996
19452
19847
19523
19901
20022
19564
19561
19347
19637
19480
19742
19986
19574
19736
19899
19594
19426
20049
19583
19631
19556
19520
19755
19562
19386
19536
19431
19522
19735
19321
19077
19454
19106
19456
19459
19689
19559
19368
19226
19481
19384
19572
19538
19624
19190
19419
19547
19419
19678
19316
19278
19391
19465
19144
19506
19651
19296
19349
19517
19224
19453
19324
19248
19139
19290
19531
19551
19585
19452
19501
19507
19207
19467
19644
19405
19080
19383
19091
19520
19097
19364
19261
19285
19638
19102
19167
19415
19434
19146
19184
19375
19533
19251
19470
19358
19603
19605
19278
19848
19844
19369
19643
19353
19803
19682
19755
19835
19909
20054
19820
19539
19769
19659
20057
19794
19839
19998
20145
20276
19784
19759
19933
20000
20063
19924
20285
20567
20217
20665
20495
20110
20541
20557
20553
20446
20809
20928
20699
20759
20539
20756
21164
21313
20656
21131
21155
21119
20698
21105
20937
20970
21072
21251
21585
20965
21570
21326
21661
21288
21385
21736
21420
21475
22199
22059
21631
21625
22208
21921
21880
22132
22451
21907
22071
21805
21831
21702
21344
22016
22007
21313
21789
21459
21665
21821
21332
21982
21594
21919
21757
21718
21995
21938
21999
22100
21898
21883
21908
21530
21917
21793
22155
21962
21817
22315
22728
22025
22374
22347
22408
22636
22673
22520
22637
22412
22553
22658
22261
22316
22447
22404
22452
22802
22428
22761
22580
23025
22495
22540
22903
22787
22623
22553
23148
23127
22978
23474
23300
23449
23252
23338
23640
23111
23546
23766
23333
23253
23740
23734
23152
23190
23703
23591
23312
23409
23341
23227
23437
23262
23708
23638
23812
23666
23535
23840
24115
23729
24287
24042
23854
23966
24155
24279
23671
24190
24033
23993
24296
24204
23948
24187
24050
24268
24059
24246
24135
23841
24175
24223
24429
23843
23772
24026
24451
24380
23722
24005
23745
23668
24154
23569
23638
23756
23920
23714
23842
24086
23877
23874
23949
24121
23657
23754
23831
23594
23346
23895
23626
23979
23722
23303
23676
23328
23678
23379
23733
23403
23380
23238
23426
23125
23390
23118
22912
23131
23259
23024
22940
22875
23399
23194
23112
22828
23148
22483
23294
22824
22567
22399
22357
22151
22495
22246
22068
22447
21953
22489
21997
22581
21883
22468
21913
22305
22031
22072
21755
22048
22035
22063
22105
21887
21477
22100
21893
22128
21880
22172
22138
22005
21961
22083
21865
21746
22026
21980
22087
22122
22306
21774
21951
22432
22398
21864
21908
22198
21808
21910
21849
21820
22138
22338
21789
22021
22329
22297
21799
21850
21700
21783
21617
22358
21976
22011
22129
22250
22280
22457
22038
22385
22018
21702
21744
22164
21793
21605
22089
21600
21506
21429
21540
21550
21845
21692
21818
21775
21344
21759
21166
21357
21388
21573
21570
21363
21317
21804
21642
22097
21492
21534
21818
21852
21747
21996
21686
21810
21880
21622
21243
21077
21171
21762
21248
21324
21201
21226
21393
21247
21535
21313
20866
21400
21179
21314
21465
21202
21400
21272
21473
21705
21393
21798
21542
21489
21685
21732
21714
21756
21371
21812
22049
21963
21366
21446
21638
21948
21585
21838
22033
21704
22092
21993
22025
21669
21996
22057
21615
21880
21600
22060
22037
21897
21993
21664
21774
21633
21939
21534
21768
21540
21743
21823
21744
21426
21688
21694
21728
21530
21408
21637
21893
21638
21785
21631
21952
21441
21140
21541
21742
21943
21516
21831
21488
21453
21293
21800
21202
21429
21248
21414
21014
21080
21594
21118
21264
21189
21119
21482
21196
20880
21317
21323
21137
20782
21226
21256
21184
20989
21159
21165
21103
21137
21399
21501
21450
21404
21359
21304
21205
21422
21347
21151
21167
21384
21009
20872
20956
20646
20700
21018
20641
20626
20890
20746
20721
20601
20492
20994
21034
21077
20762
20724
20558
20459
20563
20407
20805
20575
20629
20465
20775
20348
20569
20684
20497
20442
20565
20911
20745
20924
20634
20643
20993
20732
20827
21047
20470
20962
20588
21014
20477
20954
20662
20551
21178
20869
21014
20953
20543
20437
20831
20765
20529
20548
20593
20598
20750
21136
20881
20497
20330
20501
20935
20352
20519
20908
20411
20549
20860
20523
20482
20904
20821
21015
20802
20768
20743
21194
21155
21213
20669
21247
21265
20667
20757
21183
20851
20810
20564
20633
20491
20533
20692
20873
20666
20196
20714
20178
20287
20422
20579
20592
20921
20409
20365
20436
20363
20578
20511
20615
20393
20440
20434
20771
20434
20426
20499
20621
20487
20760
20382
20671
20312
20296
20212
20447
20658
20282
20734
20044
20618
20316
20175
20427
20218
20376
20432
20234
20557
20288
20505
20098
19871
19969
19869
20118
19787
20205
20075
19839
20017
19905
20252
20407
20273
20564
20449
20693
20183
20266
20262
21006
20413
20454
20649
21188
21021
20965
20721
21120
21344
21442
21536
21631
21536
21561
21702
21895
21886
21391
21528
21897
21619
21597
21698
21635
21766
22334
22028
21654
21902
21662
22037
21801
22311
22085
22094
22250
22045
22306
22666
22423
22652
22571
22492
22736
22589
22628
22404
23045
22629
22460
23155
22716
23155
22946
23072
23066
22772
23071
22923
22874
22597
22941
22709
22702
23136
22843
22766
23284
23108
22668
22726
23345
23134
23256
23564
22990
23063
23653
23820
23194
23213
23885
23861
23722
23313
23414
23765
23417
23568
23861
23769
23614
23637
23434
23229
23784
23307
23075
23715
23331
23163
23377
23759
23605
23798
23545
23820
23542
23883
23644
24068
23976
23859
24070
23825
23794
23929
23712
24118
23971
23776
23782
23823
23869
23654
23666
23785
23826
24049
23971
24061
23605
23901
23692
23752
23638
23338
23724
23780
23738
23729
23660
23469
23802
23860
23773
23987
24312
23812
24052
23814
24041
23909
23883
24175
23810
23781
24189
23682
24156
24133
24268
23603
24468
24028
24331
24182
24105
24295
24176
24252
24033
24026
24088
23815
24066
24299
24032
23960
24199
23950
24283
24151
24710
24537
24814
24367
24855
24503
24770
24287
24554
24311
24761
24679
24363
24152
24762
24400
24654
24557
24793
24515
24568
24607
24814
24558
24507
24639
24326
24394
24740
23992
24205
24098
24038
24309
24384
24269
24098
24255
24361
23727
23782
23701
23739
23451
23628
23452
23466
23443
23406
23495
23305
23496
23272
23138
23369
23194
23375
23149
22928
23221
23223
23403
23472
22840
23293
23508
22813
22746
23070
22781
23185
23004
22715
22681
22657
22430
22828
23050
22330
22951
22420
22347
22813
22510
22766
22794
22560
21854
22592
22295
22952
22526
22982
22554
22638
22746
22829
22711
22287
22532
22763
22515
22131
22546
22691
22526
22547
22654
22387
22323
22753
22529
22351
22273
22722
22385
22818
22943
22696
22743
22321
22712
22711
22371
22963
22292
22386
22559
22824
22875
22266
22577
22510
22752
22579
22380
22655
22770
22350
22394
22391
22563
22215
22723
22602
22174
22266
22671
22400
22048
22492
22092
22478
22480
22476
22123
22242
22240
21932
22390
22357
22112
22031
22262
22329
22233
22078
22587
22320
22661
22431
22259
22321
22129
22026
22495
22526
21868
22398
22451
21985
22251
22037
22723
22382
22056
22519
22351
22572
22407
22165
22243
22379
22233
22108
22333
22680
22433
22979
22237
22800
22452
22707
22634
22940
22489
22278
22349
22286
22301
22272
22613
22287
22589
22739
22434
22478
22159
22756
22028
22269
22239
22473
22251
22726
22277
22417
22540
22803
22393
22588
22423
22972
22472
22546
22835
22886
22330
22877
22981
22873
23055
22544
22858
22617
22841
22949
22515
22653
22863
22552
23086
22756
22535
22961
22610
22754
22398
22774
23055
22880
22629
23103
23072
22964
22888
22700
22936
23133
22621
22886
22517
22847
22900
22640
22510
22586
22371
22888
22481
22513
22722
22999
22864
22945
22602
23075
22948
22713
22695
22629
22522
22756
22531
22397
22580
22383
22591
22516
22421
22846
22570
22824
22113
22347
22306
22391
22390
22234
21999
22261
21911
22179
22636
22548
22606
22626
22705
22293
22712
22774
22335
22809
22279
22068
22713
22252
22443
22666
22637
21967
22336
22248
22510
22686
22922
22385
22295
22491
22766
22952
22826
22574
22318
22846
22754
22397
22542
22427
22666
22318
22483
22122
22272
21986
22174
22392
22127
22502
21988
22482
22295
21938
22216
21951
22161
21868
22429
22494
22238
22523
22259
22652
22290
22458
22844
22486
22882
22760
22995
22937
22548
23044
22760
22892
22821
22865
22990
22817
22491
22534
22436
22739
23098
22840
23030
22906
22985
23160
23321
23034
23337
23016
23309
23380
22856
22896
22683
22930
22718
23187
23349
23176
23075
23485
23435
23621
24063
23589
23500
23576
23926
23753
23900
23860
23608
23435
23615
23864
23525
24057
23942
23600
23313
23346
23742
23527
23740
24005
23656
23468
23375
23942
23607
23393
24313
23692
24218
23669
23756
23770
23998
23735
23772
24319
23953
24414
24203
24060
24273
24042
24255
24529
24564
24456
24390
24229
24336
24448
24575
24767
24583
24616
24739
24456
24584
24689
24244
24508
24875
24928
24986
24446
24674
24602
24615
24604
24968
24912
25010
24724
24968
24756
24913
25018
24532
24425
24881
25114
24522
25158
24565
24688
24787
25347
24878
25127
25193
24998
24941
24766
24735
25041
24589
24983
25191
25238
24797
24782
24806
24542
24962
24484
24885
24579
24815
24957
24637
24840
24614
24963
24827
24504
24433
25025
24822
24652
24792
24545
24931
24880
24697
25095
24971
25136
24846
24845
24864
24883
25217
24883
24739
25166
25087
25269
25337
25019
25069
24881
25118
24622
25120
24927
25189
25193
25233
25302
25145
25075
25065
25023
24809
24980
24597
24975
24779
25016
25198
24809
24694
25134
24682
25262
24677
25324
25430
24865
24774
25373
25112
25216
24887
25238
25255
25126
25191
24795
25222
24695
24946
25238
25172
25157
25045
24695
24915
25138
25084
25005
24488
25110
24473
24764
24964
24598
24843
24717
24906
24790
24736
24466
24864
24955
24715
24281
24647
24702
24517
24690
24473
24650
24569
24284
24270
24344
24076
24471
24076
24362
24667
24134
24214
24685
24613
24318
23942
24677
24211
24687
24056
24518
24496
24374
24453
24149
24278
24121
24286
23473
23771
23870
23763
24433
24348
24251
24016
23752
23658
23795
23938
23797
23917
23643
23387
23844
23867
23717
23786
23917
23880
24080
24046
23934
24158
23801
23841
23481
23961
23679
23858
23976
23682
23740
23792
23164
23861
23680
23353
23876
23283
23816
23726
23684
23267
23287
23653
23363
23104
23534
23731
23001
23237
22965
23587
23170
22879
23479
23383
23409
23640
23167
23443
23517
23342
23165
23381
23640
23459
23375
23270
23178
23074
23362
23504
23095
23412
23287
23435
23366
23432
23295
23059
22965
22914
23428
23202
23237
23089
22931
22905
23051
23050
22533
22981
23071
22810
22609
22617
22816
22714
23264
23155
22852
23137
22758
23331
23380
23006
22806
22838
22872
22828
22892
22761
22657
22863
22676
22811
22813
22888
23103
22920
22633
22920
23000
22808
22583
22761
22623
22838
22922
22994
22560
22614
22863
22949
22587
23103
22577
23271
23051
22720
23061
23038
22641
23131
23185
23301
22920
22528
22805
22838
22622
22792
22679
22640
22234
22559
22508
22483
22044
22327
22356
22306
22184
22452
22525
22468
22098
22247
22265
22242
22205
22466
22430
22504
22603
22372
22550
22536
22282
21984
21997
22395
22222
22225
22257
22264
22680
22459
22580
22500
22718
22638
22568
22395
22440
22623
22455
22478
22755
22390
22520
22986
22983
22651
22833
22869
22692
22697
22893
22382
22934
22342
22537
22739
22409
22480
22406
22776
22598
22915
22892
22543
22763
22845
22829
22584
22870
22922
23001
22997
22635
22717
22482
22854
23044
22978
23127
22576
22999
22634
23104
23019
23041
22716
22846
23491
23261
23044
23050
23117
23246
22937
23653
23496
22960
23333
23099
23735
23653
23664
23529
23427
23350
23594
23559
23699
23621
23998
23726
23323
23907
23757
24303
23806
24434
24338
24266
23396
24122
23631
24032
23915
23742
23747
23826
23956
24092
23883
24027
23606
23749
23579
23492
23743
23491
23582
23827
23775
23757
23613
23430
23757
23453
23438
23357
23545
23395
23929
23501
24065
23571
24109
23905
23596
23703
23970
23731
23984
23783
23738
24071
23936
24347
23973
24371
23925
23710
24349
23872
24141
24046
24188
24425
24454
24147
23968
24153
24436
23968
24468
24580
24566
24365
24699
24147
24657
24124
24505
24028
24326
24104
24419
24490
24324
24452
24291
24776
24770
24273
24748
24257
24341
24822
24858
24808
24660
24764
24935
24960
25086
24864
25273
25339
25196
25272
24927
25218
25457
24978
25439
24903
24675
25328
24934
24558
25151
24928
25003
24495
24550
24795
24863
24632
24651
24735
24599
24642
24667
24850
24903
25186
25432
25501
25494
25793
26165
25676
25650
25733
25777
25846
26121
25581
25715
26196
25590
25763
25594
25150
25243
24681
25149
25082
24830
25299
25097
24593
24737
25212
24726
25070
25401
25036
25179
25497
25040
25450
25782
25759
25253
25746
25241
25366
25703
25006
24922
24851
24845
24864
24982
25500
25284
25288
24984
25230
25694
25438
25389
25235
24987
25128
25751
25319
25070
24876
25361
25055
24544
25142
24580
24796
24956
24274
24147
24525
24170
24399
23910
23853
24056
23740
23857
23831
23734
23865
24075
24116
24055
23737
23879
24314
24411
23923
24442
24580
24587
24875
24891
24866
24614
24805
24869
25154
25051
25375
24757
25015
24994
25198
24884
24877
24885
24600
24918
25111
24786
24473
24433
24647
24535
24506
24372
24463
24151
24183
24479
24119
24434
24814
24787
24881
25105
24685
25021
25402
24930
25293
25605
25070
25294
25035
25348
25131
25421
25347
25690
26041
25669
25387
25500
25464
25846
25438
25760
25249
25227
25369
25365
25152
25405
24967
24809
24862
24731
24802
24806
24640
24627
24989
24903
24936
24402
24303
24444
24698
24408
23997
24077
24381
24130
24251
24343
24648
24117
24110
24171
24166
24327
24363
24179
24078
23864
24260
23994
24045
23528
23896
23998
24108
23574
23616
23686
23607
23808
23639
23327
23762
23707
23677
23344
23294
23470
23054
23058
23422
23297
23446
22949
23433
23067
22732
22916
23189
22975
23065
22781
23075
22735
22857
22803
23145
23037
23350
23279
23081
23112
23449
23620
23339
23359
23698
23388
23689
23445
23547
23802
23567
23342
23837
23767
23237
23544
23880
23777
23230
23731
23699
23456
23750
24078
23744
23931
23865
23754
23668
23928
23611
23507
23514
24000
23682
23063
23669
23489
23736
23297
23563
23275
23731
23222
23124
23055
23330
23577
23497
23102
23140
23172
23061
23002
22779
22864
23135
23110
23096
23215
23123
23323
23332
23273
23643
23062
23190
23156
23636
23797
23516
24018
23629
23787
23623
23731
23818
23623
23338
23511
23647
23790
23946
23938
23927
23959
23883
24039
23865
23732
24251
24472
24372
24799
24849
24677
24703
25206
24927
24813
25032
24871
25052
24942
25238
25066
25159
25425
25151
25480
25454
25641
25490
25309
25921
25465
25687
25661
25806
26111
26077
25870
26061
26251
26125
26175
26149
26248
26285
26279
26209
26148
26310
26146
26243
26312
25949
25596
25903
25885
25567
25588
25189
25327
25156
25332
25790
25041
25419
25615
25319
25411
25127
25508
25067
24961
24857
25145
24678
24418
24570
24548
24507
24632
24299
24444
24368
24481
24542
24396
24036
24421
24791
24448
24795
24421
24346
24589
24352
24169
24525
24560
24346
24446
24030
23977
23992
23963
23869
24121
24279
24178
24529
24528
24626
24146
24793
24423
24558
24436
24603
25038
24526
24741
24829
24929
25115
24824
24538
25046
24797
24762
25091
24806
24878
25177
25091
25154
25144
25430
25397
25105
25555
24963
24999
25075
25643
25325
25502
25422
25444
25802
25606
25898
25952
26131
26252
26683
26745
27162
27256
27360
26853
27409
27507
27246
27403
27581
27535
27415
27508
27840
27630
27656
27591
27391
27663
27656
27933
28181
27691
27584
27551
27651
27930
28026
27763
27493
27238
27613
27509
27518
27608
27433
27488
27553
26918
27309
26778
27122
27035
26912
27245
26970
27234
26209
26986
26457
26824
26354
26926
26572
26246
26399
26606
26324
26132
26618
26024
26341
26081
26363
25983
26136
26120
26368
25786
25873
26270
25738
25709
25965
25931
26212
25577
26124
25854
25479
25792
25732
25873
25716
25392
25782
25918
25709
25726
25765
25556
25518
25856
25864
25912
25533
25856
25376
25102
25566
25447
25728
25140
25256
25372
25439
25106
25598
25178
25507
25538
25492
25647
25606
25153
25590
25467
25740
25772
25588
25298
25292
25277
25495
25185
25378
25829
25607
25425
25632
25673
25706
25686
25796
25171
25295
25694
25633
25761
25839
25221
25149
25516
25171
25398
25765
25687
25162
25400
25252
25450
25126
25040
25605
25602
25344
25357
25253
25084
25190
25646
25594
25316
25162
25506
25397
25378
25772
25847
25286
25135
25421
25297
24992
25409
25231
25182
25030
25201
24784
24842
25272
24777
25132
25003
25230
24791
24940
25165
24730
25144
25147
25315
25010
25327
24818
25305
24850
24695
25257
25141
24909
24822
24990
24737
25020
24826
25177
24595
24966
24686
25075
24788
25170
25195
24890
24797
25220
25195
24729
24967
25047
24656
25102
25339
24958
25268
24870
25231
24818
24464
24585
24438
24861
24872
24656
24844
24781
24620
24807
24764
24541
24347
24199
24734
24720
24317
24654
24268
24293
24366
24888
24770
24587
24563
24223
24772
24572
24351
24470
24239
24307
24106
23984
24479
24579
24430
23936
24553
24396
24504
23963
24279
24323
24102
24718
24204
23914
24137
24035
24017
24305
24424
23986
24464
23983
24464
24037
24557
24270
24327
24433
24209
23983
23955
24440
24360
23978
24556
23717
23893
24334
23668
24112
23789
24282
23789
23740
23929
23972
24218
24176
23639
24292
23661
24499
24421
24039
24230
24266
23737
23897
23857
24138
23926
23778
24219
24023
23588
23846
24390
24214
24026
24402
24250
24116
24212
24299
24430
24308
24690
24936
24731
24603
24862
24571
24470
24479
24278
24281
24644
24712
24695
24567
24577
24499
24856
24349
24694
24323
24959
24870
24912
24410
24753
24757
25132
25047
24888
24758
25104
25056
24805
24661
24637
24603
24720
24903
24745
24450
24522
24524
24673
24772
24901
25008
24495
24832
25041
24756
25067
24548
24760
24658
24633
25042
25030
25001
24408
24828
25032
24540
25138
24930
24890
24592
24687
25042
24459
24320
24456
24618
24432
24585
24709
24138
24184
24819
24320
24664
24237
24497
24297
24343
24715
24349
24205
24224
24312
24693
24056
24384
24032
24266
24377
23953
24076
24284
24051
23804
24051
23863
24412
24178
23810
23946
24515
24066
24017
24676
24035
24077
24505
24116
24686
24313
24448
24032
24341
24406
24731
24778
24384
24723
24512
24423
24942
24232
24764
24314
24612
24675
24633
24627
24170
24001
24004
24126
24533
24270
24529
24218
24779
24219
24586
24566
24372
24465
24707
24720
24127
24631
24697
24291
24815
24899
25041
24767
24368
25089
25290
24929
25318
25250
25062
25157
25368
25390
25258
25438
25350
25490
25557
25135
25337
25447
25118
25465
25676
25386
25232
25495
25685
25763
26096
26164
26101
26143
26408
26114
26281
25952
26118
26122
26150
26018
26336
26354
26031
26102
26501
26417
26358
26122
26203
26726
26743
26618
26513
27056
26842
26625
27077
26615
26488
26721
26424
26363
26510
26348
26548
26697
26668
26689
26551
26569
26719
26984
26773
26454
26878
26883
27315
27421
26794
27353
27397
27211
27435
27311
27088
27617
27354
27604
27524
27815
27387
27907
27507
27495
27955
27944
27637
27600
27944
27744
27946
28173
27720
27703
28148
27616
28048
27656
28140
27756
28244
28153
27891
28471
28682
28132
28156
28121
28811
28671
28961
28511
28699
28383
28357
28617
28098
28446
28259
28501
28323
28181
28065
28045
28347
28360
27958
28097
28251
27737
28213
28324
28264
27858
27926
28204
28235
27525
27652
27949
28213
27851
28331
27702
28041
27921
28074
27763
27594
27761
27910
27700
27322
27337
27452
27108
27450
27080
27362
27046
27298
27132
27072
26614
26661
26803
26277
26596
26599
26221
26302
26118
26080
26166
26021
26071
26056
25716
26026
25514
26055
25847
25508
25818
25916
25511
25649
26026
25916
26155
25946
26024
25691
26115
25705
26258
25506
25473
25498
25896
25301
25614
25612
25778
25263
25482
25403
25340
25729
25802
25755
25450
25639
25319
25900
25426
25607
25584
25431
25528
25260
25310
25437
24926
25629
25122
25045
25296
25340
25131
25193
25013
25134
25152
25063
25150
25391
25123
24859
25077
25313
25065
24855
25026
24534
24936
25111
24927
25264
25076
24837
24976
25033
25169
25124
24461
24552
24548
24865
24851
25044
25182
24599
24797
24679
24655
24723
25256
25140
25196
25109
24871
24707
24633
25055
24976
24598
24986
24587
24604
24326
24398
24385
24390
24886
25034
24616
24460
24786
24404
24673
24142
24354
24277
24680
24708
24114
24473
24698
24326
24248
24610
24593
24247
24508
24300
24815
24431
24574
24532
24865
24321
24541
25025
24209
24985
24405
24517
24431
24246
24260
24629
24699
24582
24791
24206
24510
24044
24400
24563
24734
24710
24756
24501
24235
24727
24654
24552
24340
24599
24853
24549
24719
24309
24228
24355
24158
24567
24535
24500
24418
24277
24424
24293
24358
24736
24507
24657
24368
24438
24492
24230
24104
24355
24615
24392
24182
24153
24406
24447
24257
24179
24510
24334
24516
24606
24104
24133
24400
24657
24755
24217
24344
24201
24306
24016
24383
24103
24152
23980
24330
24139
24466
24292
24024
24679
24646
24475
24691
24473
24707
24136
24061
24243
24417
24123
24220
23947
23609
23797
24353
24169
24125
23544
23683
23565
24042
24061
23492
23866
24039
23654
23868
23513
24043
23597
24039
23580
23712
24105
23883
23501
23792
23841
23829
23722
23862
24097
23630
23619
24058
24137
23528
23778
24249
24121
23959
23915
23769
23886
23839
24185
23910
23602
23984
23981
23630
23737
23952
23945
24050
23969
23618
23837
23959
23821
23870
23921
23418
23778
23606
23707
23576
23617
24008
24155
24108
23869
23993
23839
23781
23953
23785
23974
23993
23934
24193
24090
23702
23702
24025
24436
24253
24172
24198
23770
24161
24194
24074
24374
24487
24140
23929
24283
24145
24340
24261
24355
24340
24321
24413
24280
24371
24717
24376
24796
24487
24629
24539
25079
24583
24648
24715
24589
24281
24344
24700
24361
24458
24732
24191
24553
24326
24228
24167
24394
24493
24252
24548
24564
24372
24668
24500
24404
24179
24418
24468
24468
23971
24107
24368
24164
24466
24081
24109
24152
23840
24036
24427
23895
24140
23763
23806
24317
23733
23959
24115
23942
23624
23731
23771
23626
23628
23670
23800
23685
23891
24182
23693
23933
23898
24138
23783
23428
23624
23417
23581
23654
23316
23692
23215
23837
23301
23651
23345
23600
23778
23228
23604
23173
23411
23410
23135
23304
23223
23420
23367
23402
23406
23447
23081
23274
23597
23409
23468
23395
23097
23199
23524
23486
23544
23643
23076
23099
23131
22860
22831
23292
22837
23030
23257
23196
23339
23269
23010
22949
23185
23001
23362
23364
22910
23138
22981
22877
22868
23033
23369
22805
23210
23633
23425
23387
23129
23886
23357
23444
23943
23592
23651
23964
24037
23540
23836
23661
23746
23366
23817
23500
23344
23959
24020
23931
23253
23908
23388
23470
23250
23495
23881
23395
23512
23436
23243
23729
23469
23733
23403
23490
23719
23356
23397
23502
23952
23775
23893
23699
23889
23861
23743
23943
23958
23935
23804
24071
23878
24060
24283
23987
24060
24414
24406
24277
24322
23913
24506
24105
24251
24481
24498
24538
24640
24276
24468
24404
24790
24489
24360
24526
24657
24559
24892
25059
24779
25021
24785
24853
24819
24760
24860
25174
25090
25038
25115
24907
25275
25358
25461
25848
25544
25108
25650
26178
25695
25511
26059
26423
25735
25806
25575
25850
25335
25796
25630
25591
25725
25785
26394
25897
26360
26234
26046
26464
26430
26072
26612
26191
26094
26246
26187
26232
26203
26383
26639
26700
26408
26278
26137
26306
26207
26360
25801
26142
26701
26156
25899
26307
26587
26119
25995
26280
26121
26242
26274
26436
26105
26043
26135
26077
26003
26268
26041
25873
25442
25457
25625
25377
25825
25881
25214
25281
25207
25401
25565
25687
25193
25775
25435
25469
25251
25207
25765
25291
25514
25381
25268
25538
25440
25572
25500
25167
25043
25256
25163
25305
24776
25383
24757
24705
25088
24920
24679
24985
25118
24755
25099
25015
25212
24919
25311
25148
24592
24713
24593
24892
24815
25012
24397
24968
24877
24315
24263
24597
24647
24608
24489
24671
24296
24200
24063
24525
24611
23835
23976
23948
24026
23887
24258
23960
23801
24099
24255
23934
24075
23780
23722
23695
23938
23784
23578
24148
23351
23904
23502
24052
23689
24079
23623
23556
23564
23877
