21882
21863
21844
21823
21799
21772
21750
21739
21728
21707
21673
21628
21581
21529
21478
21439
21409
21379
21346
21315
21291
21276
21264
21242
21213
21183
21161
21146
21122
21095
21080
21077
21079
21087
21101
21127
21161
21199
21244
21305
21386
21476
21575
21686
21795
21897
22000
22110
22215
22311
22409
22513
22616
22711
22800
22882
22948
23000
23045
23084
23116
23136
23144
23139
23115
23082
23056
23042
23040
23048
23051
23036
23013
23001
23007
23025
23042
23051
23055
23045
23023
23003
22987
22974
22969
22979
23000
23016
23024
23024
23022
23025
23032
23038
23038
23037
23042
23049
23052
23051
23049
23056
23070
23087
23107
23123
23135
23139
23135
23140
23156
23171
23189
23202
23198
23183
23163
23144
23130
23114
23083
23041
23003
22974
22947
22922
22898
22871
22840
22807
22768
22729
22696
22666
22635
22613
22609
22617
22628
22645
22667
22677
22672
22660
22653
22652
22644
22629
22608
22585
22561
22531
22485
22426
22372
22348
22346
22339
22318
22299
22286
22267
22237
22209
22191
22178
22163
22148
22136
22117
22102
22096
22081
22043
21999
21978
21969
21945
21915
21883
21842
21790
21737
21689
21643
21601
21573
21560
21542
21516
21498
21495
21498
21497
21481
21441
21386
21341
21319
21310
21295
21265
21230
21205
21191
21177
21159
21134
21106
21074
21037
20993
20944
20908
20889
20861
20814
20773
20760
20764
20755
20728
20702
20667
20617
20576
20542
20516
20511
20524
20548
20590
20655
20733
20818
20913
21020
21139
21275
21420
21558
21686
21801
21901
21981
22042
22097
22147
22187
22228
22278
22328
22367
22388
22380
22349
22314
22289
22282
22288
22294
22304
22321
22328
22310
22284
22269
22259
22247
22238
22234
22224
22214
22209
22195
22169
22144
22126
22113
22102
22102
22115
22130
22142
22153
22163
22177
22198
22222
22248
22271
22295
22328
22356
22377
22398
22427
22454
22467
22476
22483
22473
22439
22398
22373
22369
22376
22380
22379
22372
22361
22348
22323
22285
22251
22236
22233
22215
22178
22145
22121
22094
22061
22034
22019
21999
21956
21904
21864
21826
21787
21760
21743
21720
21695
21691
21706
21712
21711
21724
21754
21779
21777
21751
21719
21691
21665
21646
21635
21621
21605
21586
21558
21535
21534
21543
21535
21506
21472
21446
21426
21415
21412
21412
21399
21378
21360
21330
21290
21256
21236
21222
21198
21164
21128
21084
21032
20989
20975
20977
20970
20959
20956
20955
20948
20935
20922
20910
20887
20848
20813
20790
20767
20736
20705
20675
20636
20595
20567
20538
20510
20496
20480
20458
20441
20436
20438
20428
20419
20414
20401
20379
20355
20331
20308
20285
20264
20245
20236
20244
20280
20349
20445
20558
20681
20812
20940
21053
21157
21254
21344
21423
21505
21595
21685
21773
21859
21931
21979
22005
22023
22054
22082
22089
22085
22086
22089
22080
22055
22021
21985
21957
21958
21985
22012
22018
22010
22007
22013
22024
22032
22024
22001
21989
22002
22025
22033
22032
22041
22061
22080
22096
22115
22123
22117
22125
22149
22164
22181
22206
22224
22231
22238
22256
22278
22290
22284
22270
22263
22260
22260
22262
22258
22240
22218
22199
22182
22176
22175
22172
22172
22165
22147
22133
22115
22075
22017
21957
21910
21888
21879
21862
21839
21826
21815
21798
21788
21799
21822
21838
21851
21863
21862
21848
21824
21802
21778
21738
21689
21651
21636
21647
21663
21659
21643
21630
21603
21560
21524
21511
21516
21532
21551
21556
21542
21511
21468
21413
21352
21301
21283
21293
21316
21336
21336
21308
21265
21224
21186
21151
21118
21087
21064
21044
21026
21025
21047
21069
21072
21049
21016
20983
20950
20924
20911
20901
20896
20905
20917
20913
20895
20871
20844
20808
20760
20707
20649
20591
20540
20495
20461
20442
20423
20406
20408
20414
20400
20370
20347
20342
20360
20379
20381
20365
20338
20300
20248
20189
20145
20124
20109
20099
20105
20128
20155
20192
20260
20349
20442
20537
20635
20735
20830
20927
21035
21149
21264
21376
21479
21575
21659
21734
21808
21871
21923
21972
22012
22031
22028
22015
22005
22000
22002
22009
22013
22002
21986
21984
21993
22002
22019
22045
22064
22071
22082
22103
22128
22155
22186
22211
22215
22193
22156
22124
22109
22104
22101
22103
22111
22115
22119
22139
22174
22217
22263
22304
22328
22326
22311
22306
22312
22320
22324
22326
22319
22300
22279
22263
22245
22228
22216
22208
22209
22213
22202
22172
22128
22079
22040
22013
21988
21972
21972
21977
21970
21951
21923
21886
21847
21825
21821
21819
21812
21803
21794
21777
21746
21713
21684
21657
21636
21644
21674
21692
21698
21709
21717
21712
21699
21678
21652
21634
21624
21606
21567
21511
21458
21419
21382
21349
21338
21349
21358
21350
21328
21295
21258
21229
21208
21192
21176
21142
21089
21036
20982
20931
20895
20876
20865
20854
20841
20827
20813
20786
20743
20686
20625
20576
20540
20510
20485
20466
20457
20458
20458
20466
20477
20462
20416
20364
20321
20287
20252
20217
20191
20173
20159
20134
20091
20038
19996
19963
19931
19892
19850
19811
19773
19735
19701
19668
19635
19604
19586
19595
19621
19654
19694
19742
19805
19880
19956
20037
20130
20235
20358
20499
20633
20744
20834
20906
20957
20986
21006
21028
21044
21060
21085
21113
21129
21139
21152
21157
21153
21152
21150
21144
21119
21073
21034
21017
21015
21021
21021
21009
20992
20982
20985
20995
20994
20976
20955
20937
20904
20869
20854
20850
20837
20815
20796
20790
20809
20846
20882
20913
20929
20940
20959
20964
20952
20940
20937
20948
20962
20972
20976
20971
20974
20991
21006
21013
21009
20997
20977
20946
20900
20857
20831
20808
20778
20742
20711
20689
20680
20686
20697
20705
20713
20723
20722
20701
20674
20656
20636
20616
20598
20572
20542
20500
20448
20397
20356
20338
20341
20353
20367
20371
20364
20352
20339
20326
20317
20309
20300
20296
20306
20318
20321
20318
20310
20282
20236
20187
20141
20089
20028
19968
19924
19896
19872
19856
19858
19865
19868
19871
19871
19856
19833
19816
19807
19797
19775
19738
19699
19667
19635
19604
19575
19547
19522
19488
19450
19423
19415
19421
19427
19438
19457
19472
19468
19455
19438
19411
19378
19340
19304
19267
19223
19181
19158
19146
19124
19101
19092
19085
19082
19099
19146
19216
19293
19372
19452
19529
19602
19675
19752
19835
19921
20008
20109
20214
20297
20364
20431
20485
20510
20512
20509
20518
20530
20540
20542
20527
20505
20480
20456
20431
20405
20394
20400
20412
20415
20405
20389
20374
20369
20374
20375
20368
20365
20369
20369
20356
20343
20346
20361
20380
20402
20427
20456
20479
20486
20484
20477
20455
20420
20391
20373
20365
20367
20383
20404
20422
20446
20477
20501
20506
20501
20499
20502
20506
20507
20497
20471
20435
20392
20336
20278
20231
20190
20154
20128
20110
20105
20103
20105
20113
20129
20148
20146
20124
20102
20078
20057
20039
20013
19979
19939
19894
19859
19848
19851
19857
19862
19871
19884
19894
19902
19900
19883
19862
19845
19825
19806
19786
19752
19712
19677
19658
19647
19625
19589
19547
19499
19451
19422
19415
19416
19402
19374
19354
19343
19333
19319
19310
19303
19286
19265
19245
19217
19187
19166
19156
19151
19138
19117
19103
19097
19096
19102
19104
19089
19053
19001
18936
18864
18800
18764
18752
18749
18730
18698
18673
18657
18644
18642
18651
18655
18642
18620
18597
18569
18539
18517
18495
18464
18432
18408
18393
18388
18392
18407
18433
18468
18509
18559
18622
18706
18805
18901
18985
19070
19165
19259
19340
19416
19507
19607
19685
19742
19787
19822
19843
19849
19852
19861
19870
19870
19868
19867
19855
19847
19851
19847
19829
19810
19796
19793
19795
19798
19800
19805
19817
19820
19807
19791
19781
19773
19767
19755
19730
19702
19685
19689
19712
19742
19760
19757
19734
19719
19723
19728
19725
19725
19737
19770
19812
19847
19878
19903
19916
19928
19939
19930
19901
19870
19846
19820
19796
19790
19788
19775
19765
19758
19743
19719
19701
19683
19657
19635
19629
19628
19613
19580
19555
19550
19543
19522
19508
19509
19514
19517
19506
19485
19459
19421
19377
19336
19295
19257
19222
19193
19164
19137
19120
19124
19132
19124
19104
19091
19088
19087
19080
19069
19055
19042
19041
19045
19046
19060
19079
19079
19058
19024
18983
18940
18892
18844
18807
18771
18739
18736
18759
18776
18786
18800
18811
18808
18792
18771
18747
18722
18699
18677
18659
18651
18643
18628
18613
18591
18543
18481
18424
18370
18327
18310
18313
18317
18305
18276
18236
18193
18168
18164
18156
18127
18097
18084
18077
18053
18011
17970
17930
17892
17874
17879
17887
17888
17894
17897
17880
17861
17848
17828
17799
17779
17777
17786
17799
17823
17859
17900
17941
17985
18038
18096
18157
18218
18284
18356
18427
18504
18578
18637
18685
18729
18772
18810
18853
18906
18958
18999
19024
19045
19067
19079
19068
19038
18999
18954
18906
18862
18829
18811
18792
18780
18792
18808
18820
18847
18887
18923
18939
18931
18911
18889
18871
18866
18865
18863
18864
18868
18872
18863
18845
18831
18818
18801
18780
18755
18740
18748
18771
18790
18802
18828
18871
18901
18909
18912
18921
18934
18948
18953
18946
18923
18885
18855
18845
18843
18841
18838
18838
18838
18833
18824
18804
18760
18697
18629
18567
18523
18496
18479
18477
18481
18496
18527
18552
18567
18578
18581
18567
18541
18511
18488
18472
18449
18426
18413
18405
18391
18361
18320
18279
18232
18194
18185
18189
18188
18180
18172
18169
18160
18143
18127
18114
18095
18072
18060
18062
18063
18051
18026
17993
17960
17929
17897
17871
17861
17874
17889
17886
17867
17838
17813
17794
17774
17761
17750
17727
17694
17659
17627
17596
17562
17544
17540
17533
17533
17545
17555
17540
17500
17454
17405
17353
17319
17314
17321
17314
17302
17306
17316
17315
17312
17294
17261
17228
17188
17134
17074
17028
16999
16966
16920
16881
16861
16846
16822
16797
16788
16803
16832
16870
16916
16957
16985
17019
17089
17186
17276
17352
17428
17502
17570
17635
17697
17754
17799
17833
17867
17914
17966
18019
18072
18122
18157
18176
18184
18170
18129
18085
18051
18010
17970
17947
17932
17913
17896
17899
17905
17896
17886
17890
17893
17887
17887
17888
17871
17846
17832
17835
17855
17885
17908
17913
17912
17912
17912
17917
17925
17929
17935
17944
17962
17986
18003
18008
18007
18005
18007
18010
18019
18041
18065
18073
18075
18082
18093
18097
18096
18092
18091
18096
18093
18069
18033
17989
17938
17899
17876
17847
17801
17747
17700
17670
17666
17683
17711
17731
17731
17728
17719
17697
17670
17643
17616
17591
17573
17569
17575
17579
17576
17564
17550
17533
17506
17474
17461
17463
17461
17460
17471
17485
17499
17515
17525
17521
17514
17520
17528
17514
17497
17492
17486
17465
17423
17371
17334
17318
17315
17309
17301
17288
17257
17212
17175
17155
17155
17173
17188
17189
17198
17213
17213
17200
17196
17187
17149
17096
17059
17044
17028
17007
16999
16990
16968
16953
16955
16955
16938
16909
16874
16837
16793
16751
16709
16665
16634
16629
16632
16619
16592
16573
16565
16558
16554
16560
16569
16570
16567
16575
16584
16582
16573
16581
16615
16656
16699
16747
16801
16862
16938
17037
17145
17250
17356
17461
17560
17642
17709
17750
17760
17755
17751
17751
17747
17735
17733
17742
17744
17730
17705
17678
17653
17631
17608
17580
17552
17530
17531
17552
17568
17570
17574
17582
17588
17597
17601
17586
17553
17521
17501
17488
17482
17488
17517
17551
17573
17584
17596
17620
17646
17671
17696
17707
17702
17708
17728
17749
17777
17811
17831
17826
17815
17823
17840
17844
17828
17812
17801
17773
17724
17681
17663
17656
17645
17631
17614
17589
17568
17562
17555
17534
17510
17494
17475
17452
17439
17449
17471
17479
17483
17502
17529
17546
17540
17512
17475
17439
17408
17372
17331
17290
17258
17243
17235
17222
17214
17218
17233
17251
17265
17265
17250
17240
17240
17229
17210
17192
17171
17147
17121
17105
17111
17125
17133
17148
17168
17166
17142
17116
17084
17043
17010
16977
16941
16920
16917
16922
16928
16933
16935
16926
16898
16861
16842
16838
16827
16804
16777
16759
16756
16759
16757
16747
16730
16705
16678
16653
16628
16607
16589
16567
16546
16535
16528
16514
16491
16459
16435
16422
16406
16384
16360
16333
16303
16267
16234
16210
16201
16212
16227
16243
16273
16327
16398
16479
16572
16669
16762
16852
16954
17079
17215
17342
17442
17513
17558
17591
17623
17640
17644
17650
17649
17642
17638
17641
17649
17652
17646
17643
17652
17670
17687
17701
17719
17743
17759
17768
17777
17784
17781
17772
17763
17758
17755
17748
17738
17735
17732
17724
17723
17741
17774
17805
17826
17823
17809
17801
17789
17777
17778
17777
17775
17777
17777
17784
17809
17843
17875
17896
17916
17949
17993
18030
18046
18044
18035
18022
18015
18008
17986
17947
17903
17864
17827
17792
17766
17753
17753
17766
17776
17763
17734
17708
17678
17644
17623
17623
17638
17651
17654
17648
17638
17623
17605
17595
17587
17566
17542
17535
17525
17498
17464
17428
17398
17371
17342
17318
17304
17299
17294
17299
17315
17321
17324
17338
17348
17337
17318
17307
17287
17253
17222
17203
17196
17198
17204
17211
17223
17239
17257
17261
17240
17206
17178
17165
17159
17143
17120
17111
17115
17121
17121
17117
17119
17122
17104
17062
17001
16930
16872
16833
16795
16769
16775
16794
16804
16812
16818
16811
16794
16787
16791
16782
16757
16728
16694
16663
16626
16588
16571
16573
16583
16592
16596
16575
16534
16493
16460
16438
16410
16372
16341
16324
16331
16382
16465
16548
16619
16693
16781
16862
16931
17010
17118
17236
17346
17453
17550
17629
17695
17743
17778
17811
17844
17878
17894
17883
17860
17835
17808
17779
17764
17769
17781
17797
17819
17844
17855
17854
17862
17876
17879
17887
17902
17907
17904
17909
17931
17952
17957
17953
17954
17952
17936
17917
17908
17905
17889
17865
17857
17867
17888
17910
17929
17950
17981
18031
18084
18111
18120
18131
18133
18113
18088
18084
18106
18127
18131
18125
18123
18126
18122
18110
18102
18109
18132
18151
18149
18130
18096
18059
18043
18037
18021
18002
17993
17989
17980
17971
17957
17945
17939
17920
17883
17847
17829
17825
17816
17787
17750
17727
17720
17721
17731
17752
17776
17789
17786
17777
17775
17792
17822
17840
17828
17789
17747
17722
17711
17700
17689
17680
17667
17640
17599
17558
17527
17509
17499
17487
17468
17448
17426
17403
17390
17392
17403
17416
17424
17429
17433
17429
17416
17393
17363
17339
17334
17339
17328
17295
17261
17233
17204
17170
17145
17136
17127
17109
17086
17077
17078
17078
17077
17079
17077
17062
17036
17004
16976
16953
16925
16897
16875
16849
16818
16792
16770
16747
16725
16711
16709
16724
16757
16795
16838
16894
16958
17025
17091
17153
17221
17300
17383
17468
17565
17679
17791
17884
17971
18065
18161
18250
18329
18393
18448
18505
18562
18608
18637
18651
18650
18637
18616
18594
18572
18553
18545
18546
18549
18555
18562
18568
18574
18582
18588
18584
18580
18583
18587
18586
18575
18556
18548
18566
18606
18647
18674
18697
18708
18705
18707
18736
18788
18837
18871
18902
18938
18972
19004
19039
19068
19081
19088
19089
19076
19051
19033
19027
19032
19048
19062
19066
19065
19064
19061
19059
19058
19057
19059
19062
19051
19031
19014
18988
18947
18908
18890
18893
18898
18906
18928
18955
18970
18969
18965
18968
18972
18976
18977
18957
18914
18864
18815
18776
18758
18760
18775
18793
18799
18785
18761
18731
18705
18697
18713
18735
18740
18725
18695
18649
18601
18571
18559
18551
18554
18568
18572
18563
18566
18592
18617
18615
18590
18558
18527
18501
18472
18447
18445
18456
18463
18464
18456
18441
18427
18417
18405
18392
18373
18344
18309
18274
18246
18223
18195
18162
18134
18112
18090
18067
18050
18041
18040
18051
18074
18094
18097
18085
18061
18027
17990
17953
17912
17865
17821
17785
17768
17770
17778
17782
17783
17793
17821
17872
17949
18037
18119
18205
18294
18386
18481
18582
18700
18832
18958
19065
19161
19263
19376
19486
19581
19668
19744
19796
19828
19849
19870
19896
19927
19956
19979
19994
20000
19999
19999
20005
20023
20045
20062
20088
20120
20151
20183
20214
20224
20208
20175
20141
20113
20084
20055
20033
20028
20041
20061
20084
20115
20150
20179
20203
20224
20240
20248
20251
20252
20265
20294
20327
20357
20396
20448
20497
20539
20578
20607
20626
20640
20656
20673
20684
20687
20688
20693
20697
20691
20679
20660
20631
20599
20573
20552
20530
20502
20479
20464
20446
20425
20407
20392
20372
20349
20333
20321
20309
20298
20290
20285
20276
20259
20244
20235
20221
20201
20189
20185
20180
20169
20156
20150
20151
20163
20180
20189
20188
20183
20170
20154
20141
20128
20109
20091
20080
20071
20058
20038
20007
19968
19922
19875
19841
19827
19824
19817
19806
19794
19784
19773
19764
19759
19751
19738
19728
19733
19744
19747
19738
19721
19696
19665
19626
19575
19517
19463
19411
19360
19319
19287
19258
19230
19203
19173
19149
19133
19111
19086
19080
19098
19122
19132
19124
19099
19068
19058
19069
19068
19045
19019
18998
18983
18968
18961
18977
19009
19039
19065
19101
19156
19234
19337
19456
19588
19720
19845
19973
20094
20200
20293
20376
20459
20549
20641
20728
20801
20858
20908
20941
20957
20967
20979
20998
21020
21038
21051
21063
21074
21084
21100
21116
21115
21099
21090
21091
21094
21094
21088
21081
21086
21107
21129
21147
21164
21182
21193
21198
21208
21229
21257
21282
21298
21304
21298
21284
21274
21277
21286
21293
21309
21343
21384
21424
21467
21497
21510
21520
21537
21567
21609
21654
21689
21715
21726
21704
21665
21639
21631
21620
21606
21598
21583
21562
21542
21518
21488
21448
21409
21383
21368
21363
21372
21379
21378
21379
21371
21352
21340
21347
21366
21367
21342
21314
21293
21271
21249
21235
21231
21240
21255
21278
21309
21330
21332
21319
21290
21253
21230
21228
21233
21241
21248
21247
21235
21209
21179
21159
21146
21138
21132
21122
21103
21079
21053
21024
21003
20986
20952
20904
20859
20828
20807
20793
20775
20744
20709
20684
20663
20644
20633
20639
20649
20647
20639
20624
20589
20542
20499
20465
20433
20388
20338
20306
20297
20304
20318
20319
20293
20244
20196
20168
20150
20129
20120
20117
20105
20094
20095
20093
20081
20065
20068
20103
20165
20233
20313
20417
20545
20697
20862
21023
21174
21314
21444
21574
21701
21831
21958
22056
22126
22187
22240
22277
22301
22322
22345
22361
22361
22353
22337
22318
22308
22312
22327
22347
22362
22387
22427
22470
22517
22569
22617
22651
22670
22673
22668
22664
22662
22663
22662
22665
22671
22680
22691
22696
22692
22687
22691
22713
22754
22799
22839
22879
22929
22977
23014
23046
23084
23131
23174
23202
23221
23230
23225
23217
23210
23206
23203
23205
23208
23206
23196
23168
23127
23083
23042
23017
23016
23022
23014
23000
22987
22965
22936
22913
22899
22885
22869
22858
22854
22849
22845
22842
22844
22844
22825
22791
22755
22721
22698
22694
22698
22700
22705
22717
22728
22732
22731
22726
22712
22684
22646
22607
22567
22528
22506
22509
22518
22515
22508
22514
22527
22536
22535
22521
22498
22476
22458
22443
22427
22404
22385
22372
22356
22334
22307
22275
22240
22205
22177
22162
22148
22127
22107
22090
22062
22025
21984
21940
21894
21853
21830
21828
21826
21817
21807
21795
21773
21740
21708
21679
21652
21638
21638
21639
21621
21577
21523
21482
21458
21450
21450
21446
21434
21422
21420
21415
21416
21448
21492
21544
21622
21726
21844
21976
22129
22302
22478
22643
22792
22931
23070
23213
23351
23478
23593
23687
23761
23825
23882
23933
23983
24025
24054
24071
24083
24086
24074
24056
24049
24061
24074
24080
24086
24095
24093
24081
24082
24097
24110
24119
24135
24151
24159
24165
24178
24190
24194
24191
24189
24204
24233
24267
24303
24340
24373
24404
24433
24452
24467
24500
24548
24585
24601
24611
24629
24651
24673
24693
24713
24731
24735
24728
24710
24684
24665
24661
24656
24636
24607
24580
24559
24537
24524
24527
24536
24537
24525
24500
24474
24453
24428
24412
24409
24393
24367
24352
24342
24326
24310
24291
24264
24220
24175
24148
24126
24099
24083
24079
24081
24081
24064
24038
24006
23961
23909
23861
23821
23799
23798
23809
23817
23816
23817
23821
23811
23785
23757
23730
23702
23676
23652
23624
23586
23553
23539
23534
23522
23495
23457
23422
23400
23400
23415
23423
23418
23412
23406
23381
23336
23291
23256
23217
23162
23108
23078
23064
23043
23020
23004
22983
22954
22918
22867
22807
22753
22716
22682
22644
22609
22586
22581
22582
22586
22594
22591
22572
22546
22508
22454
22385
22317
22271
22236
22206
22190
22184
22184
22202
22254
22339
22439
22549
22677
22820
22977
23149
23329
23506
23669
23817
23952
24070
24172
24265
24358
24445
24523
24594
24651
24691
24712
24723
24731
24730
24714
24701
24702
24709
24726
24753
24787
24820
24835
24828
24802
24763
24721
24691
24682
24682
24682
24688
24699
24712
24725
24740
24770
24802
24825
24853
24904
24958
24996
25029
25063
25104
25155
25207
25244
25262
25284
25323
25360
25381
25394
25409
25417
25399
25362
25325
25295
25280
25279
25278
25267
25251
25242
25241
25227
25192
25151
25117
25083
25043
25018
25016
25026
25046
25067
25075
25066
25044
25022
24998
24959
24911
24878
24859
24840
24816
24796
24787
24779
24768
24759
24745
24728
24717
24712
24710
24706
24701
24685
24651
24605
24567
24556
24562
24560
24550
24538
24509
24469
24435
24404
24367
24332
24314
24305
24281
24248
24221
24201
24190
24188
24177
24149
24110
24068
24024
23979
23937
23899
23873
23853
23834
23822
23809
23793
23784
23776
23760
23739
23723
23720
23722
23715
23694
23653
23598
23535
23482
23453
23434
23409
23386
23375
23359
23317
23259
23210
23171
23127
23076
23039
23027
23023
23010
22994
22969
22927
22884
22855
22846
22844
22851
22886
22945
23001
23067
23168
23292
23414
23534
23671
23823
23971
24110
24243
24369
24494
24620
24740
24852
24962
25069
25166
25254
25345
25430
25497
25543
25568
25594
25620
25626
25622
25620
25605
25585
25578
25568
25554
25555
25579
25628
25682
25720
25746
25761
25767
25768
25782
25817
25849
25853
25835
25823
25821
25810
25795
25798
25820
25850
25886
25922
25943
25959
25997
26050
26100
26149
26201
26245
26280
26302
26305
26287
26265
26251
26238
26219
26208
26211
26222
26221
26206
26199
26194
26175
26155
26145
26140
26129
26114
26103
26085
26039
25970
25913
25880
25854
25829
25800
25764
25728
25706
25695
25697
25711
25723
25715
25695
25672
25655
25654
25653
25624
25581
25558
25551
25538
25519
25486
25436
25395
25376
25360
25346
25341
25351
25367
25367
25352
25339
25321
25295
25262
25222
25176
25125
25082
25058
25042
25022
24991
24946
24896
24842
24788
24741
24697
24651
24611
24593
24589
24577
24552
24518
24489
24463
24439
24430
24422
24403
24383
24360
24322
24267
24203
24142
24080
24020
23972
23937
23914
23905
23906
23902
23891
23881
23876
23865
23846
23831
23813
23777
23722
23657
23595
23545
23497
23440
23389
23357
23342
23339
23339
23337
23331
23329
23354
23413
23508
23633
23766
23896
24029
24159
24283
24413
24549
24680
24806
24938
25086
25248
25411
25561
25685
25772
25817
25840
25864
25894
25909
25903
25892
25888
25881
25852
25820
25820
25843
25852
25847
25844
25842
25846
25860
25881
25910
25930
25943
25958
25968
25972
25988
26016
26040
26065
26102
26138
26152
26148
26143
26154
26167
26160
26140
26121
26102
26091
26099
26130
26168
26208
26248
26279
26304
26333
26358
26363
26359
26348
26318
26271
26218
26173
26137
26101
26077
26066
26047
26022
26003
25987
25972
25960
25946
25921
25888
25858
25823
25779
25726
25663
25596
25539
25508
25498
25487
25466
25441
25419
25395
25381
25391
25408
25405
25387
25377
25367
25348
25340
25339
25323
25291
25257
25222
25186
25157
25128
25101
25083
25075
25063
25036
24998
24963
24934
24900
24869
24845
24825
24813
24803
24782
24751
24712
24677
24652
24617
24562
24502
24441
24384
24338
24306
24289
24277
24261
24238
24211
24182
24159
24143
24123
24090
24038
23985
23948
23915
23876
23829
23786
23744
23700
23672
23657
23637
23618
23602
23582
23555
23531
23517
23503
23478
23437
23391
23343
23288
23230
23181
23135
23087
23049
23025
23003
22983
22970
22973
23001
23036
23068
23118
23189
23271
23367
23471
23586
23713
23842
23978
24134
24302
24462
24602
24727
24842
24945
25033
25094
25131
25160
25192
25233
25273
25298
25306
25304
25306
25315
25326
25339
25344
25335
25329
25328
25322
25315
25315
25322
25337
25351
25344
25323
25308
25295
25281
25272
25265
25260
25259
25246
25225
25211
25208
25219
25244
25269
25292
25333
25393
25458
25513
25541
25548
25538
25520
25508
25517
25544
25565
25577
25584
25582
25568
25552
25554
25575
25591
25593
25592
25594
25585
25562
25538
25515
25486
25457
25432
25396
25350
25307
25264
25218
25170
25137
25123
25113
25110
25114
25116
25124
25130
25126
25112
25096
25085
25074
25051
25013
24969
24931
24904
24880
24860
24845
24831
24818
24803
24785
24776
24789
24812
24820
24815
24802
24777
24744
24702
24659
24631
24606
24578
24551
24514
24476
24446
24425
24412
24393
24367
24343
24314
24280
24244
24219
24207
24185
24141
24094
24060
24039
24029
24034
24056
24082
24090
24081
24061
24018
23952
23881
23822
23767
23707
23645
23584
23527
23484
23467
23469
23464
23453
23462
23485
23498
23504
23502
23478
23432
23379
23332
23276
23210
23157
23131
23138
23166
23198
23231
23267
23313
23372
23450
23548
23659
23779
23921
24087
24263
24443
24634
24821
24981
25103
25201
25293
25383
25464
25536
25591
25619
25627
25626
25623
25613
25594
25575
25559
25554
25571
25590
25601
25606
25600
25589
25580
25572
25572
25581
25597
25611
25616
25614
25606
25599
25603
25608
25617
25625
25623
25616
25617
25633
25670
25710
25735
25752
25764
25776
25799
25834
25874
25902
25910
25916
25937
25964
25988
26017
26039
26031
26001
25973
25957
25937
25911
25886
25862
25834
25800
25757
25716
25680
25646
25621
25602
25579
25560
25550
25540
25530
25526
25529
25531
25526
25518
25510
25493
25466
25439
25411
25381
25350
25318
25288
25263
25233
25194
25154
25120
25092
25066
25040
25018
25002
24998
25003
25005
24989
24961
24937
24927
24922
24918
24904
24865
24811
24759
24712
24671
24642
24621
24607
24604
24608
24612
24606
24587
24553
24510
24460
24408
24361
24318
24267
24212
24166
24131
24104
24082
24064
24052
24042
24023
24008
24002
23985
23952
23911
23864
23815
23762
23707
23661
23634
23619
23612
23604
23588
23568
23546
23528
23512
23495
23477
23455
23418
23366
23313
23274
23243
23205
23152
23091
23044
23018
23002
22989
22979
22976
22987
23016
23058
23120
23206
23308
23426
23557
23688
23820
23969
24139
24315
24486
24652
24798
24914
25016
25114
25196
25258
25309
25353
25389
25417
25436
25453
25463
25455
25433
25405
25378
25347
25316
25295
25284
25276
25274
25287
25318
25360
25408
25463
25514
25551
25578
25601
25614
25614
25604
25588
25576
25574
25584
25596
25597
25590
25582
25585
25600
25621
25650
25683
25708
25724
25744
25771
25786
25786
25784
25790
25796
25800
25802
25804
25797
25777
25757
25747
25739
25729
25716
25693
25655
25609
25562
25522
25488
25468
25470
25478
25480
25468
25441
25409
25390
25384
25383
25383
25384
25377
25352
25313
25268
25221
25171
25122
25088
25074
25064
25049
25035
25021
24994
24956
24926
24915
24913
24912
24921
24936
24936
24922
24903
24875
24841
24810
24782
24754
24727
24702
24675
24636
24583
24529
24482
24445
24417
24396
24380
24366
24358
24352
24327
24279
24229
24192
24157
24113
24075
24047
24021
23992
23952
23900
23841
23776
23710
23652
23613
23593
23585
23588
23596
23604
23605
23597
23576
23545
23509
23476
23450
23414
23363
23315
23287
23264
23226
23177
23130
23092
23060
23038
23022
22998
22962
22917
22868
22829
22800
22775
22746
22711
22675
22648
22637
22629
22615
22603
22591
22577
22571
22583
22612
22659
22724
22810
22918
23044
23189
23346
23507
23663
23814
23965
24102
24212
24300
24370
24426
24477
24528
24586
24655
24731
24805
24855
24876
24889
24897
24883
24856
24843
24853
24870
24877
24881
24902
24932
24948
24953
24951
24934
24909
24894
24888
24877
24856
24833
24821
24817
24816
24821
24842
24871
24893
24908
24925
24937
24938
24940
24959
24996
25044
25094
25137
25166
25184
25195
25192
25171
25148
25134
25134
25153
25180
25204
25224
25234
25227
25212
25199
25183
25158
25133
25110
25086
25073
25078
25082
25075
25071
25072
25063
25041
25018
24989
24945
24893
24845
24807
24776
24752
24729
24710
24703
24702
24698
24685
24661
24638
24621
24608
24598
24595
24599
24598
24583
24562
24550
24538
24510
24473
24439
24404
24369
24340
24320
24306
24298
24290
24282
24278
24274
24265
24242
24203
24160
24125
24100
24078
24057
24040
24019
23991
23955
23919
23885
23849
23811
23774
23744
23719
23696
23671
23641
23608
23577
23554
23546
23543
23538
23521
23482
23431
23385
23349
23312
23270
23231
23201
23170
23126
23085
23065
23062
23067
23072
23064
23035
23001
22978
22949
22903
22859
22832
22810
22781
22749
22722
22702
22678
22643
22598
22553
22507
22470
22456
22469
22510
22579
22667
22767
22888
23036
23198
23363
23526
23683
23829
23959
24079
24196
24310
24415
24506
24591
24664
24709
24730
24750
24781
24815
24839
24852
24849
24831
24813
24806
24801
24785
24766
24753
24735
24707
24680
24670
24680
24705
24743
24790
24830
24864
24893
24905
24895
24879
24878
24895
24918
24932
24936
24936
24924
24904
24893
24896
24908
24922
24945
24980
25012
25032
25048
25064
25076
25085
25098
25112
25124
25139
25153
25150
25129
25094
25047
24997
24948
24909
24888
24882
24875
24860
24839
24809
24766
24720
24678
24633
24593
24571
24565
24563
24556
24541
24517
24488
24463
24446
24428
24402
24372
24345
24316
24287
24270
24267
24262
24256
24251
24248
24241
24220
24198
24183
24166
24139
24124
24128
24142
24155
24169
24180
24168
24124
24061
24002
23959
23932
23916
23901
23887
23869
23842
23816
23793
23778
23764
23733
23688
23642
23591
23548
23518
23487
23460
23438
23400
23349
23313
23279
23239
23205
23174
23138
23089
23032
22985
22951
22920
22883
22845
22815
22796
22800
22808
22801
22792
22785
22762
22722
22675
22629
22598
22575
22541
22504
22473
22440
22403
22371
22341
22308
22275
22241
22207
22186
22181
22175
22160
22151
22152
22163
22179
22190
22208
22237
22274
22312
22356
22423
22511
22608
22716
22838
22968
23106
23255
23415
23573
23707
23822
23929
24024
24100
24161
24198
24210
24209
24213
24236
24261
24268
24277
24289
24278
24244
24202
24166
24146
24138
24134
24128
24117
24116
24136
24168
24197
24206
24205
24205
24194
24179
24182
24198
24201
24199
24204
24204
24200
24207
24218
24229
24241
24268
24307
24340
24370
24397
24404
24400
24402
24407
24406
24408
24404
24387
24358
24325
24303
24294
24282
24267
24263
24269
24277
24286
24292
24283
24252
24210
24175
24158
24149
24142
24137
24119
24080
24037
24010
23998
23983
23962
23935
23906
23885
23874
23867
23867
23869
23869
23870
23870
23862
23838
23792
23732
23678
23634
23608
23592
23563
23531
23522
23524
23508
23466
23413
23358
23301
23245
23199
23169
23158
23176
23220
23259
23274
23267
23239
23192
23142
23097
23059
23032
23018
23012
22996
22959
22917
22882
22855
22830
22798
22763
22728
22689
22640
22589
22551
22529
22526
22539
22537
22515
22487
22452
22408
22364
22312
22255
22203
22153
22108
22065
22021
21989
21974
21959
21937
21912
21883
21855
21840
21831
21808
21769
21717
21674
21657
21650
21631
21611
21605
21594
21570
21544
21507
21456
21400
21344
21300
21283
21280
21279
21290
21306
21323
21353
21406
21485
21597
21736
21883
22036
22187
22330
22472
22609
22730
22834
22921
22988
23052
23125
23190
23235
23266
23296
23320
23325
23317
23309
23299
23286
23271
23260
23254
23245
23241
23243
23235
23223
23225
23241
23264
23291
23317
23332
23323
23295
23268
23246
23226
23208
23196
23191
23193
23195
23201
23221
23241
23250
23251
23258
23284
23324
23367
23408
23442
23474
23514
23553
23575
23589
23605
23614
23605
23572
23530
23503
23487
23474
23469
23471
23472
23478
23484
23479
23461
23441
23419
23389
23355
23326
23304
23284
23265
23251
23238
23218
23195
23175
23149
23112
23082
23065
23042
23003
22957
22913
22880
22862
22844
22821
22806
22800
22799
22801
22804
22807
22810
22806
22796
22790
22797
22811
22822
22819
22804
22780
22753
22728
22708
22689
22663
22633
22602
22566
22528
22498
22482
22483
22484
22481
22481
22484
22471
22438
22394
22346
22295
22251
22222
22204
22188
22169
22145
22118
22089
22063
22042
22020
21995
21976
21957
21928
21894
21863
21832
21794
21751
21715
21696
21690
21686
21686
21681
21656
21606
21554
21515
21482
21461
21463
21478
21489
21494
21489
21464
21432
21407
21387
21362
21325
21280
21236
21202
21178
21166
21170
21179
21189
21214
21266
21344
21440
21554
21680
21807
21926
22043
22165
22290
22410
22525
22638
22739
22831
22928
23025
23113
23186
23245
23290
23323
23346
23362
23372
23375
23372
23353
23327
23299
23275
23265
23263
23267
23281
23297
23308
23316
23327
23342
23356
23366
23380
23392
23390
23376
23369
23370
23370
23366
23363
23365
23370
23380
23396
23416
23439
23462
23492
23528
23559
23586
23609
23626
23635
23646
23667
23692
23705
23702
23686
23657
23618
23577
23549
23539
23540
23545
23553
23561
23564
23566
23562
23551
23542
23538
23531
23514
23482
23437
23387
23349
23331
23324
23317
23304
23285
23276
23274
23257
23218
23174
23132
23085
23043
23016
22998
22979
22966
22966
22969
22965
22962
22964
22963
22958
22963
22974
22980
22979
22982
22993
22997
22982
22954
22921
22885
22850
22816
22778
22740
22714
22694
22670
22643
22611
22572
22532
22505
22498
22506
22510
22497
22474
22447
22414
22375
22341
22319
22297
22264
22226
22195
22171
22147
22120
22090
22057
22028
22006
21985
21956
21921
21885
21854
21833
21813
21792
21773
21749
21717
21691
21670
21650
21634
21618
21594
21560
21517
21473
21433
21395
21361
21334
21303
21258
21202
21157
21133
21124
21131
21151
21176
21198
21211
21220
21236
21273
21339
21434
21555
21691
21836
21992
22152
22309
22459
22592
22702
22799
22890
22966
23020
23059
23095
23125
23145
23160
23171
23174
23175
23181
23197
23223
23244
23262
23278
23285
23281
23273
23266
23253
23235
23219
23211
23202
23188
23179
23170
23149
23121
23101
23089
23081
23079
23090
23111
23127
23134
23145
23168
23199
23237
23284
23326
23358
23391
23430
23463
23482
23495
23511
23528
23539
23552
23566
23554
23524
23496
23462
23414
23363
23314
23267
23224
23195
23186
23186
23180
23164
23154
23159
23164
23165
23171
23173
23151
23116
23089
23067
23050
23041
23042
23043
23028
22994
22946
22895
22863
22859
22874
22892
22908
22911
22893
22854
22800
22745
22697
22657
22621
22604
22613
22635
22661
22688
22714
22726
22716
22695
22673
22648
22613
22575
22539
22496
22450
22414
22393
22386
22388
22381
22353
22309
22263
22228
22197
22163
22130
22108
22097
22085
22069
22058
22053
22049
22041
22028
22009
21983
21953
21928
21909
21885
21856
21826
21797
21771
21753
21746
21728
21686
21640
21606
21567
21521
21481
21447
21412
21374
21340
21315
21296
21280
21270
21262
21249
21242
21249
21268
21283
21286
21292
21306
21332
21370
21423
21494
21582
21689
21820
21968
22121
22271
22413
22541
22659
22770
22872
22954
23016
23073
23129
23175
23206
23229
23251
23266
23273
23276
23273
23258
23235
23220
23217
23215
23217
23229
23246
23252
23249
23248
23248
23236
23214
23191
23168
23144
23129
23126
23132
23144
23162
23187
23208
23222
23239
23253
23255
23261
23282
23310
23339
23367
23390
23400
23401
23405
23422
23442
23452
23458
23471
23493
23509
23514
23523
23532
23529
23523
23520
23514
23506
23506
23513
23515
23507
23490
23465
23432
23389
23340
23293
23255
23217
23178
23151
23135
23122
23112
23105
23095
23082
23074
23067
23055
23041
23040
23046
23042
23025
23002
22973
22931
22886
22848
22808
22769
22746
22744
22757
22776
22793
22807
22813
22805
22790
22767
22736
22705
22684
22672
22655
22629
22605
22581
22547
22512
22488
22473
22461
22450
22445
22440
22422
22398
22377
22358
22334
22301
22268
22239
22202
22161
22120
22075
22029
21993
21968
21945
21916
21896
21899
21906
21897
21870
21834
21795
21755
21710
21663
21613
21568
21530
21504
21493
21492
21489
21473
21442
21414
21399
21391
21383
21382
21389
21389
21384
21380
21383
21389
21384
21365
21341
21318
21302
21298
21315
21363
21448
21568
21716
21870
22020
22171
22317
22459
22600
22748
22897
23035
23164
23290
23404
23496
23563
23614
23655
23685
23702
23715
23730
23737
23735
23726
23712
23698
23695
23702
23716
23731
23739
23744
23743
23732
23723
23723
23731
23745
23771
23811
23856
23900
23940
23978
24012
24040
24064
24084
24103
24117
24129
24146
24165
24187
24210
24229
24237
24230
24215
24197
24174
24148
24130
24124
24128
24142
24161
24175
24175
24163
24150
24150
24159
24173
24194
24223
24256
24284
24297
24285
24250
24207
24168
24126
24079
24039
24010
23979
23949
23933
23928
23926
23923
23919
23910
23899
23896
23907
23919
23915
23904
23897
23889
23874
23852
23824
23798
23780
23775
23781
23776
23761
23750
23741
23741
23749
23749
23734
23703
23669
23643
23610
23563
23520
23485
23459
23439
23423
23415
23416
23417
23409
23394
23377
23357
23326
23277
23219
23172
23150
23153
23152
23129
23089
23048
23016
22985
22959
22948
22935
22915
22892
22871
22849
22820
22787
22749
22700
22648
22603
22572
22555
22544
22523
22493
22465
22431
22394
22359
22325
22304
22294
22280
22270
22264
22259
22246
22218
22184
22156
22136
22113
22079
22032
21970
21902
21839
21792
21756
21722
21706
21722
21761
21811
21879
21964
22060
22172
22303
22448
22599
22753
22919
23097
23265
23411
23546
23678
23806
23925
24028
24113
24179
24223
24256
24288
24319
24345
24363
24379
24399
24425
24457
24483
24483
24470
24470
24487
24494
24492
24500
24502
24491
24487
24500
24519
24529
24531
24533
24533
24521
24504
24487
24462
24434
24424
24438
24465
24484
24496
24525
24579
24645
24709
24757
24777
24789
24820
24853
24870
24889
24920
24935
24933
24932
24937
24951
24965
24978
24994
24995
24977
24963
24961
24957
24943
24926
24928
24950
24976
24997
24999
24975
24939
24903
24861
24809
24754
24708
24677
24663
24651
24632
24604
24565
24523
24493
24483
24487
24504
24526
24537
24531
24523
24531
24541
24533
24511
24486
24465
24449
24440
24445
24461
24465
24460
24459
24461
24455
24441
24415
24379
24340
24306
24273
24235
24199
24181
24161
24127
24089
24065
24063
24078
24099
24109
24093
24062
24037
24017
23994
23955
23905
23850
23798
23764
23744
23726
23716
23701
23683
23677
23675
23664
23646
23627
23616
23602
23575
23545
23513
23480
23441
23394
23344
23302
23284
23273
23259
23250
23248
23241
23207
23158
23121
23102
23088
23070
23054
23055
23089
23142
23202
23276
23372
23482
23606
23742
23885
24037
24205
24387
24578
24772
24947
25087
25202
25322
25447
25555
25648
25736
25798
25833
25861
25885
25897
25892
25884
25884
25892
25903
25910
25918
25920
25906
25888
25880
25871
25852
25837
25830
25823
25825
25850
25894
25934
25960
25982
26016
26061
26094
26114
26137
26161
26168
26167
26174
26189
26212
26251
26294
26314
26315
26331
26372
26416
26445
26466
26483
26482
26457
26424
26396
26380
26371
26374
26391
26417
26445
26469
26475
26456
26426
26396
26363
26328
26296
26273
26247
26213
26178
26150
26132
26113
26092
26072
26044
26005
25969
25939
25915
25892
25873
25867
25863
25855
25846
25829
25807
25784
25758
25728
25701
25686
25676
25659
25637
25620
25603
25578
25553
25525
25495
25472
25453
25434
25423
25415
25398
25375
25354
25331
25305
25280
25256
25229
25198
25165
25129
25094
25058
25014
24971
24930
24892
24861
24833
24805
24782
24768
24754
24730
24697
24663
24626
24578
24520
24464
24415
24370
24331
24301
24270
24232
24195
24165
24128
24082
24043
24010
23969
23918
23864
23819
23784
23751
23719
23687
23651
23617
23589
23567
23551
23540
23530
23520
23507
23493
23481
23472
23473
23492
23535
23606
23696
23798
23916
24049
24193
24339
24491
24649
24808
24961
25112
25264
25409
25548
25678
25783
25866
25933
25984
26018
26044
26071
26091
26097
26096
26094
26086
26059
26018
25984
25958
25936
25930
25945
25969
25993
26021
26053
26077
26085
26085
26085
26080
26066
26051
26045
26049
26054
26061
26070
26077
26083
26088
26097
26116
26135
26150
26166
26185
26203
26222
26247
26280
26318
26360
26395
26420
26439
26460
26472
26469
26464
26471
26487
26495
26482
26450
26414
26376
26333
26298
26265
26228
26192
26159
26121
26070
26017
25975
25951
25942
25942
25934
25911
25884
25861
25836
25803
25768
25737
25712
25698
25698
25709
25715
25700
25663
25627
25608
25602
25608
25624
25638
25634
25618
25603
25581
25551
25524
25505
25497
25493
25489
25483
25462
25420
25376
25349
25327
25293
25251
25214
25175
25128
25089
25063
25045
25034
25030
25025
25009
24982
24949
24907
24860
24816
24773
24729
24693
24676
24682
24700
24707
24705
24699
24680
24642
24591
24537
24488
24441
24399
24367
24337
24301
24263
24225
24184
24145
24115
24095
24074
24045
24008
23969
23936
23910
23898
23901
23904
23906
23920
23943
23957
23962
23985
24032
24092
24169
24279
24429
24598
24766
24929
25094
25261
25426
25582
25721
25844
25970
26102
26215
26306
26377
26427
26461
26473
26462
26444
26430
26420
26416
26416
26410
26393
26372
26356
26344
26341
26350
26365
26371
26363
26345
26319
26290
26272
26280
26301
26317
26332
26352
26373
26390
26399
26396
26385
26371
26363
26363
26362
26352
26342
26344
26357
26380
26425
26481
26522
26544
26567
26594
26624
26655
26684
26703
26703
26690
26666
26629
26589
26562
26552
26545
26526
26491
26448
26400
26357
26333
26323
26310
26281
26241
26202
26158
26105
26053
26018
25989
25961
25948
25946
25943
25938
25937
25938
25932
25916
25902
25887
25865
25850
25848
25844
25826
25791
25749
25710
25673
25629
25581
25537
25502
25464
25417
25366
25316
25274
25247
25229
25217
25209
25207
25211
25220
25222
25209
25181
25155
25138
25127
25116
25101
25087
25077
25061
25024
24970
24912
24849
24784
24735
24702
24673
24643
24615
24584
24542
24502
24475
24456
24426
24375
24317
24266
24217
24182
24175
24185
24195
24195
24177
24139
24090
24045
24015
23992
23967
23941
23920
23894
23861
23831
23810
23801
23802
23818
23862
23937
24037
24150
24264
24390
24547
24725
24902
25071
25241
25422
25602
25771
25928
26071
26193
26290
26374
26451
26507
26528
26534
26541
26544
26540
26532
26519
26505
26495
26490
26488
26494
26505
26515
26514
26512
26521
26531
26539
26556
26575
26596
26628
26659
26690
26717
26732
26733
26720
26704
26685
26662
26653
26665
26686
26703
26712
26726
26756
26780
26789
26800
26816
26837
26858
26869
26873
26876
26876
26882
26895
26902
26900
26894
26876
26848
26826
26812
26802
26792
26781
26771
26752
26717
26680
26656
26644
26636
26625
26597
26554
26521
26498
26474
26455
26450
26453
26452
26455
26463
26466
26455
26423
26379
26335
26289
26238
26189
26146
26111
26083
26070
26065
26055
26039
26028
26028
26031
26020
26004
25991
25965
25923
25875
25835
25807
25775
25743
25723
25699
25665
25627
25589
25552
25522
25496
25467
25434
25400
25368
25336
25298
25255
25224
25195
25157
25117
25073
25017
24957
24917
24895
24871
24844
24823
24803
24772
24732
24692
24643
24587
24540
24511
24496
24480
24458
24443
24433
24411
24379
24353
24324
24283
24250
24224
24191
24147
24099
24058
24028
24005
23977
23945
23924
23915
23914
23915
23902
23873
23857
23861
23875
23907
23960
24029
24110
24205
24330
24484
24652
24821
24981
25132
25283
25442
25596
25729
25846
25953
26039
26101
26156
26205
26238
26256
26261
26251
26236
26221
26206
26201
26217
26249
26276
26290
26296
26295
26294
26305
26317
26315
26308
26307
26320
26346
26369
26385
26398
26399
26387
26384
26396
26405
26409
26422
26443
26453
26455
26475
26501
26504
26496
26502
26526
26553
26566
26570
26569
26568
26582
26615
26647
26669
26686
26695
26691
26671
26652
26640
26625
26605
26592
26596
26612
26623
26621
26610
26591
26563
26525
26479
26439
26414
26398
26382
26364
26351
26347
26336
26310
26269
26226
26189
26143
26088
26042
26014
26001
25990
25985
25988
25980
25962
25945
25927
25917
25920
25936
25944
25933
25911
25887
25869
25853
25833
25812
25783
25748
25721
25704
25691
25668
25638
25610
25569
25522
25492
25476
25458
25448
25456
25468
25468
25452
25438
25420
25372
25297
25220
25152
25100
25063
25044
25022
24981
24930
24886
24852
24817
24787
24776
24768
24752
24731
24719
24718
24721
24719
24696
24650
24594
24531
24472
24425
24399
24381
24347
24296
24247
24212
24182
24145
24100
24052
24003
23949
23893
23848
23829
23839
23872
23921
23979
24041
24114
24197
24284
24383
24503
24636
24773
24921
25078
25239
25399
25544
25679
25820
25946
26034
26092
26127
26147
26168
26191
26219
26251
26272
26284
26305
26327
26348
26380
26414
26436
26452
26471
26486
26495
26506
26521
26531
26522
26494
26454
26405
26358
26318
26283
26258
26243
26234
26230
26226
26223
26232
26251
26262
26268
26287
26317
26339
26352
26368
26387
26410
26439
26484
26538
26579
26594
26593
26597
26608
26624
26644
26660
26668
26676
26689
26692
26667
26628
26588
26535
26476
26443
26434
26416
26380
26349
26324
26290
26262
26258
26259
26234
26188
26144
26103
26057
26018
25997
25981
25964
25953
25946
25929
25896
25851
25808
25776
25742
25714
25716
25735
25742
25739
25748
25762
25768
25765
25754
25728
25685
25638
25591
25544
25503
25480
25474
25464
25431
25381
25326
25268
25209
25168
25147
25121
25083
25045
25010
24976
24952
24943
24942
24932
24912
24888
24854
24816
24791
24786
24786
24777
24757
24727
24685
24636
24594
24553
24503
24443
24386
24341
24307
24282
24270
24261
24245
24229
24220
24214
24189
24139
24080
24027
23964
23900
23867
23862
23856
23841
23832
23818
23779
23726
23666
23609
23555
23512
23496
23495
23495
23503
23518
23528
23532
23553
23612
23700
23808
23930
24052
24170
24305
24476
24664
24842
25014
25181
25340
25485
25601
25694
25780
25853
25915
25975
26034
26087
26131
26167
26197
26217
26223
26221
26216
26207
26201
26210
26222
26219
26201
26178
26159
26158
26184
26230
26275
26311
26334
26332
26306
26270
26240
26214
26193
26187
26197
26212
26225
26236
26247
26263
26288
26322
26362
26400
26421
26423
26422
26427
26436
26449
26458
26461
26466
26473
26487
26495
26491
26493
26510
26515
26494
26468
26454
26433
26393
26352
26324
26304
26290
26283
26270
26245
26221
26202
26172
26132
26097
26070
26048
26018
25987
25966
25954
25951
25947
25931
25903
25870
25839
25811
25786
25747
25697
25656
25629
25611
25594
25577
25557
25533
25509
25481
25452
25429
25402
25375
25350
25315
25281
25267
25257
25243
25232
25215
25183
25136
25081
25032
24993
24970
24962
24957
24940
24920
24910
24910
24902
24881
24870
24861
24832
24789
24737
24671
24599
24527
24471
24433
24399
24381
24382
24378
24345
24302
24278
24266
24251
24238
24223
24195
24154
24122
24094
24042
23976
23918
23867
23815
23770
23738
23699
23645
23591
23557
23539
23516
23492
23483
23476
23474
23482
23490
23494
23490
23477
23453
23419
23382
23353
23331
23311
23300
23316
23378
23477
23597
23730
23860
23987
24129
24297
24478
24638
24764
24873
24979
25075
25163
25246
25317
25368
25404
25430
25456
25497
25549
25599
25648
25681
25694
25702
25715
25725
25718
25687
25642
25589
25544
25527
25528
25533
25550
25577
25600
25610
25605
25590
25572
25568
25582
25589
25570
25542
25531
25534
25541
25557
25588
25625
25647
25662
25695
25741
25778
25805
25834
25867
25890
25898
25900
25904
25909
25914
25925
25937
25938
25928
25908
25877
25842
25798
25744
25685
25629
25585
25565
25557
25555
25559
25564
25572
25576
25559
25530
25497
25455
25409
25365
25327
25309
25308
25303
25286
25262
25248
25249
25242
25221
25202
25193
25183
25171
25178
25192
25192
25182
25163
25137
25111
25091
25066
25022
24967
24921
24898
24892
24891
24892
24892
24874
24830
24780
24738
24692
24633
24579
24541
24501
24462
24440
24423
24396
24358
24313
24260
24211
24193
24197
24201
24200
24190
24160
24116
24067
24018
23975
23936
23910
23894
23876
23859
23846
23832
23820
23809
23783
23740
23697
23663
23631
23593
23559
23539
23528
23512
23489
23466
23443
23425
23408
23373
23330
23295
23259
23212
23156
23100
23058
23034
23023
23021
23021
23023
23036
23081
23149
23215
23287
23384
23498
23623
23757
23899
24050
24212
24391
24583
24764
24929
25088
25244
25379
25488
25591
25684
25744
25776
25789
25795
25802
25803
25804
25808
25803
25792
25779
25759
25735
25728
25743
25766
25790
25825
25869
25909
25937
25958
25980
25990
25983
25981
25982
25979
25971
25956
25931
25904
25883
25869
25863
25867
25884
25914
25950
25993
26038
26086
26134
26162
26178
26215
26272
26321
26357
26386
26405
26414
26419
26423
26415
26387
26363
26351
26336
26299
26258
26237
26222
26195
26158
26122
26086
26049
26012
25976
25937
25898
25862
25826
25790
25757
25727
25697
25671
25658
25659
25662
25656
25651
25655
25661
25665
25656
25637
25613
25579
25530
25479
25447
25444
25458
25469
25461
25431
25397
25380
25372
25357
25335
25310
25281
25255
25237
25222
25204
25181
25165
25166
25161
25129
25084
25050
25018
24981
24945
24901
24847
24790
24735
24680
24620
24566
24529
24515
24508
24498
24490
24485
24480
24467
24443
24408
24365
24321
24290
24271
24261
24262
24258
24244
24226
24200
24162
24110
24054
24015
23980
23932
23884
23859
23854
23841
23812
23776
23738
23693
23652
23618
23584
23541
23492
23456
23433
23406
23364
23313
23268
23240
23225
23212
23196
23170
23134
23089
23049
23027
23021
23036
23084
23162
23266
23381
23504
23659
23844
24025
24189
24354
24531
24698
24840
24972
25103
25227
25335
25430
25519
25601
25659
25692
25713
25734
25755
25764
25762
25751
25730
25716
25717
25722
25729
25746
25765
25762
25744
25731
25724
25728
25746
25765
25783
25806
25830
25853
25863
25859
25850
25837
25827
25823
25825
25835
25844
25847
25846
25844
25838
25825
25816
25827
25864
25909
25954
26001
26045
26083
26121
26174
26220
26243
26255
26255
26248
26238
26216
26190
26159
26120
26087
26064
26041
26012
25970
25919
25864
25809
25763
25732
25712
25709
25723
25741
25751
25748
25735
25712
25681
25652
25621
25585
25565
25563
25559
25542
25510
25476
25451
25423
25393
25370
25353
25331
25301
25267
25241
25221
25205
25193
25183
25171
25156
25145
25143
25144
25139
25131
25118
25095
25073
25064
25066
25056
25028
24993
24948
24904
24878
24863
24850
24831
24800
24768
24734
24689
24638
24592
24552
24516
24490
24477
24456
24420
24371
24311
24250
24209
24193
24177
24156
24143
24140
24140
24134
24120
24103
24077
24039
24006
23984
23964
23936
23893
23844
23802
23770
23744
23719
23692
23662
23633
23615
23602
23579
23540
23494
23446
23405
23372
23351
23339
23340
23358
23383
23416
23458
23511
23580
23665
23782
23944
24131
24313
24487
24656
24820
24974
25113
25247
25375
25481
25553
25605
25657
25708
25757
25794
25807
25803
25794
25778
25750
25719
25698
25683
25669
25658
25651
25651
25650
25649
25670
25708
25729
25729
25721
25712
25699
25683
25673
25664
25653
25649
25659
25683
25716
25755
25789
25804
25804
25801
25807
25833
25870
25913
25957
25978
25976
25968
25964
25975
26000
26036
26077
26111
26127
26130
26125
26104
26073
26048
26033
26023
26009
25993
25979
25958
25925
25885
25844
25812
25789
25766
25743
25718
25685
25641
25594
25556
25526
25491
25454
25426
25408
25402
25407
25415
25427
25439
25439
25429
25420
25407
25388
25363
25329
25292
25262
25241
25219
25198
25188
25174
25151
25125
25092
25057
25025
24990
24959
24942
24934
24927
24913
24891
24867
24839
24802
24762
24725
24689
24650
24611
24572
24530
24481
24429
24392
24366
24344
24326
24317
24315
24308
24292
24277
24268
24260
24252
24248
24240
24218
24187
24157
24136
24126
24118
24096
24057
24012
23968
23924
23883
23857
23843
23825
23792
23746
23704
23668
23629
23595
23567
23534
23494
23457
23426
23396
23364
23334
23313
23289
23250
23204
23158
23117
23095
23108
23157
23239
23351
23488
23627
23759
23901
24070
24256
24450
24650
24864
25080
25280
25451
25587
25695
25784
25865
25948
26026
26089
26148
26210
26272
26328
26372
26405
26430
26442
26442
26436
26427
26412
26393
26378
26370
26368
26376
26393
26412
26426
26446
26475
26495
26498
26496
26499
26491
26469
26453
26451
26453
26456
26472
26496
26519
26551
26589
26624
26652
26675
26693
26709
26729
26754
26777
26792
26801
26803
26809
26822
26832
26842
26862
26886
26901
26910
26917
26913
26904
26900
26888
26859
26828
26808
26796
26781
26763
26743
26724
26705
26676
26651
26639
26627
26619
26613
26601
26582
26557
26531
26505
26471
26429
26381
26338
26308
26291
26283
26274
26263
26249
26234
26211
26178
26150
26144
26145
26139
26140
26152
26160
26158
26145
26119
26087
26056
26034
26028
26023
25997
25962
25926
25873
25815
25772
25743
25722
25712
25709
25693
25655
25614
25579
25546
25512
25480
25461
25451
25437
25412
25381
25347
25310
25283
25271
25251
25208
25147
25076
25006
24944
24906
24883
24856
24826
24792
24750
24704
24667
24650
24644
24634
24613
24578
24537
24502
24466
24433
24399
24362
24334
24310
24278
24240
24201
24155
24105
24065
24040
24027
24024
24020
24013
24012
24013
24024
24061
24123
24200
24287
24388
24506
24633
24769
24913
25061
25211
25364
25525
25687
25835
25965
26087
26202
26299
26365
26412
26452
26480
26506
26545
26576
26579
26564
26545
26523
26507
26516
26544
26563
26563
26549
26527
26508
26504
26514
26531
26554
26570
26586
26615
26640
26641
26627
26616
26614
26622
26635
26648
26653
26655
26672
26702
26731
26757
26769
26776
26791
26815
26838
26857
26874
26885
26895
26917
26944
26976
27014
27036
27027
27000
26982
26972
26959
26953
26944
26918
26883
26848
26808
26766
26723
26687
26657
26619
26577
26548
26534
26525
26520
26526
26542
26548
26541
26533
26517
26496
26481
26469
26451
26423
26393
26362
26317
26271
26241
26216
26186
26149
26107
26080
26073
26078
26093
26107
26109
26104
26098
26081
26052
26017
25977
25931
25883
25839
25801
25765
25730
25702
25676
25645
25612
25590
25585
25585
25582
25575
25564
25550
25540
25538
25528
25500
25469
25444
25415
25383
25356
25331
25302
25266
25220
25168
25121
25070
25023
24998
24988
24977
24962
24949
24932
24896
24846
24797
24746
24693
24644
24605
24574
24558
24557
24558
24543
24514
24478
24444
24427
24421
24404
24379
24351
24326
24313
24311
24309
24298
24291
24305
24338
24382
24437
24509
24601
24708
24828
24955
25084
25215
25351
25499
25656
25823
25990
26142
26274
26388
26496
26598
26683
26747
26798
26848
26887
26921
26948
26952
26933
26908
26890
26881
26879
26882
26895
26914
26932
26955
26984
27019
27056
27102
27149
27175
27187
27205
27221
27219
27209
27203
27195
27185
27186
27194
27202
27215
27235
27275
27323
27357
27387
27417
27446
27474
27498
27507
27502
27489
27483
27490
27499
27511
27522
27521
27513
27512
27524
27539
27543
27532
27513
27486
27451
27415
27382
27342
27299
27260
27220
27177
27136
27101
27078
27060
27040
27018
26997
26978
26961
26953
26958
26964
26955
26929
26894
26860
26828
26801
26775
26750
26734
26728
26735
26749
26754
26749
26742
26731
26712
26692
26677
26664
26644
26621
26592
26551
26512
26496
26486
26459
26416
26365
26310
26252
26209
26197
26202
26210
26213
26201
26171
26129
26088
26054
26013
25961
25915
25896
25892
25873
25836
25797
25757
25712
25662
25615
25579
25553
25532
25505
25472
25441
25424
25428
25443
25449
25445
25431
25398
25347
25282
25208
25135
25076
25044
25024
25009
24996
24983
24969
24944
24903
24857
24812
24759
24703
24659
24622
24580
24538
24501
24468
24434
24393
24351
24317
24294
24284
24290
24321
24390
24484
24583
24680
24774
24878
25009
25165
25330
25504
25678
25833
25972
26114
26257
26381
26486
26585
26669
26723
26753
26771
26780
26779
26775
26777
26783
26784
26782
26787
26798
26809
26823
26840
26849
26850
26847
26842
26833
26828
26834
26845
26842
26823
26802
26780
26751
26727
26715
26712
26716
26715
26711
26713
26721
26739
26768
26800
26828
26858
26895
26930
26963
26997
27030
27054
27074
27093
27103
27093
27083
27088
27088
27065
27028
26988
26953
26921
26894
26880
26879
26875
26866
26861
26864
26863
26853
26844
26822
26777
26726
26679
26636
26598
26569
26559
26570
26588
26598
26589
26562
26529
26507
26498
26484
26455
26419
26376
26320
26267
26242
26234
26227
26231
26250
26260
26247
26230
26228
26245
26269
26290
26299
26291
26267
26246
26241
26242
26235
26221
26207
26189
26155
26116
26086
26052
25995
25923
25849
25780
25715
25664
25636
25625
25617
25602
25578
25546
25506
25470
25444
25413
25372
25334
25313
25298
25282
25278
25275
25262
25246
25231
25216
25198
25173
25142
25107
25066
25027
25005
24999
24998
25002
25011
25009
24989
24964
24945
24917
24863
24802
24762
24736
24706
24671
24639
24609
24584
24572
24580
24606
24650
24721
24812
24913
25024
25145
25277
25415
25560
25715
25864
25993
26109
26228
26345
26448
26542
26629
26698
26747
26791
26837
26874
26906
26947
26995
27031
27043
27036
27024
27019
27026
27038
27043
27037
27021
27010
27011
27018
27026
27032
27034
27031
27028
27025
27014
26999
26993
26999
27006
27009
27012
27028
27054
27073
27088
27108
27149
27205
27266
27327
27372
27385
27381
27378
27376
27378
27381
27372
27357
27348
27340
27332
27318
27295
27280
27287
27300
27305
27306
27296
27273
27243
27214
27195
27183
27180
27183
27180
27168
27158
27153
27143
27121
27095
27073
27043
27000
26963
26938
26907
26864
26824
26802
26794
26789
26784
26775
26764
26754
26752
26755
26754
26749
26742
26726
26688
26633
26585
26553
26525
26495
26471
26453
26430
26408
26396
26391
26377
26350
26317
26282
26243
26196
26145
26096
26052
26015
25988
25977
25975
25965
25949
25931
25902
25873
25861
25848
25831
25821
25809
25780
25733
25683
25651
25628
25600
25578
25563
25550
25538
25528
25504
25465
25427
25389
25351
25306
25261
25235
25226
25222
25217
25210
25202
25191
25183
25175
25154
25110
25056
25012
24974
24941
24920
24899
24866
24820
24771
24730
24699
24677
24664
24654
24632
24607
24595
24591
24600
24640
24715
24816
24923
25029
25147
25284
25429
25575
25730
25900
26076
26254
26430
26599
26756
26898
27012
27085
27126
27144
27150
27151
27145
27140
27144
27160
27191
27232
27269
27294
27308
27318
27330
27344
27357
27366
27371
27367
27351
27344
27349
27345
27333
27324
27316
27305
27291
27283
27284
27291
27304
27323
27343
27348
27349
27368
27394
27411
27430
27455
27472
27479
27495
27518
27541
27560
27578
27608
27646
27670
27667
27647
27629
27622
27617
27605
27581
27551
27526
27513
27503
27492
27476
27452
27421
27396
27383
27374
27362
27345
27332
27314
27271
27219
27175
27129
27086
27060
27039
27015
26999
27001
27012
27013
27000
26985
26978
26972
26960
26946
26931
26913
26894
26882
26873
26856
26834
26821
26807
26771
26718
26669
26623
26577
26540
26518
26496
26470
26442
26407
26369
26334
26299
26271
26260
26254
26243
26227
26204
26169
26141
26137
26135
26115
26079
26047
26023
25993
25958
25936
25923
25906
25896
25886
25861
25830
25809
25795
25773
25739
25694
25635
25570
25514
25480
25468
25462
25454
25451
25446
25418
25376
25340
25296
25244
25201
25154
25104
25069
25052
25048
25050
25052
25051
25049
25043
25032
25020
25000
24964
24924
24881
24820
24743
24667
24605
24560
24535
24536
24565
24610
24656
24716
24811
24932
25063
25216
25401
25600
25791
25974
26153
26321
26471
26595
26686
26759
26832
26901
26966
27037
27100
27147
27192
27229
27239
27231
27226
27230
27238
27257
27283
27306
27316
27307
27294
27279
27256
27236
27220
27205
27193
27189
27192
27205
27222
27221
27201
27169
27135
27121
27138
27166
27199
27235
27274
27315
27344
27360
27374
27391
27421
27460
27492
27508
27514
27516
27521
27530
27532
27532
27536
27529
27516
27513
27509
27510
27521
27525
27517
27510
27515
27519
27510
27494
27474
27446
27413
27391
27375
27344
27308
27275
27241
27213
27185
27156
27132
27107
27072
27037
27015
27008
27004
26993
26979
26965
26957
26948
26926
26894
26861
26836
26822
26815
26807
26782
26745
26714
26703
26709
26709
26694
26672
26647
26616
26579
26544
26515
26487
26463
26458
26463
26451
26416
26366
26311
26258
26211
26182
26166
26145
26119
26095
26066
26020
25964
25906
25853
25811
25782
25770
25766
25766
25760
25743
25711
25661
25608
25571
25537
25492
25441
25397
25364
25333
25299
25262
25227
25197
25171
25154
25130
25102
25085
25077
25066
25050
25031
25009
24988
24966
24942
24934
24929
24907
24886
24875
24860
24834
24791
24736
24674
24613
24568
24543
24521
24492
24446
24394
24348
24303
24267
24256
24259
24266
24290
24337
24399
24475
24567
24678
24798
24923
25059
25207
25371
25559
25760
25954
26132
26294
26435
26556
26661
26755
26830
26879
26913
26939
26960
26986
27017
27047
27069
27084
27099
27116
27136
27149
27153
27147
27127
27097
27063
27034
27015
27010
27019
27040
27070
27107
27137
27150
27150
27140
27127
27120
27124
27129
27127
27122
27121
27145
27197
27256
27295
27308
27313
27330
27354
27377
27395
27408
27416
27431
27450
27459
27455
27435
27406
27380
27359
27343
27333
27326
27318
27312
27304
27292
27275
27252
27217
27177
27141
27119
27105
27088
27063
27038
27016
26998
26980
26959
26928
26894
26865
26839
26812
26793
26789
26789
26782
26768
26762
26766
26767
26754
26728
26702
26676
26644
26609
26573
26525
26461
26407
26382
26365
26349
26351
26367
26380
26384
26378
26366
26351
26335
26325
26314
26279
26226
26185
26154
26108
26058
26022
25997
25967
25932
25894
25856
25830
25817
25798
25763
25712
25661
25624
25592
25570
25566
25574
25585
25596
25600
25589
25565
25530
25481
25429
25390
25354
25312
25273
25242
25208
25171
25141
25117
25093
25074
25063
25042
25015
24999
24994
24984
24970
24968
24968
24946
24914
24889
24867
24836
24793
24752
24717
24680
24649
24628
24597
24555
24524
24505
24487
24477
24474
24464
24442
24420
24420
24442
24475
24523
24591
24677
24772
24889
25042
25227
25420
25604
25792
25981
26147
26281
26395
26502
26599
26680
26759
26842
26920
26992
27055
27097
27122
27138
27146
27141
27127
27117
27121
27127
27112
27077
27040
27014
27008
27023
27043
27040
27009
26981
26973
26971
26969
26977
26982
26975
26972
26995
27031
27060
27096
27143
27176
27186
27196
27227
27275
27317
27346
27369
27392
27405
27408
27413
27415
27407
27394
27388
27391
27392
27398
27416
27429
27428
27418
27403
27384
27355
27325
27303
27273
27243
27238
27251
27256
27239
27209
27188
27181
27182
27185
27176
27150
27119
27089
27054
27017
26992
26974
26956
26938
26925
26915
26907
26900
26900
26906
26908
26906
26903
26897
26886
26860
26821
26778
26732
26684
26647
26624
26603
26580
26561
26547
26538
26531
26524
26512
26491
26469
26456
26452
26448
26439
26426
26406
26374
26328
26269
26202
26140
26089
26045
26000
25954
25921
25908
25895
25872
25851
25833
25805
25771
25739
25716
25696
25679
25666
25657
25637
25596
25547
25502
25459
25421
25393
25372
25346
25312
25273
25229
25182
25136
25107
25096
25082
25055
25032
25016
24999
24975
24945
24914
24881
24843
24809
24778
24750
24731
24706
24664
24618
24586
24571
24563
24560
24572
24598
24622
24644
24689
24764
24845
24937
25053
25186
25330
25484
25653
25836
26027
26216
26402
26576
26734
26879
27019
27153
27277
27389
27489
27575
27651
27708
27732
27724
27698
27672
27657
27654
27657
27654
27638
27624
27628
27645
27659
27662
27651
27635
27624
27611
27592
27579
27571
27559
27548
27541
27545
27556
27562
27571
27592
27620
27646
27669
27685
27690
27693
27705
27728
27758
27798
27849
27902
27947
27984
28016
28041
28059
28069
28068
28057
28041
28030
28021
28010
28003
28004
28008
28010
28011
28021
28037
28031
27994
27944
27897
27852
27809
27777
27750
27717
27675
27631
27588
27548
27515
27502
27505
27504
27492
27470
27439
27401
27370
27352
27347
27352
27366
27385
27399
27404
27398
27386
27361
27321
27285
27248
27204
27163
27133
27113
27098
27087
27079
27067
27041
27009
26982
26959
26933
26906
26886
26872
26855
26837
26817
26787
26751
26723
26696
26658
26619
26597
26593
26592
26576
26542
26501
26448
26381
26315
26262
26220
26187
26170
26162
26149
26128
26106
26084
26050
26011
25980
25954
25925
25896
25874
25847
25804
25758
25715
25672
25626
25587
25559
25532
25505
25489
25486
25477
25454
25430
25407
25382
25352
25313
25271
25231
25193
25163
25142
25119
25093
25079
25076
25072
25072
25096
25160
25256
25371
25506
25655
25809
25980
26177
26388
26595
26793
26995
27187
27342
27463
27574
27671
27748
27804
27848
27892
27933
27969
28005
28032
28042
28039
28029
28011
27985
27968
27969
27968
27956
27948
27947
27953
27967
27981
27985
27974
27952
27930
27908
27887
27875
27881
27903
27919
27933
27961
27986
28000
28014
28038
28072
28110
28151
28193
28234
28271
28312
28357
28401
28438
28472
28507
28534
28550
28561
28561
28555
28550
28541
28529
28523
28520
28520
28528
28529
28517
28504
28483
28440
28384
28332
28291
28259
28240
28233
28233
28230
28217
28202
28180
28139
28093
28054
28012
27959
27903
27848
27800
27761
27742
27746
27759
27775
27792
27810
27821
27820
27816
27810
27803
27793
27779
27753
27727
27709
27697
27688
27676
27657
27630
27593
27551
27519
27506
27504
27500
27490
27476
27448
27405
27357
27306
27246
27181
27128
27087
27054
27023
26996
26981
26981
26994
27006
26999
26977
26945
26905
26864
26827
26800
26783
26768
26740
26701
26667
26638
26604
26568
26530
26495
26460
26427
26404
26395
26398
26413
26433
26433
26404
26353
26289
26218
26146
26076
26014
25962
25920
25899
25895
25896
25895
25898
25903
25906
25915
25942
25989
26058
26154
26276
26426
26592
26757
26926
27109
27310
27523
27748
27969
28168
28347
28513
28666
28801
28932
29061
29161
29228
29282
29326
29353
29359
29355
29352
29355
29362
29372
29389
29401
29398
29391
29390
29390
29391
29398
29410
29424
29435
29442
29449
29461
29483
29514
29549
29583
29612
29630
29638
29639
29637
29646
29670
29702
29742
29791
29848
29913
29978
30039
30083
30103
30107
30101
30093
30077
30056
30047
30049
30052
30065
30091
30119
30140
30159
30168
30152
30111
30065
30026
29994
29986
30000
30008
29994
29968
29945
29920
29882
29834
29784
29738
29699
29665
29642
29640
29646
29641
29627
29607
29586
29571
29562
29550
29521
29483
29450
29433
29425
29416
29407
29404
29404
29393
29366
29324
29273
29226
29185
29148
29112
29085
29070
29056
29047
29047
29045
29041
29042
29043
29040
29023
28978
28913
28840
28762
28683
28607
28546
28509
28489
28476
28460
28433
28407
28403
28404
28392
28371
28350
28329
28298
28264
28240
28217
28180
28127
28065
28009
27972
27956
27939
27907
27867
27821
27773
27717
27663
27630
27613
27595
27581
27566
27532
27472
27398
27339
27298
27257
27212
27175
27145
27117
27096
27074
27043
27008
26981
26956
26930
26913
26914
26935
26972
27026
27101
27203
27328
27466
27623
27808
28012
28227
28456
28677
28869
29035
29190
29339
29478
29609
29722
29814
29884
29942
29998
30053
30099
30135
30157
30162
30150
30137
30137
30146
30151
30155
30163
30166
30153
30132
30113
30102
30105
30124
30145
30150
30148
30152
30161
30170
30184
30205
30222
30231
30241
30248
30247
30251
30271
30302
30327
30347
30368
30388
30407
30434
30465
30496
30541
30592
30633
30660
30671
30671
30682
30709
30737
30759
30781
30789
30769
30743
30728
30719
30711
30694
30663
30633
30607
30579
30548
30517
30481
30438
30393
30342
30280
30213
30151
30109
30089
30075
30063
30051
30038
30030
30036
30046
30046
30029
30000
29963
29923
29887
29865
29857
29857
29857
29847
29829
29807
29782
29757
29723
29678
29634
29595
29564
29540
29528
29524
29511
29495
29487
29475
29454
29434
29421
29404
29379
29355
29340
29331
29315
29284
29247
29215
29185
29159
29137
29119
29100
29076
29039
28985
28923
28868
28822
28776
28718
28665
28637
28621
28606
28583
28541
28483
28430
28390
28355
28313
28271
28240
28217
28196
28181
28177
28172
28158
28141
28116
28073
28016
27960
27919
27892
27877
27883
27906
27936
27973
28031
28120
28231
28357
28500
28663
28834
28998
29160
29330
29505
29673
29836
29992
30143
30293
30439
30568
30673
30759
30822
30861
30883
30905
30928
30937
30928
30913
30912
30916
30903
30884
30871
30849
30821
30813
30824
30829
30820
30804
30800
30804
30796
30780
30762
30738
30711
30691
30683
30688
30707
30740
30781
30825
30862
30888
30909
30931
30950
30965
30973
30976
30992
31022
31060
31094
31116
31139
31164
31183
31191
31189
31177
31158
31132
31108
31085
31055
31028
31015
31009
31000
30986
30974
30957
30921
30874
30832
30798
30770
30743
30711
30673
30635
30601
30572
30542
30503
30448
30387
30337
30302
30275
30246
30220
30201
30196
30191
30172
30150
30129
30102
30076
30069
30085
30096
30081
30049
30009
29958
29897
29841
29798
29762
29721
29677
29635
29598
29579
29570
29560
29555
29554
29546
29520
29475
29417
29354
29288
29229
29193
29177
29161
29132
29095
29064
29043
29016
28977
28941
28904
28860
28818
28780
28740
28698
28662
28634
28613
28586
28551
28517
28488
28458
28433
28416
28396
28372
28348
28321
28285
28237
28188
28145
28098
28049
28011
27978
27937
27889
27848
27807
27760
27720
27694
27672
27646
27621
27607
27602
27611
27645
27717
27819
27935
28063
28210
28366
28520
28673
28832
28998
29172
29358
29548
29718
29862
29989
30099
30179
30227
30259
30285
30299
30305
30312
30320
30325
30331
30343
30361
30373
30370
30358
30338
30304
30263
30228
30210
30214
30233
30252
30263
30276
30296
30316
30326
30335
30350
30365
30372
30376
30379
30379
30381
30389
30399
30400
30389
30383
30406
30449
30490
30515
30529
30547
30571
30608
30652
30678
30687
30693
30704
30721
30728
30718
30706
30698
30691
30694
30701
30694
30662
30616
30561
30495
30425
30359
30303
30263
30241
30228
30215
30203
30200
30214
30239
30262
30271
30270
30272
30266
30229
30170
30108
30044
29979
29921
29876
29839
29810
29792
29775
29762
29760
29762
29770
29783
29786
29784
29787
29776
29746
29715
29694
29685
29684
29679
29658
29615
29559
29503
29456
29415
29373
29343
29328
29316
29316
29318
29297
29264
29243
29224
29194
29159
29130
29099
29056
29010
28975
28952
28925
28887
28843
28795
28744
28696
28660
28627
28591
28557
28527
28499
28470
28439
28406
28361
28304
28260
28247
28246
28239
28237
28238
28218
28169
28111
28057
27999
27937
27887
27852
27824
27806
27793
27780
27781
27821
27904
27999
28091
28187
28300
28438
28598
28773
28954
29137
29311
29472
29624
29752
29850
29933
30012
30082
30148
30229
30316
30370
30393
30408
30416
30415
30410
30412
30420
30423
30422
30419
30417
30414
30411
30416
30423
30415
30402
30390
30369
30337
30309
30284
30264
30250
30240
30226
30209
30195
30185
30179
30174
30172
30178
30196
30221
30245
30269
30298
30331
30369
30412
30461
30513
30565
30615
30658
30686
30690
30674
30654
30630
30599
30564
30526
30484
30451
30440
30439
30429
30408
30388
30371
30352
30333
30318
30304
30282
30257
30235
30216
30195
30178
30167
30155
30126
30080
30034
30003
29979
29960
29948
29941
29935
29936
29943
29936
29908
29876
29847
29817
29778
29734
29695
29659
29622
29585
29555
29535
29523
29504
29486
29484
29494
29497
29478
29445
29415
29378
29332
29282
29239
29208
29182
29160
29148
29142
29134
29118
29092
29051
29002
28955
28911
28871
28829
28787
28749
28720
28691
28656
28624
28592
28554
28525
28510
28501
28487
28455
28403
28342
28287
28249
28223
28202
28179
28152
28126
28099
28076
28060
28044
28021
27993
27966
27936
27907
27882
27862
27837
27795
27746
27710
27694
27689
27696
27723
27775
27852
27948
28070
28214
28359
28505
28667
28843
29016
29181
29341
29493
29628
29748
29859
29960
30047
30127
30199
30252
30282
30299
30315
30326
30325
30313
30298
30274
30247
30232
30236
30249
30271
30301
30322
30324
30316
30314
30327
30348
30370
30384
30392
30402
30415
30426
30424
30411
30400
30401
30412
30430
30451
30463
30467
30476
30504
30545
30584
30612
30627
30635
30631
30616
30601
30602
30618
30635
30648
30654
30653
30661
30689
30722
30747
30760
30759
30742
30714
30685
30662
30642
30614
30571
30517
30463
30423
30405
30406
30412
30399
30365
30336
30328
30323
30308
30284
30249
30209
30179
30158
30124
30083
30054
30025
29993
29966
29940
29917
29894
29864
29838
29818
29800
29791
29800
29819
29826
29821
29814
29803
29792
29775
29745
29706
29668
29630
29596
29578
29564
29536
29494
29448
29403
29350
29300
29267
29239
29211
29188
29159
29128
29112
29108
29105
29099
29085
29064
29038
29011
28989
28968
28928
28877
28847
28839
28824
28793
28761
28732
28691
28644
28610
28583
28544
28504
28481
28468
28448
28423
28396
28361
28314
28269
28231
28189
28147
28124
28117
28111
28093
28064
28024
27972
27924
27893
27868
27832
27787
27732
27665
27598
27546
27520
27513
27513
27532
27572
27618
27671
27755
27877
28009
28144
28294
28452
28614
28788
28960
29114
29251
29377
29487
29581
29667
29743
29813
29877
29935
29980
30007
30028
30046
30058
30065
30080
30101
30114
30116
30119
30119
30114
30118
30137
30156
30174
30190
30195
30187
30164
30135
30109
30087
30077
30082
30094
30112
30130
30147
30162
30163
30155
30159
30176
30187
30183
30173
30169
30177
30199
30224
30240
30243
30240
30233
30222
30208
30197
30200
30215
30225
30226
30226
30223
30227
30243
30257
30249
30227
30210
30192
30169
30145
30117
30088
30062
30039
30014
29990
29957
29906
29844
29789
29746
29710
29680
29655
29623
29590
29563
29539
29525
29531
29550
29574
29595
29599
29591
29577
29556
29530
29498
29464
29438
29415
29384
29341
29299
29272
29253
29233
29226
29237
29251
29247
29234
29237
29252
29256
29238
29209
29177
29141
29100
29059
29019
28979
28950
28924
28880
28827
28779
28736
28701
28677
28650
28622
28604
28594
28579
28557
28532
28505
28481
28455
28422
28389
28355
28320
28287
28261
28236
28203
28166
28146
28151
28161
28151
28124
28092
28058
28025
27997
27962
27920
27884
27857
27824
27785
27738
27690
27660
27637
27598
27562
27543
27537
27528
27511
27491
27468
27453
27457
27467
27471
27477
27490
27513
27544
27597
27688
27802
27931
28079
28237
28408
28575
28719
28839
28938
29018
29087
29164
29238
29297
29342
29370
29385
29398
29403
29403
29397
29372
29338
29313
29286
29253
29220
29191
29164
29142
29132
29123
29104
29082
29069
29056
29037
29033
29045
29051
29039
29023
29030
29055
29080
29095
29110
29124
29121
29109
29115
29134
29148
29156
29170
29191
29213
29225
29238
29258
29284
29308
29323
29327
29315
29296
29276
29244
29202
29171
29155
29145
29136
29127
29121
29116
29120
29140
29157
29146
29110
29065
29022
28982
28939
28900
28872
28861
28861
28851
28832
28813
28780
28733
28684
28635
28589
28546
28504
28464
28441
28453
28481
28493
28497
28506
28504
28490
28486
28477
28450
28424
28411
28401
28382
28367
28371
28380
28370
28339
28304
28269
28230
28192
28163
28136
28108
28076
28035
27983
27929
27889
27867
27854
27834
27809
27791
27775
27761
27749
27727
27688
27637
27592
27568
27552
27538
27527
27516
27494
