20922
20779
20828
20803
20943
20910
20878
20980
20941
21109
21110
21100
20995
21088
21138
21062
21202
20967
21125
21030
21105
21261
21063
21109
21152
21279
21381
21244
21263
21284
21200
21351
21405
21265
21254
21502
21500
21549
21414
21327
21528
21323
21488
21619
21497
21595
21496
21690
21578
21426
21592
21631
21573
21674
21571
21666
21656
21686
21672
21690
21677
21667
21778
21711
21805
21647
21519
21555
21537
21492
21246
21205
20918
20894
20807
20847
20816
20537
20577
20621
20475
20598
20385
20350
20309
20380
20228
20246
20385
20233
20167
20210
20089
20105
20135
20146
20102
20241
20162
20110
20179
20082
20131
20094
20147
20166
20106
20297
20249
20321
20269
20379
20225
20230
20447
20350
20525
20419
20436
20487
20358
20593
20417
20657
20416
20494
20617
20510
20594
20540
20707
20666
20784
20707
20745
20848
20737
20762
20734
20700
20749
20865
20817
20875
20955
20933
20896
20867
20910
20967
20986
21024
20899
21158
21005
21158
21198
21197
21108
21041
21307
21183
21333
21128
21348
21169
21324
21191
21310
21349
21338
21371
21238
21380
21486
21327
21534
21475
21576
21471
21378
21462
21620
21623
21422
21615
21632
21728
21710
21632
21549
21792
21682
21850
21634
21848
21765
21826
21746
21863
21797
21778
21906
21812
21665
21627
21608
21655
21448
21397
21463
21255
21084
21080
20849
20996
20836
20661
20594
20622
20578
20545
20482
20364
20467
20405
20441
20219
20402
20331
20328
20141
20249
20144
20062
20181
20216
20074
20260
20263
20248
20070
20026
20108
20018
20082
20029
20139
20207
20268
20327
20201
20378
20249
20357
20337
20502
20586
20471
20410
20573
20453
20533
20574
20645
20614
20721
20617
20627
20730
20691
20695
20771
20782
20627
20762
20753
20738
20935
20917
21026
20785
20890
20971
20961
21047
20947
21131
21157
20946
20978
21000
21089
21026
21214
21014
21240
21159
21209
21156
21089
21227
21128
21265
21371
21325
21446
21355
21460
21404
21343
21385
21384
21389
21412
21292
21464
21462
21506
21369
21461
21562
21581
21434
21569
21686
21472
21731
21565
21546
21509
21554
21682
21676
21705
21831
21827
21699
21865
21854
21598
21646
21552
21772
21539
21659
21424
21458
21236
21132
21022
21115
20963
20778
20730
20650
20706
20679
20637
20608
20491
20421
20429
20492
20454
20359
20281
20263
20436
20398
20306
20358
20265
20218
20224
20276
20221
20270
20285
20324
20212
20204
20232
20162
20275
20181
20272
20411
20471
20353
20347
20428
20313
20491
20586
20554
20506
20531
20601
20607
20675
20640
20582
20609
20710
20719
20581
20688
20625
20749
20785
20659
20692
20827
20861
20738
20965
20904
21007
21055
21047
20824
20972
21108
20927
21172
21152
21106
21184
21081
20970
21136
21056
21221
21132
21120
21224
21140
21260
21388
21216
21142
21305
21302
21338
21318
21380
21476
21349
21309
21491
21397
21286
21521
21578
21497
21465
21489
21514
21497
21718
21584
21664
21540
21744
21517
21769
21753
21814
21733
21801
21680
21622
21660
21786
21671
21908
21925
21704
21787
21689
21554
21748
21417
21296
21354
21098
21131
21066
20948
20748
20761
20716
20676
20488
20566
20449
20573
20307
20412
20401
20195
20370
20367
20196
20270
20069
20286
20117
20151
20030
20200
20198
20171
19956
19978
20064
19977
20132
20201
20133
20001
20015
20179
20185
20047
20262
20330
20296
20409
20313
20405
20359
20274
20375
20509
20388
20372
20576
20626
20420
20633
20444
20539
20664
20481
20699
20543
20733
20733
20548
20752
20723
20733
20881
20660
20698
20927
20900
20650
20826
20749
20864
20866
20825
21037
20890
21073
21120
21209
20969
20930
21058
21102
21223
21202
21211
21079
21093
21094
21312
21173
21151
21189
21407
21204
21221
21385
21332
21278
21353
21458
21369
21360
21428
21492
21392
21430
21500
21337
21450
21454
21554
21543
21396
21590
21646
21510
21702
21641
21732
21611
21559
21633
21814
21775
21634
21657
21582
21539
21585
21435
21480
21422
21396
21149
21142
21188
20962
20938
20720
20757
20764
20675
20668
20522
20522
20422
20366
20287
20274
20223
20289
20242
20220
20192
20300
20220
20286
20244
20032
20269
20146
20005
20186
20200
20065
20190
19984
20140
20021
20002
20062
20073
20196
20214
20394
20293
20352
20439
20358
20344
20534
20499
20632
20523
20582
20463
20688
20520
20748
20664
20653
20565
20644
20806
20614
20837
20592
20769
20692
20670
20681
20683
20780
20900
20841
20868
20938
20826
20887
20995
20976
20960
21116
20966
21028
21070
20989
21012
20929
21220
21124
20979
21091
21224
21132
21307
21266
21075
21100
21353
21231
21378
21349
21400
21361
21171
21255
21226
21258
21248
21488
21470
21498
21334
21451
21371
21375
21542
21428
21511
21503
21568
21539
21472
21458
21532
21688
21546
21693
21726
21724
21702
21747
21688
21423
21554
21469
21369
21363
21299
21020
21090
20806
20856
20659
20795
20636
20598
20454
20625
20452
20364
20417
20305
20257
20261
20264
20117
20311
20141
20325
20074
20136
20224
20137
19988
20050
20074
20127
20055
19977
20122
20093
20115
20148
20150
20191
20248
20198
20245
20303
20368
20356
20486
20402
20292
20447
20504
20525
20350
20532
20453
20438
20621
20523
20665
20644
20690
20751
20576
20743
20635
20840
20859
20780
20898
20925
20789
20811
20904
20813
20758
20968
20800
20929
20980
20902
20884
20899
21124
21153
20922
20963
21204
21154
20968
21147
21176
21178
21202
21196
21268
21311
21252
21219
21242
21356
21313
21386
21238
21360
21354
21388
21397
21413
21434
21434
21452
21566
21378
21438
21485
21578
21584
21501
21526
21469
21651
21590
21615
21520
21638
21597
21761
21730
21767
21662
21670
21594
21655
21554
21553
21583
21425
21371
21154
21177
21039
20988
20879
20810
20772
20664
20624
20570
20631
20281
20329
20482
20362
20444
20189
20345
20315
20194
20141
20183
20120
20153
20043
20098
20090
20077
20191
20034
19872
20054
20089
20008
20067
19947
19968
20075
19978
20061
20181
20140
20129
20238
20276
20261
20220
20406
20231
20439
20305
20434
20551
20458
20523
20548
20422
20482
20622
20520
20607
20529
20588
20635
20730
20581
20591
20698
20525
20617
20731
20589
20705
20890
20741
20678
20777
20784
20780
20729
20750
20994
21034
20973
20852
20947
21007
20954
21049
21131
20998
21060
21044
21015
21026
21080
21325
21133
21210
21128
21194
21380
21254
21132
21242
21159
21297
21249
21293
21454
21255
21405
21274
21489
21328
21304
21319
21298
21535
21600
21491
21425
21532
21414
21639
21500
21627
21579
21696
21493
21558
21733
21626
21559
21568
21637
21503
21432
21352
21307
21209
21159
21009
20981
20791
20692
20594
20443
20469
20543
20357
20277
20299
20394
20277
20285
20126
20102
20122
20195
19972
19965
19884
20034
20024
19924
19976
19865
20012
19970
19951
19969
19997
19830
19937
19813
19931
20063
20022
19983
20201
20071
20253
20080
20221
20161
20350
20331
20346
20267
20280
20364
20403
20539
20476
20368
20474
20462
20520
20481
20429
20639
20640
20620
20534
20608
20595
20659
20645
20580
20732
20648
20763
20881
20767
20767
20739
20939
20811
20875
20964
21056
20908
21094
20932
20918
21110
21145
21092
21014
21139
21157
21117
21095
21179
21161
21303
21277
21148
21229
21178
21429
21355
21451
21312
21403
21297
21297
21412
21489
21364
21375
21542
21620
21480
21384
21429
21693
21642
21473
21538
21496
21595
21490
21513
21693
21684
21666
21673
21701
21698
21785
21652
21777
21640
21812
21912
21821
21778
21633
21609
21502
21444
21393
21157
21133
21060
20887
20903
20840
20682
20582
20468
20434
20507
20313
20380
20202
20330
20212
20374
20228
20322
20255
20045
20116
20258
20074
19981
19992
20065
20000
19965
20076
20060
19918
20019
19984
20163
20089
20163
20123
20212
20294
20254
20176
20274
20283
20478
20357
20453
20502
20620
20577
20585
20624
20570
20545
20642
20602
20709
20623
20657
20708
20653
20840
20668
20815
20761
20629
20825
20786
20695
20733
20896
20748
20919
20987
20851
20735
20908
21008
20934
20906
20898
21073
20876
21000
20959
20930
21139
20937
20924
21056
21120
21169
21149
21093
21108
21243
21090
21143
21162
21079
21215
21091
21182
21238
21273
21258
21191
21216
21385
21287
21308
21312
21165
21195
21232
21351
21434
21321
21255
21453
21521
21288
21591
21359
21477
21383
21349
21440
21416
21389
21614
21358
21390
21267
21399
21193
21293
21025
20974
20831
20948
20867
20843
20708
20643
20434
20321
20237
20233
20404
20321
20349
20129
20230
20224
20199
20096
20250
20025
20009
20159
20061
20045
19985
20074
20093
19873
20115
19910
19940
19912
20018
20173
19966
20217
20022
20219
20117
20191
20327
20373
20226
20337
20237
20448
20403
20498
20409
20502
20542
20386
20588
20511
20405
20571
20489
20657
20512
20439
20531
20462
20631
20760
20555
20787
20744
20535
20738
20860
20857
20852
20727
20712
20887
20934
20940
20885
20899
21014
20955
20952
21077
21097
21003
21118
20906
21142
20921
21177
21081
21190
21043
21100
21115
21299
21321
21111
21328
21385
21176
21245
21269
21269
21389
21275
21334
21359
21411
21361
21309
21318
21305
21456
21313
21354
21431
21455
21591
21626
21463
21487
21614
21561
21466
21397
21643
21642
21636
21656
21543
21503
21675
21532
21468
21456
21386
21435
21236
21239
21031
21118
21034
20917
20669
20653
20722
20610
20499
20378
20403
20414
20272
20285
20189
20180
20192
20198
20061
19957
20008
20075
20081
20112
19838
19826
19889
20031
19888
19917
19799
19829
19984
20016
19801
19998
19865
19930
20039
19868
19934
20047
20169
20119
20117
20205
20348
20186
20390
20171
20436
20358
20296
20457
20275
20473
20413
20413
20409
20445
20420
20452
20421
20669
20666
20651
20622
20548
20627
20787
20686
20649
20694
20862
20718
20902
20850
20660
20944
20895
20824
20954
20840
21044
21063
21053
20883
20904
21152
21083
21169
21090
21076
21236
20968
21272
21286
21214
21229
21181
21150
21362
21148
21418
21198
21255
21380
21276
21329
21270
21314
21520
21500
21500
21389
21434
21342
21463
21560
21548
21560
21562
21680
21585
21448
21578
21705
21664
21686
21777
21662
21619
21783
21808
21639
21603
21713
21761
21716
21438
21392
21377
21311
21349
21179
20978
20850
20911
20823
20680
20760
20537
20691
20463
20546
20543
20343
20285
20274
20276
20245
20160
20168
20417
20145
20221
20180
20116
20182
20158
20117
20179
20098
20097
20117
20088
20126
20192
20054
20181
20081
20253
20294
20427
20199
20269
20380
20468
20453
20536
20501
20464
20530
20614
20547
20513
20594
20639
20615
20627
20646
20618
20601
20615
20734
20685
20647
20760
20657
20872
20846
20702
20823
20924
21017
20859
20937
20940
20938
21030
21125
20952
20966
21130
21151
21012
21137
21248
21097
21160
21180
21306
21275
21220
21287
21202
21368
21291
21350
21321
21450
21276
21284
21446
21314
21363
21489
21368
21538
21577
21409
21551
21616
21639
21580
21411
21599
21429
21524
21506
21520
21714
21699
21603
21569
21743
21552
21712
21825
21743
21702
21788
21669
21833
21867
21794
21652
21652
21534
21684
21384
21332
21458
21137
21085
20990
20973
20757
20742
20723
20601
20714
20534
20611
20578
20555
20389
20463
20312
20301
20290
20261
20253
20270
20124
20310
20166
20234
20111
20332
20187
20084
20145
20245
20315
20199
20195
20219
20235
20264
20255
20327
20351
20389
20447
20335
20421
20580
20494
20522
20568
20571
20625
20640
20666
20678
20613
20668
20677
20695
20725
20735
20812
20677
20787
20914
20794
20924
20789
20788
20979
20796
20986
20871
20936
20931
20951
21145
20945
21211
21045
21116
21206
21069
21072
21281
21179
21202
21313
21139
21401
21308
21466
21433
21354
21264
21342
21275
21445
21301
21452
21379
21393
21418
21395
21559
21529
21644
21500
21600
21609
21710
21571
21744
21635
21668
21603
21588
21852
21657
21717
21756
21815
21814
21820
21913
21799
21937
21840
21902
21786
21659
21659
21773
21732
21534
21344
21269
21410
21259
21128
20940
20865
20932
20863
20815
20624
20704
20469
20458
20562
20490
20444
20283
20375
20283
20368
20356
20270
20137
20207
20115
20248
20351
20119
20141
20187
20153
20308
20239
20309
20238
20114
20210
20137
20304
20269
20426
20411
20450
20384
20466
20578
20569
20614
20538
20597
20598
20690
20598
20598
20641
20640
20643
20727
20715
20753
20703
20658
20752
20879
20798
20792
20826
20907
20880
20945
20912
20988
20916
21024
20932
21091
20949
21168
21006
21201
21042
21062
21214
21170
21198
21091
21149
21209
21375
21221
21173
21207
21326
21393
21423
21273
21302
21453
21496
21350
21517
21456
21459
21527
21562
21357
21443
21411
21489
21633
21710
21554
21507
21625
21757
21666
21616
21633
21693
21653
21711
21765
21715
21825
21756
21926
21818
21827
21810
21795
21739
21770
21684
21773
21522
21511
21409
21466
21307
21100
20977
21054
20796
20757
20699
20672
20520
20532
20652
20370
20499
20428
20320
20517
20460
20443
20237
20391
20245
20230
20153
20130
20122
20232
20209
20135
20131
20154
20122
20172
20074
20128
20032
20168
20262
20175
20251
20366
20294
20459
20450
20442
20412
20434
20451
20595
20589
20576
20702
20569
20679
20617
20590
20699
20790
20686
20800
20669
20630
20627
20708
20877
20683
20796
20735
20746
21008
20887
20884
20884
21051
21073
21127
21024
21070
21042
21004
21105
21078
21246
21125
21097
21209
21234
21163
21256
21281
21289
21350
21299
21296
21316
21245
21430
21542
21509
21501
21576
21459
21591
21467
21499
21366
21413
21629
21678
21620
21452
21627
21725
21539
21530
21587
21723
21761
21698
21550
21728
21733
21686
21867
21803
21625
21813
21902
21782
21715
21878
21682
21707
21812
21795
21489
21391
21344
21268
21204
21103
21055
21089
20974
20747
20853
20804
20707
20494
20541
20612
20416
20367
20250
20302
20222
20368
20359
20302
20342
20214
20312
20176
20234
20283
20064
20207
20078
20008
20141
20271
20050
20258
20257
20090
20250
20294
20123
20203
20235
20241
20485
20490
20515
20564
20581
20516
20609
20601
20669
20623
20699
20549
20687
20756
20559
20728
20776
20624
20715
20872
20777
20782
20781
20697
20825
20982
21001
20867
20816
21011
20891
20999
20852
21012
21135
21143
21035
21198
21236
21260
21208
21144
21060
21128
21171
21153
21115
21341
21243
21328
21374
21486
21462
21427
21461
21386
21500
21387
21531
21424
21405
21507
21550
21483
21622
21513
21673
21548
21580
21642
21668
21522
21516
21541
21776
21688
21562
21802
21767
21777
21709
21858
21827
21672
21827
21626
21611
21442
21395
21340
21350
21179
21030
21084
20955
20915
20765
20800
20614
20606
20434
20439
20377
20401
20341
20387
20396
20401
20280
20340
20266
20211
20152
20296
20149
20191
20051
20166
20072
20188
20235
20170
20228
20030
20173
20200
20048
20277
20283
20300
20221
20182
20220
20218
20342
20439
20330
20376
20597
20585
20640
20672
20647
20633
20593
20521
20733
20532
20622
20689
20546
20593
20759
20625
20687
20719
20728
20798
20733
20835
20941
20805
20856
20919
20923
20908
20932
21122
20978
21142
21097
20936
21137
21005
21039
21109
21070
21322
21205
21316
21161
21152
21150
21354
21341
21194
21235
21370
21406
21305
21266
21263
21414
21417
21478
21542
21430
21380
21424
21361
21465
21481
21505
21541
21672
21703
21686
21603
21493
21623
21573
21760
21558
21780
21574
21619
21646
21600
21468
21597
21483
21479
21405
21349
21228
21047
20971
21011
20888
20561
20600
20640
20481
20466
20406
20203
20256
20195
20259
20301
20271
20275
20210
20260
20089
20167
20088
20082
19937
20002
19907
20117
20132
19950
19915
19957
20041
19939
20181
19923
19979
20185
20012
20012
20184
20169
20153
20346
20426
20244
20465
20416
20418
20369
20313
20488
20470
20537
20482
20524
20616
20547
20446
20594
20433
20619
20673
20521
20650
20700
20589
20599
20680
20789
20742
20690
20673
20770
20880
20719
20756
20909
20979
20901
21070
21032
20867
20958
21133
20977
21049
21092
20979
21088
21273
21210
21069
21318
21234
21161
21300
21106
21163
21319
21195
21211
21200
21223
21401
21210
21236
21283
21478
21228
21289
21292
21347
21459
21559
21408
21611
21428
21426
21457
21560
21678
21529
21570
21549
21615
21718
21670
21622
21457
21575
21466
21439
21278
21332
21357
21239
21046
21037
20716
20899
20548
20603
20474
20586
20388
20433
20450
20418
20360
20156
20327
20109
20297
20033
19995
20161
20048
20086
20118
19976
20161
20001
20026
20127
20119
20088
19916
19971
20127
19981
20114
19944
19940
20138
20148
20220
20223
20340
20254
20293
20345
20273
20237
20312
20456
20381
20297
20448
20557
20511
20516
20528
20422
20559
20512
20566
20654
20613
20595
20774
20635
20756
20668
20721
20775
20876
20785
20867
20934
20745
20739
20872
20817
21005
21081
21089
20836
20966
21160
21010
21133
21047
21151
21106
21085
21217
21225
21218
21226
21164
21281
21191
21296
21264
21291
21175
21294
21178
21281
21244
21268
21490
21322
21455
21442
21332
21306
21311
21594
21468
21372
21507
21647
21476
21692
21555
21599
21513
21715
21581
21663
21813
21712
21747
21644
21807
21578
21659
21626
21422
21385
21323
21459
21135
21181
21091
21001
20751
20851
20687
20656
20495
20617
20491
20520
20329
20354
20395
20284
20269
20311
20085
20108
20028
20169
20137
20128
19997
20130
20044
20111
19936
20155
20097
20063
20145
19990
20006
20126
20027
20092
20050
20302
20296
20140
20379
20334
20414
20286
20450
20500
20549
20544
20594
20455
20611
20524
20392
20481
20426
20572
20675
20548
20539
20570
20594
20742
20627
20604
20657
20689
20874
20706
20753
20726
20956
20813
20858
20881
20957
20961
21116
20875
21093
20989
21151
21066
20983
21243
21048
21146
21140
21272
21315
21175
21131
21376
21183
21233
21299
21236
21322
21180
21420
21205
21395
21215
21372
21225
21307
21501
21247
21320
21403
21402
21463
21457
21601
21468
21507
21502
21461
21548
21566
21484
21624
21555
21637
21599
21619
21517
21559
21717
21472
21571
21374
21424
21259
21084
21189
20971
20885
20840
20688
20797
20579
20538
20627
20489
20271
20411
20441
20169
20172
20209
20323
20154
20312
20147
20126
20196
20220
20228
20027
20040
20141
19997
20166
19970
20030
20018
20177
20041
20018
20057
20020
20149
20199
20191
20262
20279
20304
20394
20503
20404
20373
20504
20409
20375
20443
20631
20538
20422
20581
20555
20625
20561
20491
20502
20663
20528
20514
20583
20830
20678
20656
20725
20666
20705
20728
20729
20731
21015
20899
20840
20774
20831
20937
20882
20914
20888
20963
20965
20997
20988
21181
21185
21219
21202
21292
21184
21117
21260
21218
21219
21316
21329
21347
21249
21245
21250
21414
21276
21568
21309
21355
21324
21451
21405
21522
21370
21489
21379
21490
21635
21454
21425
21579
21632
21701
21663
21570
21611
21613
21659
21477
21723
21677
21500
21579
21388
21438
21242
21178
21171
21130
20925
20768
20812
20586
20445
20416
20515
20335
20331
20276
20326
20235
20200
20044
20185
20031
20122
20060
20009
20124
20007
19834
19961
19805
19842
19939
19865
19975
19886
19944
19808
19938
19819
19858
20054
19944
19881
19963
20088
19999
20000
20054
20051
20266
20291
20254
20257
20319
20263
20326
20307
20330
20356
20275
20399
20244
20306
20410
20515
20417
20496
20444
20541
20565
20635
20560
20496
20632
20473
20594
20582
20775
20634
20537
20593
20772
20783
20722
20633
20951
20819
20873
20814
20957
20956
21025
20883
21015
20871
20957
21055
20950
20961
21010
20974
21051
21029
21086
21207
21055
21089
21088
21314
21047
21210
21276
21344
21264
21354
21225
21219
21132
21145
21262
21205
21392
21394
21519
21422
21354
21271
21530
21358
21503
21383
21353
21582
21486
21518
21421
21473
21252
21223
21215
21157
21019
20806
20734
20657
20712
20495
20371
20424
20180
20209
20341
20042
20287
20187
19976
20072
20101
19927
19973
19939
19810
19899
19977
19970
19778
19749
19718
19825
19918
19886
19892
19649
19757
19840
19696
19911
19947
19810
19829
19894
20049
19986
20040
19964
20189
20018
20019
20141
20123
20083
20185
20080
20207
20190
20247
20383
20202
20238
20234
20293
20251
20376
20282
20339
20465
20493
20542
20480
20518
20596
20509
20572
20472
20723
20645
20771
20580
20555
20709
20629
20863
20887
20883
20715
20919
20789
20994
20812
20813
20827
20905
20990
20908
21016
21051
21068
21010
21118
21138
21059
21148
21136
21150
21179
20990
21089
21297
21096
21137
21296
21315
21303
21246
21247
21259
21249
21346
21436
21384
21359
21377
21379
21307
21544
21553
21526
21443
21335
21394
21564
21519
21377
21219
21398
21055
21241
21086
20966
20713
20705
20540
20616
20407
20545
20375
20413
20226
20253
20119
20093
20181
20022
20020
20102
20056
19973
20060
19849
19865
19872
19931
19985
19911
19870
19857
19736
19705
19986
19921
19860
19925
19767
19949
19946
19875
20087
20074
19956
20202
20043
20277
20144
20089
20307
20317
20394
20267
20175
20380
20473
20313
20286
20315
20374
20528
20357
20617
20409
20410
20382
20524
20462
20540
20571
20561
20585
20616
20713
20682
20677
20692
20752
20711
20718
20725
20810
20784
20742
20954
20841
20838
20940
20942
20973
20883
20943
20973
21044
21108
21035
20941
20995
20908
21069
21184
20962
21092
21202
21124
21149
21113
21148
21077
21212
21116
21244
21127
21302
21070
21219
21318
21164
21211
21377
21365
21295
21367
21379
21388
21470
21426
21346
21224
21324
21225
21338
21357
21176
21187
21136
21050
20735
20910
20654
20727
20444
20372
20396
20189
20259
20225
20184
20218
20143
20185
20051
20115
20008
20003
19958
20011
19961
19907
19921
19883
19947
19881
19901
19850
19927
19920
19761
19771
19950
19839
19903
19966
19921
19937
20048
19959
20051
19981
20195
20224
20132
20149
20317
20146
20270
20180
20367
20444
20393
20279
20331
20398
20537
20394
20368
20423
20575
20492
20432
20420
20546
20488
20521
20551
20639
20539
20615
20814
20683
20680
20650
20683
20726
20761
20896
20818
20972
20888
20831
21028
21002
21031
20860
20937
21098
21117
21208
21175
21206
21021
21160
21088
21164
21065
21157
21092
21139
21303
21252
21323
21322
21384
21267
21439
21390
21405
21324
21243
21279
21561
21352
21330
21428
21586
21501
21452
21529
21529
21584
21588
21598
21586
21591
21558
21596
21485
21347
21384
21328
21213
21175
21078
20954
20860
20725
20632
20672
20472
20414
20404
20315
20302
20244
20193
20149
20105
20103
20047
19997
20022
19962
19964
19935
19906
19956
19927
19882
19895
19885
19803
19825
19832
19853
19844
19813
19859
19872
19861
19898
19865
19893
19908
20029
20145
20041
19992
20073
20239
20096
20098
20235
20180
20141
20281
20205
20237
20333
20299
20352
20292
20362
20339
20376
20381
20433
20466
20456
20437
20527
20584
20670
20585
20659
20622
20570
20660
20684
20668
20723
20734
20801
20768
20750
20785
20772
20943
20804
20905
20890
21015
20919
21043
20852
21086
21120
21116
21156
20976
21041
21148
21129
21057
21101
21158
21212
21085
21151
21239
21156
21294
21234
21284
21214
21189
21267
21316
21377
21467
21323
21527
21343
21558
21495
21371
21517
21526
21512
21489
21532
21521
21550
21457
21471
21390
21431
21236
21017
21040
20817
20806
20745
20644
20469
20604
20356
20335
20198
20228
20271
20155
20093
20077
20144
19951
20100
20127
19911
19944
20026
19867
19849
19786
19759
19896
19907
19823
19927
19822
19861
19826
19758
19708
19738
19908
19833
19957
19928
20023
19881
19871
20158
20068
20211
20073
20288
20236
20308
20257
20316
20374
20266
20266
20263
20500
20352
20387
20450
20501
20480
20396
20396
20608
20628
20576
20437
20576
20738
20614
20632
20661
20775
20722
20661
20651
20738
20846
20807
20766
20877
20854
20905
20863
20937
20989
20958
20990
20906
21048
20883
20963
21171
21053
21005
21061
21095
21194
21306
21113
21085
21162
21185
21328
21343
21188
21393
21178
21230
21344
21424
21340
21425
21418
21494
21473
21531
21462
21393
21508
21593
21474
21540
21533
21693
21515
21601
21500
21637
21734
21686
21594
21599
21660
21555
21328
21406
21477
21178
21136
21061
20798
20824
20588
20680
20519
20491
20315
20260
20286
20308
20148
20001
20154
20099
19930
20028
19989
19863
19985
19770
19772
19886
19702
19704
19721
19696
19626
19615
19558
19607
19714
19791
19618
19619
19722
19688
19805
19913
19822
19733
19872
19932
19967
19909
20017
20013
20077
20076
20089
20128
20221
20185
20223
20245
20108
20222
20175
20220
20167
20207
20210
20286
20368
20251
20297
20432
20448
20504
20418
20351
20464
20543
20512
20631
20569
20564
20673
20455
20499
20739
20682
20551
20713
20788
20698
20852
20767
20812
20747
20895
20829
20780
20951
20778
20822
21022
20878
21092
20965
21010
21024
21036
21060
20922
21135
21132
21038
21018
21059
21149
21195
21163
21313
21254
21107
21259
21174
21349
21233
21171
21236
21377
21456
21348
21327
21367
21479
21381
21452
21327
21459
21357
21439
21484
21327
21417
21300
21358
21214
21159
21106
20965
20853
20744
20617
20580
20438
20367
20366
20263
20067
20205
20072
20032
19860
19988
19882
19953
19740
19836
19766
19772
19801
19776
19737
19695
19742
19837
19632
19676
19711
19806
19679
19544
19680
19642
19693
19703
19854
19768
19676
19802
19865
19770
19874
19965
19952
20096
20002
19976
20070
20113
20091
20112
20114
20187
20166
20203
20151
20209
20283
20199
20211
20218
20376
20282
20401
20320
20399
20262
20397
20334
20385
20526
20568
20464
20572
20538
20613
20582
20555
20609
20755
20585
20737
20819
20850
20750
20891
20704
20864
20831
20951
20884
20927
20882
20861
20944
20917
20993
21021
21006
21049
21041
21088
21034
21049
21007
21108
20974
21132
21020
21143
21262
21243
21069
21215
21068
21203
21279
21127
21194
21138
21197
21390
21445
21292
21379
21477
21292
21271
21333
21352
21530
21463
21494
21542
21339
21440
21293
21301
21107
21133
21113
20872
20981
20765
20521
20638
20376
20278
20335
20144
20189
20188
20075
19982
20022
19953
19931
19984
19903
19851
19842
19874
19859
19814
19778
19775
19840
19747
19635
19643
19785
19775
19665
19697
19810
19657
19892
19790
19719
19808
19863
19777
19902
19988
19898
20013
20086
20078
20108
20068
20125
20122
20150
20105
20168
20162
20148
20250
20145
20229
20345
20358
20227
20306
20195
20464
20431
20290
20490
20359
20337
20513
20513
20379
20473
20384
20562
20437
20574
20491
20714
20547
20783
20814
20597
20737
20593
20727
20654
20801
20746
20871
20894
20832
20949
20783
20826
20959
20889
20886
21044
20884
20920
21090
21147
20956
21149
21013
21128
21230
21232
21124
21035
21110
21281
21262
21256
21157
21415
21218
21209
21237
21247
21383
21338
21280
21441
21318
21292
21463
21363
21491
21418
21275
21326
21356
21149
21246
20986
20816
20904
20583
20591
20422
20500
20489
20324
20355
20304
20171
20064
20048
20153
20030
19848
19873
19872
19926
19827
19814
19758
19860
19642
19695
19813
19695
19836
19711
19693
19823
19853
19752
19726
19691
19882
19800
19792
19866
19893
19952
20012
19969
20160
20194
20186
20066
20119
20119
20190
20237
20150
20263
20183
20402
20377
20360
20341
20460
20360
20407
20407
20437
20426
20433
20528
20495
20520
20538
20571
20580
20578
20632
20731
20680
20643
20743
20855
20679
20847
20795
20889
20816
20815
20832
20901
21019
20889
21006
20997
21054
21085
21057
21111
21123
21205
21078
21046
21071
21101
21021
21109
21305
21160
21191
21153
21340
21351
21336
21383
21311
21422
21316
21285
21276
21433
21507
21451
21473
21465
21622
21521
21581
21394
21428
21522
21577
21547
21582
21539
21545
21659
21559
21449
21381
21451
21321
21175
21033
21097
20815
20860
20672
20489
20551
20419
20249
20231
20297
20229
20170
20148
20090
19910
19875
20024
19971
19795
19753
19831
19875
19738
19795
19792
19700
19839
19757
19695
19721
19708
19714
19686
19748
19709
19754
19738
19783
19679
19770
19901
19890
19947
20031
20030
20078
20085
20124
20170
20166
20206
20191
20204
20238
20233
20228
20257
20277
20191
20270
20303
20228
20253
20401
20290
20423
20410
20438
20463
20463
20545
20581
20588
20611
20671
20682
20650
20639
20813
20579
20747
20812
20656
20751
20840
20836
20949
20889
20904
20842
20940
21014
21089
20991
20993
21011
20981
21121
21224
21235
21075
21257
21184
21149
21235
21293
21255
21177
21173
21222
21335
21436
21252
21473
21496
21482
21347
21448
21411
21472
21553
21566
21552
21525
21605
21608
21657
21662
21699
21848
21691
21791
21684
21592
21613
21738
21518
21606
21376
21184
21138
21009
20869
20766
20671
20643
20515
20564
20449
20411
20284
20232
20293
20118
20119
20132
20023
20051
20058
20192
20039
19847
19947
19915
19919
20020
19908
19779
19810
19863
19815
19814
19818
19852
19975
19775
19984
20043
19919
20104
20029
20104
20127
20157
20303
20311
20100
20189
20380
20325
20476
20256
20378
20402
20370
20469
20455
20567
20503
20654
20561
20579
20680
20608
20643
20737
20553
20766
20788
20816
20835
20704
20813
20739
20973
20967
20943
20969
20973
21092
21006
20975
21067
20983
21135
21081
21137
21076
21217
21276
21275
21217
21232
21428
21475
21386
21306
21311
21402
21423
21427
21423
21486
21537
21521
21506
21561
21649
21782
21604
21768
21701
21743
21667
21797
21887
21838
21901
21876
21863
21893
21926
21924
21935
22071
22022
21989
22070
21991
22110
21974
22089
21986
22117
22045
21902
22067
21968
21852
21833
21722
21533
21340
21219
21079
21121
21028
20837
20866
20809
20712
20715
20685
20663
20477
20504
20483
20327
20382
20374
20320
20404
20182
20206
20258
20243
20305
20177
20144
20095
20143
20173
20119
20226
20192
20076
20199
20181
20245
20346
20387
20452
20399
20512
20604
20480
20552
20764
20637
20760
20646
20812
20797
20854
20764
20774
20876
20876
20826
20943
20845
20838
20986
20870
20948
20868
20960
20891
21020
21115
21054
21136
21054
21098
21201
21266
21302
21238
21418
21305
21223
21255
21296
21310
21395
21398
21571
21561
21378
21509
21691
21695
21553
21684
21774
21810
21856
21876
21860
21927
21844
21743
21858
21984
21838
22057
21950
22061
22012
22032
21949
22181
22243
22177
22181
22168
22303
22305
22193
22293
22454
22288
22280
22456
22483
22456
22422
22517
22388
22387
22392
22320
22141
22079
22121
21989
21939
21797
21639
21567
21573
21424
21402
21223
21078
21097
20971
21005
20985
20894
20842
20931
20779
20842
20735
20810
20797
20689
20673
20621
20604
20700
20745
20500
20632
20466
20534
20616
20509
20615
20735
20772
20850
20718
20690
20852
20965
20880
20861
20873
20884
21054
21155
21180
21190
21011
21099
21078
21078
21079
21276
21325
21190
21346
21172
21180
21230
21407
21380
21251
21545
21448
21485
21567
21372
21544
21683
21639
21693
21720
21642
21695
21730
21835
21869
21886
21865
21703
21917
21991
21986
22039
21978
22081
22101
22089
21972
22094
21961
21995
22274
22238
22179
22227
22314
22144
22379
22381
22179
22353
22425
22267
22289
22374
22417
22473
22469
22540
22426
22494
22390
22657
22661
22448
22559
22713
22545
22645
22586
22750
22738
22783
22801
22766
22887
22825
22711
22564
22588
22446
22558
22271
22213
22023
21999
21898
21679
21621
21623
21626
21499
21429
21307
21066
21122
20938
21053
21060
20892
20918
20923
20878
20937
20786
20902
20733
20632
20691
20762
20653
20646
20662
20681
20571
20578
20710
20607
20486
20760
20582
20692
20674
20750
20692
20831
20797
20840
20815
21031
21098
20977
21227
21183
21072
21088
21189
21072
21084
21041
21199
21198
21130
21322
21139
21273
21197
21298
21158
21370
21400
21370
21264
21376
21298
21484
21352
21486
21552
21555
21548
21558
21576
21457
21597
21502
21570
21687
21690
21566
21669
21626
21725
21586
21794
21767
21711
21839
21723
21818
21681
21695
21799
21729
21875
21730
21753
21779
21780
21986
21926
21968
21779
22027
21860
22026
21890
21811
21906
22015
21993
21914
22093
21936
21954
22173
22166
22087
22195
22062
22125
22137
22048
22149
21937
22005
21928
21975
21702
21753
21733
21507
21476
21191
21325
21068
21038
20765
20720
20802
20698
20480
20513
20518
20554
20304
20320
20278
20356
20287
20239
20114
20081
20200
20254
20229
19963
20026
20008
20085
20072
20124
20042
20054
19985
20094
19905
19971
20102
20039
20224
20305
20188
20172
20357
20224
20418
20359
20411
20459
20477
20520
20476
20527
20482
20598
20642
20531
20427
20630
20691
20689
20703
20671
20714
20723
20726
20808
20772
20827
20794
20865
20858
20907
20924
20945
20950
20946
20950
21003
21034
21085
21090
21100
21244
21206
21277
21124
21260
21236
21275
21278
21221
21285
21359
21323
21403
21391
21554
21408
21383
21366
21371
21424
21558
21545
21453
21435
21555
21534
21593
21631
21499
21639
21635
21684
21800
21728
21834
21785
21816
21764
21702
21720
21844
21949
21858
21786
21939
21927
21942
21720
21721
21661
21811
21779
21661
21599
21307
21169
21078
20991
21026
20831
20737
20641
20669
20476
20397
20349
20235
20347
20212
20128
20157
20231
20125
20088
20194
20025
19993
20035
20059
20016
19953
20082
19965
19958
19943
19836
19936
20035
20008
19964
20123
20053
19999
20058
19989
20198
20262
20229
20252
20289
20266
20230
20354
20508
20433
20518
20520
20441
20487
20636
20643
20630
20560
20507
20584
20741
20744
20810
20776
20696
20612
20751
20847
20720
20715
20838
20892
20830
20825
20992
20918
21101
21126
21021
21003
21146
21041
21228
21165
21152
21288
21070
21132
21138
21186
21207
21351
21384
21420
21278
21443
21368
21267
21426
21498
21373
21530
21386
21566
21404
21647
21400
21494
21679
21492
21506
21579
21719
21698
21768
21722
21754
21726
21599
21674
21887
21777
21700
21755
21764
21906
21920
21803
21961
21983
21775
21928
21717
21671
21614
21570
21334
21294
21111
21190
20871
20832
20814
20734
20522
20438
20427
20495
20310
20427
20298
20164
20079
20227
20234
20139
20068
20019
20084
20112
20091
19973
19942
19921
19981
19866
19956
19951
19920
19826
19914
19915
20098
19975
20102
20042
19994
20120
20247
20260
20207
20279
20193
20313
20365
20460
20446
20364
20293
20416
20491
20468
20587
20598
20462
20686
20508
20660
20469
20734
20514
20691
20798
20558
20580
20745
20905
20780
20677
20896
20846
20767
20920
20980
20921
20829
21050
21011
21137
21035
21038
20995
21046
21274
21100
21096
21264
21261
21092
21201
21184
21212
21298
21357
21234
21438
21434
21280
21449
21305
21532
21330
21572
21456
21473
21599
21478
21433
21576
21456
21606
21493
21662
21613
21638
21616
21745
21820
21754
21640
21864
21754
21939
21899
21759
21732
21969
21800
21880
21881
21756
21797
21811
21626
21570
21496
21410
21252
21078
21053
20892
20829
20694
20630
20489
20562
20508
20472
20363
20343
20219
20237
20051
20070
19985
20168
20139
19976
19965
19936
19917
19907
19858
19988
19806
20016
19901
20004
19860
19862
19961
19799
19990
20113
20054
20139
20089
20000
20099
20111
20070
20141
20166
20239
20246
20180
20439
20427
20397
20360
20322
20472
20479
20499
20268
20319
20548
20368
20611
20388
20454
20400
20594
20687
20602
20541
20609
20678
20676
20653
20671
20795
20698
20688
20807
20845
20676
20902
20848
20890
20778
20987
20856
21052
20881
20909
21089
21027
21053
20968
21163
21196
21142
21176
21146
21200
21174
21285
21194
21291
21189
21144
21397
21457
21428
21454
21400
21349
21390
21384
21577
21454
21354
21530
21526
21455
21588
21445
21669
21677
21669
21591
21590
21757
21700
21773
21685
21508
21591
21368
21295
21320
21098
21041
21007
20823
20804
20640
20428
20440
20282
20286
20283
20118
20148
19985
19945
20019
19925
19997
19983
20010
19826
19993
19898
19842
19900
19727
19752
19734
19795
19671
19702
19834
19746
19772
19902
19755
19805
19733
19916
19813
20023
20039
19933
20140
20149
20154
20233
20133
20219
20190
20280
20395
20337
20440
20344
20270
20401
20496
20429
20314
20395
20530
20432
20571
20527
20628
20551
20621
20724
20769
20643
20814
20711
20930
20843
20844
20863
20979
20920
20862
20857
21056
21147
21050
21103
21013
20969
20991
21002
20993
21203
21257
21135
21241
21212
21313
21288
21289
21398
21399
21476
21349
21327
21441
21336
21444
21326
21397
21566
21428
21358
21390
21458
21588
21542
21644
21542
21456
21710
21714
21706
21689
21732
21722
21738
21784
21690
21717
21747
21723
21749
21580
21509
21451
21451
21235
21041
21031
21093
20963
20632
20631
20452
20550
20420
20296
20203
20089
20213
19988
20131
20013
19944
19913
20094
20110
19967
19875
20001
20051
19961
19844
19839
19936
19966
19930
19856
19813
19829
19926
19788
19948
19868
20025
19967
19890
20040
20019
20116
20025
20113
20352
20319
20172
20436
20435
20283
20511
20350
20421
20527
20420
20514
20459
20553
20530
20429
20606
20483
20581
20628
20693
20702
20559
20659
20534
20637
20893
20725
20867
20871
20830
20753
20809
20826
20968
20841
20908
21072
20931
20907
20964
20929
21075
20970
21098
21245
21164
21218
21239
21249
21341
21201
21268
21353
21235
21367
21355
21353
21358
21432
21491
21367
21566
21582
21518
21408
21619
21513
21595
21590
21601
21615
21562
21629
21535
21665
21631
21577
21752
21835
21654
21821
21859
21821
21672
21657
21539
21627
21661
21403
21373
21346
21221
21007
20821
20813
20681
20519
20533
20356
20217
20366
20166
20047
20167
20219
20095
19934
19882
20066
19817
20062
19988
19967
19906
19967
19714
19672
19920
19737
19875
19787
19736
19887
19920
19891
19944
19934
19900
19798
19961
19988
20052
20008
20069
20111
20206
20195
20187
20335
20327
20374
20311
20236
20387
20257
20296
20451
20497
20400
20471
20347
20377
20583
20460
20572
20556
20639
20742
20739
20598
20619
20532
20750
20693
20814
20804
20898
20801
20894
20849
20810
20928
20994
20980
21035
21066
21055
20992
21120
21258
21113
21332
21245
21357
21199
21383
21150
21184
21190
21406
21324
21437
21244
21311
21390
21463
21528
21376
21560
21377
21590
21562
21583
21459
21456
21571
21500
21688
21637
21587
21671
21726
21691
21802
21652
21635
21784
21649
21611
21830
21763
21673
21622
21638
21797
21560
21639
21506
21433
21251
21233
21126
21037
20790
20816
20525
20612
20489
20340
20293
20346
20340
20214
20202
20183
20222
20080
19992
20063
20009
19943
19991
19972
20040
19868
19898
19754
19857
19746
19916
19768
19872
19698
19869
19826
19918
19991
19999
20140
20182
20191
20080
20296
20318
20178
20347
20200
20430
20384
20279
20306
20370
20471
20482
20294
20410
20502
20479
20340
20501
20604
20528
20572
20494
20618
20672
20635
20713
20712
20785
20781
20633
20787
20772
20797
20778
20858
20780
20794
21013
20943
20959
21103
20974
21181
21103
21175
21100
20983
21132
21136
21111
21225
21129
21355
21263
21112
21157
21218
21407
21373
21379
21314
21214
21308
21480
21290
21521
21480
21279
21424
21566
21418
21573
21396
21374
21563
21623
21470
21480
21590
21488
21705
21597
21633
21502
21570
21432
21321
21407
21338
21117
21089
21109
20847
20854
20764
20686
20537
20459
20427
20319
20166
20268
20250
20101
20100
20094
20059
20034
19973
19835
19955
19740
19680
19774
19744
19938
19872
19738
19842
19718
19853
19893
19715
19681
19713
19815
19791
19711
19861
19895
20012
19893
20006
19977
20017
19970
20110
20089
20186
20144
20294
20105
20134
20264
20240
20190
20330
20260
20346
20272
20383
20420
20419
20517
20373
20563
20499
20364
20471
20421
20470
20520
20641
20519
20743
20602
20564
20714
20635
20854
20827
20716
20897
20871
20898
20910
20967
20985
20933
20918
20988
20850
20887
21017
20989
21139
21026
20956
21099
21195
21056
21028
21120
21249
21085
21227
21178
21187
21240
21241
21406
21255
21215
21357
21240
21432
21380
21304
21320
21321
21493
21531
21559
21434
21446
21488
21453
21556
21467
21555
21530
21534
21617
21520
21500
21532
21713
21570
21403
21479
21448
21347
21340
21100
21108
20851
20838
20678
20592
20620
20455
20343
20416
20158
20264
20332
20196
19965
20169
19961
20013
20015
20097
20074
19976
20048
20004
19749
19959
19754
19920
19898
19878
19869
19733
19939
19727
19833
19698
19742
19876
19957
19974
20122
20051
19965
20098
20173
20200
20163
20261
20169
20337
20240
20249
20338
20429
20346
20255
20410
20279
20434
20392
20528
20476
20418
20327
20609
20646
20675
20560
20620
20471
20622
20808
20575
20743
20635
20656
20696
20663
20783
20828
20858
20772
20792
21067
21042
20903
20930
21069
21143
21143
21099
20969
21094
21088
21273
21118
21096
21094
21122
21233
21317
21301
21238
21200
21366
21267
21406
21266
21212
21328
21447
21321
21348
21469
21406
21502
21347
21543
21499
21504
21566
21473
21591
21674
21600
21664
21488
21501
21631
21762
21701
21595
21814
21832
21684
21736
21883
21698
21664
21636
21588
21747
21763
21434
21461
21431
21177
21167
21043
20956
20787
20725
20791
20693
20706
20696
20620
20534
20290
20525
20463
20399
20269
20312
20227
20428
20315
20234
20334
20230
20243
20252
20099
20215
20318
20355
20213
20302
20223
20186
20291
20339
20289
20305
20352
20337
20400
20422
20533
20536
20540
20542
20690
20716
20712
20644
20719
20660
20826
20606
20831
20692
20911
20836
20921
20941
20771
20967
21033
20917
20973
20941
21066
20979
21018
21117
21056
21034
21247
21257
21266
21288
21266
21292
21258
21323
21489
21406
21503
21486
21435
21483
21571
21619
21498
21488
21536
21652
21643
21657
21627
21565
21574
21590
21630
21688
21846
21629
21777
21891
21810
21754
21778
21852
21980
21747
21776
21931
22026
21898
21840
22105
21954
21966
22150
22084
22126
22216
22139
22134
22143
22254
22305
22344
22229
22415
22423
22247
22448
22463
22499
22474
22463
22354
22375
22329
22075
22158
22047
21866
21819
21774
21478
21529
21523
21261
21159
21105
21047
20975
20950
20768
20825
20760
20736
20815
20679
20719
20673
20628
20551
20661
20460
20628
20530
20555
20488
20666
20594
20666
20533
20659
20643
20606
20706
20722
20821
20637
20748
20816
20707
20906
20833
20792
20912
20924
20907
20947
20901
21026
20908
20956
20970
20957
21018
20916
20885
21047
20891
21052
21187
21007
20999
21002
21079
21056
21198
21109
21182
21128
21192
21263
21215
21251
21453
21322
21328
21441
21470
21536
21475
21652
21625
21670
21467
21589
21695
21697
21607
21638
21564
21736
21648
21758
21861
21811
21786
21853
21809
21900
21977
21854
22004
21826
22086
21974
21939
22140
22095
22081
21980
22191
22169
22230
22190
22076
22251
22065
22286
22059
22239
22316
22176
22248
22240
22414
22219
22360
22153
22294
22291
22309
22228
22350
22309
22145
22170
22209
22057
22041
21884
21773
21708
21565
21520
21463
21360
21279
21181
21087
20874
20922
20977
20800
20684
20732
20837
20573
20696
20587
20505
20509
20726
20536
20689
20456
20592
20668
20515
20573
20706
20674
20711
20700
20655
20812
20870
20734
20854
20955
21047
20868
21075
20966
21121
21019
21015
21068
20993
21077
21009
21180
21169
21164
21200
21152
21284
21134
21174
21288
21291
21393
21272
21380
21237
21256
21244
21369
21462
21482
21610
21478
21591
21499
21551
21554
21626
21653
21497
21763
21530
21580
21582
21674
21735
21721
21678
21931
21803
21932
21937
21999
21958
22058
21915
21917
22043
22066
21917
22053
22148
22159
22156
22156
22146
22091
22174
22167
22278
22262
22178
22279
22126
22264
22359
22227
22250
22291
22234
22421
22313
22284
22448
22492
22425
22465
22347
22388
22345
22627
22404
22506
22612
22398
22356
22448
22393
22333
22353
22201
22044
22024
21883
21825
21647
21703
21534
21501
21387
21371
21226
21249
21098
21059
21020
21021
20858
20795
20740
20976
20995
20874
20778
20735
20630
20717
20760
20700
20841
20698
20846
20966
20914
21027
21077
20995
21116
21037
21145
21163
21061
21230
21151
21293
21207
21323
21274
21124
21338
21106
21192
21312
21303
21193
21291
21311
21397
21332
21213
21299
21247
21312
21337
21321
21359
21416
21462
21540
21623
21545
21519
21714
21715
21751
21677
21545
21726
21780
21742
21647
21893
21923
21884
21816
21821
21824
21992
21876
21920
21965
22129
22017
22034
22061
22066
21962
22124
22223
22174
22232
22050
22172
22190
22259
22272
22302
22196
22241
22206
22441
22335
22332
22470
22300
22329
22357
22334
22438
22401
22424
22651
22451
22466
22642
22486
22505
22658
22717
22540
22661
22694
22565
22562
22486
22572
22415
22454
22422
22276
22300
22174
22122
21904
21895
21769
21642
21637
21349
21390
21321
21380
21112
21087
21061
21097
21060
20875
20945
20859
20904
20878
20791
20861
20687
20766
20768
20757
20845
20861
20820
20978
21071
21038
21101
20892
20910
21068
21132
21265
21194
21016
21234
21283
21213
21097
21257
21250
21300
21328
21243
21189
21241
21278
21187
21338
21274
21407
21371
21474
21302
21477
21548
21382
21344
21507
21437
21484
21458
21621
21457
21700
21767
21577
21817
21880
21695
21788
21719
21718
21946
21841
21979
21947
22039
21858
21828
21920
22029
21942
22010
21925
22063
22125
22090
22229
22053
22085
22192
22289
22312
22221
22271
22148
22308
22293
22378
22426
22406
22408
22472
22424
22352
22414
22593
22436
22358
22485
22677
22579
22529
22707
22508
22560
22596
22599
22762
22751
22666
22460
22555
22415
22381
22126
22193
21956
21983
21779
21863
21778
21575
21461
21508
21220
21137
21218
20980
21049
21114
20956
20880
20958
20864
20863
20788
20742
20674
20823
20787
20582
20775
20660
20742
20840
20756
20802
20754
20708
20832
20715
20752
20917
20964
20995
20895
20857
20870
20920
20919
21017
21073
21122
21068
21098
21178
21080
21035
21126
21150
21090
21075
21191
21257
21263
21248
21223
21234
21349
21287
21248
21402
21520
21451
21360
21468
21475
21400
21357
21589
21542
21484
21693
21517
21527
21630
21767
21666
21779
21686
21735
21661
21765
21674
21883
21705
21827
21806
21830
21903
21907
21972
21935
21992
21994
21996
22045
22086
22029
22164
22101
22157
22134
22191
22178
22285
22205
22324
22198
22271
22358
22355
22225
22193
22433
22316
22492
22389
22267
22488
22400
22245
22315
22170
22152
22258
22007
21992
21991
21911
21660
21431
21431
21203
21281
21106
21091
20840
20930
20719
20721
20620
20765
20630
20511
20456
20643
20661
20579
20404
20546
20418
20332
20401
20277
20498
20482
20266
20396
20284
20368
20369
20417
20500
20392
20328
20471
20466
20496
20604
20551
20645
20682
20721
20615
20698
20794
20836
20814
20940
20852
20764
20753
20871
20706
20969
20941
21010
20986
20997
20859
20977
20971
21123
21138
21098
21160
21156
21185
21232
21302
21171
21178
21261
21291
21328
21356
21382
21506
21429
21459
21500
21433
21525
21459
21521
21647
21483
21574
21584
21749
21695
21684
21799
21655
21668
21814
21847
21823
21836
21789
21907
21984
21887
21811
22052
21949
21983
21979
22041
22129
22069
22099
22145
22202
22036
22010
22232
22052
22156
22273
22357
22314
22154
22178
22205
22159
22260
22137
21970
21893
21921
21698
21737
21644
21416
21323
21233
21281
21021
20870
20929
20835
20815
20732
20537
20637
20532
20653
20392
20342
20318
20303
20263
20396
20229
20305
20199
20258
20176
20242
20174
20202
20217
20137
20157
20169
20220
20313
20226
20377
20210
20209
20397
20364
20417
20491
20348
20400
20418
20584
20572
20558
20599
20613
20607
20638
20460
20599
20558
20681
20639
20569
20489
20501
20493
20616
20516
20521
20765
20660
20567
20725
20660
20806
20870
20882
20772
20916
20709
20733
20788
20755
21000
20892
21053
20991
21047
20991
21080
21058
20951
21075
20998
21110
21028
21198
21148
21250
21280
21254
21234
21398
21234
21189
21354
21489
21446
21412
21558
21411
21490
21398
21495
21606
21568
21641
21677
21660
21665
21513
21538
21712
21717
21788
21788
21665
21493
21554
21671
21573
21500
21229
21256
21111
21057
20800
20840
20656
20658
20452
20501
20309
20422
20390
20288
20320
20302
20099
20212
20109
20225
20080
20106
20068
19848
20068
19863
19848
20053
20028
19777
19903
19964
19939
19993
19962
19987
19815
19998
19981
19895
19973
20135
20239
20007
20269
20176
20362
20422
20209
20353
20305
20445
20445
20268
20484
20418
20288
20457
20313
20342
20484
20425
20418
20506
20489
20437
20442
20590
20474
20545
20623
20718
20660
20529
20744
20762
20683
20647
20705
20755
20803
20934
20864
20839
20893
20859
20795
20953
20825
20838
20833
20984
20873
20960
20845
20920
21069
20988
21013
20914
21018
20990
21114
20968
21179
21024
21180
21260
21040
21186
21137
21266
21304
21224
21181
21210
21286
21166
21401
21275
21253
21453
21398
21300
21279
21396
21409
21533
21484
21379
21332
21528
21335
21306
21208
21210
21246
20973
20866
20866
20787
20749
20505
20381
20361
20171
20163
20169
20100
20147
19990
20115
20036
19976
19979
19850
19730
19811
19844
19779
19722
19735
19676
19685
19709
19667
19649
19640
19617
19648
19669
19626
19635
19774
19643
19752
19677
19791
19772
19833
19877
19887
19932
19989
19984
19984
20046
20087
20096
20051
20087
20168
20112
20192
20137
20260
20118
20084
20283
20176
20362
20319
20276
20298
20291
20352
20374
20453
20380
20337
20414
20459
20447
20495
20513
20567
20558
20548
20756
20657
20551
20652
20748
20660
20573
20681
20705
20866
20735
20900
20814
20886
20881
20950
20840
20880
20965
20829
20892
21047
21040
20943
21054
21062
21065
20967
20995
20967
21109
21083
21156
21041
21153
21100
21235
21127
21056
21199
21231
21317
21357
21294
21244
21443
21404
21226
21445
21259
21464
21343
21446
21423
21219
21259
21305
21129
21124
20997
20711
20793
20560
20478
20298
20283
20117
20239
20111
20039
19901
19931
19841
19879
19636
19876
19832
19566
19579
19533
19615
19435
19636
19552
19467
19626
19434
19619
19470
19511
19374
19426
19573
19445
19400
19571
19574
19565
19555
19598
19632
19762
19685
19866
19724
19914
19800
20010
19959
19875
19967
19840
19946
20086
19946
19876
20025
20144
20112
20075
19966
20167
20146
20198
20289
20208
20193
20226
20339
20169
20215
20215
20323
20463
20382
20362
20365
20358
20493
20336
20447
20614
20543
20580
20679
20546
20707
20762
20663
20689
20794
20572
20589
20655
20790
20752
20900
20789
20693
20935
20752
20937
20962
20963
20891
20978
20981
20935
20795
20888
20999
20987
20979
21033
21060
21027
21014
21048
21178
21084
21098
21012
21221
21173
21244
21174
21235
21202
21176
21155
21187
21168
21077
21045
20967
20891
20816
20716
20569
20554
20401
20144
20135
20118
19991
20036
19969
19801
19885
19665
19628
19586
19740
19570
19665
19485
19529
19488
19559
19607
19473
19483
19413
19602
19350
19361
19441
19375
19421
19377
19499
19366
19399
19483
19487
19647
19619
19604
19734
19611
19791
19731
19706
19815
19838
19769
19712
19827
19750
19844
19789
19900
19905
19893
19876
19890
19928
19919
19874
19886
19931
20017
19904
20050
19903
19973
20078
20134
20039
20058
20129
20233
20270
20248
20264
20158
20091
20255
20289
20330
20378
20299
20302
20423
20299
20431
20360
20492
20454
20560
20589
20513
20623
20477
20652
20605
20756
20771
20740
20655
20803
20941
20906
20940
20902
20934
21010
20853
20882
20884
20859
20976
20905
21047
20924
20939
21061
21149
21122
20967
20993
21172
21275
21283
21109
21089
21219
21100
21235
21326
21215
21224
21232
21125
21269
21008
20937
20813
20791
20723
20481
20479
20418
20258
20277
20171
20027
19934
19934
19937
19677
19844
19700
19816
19640
19521
19606
19588
19477
19445
19601
19586
19433
19440
19335
19362
19394
19253
19278
19356
19128
19310
19347
19234
19384
19230
19175
19340
19256
19478
19459
19390
19370
19332
19554
19575
19531
19599
19567
19722
19580
19609
19808
19700
19831
19696
19935
19944
19787
19973
19863
19919
20128
20123
19923
20126
20144
20114
20004
20034
20150
20117
20110
20261
20249
20334
20231
20284
20380
20380
20402
20392
20195
20244
20259
20307
20333
20402
20314
20340
20260
20436
20417
20430
20420
20466
20619
20521
20480
20523
20741
20585
20561
20656
20653
20714
20691
20693
20732
20686
20756
20858
20746
20811
20789
20854
20783
20845
20733
20986
20911
21006
20940
20963
20827
21011
20884
20850
21025
21117
21157
20925
21188
20995
21178
21222
21012
21013
21193
20968
20991
20888
20978
20704
20630
20768
20606
20431
20308
20273
20179
20001
20045
19996
19919
19784
19686
19774
19656
19491
19456
19435
19419
19393
19358
19482
19459
19379
19375
19368
19324
19333
19385
19440
19431
19246
19394
19402
19376
19409
19433
19548
19517
19495
19506
19557
19456
19546
19651
19661
19639
19632
19805
19886
19939
19983
19713
20006
19884
19905
19873
20078
19901
20010
20031
19851
20007
19889
20072
19921
19913
19891
19966
19987
20080
20035
19985
20090
20189
20192
20133
20167
20072
20089
20307
20132
20120
20263
20278
20244
20256
20294
20286
20468
20411
20390
20350
20423
20416
20434
20516
20457
20396
20473
20564
20416
20522
20486
20397
20586
20457
20575
20430
20701
20793
20539
20610
20575
20561
20697
20775
20655
20753
20721
20798
20904
20840
20726
20762
20924
20797
20824
20981
21036
20815
20892
20981
21062
20880
21002
20898
20981
20991
21083
21038
20972
21039
20854
20742
20621
20600
20605
20436
20315
20225
20282
20041
20098
19964
19915
19697
19702
19751
19703
19704
19575
19700
19413
19526
19451
19338
19410
19309
19404
19339
19262
19230
19424
19157
19350
19240
19355
19386
19329
19178
19363
19335
19432
19340
19254
19434
19359
19533
19434
19519
19653
19644
19613
19574
19630
19592
19685
19731
19590
19558
19668
19750
19755
19708
19764
19735
19823
19657
19630
19781
19725
19814
19700
19736
19785
19931
19975
19869
19854
20055
20066
20123
20159
20016
19899
20046
20199
20175
20192
20208
20164
20157
20193
20224
20201
20381
20292
20350
20456
20397
20381
20405
20531
20462
20552
20437
20440
20522
20463
20621
20556
20537
20657
20705
20754
20580
20753
20625
20662
20701
20713
20831
20859
20753
20857
20818
20973
20929
20921
20918
21037
20964
21109
21104
21121
21136
21107
21102
21098
21139
21219
21289
21278
21286
21183
21311
21224
21125
21239
21166
20991
20822
20889
20749
20749
20449
20444
20299
20224
20239
20207
20125
20082
19928
19749
19849
19787
19770
19617
19675
19717
19625
19655
19588
19610
19467
19485
19419
19567
19500
19465
19630
19603
19684
19556
19648
19675
19695
19576
19669
19751
19710
19671
19724
19887
19789
19921
19836
19777
19871
19906
19920
19958
20056
19998
19967
19940
20026
20044
20043
20151
20198
20088
20300
20204
20087
20110
20110
20190
20248
20403
20245
20462
20435
20356
20451
20445
20517
20382
20466
20561
20499
20699
20698
20678
20730
20537
20557
20608
20699
20727
20703
20785
20913
20866
20823
20798
20967
20853
20849
21013
20977
21052
20990
21065
21065
20987
21128
21113
21048
21144
21074
21115
21210
21277
21138
21146
21322
21295
21123
21293
21183
21278
21237
21395
21362
21397
21362
21329
21480
21519
21486
21426
21421
21368
21589
21609
21499
21387
21466
21364
21545
21501
21266
21283
21304
21105
21003
20801
20866
20804
20544
20598
20301
20375
20323
20231
20100
20125
20122
19991
19872
19889
19830
19919
19864
19732
19941
19972
19893
19884
19810
19941
19891
19801
19768
19921
19753
19831
19764
19948
20020
19874
20067
19978
19994
20140
20140
20112
20138
20310
20156
20142
20192
20394
20231
20198
20256
20490
20362
20510
20305
20387
20303
20428
20514
20466
20472
20397
20402
20492
20607
20522
20674
20634
20598
20591
20595
20556
20590
20769
20810
20882
20661
20822
20947
20922
20938
20864
20929
20924
21034
21047
20989
20927
21048
20859
20955
21012
21181
21105
21046
21118
21139
21179
21045
21218
21320
21202
21343
21250
21206
21357
21308
21257
21374
21413
21331
21520
21409
21527
21373
21580
21503
21433
21530
21645
21515
21686
21463
21661
21693
21541
21705
21632
21537
21535
21724
21661
21426
21580
21530
21402
21123
21222
20966
20934
20820
20929
20607
20700
20486
20453
20337
20183
20163
20312
20110
19960
20075
20162
19881
20040
20068
19804
19894
19931
19905
19770
19747
19766
19711
19757
19902
19810
19878
19814
19690
19743
19765
19871
19841
19888
19956
19892
20048
19985
19984
19936
19995
20076
20073
19994
20001
20093
20029
20062
20135
20127
20060
20101
20101
20282
20100
20347
20365
20154
20382
20203
20389
20298
20363
20281
20443
20505
20445
20358
20421
20565
20445
20596
20611
20520
20499
20631
20501
20562
20709
20715
20539
20625
20694
20661
20604
20671
20752
20826
20614
20907
20725
20840
20817
20732
20903
20764
20847
21067
20979
21059
20910
20967
20897
20902
21091
20999
21051
21182
21137
21119
21216
21178
21009
21179
21174
21122
21050
21168
21337
21314
21272
21323
21169
21296
21250
21115
21198
21227
21203
21193
21069
21035
20969
20806
20656
20643
20412
20315
20246
20247
20136
19938
19950
19778
19786
19806
19782
19751
19663
19538
19574
19575
19502
19509
19502
19473
19435
19337
19426
19424
19400
19259
19336
19220
19293
19320
19295
19432
19459
19499
19481
19441
19418
19598
19464
19592
19667
19709
19694
19606
19711
19710
19853
19728
19646
19797
19646
19889
19723
19777
19891
19685
19929
19742
19819
19983
19776
19890
19864
20054
19915
19867
20020
19975
20205
20107
19965
20056
20132
20228
20117
20189
20379
20318
20336
20270
20182
20259
20394
20260
20419
20535
20361
20474
20414
20550
20637
20694
20690
20647
20582
20782
20704
20766
20543
20775
20857
20734
20748
20738
20673
20775
20906
20965
20849
20936
20909
20758
20911
20969
20850
21077
20953
21091
21066
21113
20953
21088
21051
21098
21100
21033
20941
21094
21190
21040
21065
20889
20802
20842
20810
20678
20593
20389
20276
20201
20139
20116
20018
19714
19809
19723
19672
19723
19597
19725
19676
19564
19599
19527
19467
19422
19510
19422
19504
19455
19511
19352
19473
19415
19336
19297
19316
19300
19353
19464
19343
19536
19322
19397
19554
19443
19557
19699
19663
19665
19699
19571
19808
19815
19863
19862
19738
19706
19802
19879
19822
19889
19869
19917
19968
19925
19772
19954
19797
19881
19893
19927
20047
20030
20009
20011
20113
20118
20077
20029
20112
20253
20212
20295
20335
20375
20173
20404
20356
20320
20256
20410
20297
20402
20561
20478
20492
20456
20568
20505
20563
20516
20592
20545
20623
20658
20628
20557
20645
20612
20636
20558
20797
20599
20803
20597
20766
20670
20813
20717
20965
20895
20937
20827
21026
20969
20966
20878
20899
20920
21047
21039
20881
21084
20915
20990
20911
21042
20920
20967
20801
20775
20644
20435
20409
20189
20112
20045
19979
19912
19869
19654
19585
19609
19679
19501
19546
19458
19391
19410
19472
19282
19293
19182
19319
19285
19253
19066
19117
19071
19233
19221
19216
19190
19077
18938
19014
19156
19015
19122
19095
19222
19240
19321
19183
19359
19425
19454
19248
19373
19394
19342
19538
19521
19606
19437
19390
19517
19606
19446
19635
19502
19640
19445
19535
19612
19541
19691
19590
19601
19746
19758
19599
19715
19665
19801
19670
19796
19720
19805
19951
19913
19871
19835
19841
19965
19900
19903
19995
20023
19964
19919
20003
20055
20108
19933
20046
20168
20197
20026
20207
20248
20025
20140
20272
20148
20204
20228
20064
20238
20322
20273
20357
20375
20356
20334
20314
20419
20408
20275
20473
20533
20504
20504
20440
20330
20397
20611
20482
20399
20359
20327
20273
20227
20290
20024
20082
19859
19992
19758
19588
19662
19548
19485
19347
19199
19335
19238
19173
19211
19107
19159
19080
19021
19013
19020
19023
18915
19006
18954
18806
18883
18770
18981
18781
18858
18878
18961
18846
18821
18882
18868
18917
19037
18886
19041
19072
19131
19044
18986
19275
19155
19205
19193
19177
19232
19377
19217
19273
19229
19416
19371
19344
19441
19417
19504
19405
19475
19523
19569
19431
19493
19483
19610
19510
19714
19723
19800
19649
19762
19853
19695
19879
19708
19856
19933
19813
19891
19839
19823
19926
19850
20106
20110
20144
20160
20144
20001
20094
20114
20106
20218
20307
20238
20336
20207
20384
20336
20201
20378
20277
20372
20322
20138
20348
20261
20328
20281
20263
20494
20342
20320
20318
20481
20308
20408
20501
20465
20319
20567
20463
20531
20445
20534
20598
20550
20714
20653
20546
20423
20533
20467
20379
20408
20198
20034
20038
19863
19770
19676
19592
19578
19533
19496
19461
19110
19312
19241
19241
19123
19122
18928
18872
18952
18898
19028
18864
18980
19005
18800
18839
18889
18719
18888
18882
18861
18676
18792
18732
18851
18919
18873
18737
18751
18762
18964
18978
18957
18994
18970
18929
19067
18996
19134
19096
19209
19324
19210
19342
19249
19194
19346
19254
19404
19436
19356
19352
19528
19359
19372
19438
19353
19497
19533
19629
19471
19698
19710
19719
19742
19571
19655
19692
19723
19797
19721
19709
19872
19875
19895
19808
19977
19886
20010
19866
19919
20062
20032
20026
20166
20044
20120
20206
20265
20204
20203
20298
20125
20333
20334
20274
20241
20512
20348
20478
20340
20434
20503
20531
20360
20571
20411
20534
20639
20624
20583
20559
20693
20598
20512
20675
20536
20677
20720
20769
20648
20730
20794
20762
20721
20780
20639
20821
20697
20691
20389
20552
20219
20312
20138
20018
19774
19836
19811
19558
19416
19455
19243
19258
19156
19209
19109
19076
19238
19036
19083
19128
19007
18882
18929
18872
19036
19031
18933
18999
18970
19047
18925
18812
18880
18885
18816
18933
18940
19000
19047
19059
18918
19079
19240
19173
19198
19187
19279
19312
19287
19380
19207
19431
19278
19245
19405
19383
19358
19288
19479
19461
19532
19545
19554
19367
19475
19452
19518
19515
19535
19648
19576
19719
19798
19734
19781
19726
19661
19791
19835
19875
19840
19913
20062
20005
20078
20085
19973
20102
20080
20033
20069
20103
20087
20283
20206
20074
20177
20336
20269
20227
20366
20256
20286
20327
20345
20346
20374
20416
20469
20352
20254
20343
20399
20428
20553
20496
20450
20577
20554
20457
20535
20528
20716
20562
20672
20551
20744
20591
20747
20770
20828
20684
20764
20743
20866
20830
20743
20774
20565
20439
20383
20375
20250
20075
19950
20001
19765
19718
19760
19577
19364
19415
19338
19477
19295
19406
19286
19199
19170
19197
19196
19108
19167
19032
18969
19028
18961
19042
19129
18992
18904
19023
18967
18920
18910
18984
19048
19032
19025
19216
19066
19043
19156
19175
19189
19317
19345
19506
19405
19545
19370
19393
19560
19638
19603
19641
19508
19514
19562
19583
19758
19756
19791
19747
19843
19730
19662
19864
19696
19774
19941
19820
19955
19811
19969
19899
20009
20094
20218
20089
20255
20021
20234
20342
20265
20188
20188
20379
20298
20371
20273
20439
20548
20528
20355
20414
20591
20486
20407
20422
20630
20608
20672
20573
20591
20593
20711
20568
20730
20699
20718
20890
20764
20883
20776
20702
20772
20829
20803
20935
21016
20990
21066
21010
20880
20964
20989
21000
21099
21190
21202
21232
21234
21132
21261
21082
21185
21169
21140
20902
20947
20762
20797
20597
20606
20426
20262
20061
20068
20096
20027
19892
19839
19680
19752
19562
19446
19500
19461
19467
19412
19344
19351
19439
19358
19221
19399
19316
19296
19377
19229
19161
19248
19188
19175
19341
19218
19198
19420
19196
19256
19363
19441
19413
19423
19546
19657
19541
19505
19678
19860
19656
19659
19758
19766
19778
19831
19825
19782
19886
19910
19936
19862
19892
19955
19939
20079
20040
20197
20252
20254
20263
20242
20245
20369
20315
20198
20290
20292
20343
20369
20301
20387
20417
20344
20523
20441
20558
20511
20370
20461
20397
20526
20511
20643
20646
20497
20639
20703
20503
20557
20699
20683
20501
20551
20562
20763
20594
20630
20633
20786
20823
20753
20892
20707
20875
20708
20736
20929
20810
20899
20763
20824
20815
20910
21011
20985
20809
20921
21000
20811
20989
20918
20994
20944
20869
20875
20655
20677
20513
20287
20218
20288
20145
20102
19835
19876
19738
19529
19464
19566
19414
19410
19466
19419
19504
19268
19287
19186
19252
19171
19276
19158
19101
19068
19167
19191
19168
19046
19214
19240
19116
19048
19119
19045
19322
19159
19254
19195
19332
19500
19367
19391
19414
19441
19654
19659
19710
19691
19474
19648
19617
19696
19786
19675
19615
19815
19707
19778
19803
19702
19762
19843
19884
19870
19991
19917
19831
19828
19892
19896
20120
20072
19927
20108
20075
20172
20011
20178
20044
20233
20065
20316
20327
20173
20180
20188
20394
20424
20368
20227
20336
20503
20407
20280
20540
20517
20599
20533
20433
20568
20680
20553
20473
20670
20738
20552
20743
20570
20587
20708
20585
20846
20676
20759
20781
20694
20865
20936
20895
20880
20877
21020
20867
20955
20918
21110
20904
21095
21119
20972
21135
21116
20962
20930
21036
20793
20845
20777
20592
20581
20372
20386
20282
20036
20016
19740
19754
19792
19672
19509
19508
19444
19418
19299
19419
19312
19231
19135
19247
19198
19152
19096
19022
19131
19092
19143
18969
19074
19060
19184
19053
18997
19226
19148
19003
19123
19213
19153
19080
19358
19374
19403
19430
19254
19330
19497
19494
19619
19509
19450
19486
19577
19614
19569
19570
19650
19775
19752
19793
19657
19701
19787
19834
19867
19797
19907
19966
19912
20043
19885
20037
19881
20008
19927
20132
19990
20217
20280
20114
20094
20145
20221
20198
20386
20341
20304
20384
20271
20360
20364
20342
20549
20519
20603
20670
20422
20618
20654
20484
20734
20667
20724
20698
20645
20662
20869
20701
20868
20805
20857
20852
20791
20900
20859
20815
20869
21022
20940
20995
20975
20827
21000
21135
20949
21160
21020
21015
21216
21030
21260
21201
21026
21111
21068
21253
21183
20941
20980
21030
20753
20823
20553
20454
20513
20205
20073
20185
20131
19968
19726
19602
19541
19583
19601
19628
19493
19555
19402
19408
19341
19376
19379
19309
19371
19265
19097
19322
19196
19238
19160
19309
19266
19301
19180
19362
19268
19203
19260
19282
19370
19520
19447
19619
19600
19648
19589
19777
19820
19848
19636
19644
19681
19891
19731
19918
19771
19806
19976
19945
19789
19897
20062
19931
20027
19998
20116
19982
19983
20119
20109
20050
20138
20054
20184
20256
20139
20366
20399
20162
20347
20407
20273
20371
20416
20413
20514
20398
20527
20393
20377
20438
20392
20526
20679
20601
20644
20526
20569
20636
20685
20614
20623
20726
20772
20613
20788
20844
20748
20753
20923
20864
20833
20723
20989
20815
20938
20834
21042
20911
20831
20939
20912
21098
20996
21114
21015
21068
21214
21168
21192
21249
21215
21026
21225
21095
21181
21318
21109
21220
21174
20963
21042
20999
20897
20717
20651
20503
20210
20206
20119
20011
19824
19808
19904
19821
19746
19539
19462
19418
19446
19534
19410
19434
19373
19483
19372
19279
19390
19332
19254
19410
19274
19389
19353
19349
19293
19225
19122
19343
19402
19265
19269
19306
19394
19455
19583
19486
19477
19694
19641
19567
19775
19666
19676
19751
19730
19735
19718
19668
19780
19934
19994
19984
20012
19879
19897
20010
19943
20102
19953
20212
20154
20111
20172
20098
20259
20169
20130
20215
20236
20220
20299
20323
20351
20231
20378
20317
20411
20393
20443
20567
20469
20585
20513
20519
20614
20497
20547
20659
20528
20611
20674
20645
20599
20790
20710
20716
20667
20754
20983
20959
20824
20872
20821
20790
21045
20827
20928
20904
21082
21012
21011
21045
21135
21194
21013
21019
21137
21222
21184
21199
21100
21145
21171
21159
21041
21131
20995
20997
20865
20838
20736
20571
20597
20463
20318
20351
20102
20020
19987
19992
19804
19886
19790
19624
19549
19485
19670
19549
19503
19394
19597
19385
19352
19479
19349
19373
19298
19375
19356
19430
19402
19239
19336
19434
19320
19316
19411
19494
19449
19373
19564
19532
19532
19493
19734
19798
19803
19731
19813
19684
19671
19959
19793
19832
19919
19782
19988
19880
19802
19874
19839
20038
20075
20032
20005
19913
19933
19970
20000
20042
20138
19960
20120
20044
20175
20001
20103
20267
20116
20281
20303
20265
20328
20296
20286
20391
20306
20350
20572
20390
20435
20555
20413
20452
20627
20558
20631
20488
20538
20572
20726
20793
20708
20704
20629
20780
20865
20806
20754
20686
20875
20960
20821
20762
20967
20942
20972
21031
20885
20975
20949
21103
21087
21114
21082
21140
21064
21185
21136
21237
21186
21199
21199
21255
21166
21229
20982
20980
21001
20786
20619
20660
20573
20219
20328
20140
20118
20038
19930
19696
19827
19600
19731
19651
19473
19336
19532
19419
19387
19509
19277
19257
19261
19390
19305
19265
19222
19205
19210
19132
19353
19179
19230
19141
19138
19186
19283
19197
19277
19318
19481
19358
19310
19567
19602
19649
19660
19539
19517
19681
19633
19717
19644
19832
19746
19611
19785
19828
19840
19864
19915
19720
19732
19888
19929
19963
20065
20020
19982
19981
19910
19927
19959
20213
20067
20170
20044
20290
20133
20104
20153
20165
20287
20445
20315
20435
20396
20492
20325
20277
20357
20303
20459
20436
20559
20467
20525
20507
20471
20524
20484
20653
20527
20717
20573
20587
20636
20657
20786
20671
20821
20871
20709
20927
20781
20968
20771
20749
20993
20766
20795
20867
20960
20931
20908
21070
20966
21084
20927
21060
21190
21070
21202
20948
21129
20929
20862
20825
20808
20512
20625
20346
20330
20115
20086
20062
19846
19685
19629
19587
19576
19334
19369
19287
19357
19294
19201
19301
19302
19164
19239
19229
19231
19046
19099
19206
19035
19082
19032
19167
19061
19123
19093
19051
19048
19143
19154
19040
19154
19108
19230
19207
19322
19327
19363
19303
19466
19341
19449
19432
19459
19425
19351
19414
19550
19522
19426
19585
19403
19473
19719
19457
19575
19738
19737
19597
19713
19736
19659
19824
19749
19887
19748
19683
19769
19770
19942
19775
19878
19868
20023
19858
19970
20067
19907
19933
20071
20081
19930
20078
20231
20045
20265
20053
20203
20236
20292
20222
20254
20372
20227
20130
20241
20243
20402
20438
20317
20392
20279
20327
20434
20258
20431
20499
20417
20416
20523
20545
20459
20370
20567
20584
20586
20436
20468
20521
20498
20408
20561
20478
20478
20387
20294
20190
20187
20133
19894
19999
19884
19630
19519
19613
19305
19418
19250
19306
19354
19271
19245
19200
19092
19130
19163
19034
18902
19076
19065
19085
18835
18993
18954
18988
18994
18944
18944
18988
18914
18771
18850
18938
19058
18980
19052
19016
18956
19092
19028
19111
19165
19171
19333
19190
19122
19205
19375
19328
19314
19311
19414
19241
19483
19287
19458
19450
19480
19377
19502
19296
19545
19368
19401
19525
19584
19586
19513
19580
19560
19658
19744
19678
19649
19751
19629
19729
19778
19869
19690
19699
19895
19791
19726
19809
19948
20021
19839
20002
20046
19883
20145
19921
19990
20014
20023
20021
20170
20079
20050
20180
20293
20275
20229
20267
20285
20218
20281
20400
20300
20240
20390
20318
20401
20356
20411
20466
20348
20428
20441
20555
20462
20504
20552
20448
20514
20476
20458
20524
20420
20551
20550
20484
20421
20374
20197
20182
20047
20119
19904
19926
19703
19699
19449
19554
19508
19373
19327
19278
19077
19115
19026
19145
18907
18812
18902
18965
18990
18845
18913
18867
18732
18835
18682
18721
18711
18663
18693
18679
18715
18828
18686
18788
18678
18699
18877
18865
18857
18872
18861
18962
18960
19119
19050
19141
19088
19226
19132
19179
19267
19229
19176
19220
19106
19301
19182
19236
19216
19357
19180
19481
19450
19477
19218
19495
19377
19459
19374
19556
19604
19662
19482
19734
19557
19553
19717
19536
19574
19671
19803
19706
19862
19764
19952
19832
19746
19918
19968
19914
19998
20002
19917
19917
20105
20085
20085
19973
20060
20141
20107
20174
20100
20194
20108
20110
20098
20106
20240
20140
20310
20231
20295
20174
20198
20230
20421
20284
20312
20296
20420
20438
20409
20451
20406
20515
20362
20506
20453
20492
20562
20455
20502
20520
20595
20581
20561
20422
20456
20340
20356
20271
20198
20161
19979
19907
19784
19702
19687
19570
19337
19484
19217
19270
19228
19254
19059
18990
18925
19033
18941
18984
19085
18967
18855
18962
18857
18993
18905
18816
18908
19012
18898
18759
18887
18866
18808
18940
19012
18838
18872
18894
19088
18899
19022
18995
19002
19192
19242
19260
19232
19242
19254
19297
19324
19419
19337
19333
19325
19461
19332
19441
19343
19532
19577
19336
19574
19394
19611
19507
19696
19696
19673
19749
19759
19692
19626
19847
19721
19769
19840
19793
19912
19966
19873
19809
19977
20023
19984
19945
20000
20126
20044
20044
20079
20118
20162
20133
19986
20100
20109
20186
20292
20200
20230
20237
20176
20317
20260
20309
20391
20418
20377
20407
20273
20239
20310
20275
20333
20494
20423
20347
20598
20518
20598
20422
20465
20627
20654
20622
20708
20716
20613
20653
20714
20806
20613
20816
20638
20698
20555
20584
20567
20435
20303
20164
20120
19999
19794
19701
19622
19577
19454
19475
19360
19295
19213
19206
19106
19173
19242
19140
19170
19024
19080
19049
18947
18921
19032
18933
19036
18890
18964
18964
18836
18755
18866
18724
18866
18817
18811
18844
19015
18923
18899
19155
19119
19063
19129
19040
19093
19230
19331
19172
19091
19224
19171
19189
19123
19365
19384
19355
19381
19200
19219
19242
19193
19254
19482
19381
19334
19476
19440
19328
19513
19536
19523
19361
19551
19530
19551
19482
19448
19493
19491
19682
19692
19595
19744
19621
19794
19683
19696
19764
19693
19640
19714
19677
19751
19660
19825
19783
19810
19726
19826
19878
19957
19914
19895
19742
19943
19871
19778
19775
19900
19788
19873
20073
20031
19980
19987
19923
20134
20085
19939
20139
20101
20135
20089
20008
20134
20180
20107
20059
20147
20124
20173
20201
20202
20160
20215
20083
20209
20148
20128
20017
19794
19774
19604
19588
19626
19380
19213
19337
19119
19036
19028
18995
18817
18923
18951
18765
18706
18672
18745
18740
18663
18677
18600
18745
18525
18508
18656
18560
18583
18534
18624
18636
18648
18552
18617
18543
18639
18573
18661
18539
18765
18737
18591
18672
18731
18819
18688
18878
18844
18797
18968
18776
19003
18845
18890
18978
19063
18927
19031
18901
19141
19144
19057
19092
18932
19180
19172
19025
19054
19250
19219
19183
19242
19269
19345
19182
19197
19471
19319
19345
19413
19444
19303
19250
19361
19269
19490
19434
19574
19415
19472
19495
19421
19533
19513
19611
19674
19508
19647
19645
19516
19719
19636
19530
19641
19699
19693
19740
19690
19875
19863
19796
19777
19879
19836
19749
19982
19767
19966
19797
19882
19872
19928
19844
19808
20005
19871
19940
20025
19954
20126
20044
19981
20100
20173
20164
20049
19987
19954
20057
20002
19853
19862
19797
19622
19583
19540
19450
19220
19236
19229
18991
19061
18833
18815
18717
18911
18704
18602
18759
18594
18628
18719
18615
18632
18463
18628
18612
18409
18558
18583
18466
18631
18601
18547
18410
18603
18409
18510
18410
18559
18573
18598
18648
18604
18704
18714
18724
18899
18780
18706
18841
18971
18795
18809
18927
18909
18892
19017
19091
18977
18879
19153
18907
19035
18999
19059
19004
19241
19024
19086
19291
19217
19315
19128
19342
19297
19152
19383
19361
19309
19434
19299
19314
19461
19323
19391
19559
19354
19483
19435
19618
19655
19646
19626
19557
19561
19485
19667
19520
19657
19728
19681
19699
19701
19695
19755
19788
19744
19754
19891
19806
19806
19798
19880
19893
19973
19868
19758
19822
19927
19919
20057
19833
19911
20009
19990
20126
19941
19941
20117
19920
20174
20064
20130
20101
20124
20194
20261
20022
20178
19986
19919
19934
19991
19767
19749
19539
19507
19368
19402
19310
19109
19202
19066
18866
19024
19001
18855
18933
18708
18688
18678
18677
18719
18752
18751
18647
18776
18653
18765
18700
18507
18532
18711
18518
18631
18584
18586
18730
18561
18701
18583
18595
18772
18738
18794
18873
18908
18740
18922
18735
18842
19042
18981
18981
18894
18913
19021
19057
18901
19035
19038
19032
19027
19104
19049
19012
19072
19114
19068
19240
19028
19058
19214
19149
19133
19108
19252
19272
19264
19406
19196
19190
19454
19283
19474
19472
19479
19469
19480
19500
19422
19524
19415
19550
19695
19570
19464
19497
19545
19536
19528
19591
19649
19573
19653
19756
19709
19584
19692
19866
19733
19691
19820
19927
19942
19855
19791
19864
19937
19931
19968
20026
19964
19950
19955
20073
19994
20149
20220
20166
20079
20163
20134
20310
20250
20430
