22411
22435
22458
22470
22470
22478
22493
22503
22509
22502
22473
22446
22432
22426
22426
22417
22385
22339
22285
22243
22223
22224
22225
22197
22138
22082
22048
22028
22006
21973
21927
21880
21849
21832
21810
21772
21730
21693
21660
21636
21620
21604
21587
21559
21518
21482
21449
21410
21381
21358
21338
21327
21310
21276
21235
21200
21179
21168
21154
21136
21105
21047
20977
20912
20855
20796
20729
20661
20601
20542
20486
20438
20394
20354
20323
20302
20277
20246
20214
20180
20141
20100
20062
20023
19969
19907
19852
19808
19767
19701
19614
19538
19474
19420
19388
19366
19329
19275
19216
19166
19130
19095
19047
18997
18950
18916
18888
18843
18775
18703
18645
18606
18577
18533
18473
18418
18364
18298
18228
18159
18089
18021
17961
17913
17864
17813
17780
17770
17785
17826
17888
17975
18081
18201
18355
18548
18762
18989
19224
19464
19709
19962
20215
20458
20674
20860
21031
21194
21339
21458
21548
21620
21695
21785
21884
21977
22064
22147
22223
22296
22385
22490
22605
22731
22862
22992
23121
23238
23332
23417
23501
23590
23682
23767
23831
23872
23894
23915
23936
23939
23920
23897
23872
23848
23826
23794
23747
23700
23675
23675
23688
23703
23724
23746
23758
23767
23786
23807
23827
23835
23835
23836
23828
23817
23813
23810
23801
23794
23800
23809
23793
23749
23700
23658
23619
23582
23530
23449
23359
23290
23249
23220
23188
23152
23118
23089
23064
23037
22995
22933
22869
22812
22762
22717
22673
22633
22604
22580
22556
22527
22485
22443
22412
22382
22342
22295
22248
22215
22194
22168
22129
22078
22014
21952
21911
21884
21847
21792
21736
21685
21628
21564
21500
21439
21384
21341
21305
21265
21216
21156
21090
21035
20989
20940
20891
20843
20797
20760
20723
20672
20622
20583
20549
20522
20484
20422
20360
20302
20243
20192
20149
20100
20052
20022
20001
19968
19910
19839
19780
19727
19661
19596
19549
19510
19483
19469
19435
19381
19330
19284
19236
19177
19100
19023
18961
18904
18853
18803
18748
18700
18669
18639
18599
18535
18450
18373
18316
18267
18221
18181
18151
18145
18176
18234
18306
18388
18485
18614
18780
18965
19162
19375
19605
19858
20128
20393
20638
20870
21107
21350
21571
21753
21910
22051
22187
22327
22457
22565
22655
22731
22813
22921
23035
23137
23222
23292
23372
23479
23600
23720
23833
23942
24068
24214
24352
24474
24593
24708
24813
24904
24968
24994
24997
24999
25008
24997
24951
24899
24859
24823
24792
24764
24736
24709
24683
24666
24665
24671
24682
24695
24699
24696
24695
24704
24727
24745
24749
24747
24742
24736
24734
24724
24695
24651
24608
24573
24541
24501
24459
24423
24387
24350
24312
24262
24210
24168
24131
24098
24061
24010
23951
23889
23830
23784
23741
23684
23622
23569
23528
23497
23453
23394
23353
23335
23314
23282
23237
23176
23110
23060
23023
22981
22923
22860
22799
22733
22666
22598
22523
22450
22393
22350
22312
22282
22249
22208
22173
22137
22099
22057
22003
21950
21906
21860
21805
21734
21655
21597
21563
21521
21457
21372
21266
21164
21091
21050
21019
20974
20914
20857
20802
20749
20699
20639
20570
20500
20431
20379
20350
20317
20272
20232
20204
20184
20157
20103
20027
19950
19877
19805
19725
19642
19574
19521
19466
19408
19346
19274
19213
19172
19126
19068
18999
18924
18862
18819
18776
18721
18655
18579
18504
18436
18377
18325
18263
18190
18125
18076
18030
17981
17928
17869
17811
17769
17753
17762
17793
17860
17962
18094
18260
18453
18673
18901
19116
19335
19558
19787
20032
20276
20498
20695
20872
21040
21198
21339
21467
21575
21657
21725
21792
21865
21944
22017
22077
22133
22199
22287
22388
22485
22586
22693
22794
22894
22997
23108
23217
23305
23381
23460
23534
23596
23632
23638
23622
23590
23558
23549
23564
23582
23581
23554
23518
23486
23459
23441
23430
23421
23404
23384
23376
23384
23401
23422
23433
23432
23428
23430
23445
23461
23469
23466
23436
23389
23348
23317
23295
23267
23231
23199
23172
23147
23126
23099
23056
22998
22938
22892
22859
22825
22784
22738
22691
22649
22617
22593
22565
22519
22465
22420
22388
22358
22326
22284
22234
22190
22159
22134
22106
22069
22029
21991
21947
21903
21865
21825
21782
21746
21711
21675
21622
21546
21483
21448
21421
21388
21334
21254
21173
21110
21065
21028
20986
20938
20898
20866
20835
20798
20745
20684
20629
20587
20552
20510
20452
20381
20318
20273
20245
20224
20192
20151
20110
20068
20028
19982
19921
19868
19829
19796
19774
19745
19688
19619
19560
19513
19474
19424
19360
19308
19275
19245
19215
19182
19142
19101
19068
19052
19040
19024
19021
19046
19097
19174
19286
19426
19581
19743
19920
20135
20379
20627
20869
21092
21303
21523
21745
21961
22155
22325
22489
22647
22788
22916
23025
23108
23184
23269
23363
23452
23523
23583
23644
23713
23801
23906
24014
24120
24212
24289
24368
24454
24546
24643
24720
24762
24777
24785
24802
24825
24842
24846
24829
24800
24770
24746
24736
24725
24700
24684
24687
24700
24717
24722
24703
24681
24677
24685
24688
24681
24674
24679
24688
24698
24711
24711
24692
24666
24650
24647
24641
24614
24567
24509
24453
24412
24380
24344
24301
24254
24213
24185
24156
24118
24078
24029
23982
23954
23944
23938
23915
23867
23817
23778
23744
23710
23666
23602
23538
23490
23460
23437
23407
23370
23334
23300
23270
23246
23220
23184
23134
23077
23025
22977
22934
22889
22824
22751
22694
22654
22621
22576
22513
22453
22406
22362
22323
22273
22205
22144
22104
22079
22062
22031
21972
21901
21825
21756
21708
21671
21627
21572
21518
21474
21437
21398
21349
21279
21201
21141
21105
21089
21067
21027
20979
20922
20859
20808
20772
20743
20700
20629
20554
20494
20449
20418
20389
20350
20289
20207
20125
20054
19993
19945
19907
19868
19819
19766
19722
19686
19663
19666
19689
19722
19770
19848
19969
20123
20301
20494
20691
20902
21137
21393
21672
21959
22240
22520
22790
23042
23287
23519
23726
23902
24051
24197
24337
24459
24578
24693
24795
24893
24994
25107
25242
25381
25510
25637
25773
25917
26060
26204
26353
26500
26639
26767
26883
26986
27078
27151
27203
27237
27263
27292
27302
27280
27243
27203
27164
27133
27109
27092
27068
27034
27013
27015
27034
27066
27090
27086
27065
27047
27033
27019
27010
27005
26995
26979
26968
26967
26981
26998
27007
27008
26992
26953
26914
26886
26860
26822
26770
26713
26648
26578
26522
26481
26444
26389
26311
26239
26182
26136
26106
26086
26064
26025
25969
25918
25879
25844
25810
25767
25711
25657
25614
25587
25565
25526
25466
25407
25360
25317
25275
25232
25186
25132
25067
24995
24924
24859
24802
24742
24689
24644
24602
24559
24507
24446
24384
24318
24258
24219
24193
24168
24126
24064
24006
23957
23916
23880
23828
23751
23670
23608
23564
23519
23449
23361
23278
23211
23156
23114
23086
23054
23001
22936
22874
22817
22764
22705
22633
22555
22481
22409
22340
22261
22171
22090
22020
21952
21887
21820
21748
21659
21551
21450
21369
21299
21236
21173
21098
21020
20954
20909
20876
20834
20778
20703
20612
20529
20465
20413
20358
20293
20237
20214
20227
20276
20349
20436
20550
20691
20860
21065
21293
21533
21791
22066
22353
22648
22940
23225
23495
23744
23985
24217
24431
24630
24807
24949
25068
25176
25283
25392
25496
25592
25679
25761
25854
25971
26109
26248
26379
26516
26667
26816
26962
27113
27266
27409
27536
27648
27737
27798
27843
27876
27891
27878
27843
27804
27763
27721
27680
27631
27564
27500
27454
27429
27421
27420
27420
27425
27435
27452
27471
27493
27506
27494
27468
27442
27420
27409
27411
27413
27402
27371
27332
27302
27283
27273
27262
27236
27193
27139
27089
27049
27005
26953
26895
26829
26762
26702
26650
26609
26575
26547
26511
26455
26390
26331
26290
26260
26221
26172
26125
26081
26037
25994
25944
25881
25817
25769
25741
25708
25655
25602
25562
25517
25464
25411
25359
25307
25254
25210
25172
25127
25082
25030
24963
24894
24837
24791
24747
24688
24617
24540
24451
24372
24325
24292
24252
24197
24133
24070
24015
23971
23930
23884
23830
23773
23714
23656
23594
23533
23480
23422
23351
23277
23211
23153
23088
23006
22915
22820
22739
22680
22617
22540
22452
22348
22253
22180
22121
22074
22037
22001
21963
21933
21923
21936
21969
22023
22094
22183
22298
22448
22632
22845
23066
23284
23514
23767
24040
24311
24561
24789
24994
25189
25382
25561
25722
25876
26018
26146
26266
26364
26439
26499
26551
26614
26692
26777
26873
26976
27076
27182
27297
27419
27542
27650
27739
27808
27863
27919
27975
28015
28027
28013
27988
27971
27954
27923
27887
27855
27831
27817
27810
27809
27809
27807
27809
27807
27809
27825
27849
27874
27887
27875
27858
27845
27835
27840
27851
27846
27818
27767
27718
27682
27641
27581
27510
27443
27381
27322
27273
27230
27176
27110
27047
26992
26945
26901
26850
26788
26716
26639
26576
26530
26490
26445
26389
26332
26280
26235
26203
26166
26110
26043
25973
25912
25869
25839
25813
25768
25700
25631
25570
25515
25469
25429
25381
25318
25246
25179
25115
25053
25001
24946
24882
24806
24727
24665
24618
24581
24547
24506
24462
24417
24372
24323
24258
24191
24134
24081
24034
23997
23959
23924
23885
23834
23778
23723
23674
23634
23599
23557
23502
23440
23388
23346
23303
23256
23202
23150
23113
23091
23074
23053
23017
22965
22911
22866
22833
22802
22753
22686
22621
22562
22504
22440
22363
22292
22237
22187
22142
22098
22054
22034
22055
22119
22224
22354
22493
22659
22864
23103
23369
23650
23935
24216
24497
24781
25062
25326
25572
25809
26037
26250
26440
26593
26712
26808
26895
26984
27083
27192
27301
27403
27511
27633
27763
27899
28026
28146
28271
28398
28534
28687
28839
28973
29082
29170
29238
29290
29337
29385
29414
29411
29388
29354
29310
29262
29203
29135
29070
29015
28973
28943
28914
28881
28853
28833
28826
28822
28811
28799
28794
28795
28807
28815
28807
28789
28772
28766
28767
28757
28728
28695
28662
28621
28578
28530
28474
28414
28355
28307
28270
28229
28179
28125
28071
28019
27971
27924
27867
27805
27751
27718
27693
27666
27643
27613
27572
27528
27470
27393
27310
27224
27150
27100
27056
27013
26965
26894
26813
26754
26713
26680
26642
26587
26526
26464
26403
26350
26294
26226
26146
26065
25989
25911
25833
25765
25697
25627
25567
25514
25466
25423
25370
25303
25234
25170
25120
25073
25008
24926
24842
24769
24715
24668
24621
24560
24477
24392
24327
24289
24266
24225
24162
24091
24018
23946
23883
23827
23771
23708
23643
23589
23543
23499
23461
23416
23354
23279
23207
23150
23103
23054
22999
22937
22882
22840
22801
22759
22702
22630
22558
22491
22437
22406
22398
22418
22459
22515
22598
22705
22844
23020
23235
23482
23739
23997
24258
24519
24792
25077
25360
25629
25871
26085
26286
26479
26663
26833
26983
27108
27203
27286
27381
27481
27576
27668
27752
27835
27936
28065
28222
28385
28541
28695
28844
28990
29141
29294
29432
29530
29592
29636
29670
29700
29728
29755
29765
29732
29671
29604
29534
29470
29420
29369
29319
29267
29212
29171
29146
29129
29114
29103
29100
29108
29120
29134
29143
29148
29156
29156
29145
29132
29117
29105
29088
29065
29040
29006
28973
28953
28946
28941
28915
28862
28799
28734
28676
28636
28600
28552
28490
28426
28384
28359
28336
28307
28267
28218
28160
28095
28029
27956
27877
27812
27755
27695
27645
27616
27601
27577
27533
27485
27439
27394
27359
27323
27270
27200
27120
27053
27005
26967
26936
26896
26831
26749
26664
26594
26540
26489
26436
26379
26312
26245
26184
26132
26089
26043
25987
25927
25871
25823
25784
25740
25681
25606
25520
25429
25339
25263
25204
25156
25107
25056
25001
24933
24854
24782
24727
24684
24641
24594
24531
24446
24347
24239
24142
24065
24000
23945
23893
23838
23783
23742
23728
23735
23752
23784
23835
23907
23997
24104
24231
24387
24573
24792
25032
25286
25556
25836
26109
26358
26590
26822
27048
27256
27451
27625
27770
27884
27976
28064
28151
28239
28325
28408
28488
28557
28627
28709
28792
28873
28956
29034
29102
29171
29245
29324
29405
29478
29533
29565
29574
29576
29574
29555
29513
29448
29372
29299
29232
29179
29127
29066
29005
28953
28913
28887
28859
28825
28789
28750
28715
28694
28681
28663
28628
28580
28539
28511
28491
28471
28434
28378
28323
28278
28238
28193
28142
28091
28036
27967
27898
27842
27796
27750
27691
27625
27559
27494
27443
27390
27317
27222
27113
27019
26956
26919
26902
26887
26866
26827
26768
26708
26658
26612
26564
26512
26458
26405
26355
26309
26263
26213
26158
26095
26031
25978
25940
25910
25877
25830
25768
25694
25626
25579
25540
25493
25427
25347
25269
25199
25141
25096
25048
25000
24952
24885
24805
24726
24661
24616
24575
24524
24462
24402
24343
24279
24224
24188
24162
24130
24084
24024
23955
23879
23810
23762
23729
23690
23642
23590
23530
23468
23427
23412
23420
23437
23463
23518
23606
23726
23887
24089
24327
24578
24828
25087
25357
25642
25945
26255
26560
26848
27110
27343
27547
27723
27878
28021
28156
28278
28391
28494
28585
28678
28788
28904
29014
29104
29185
29282
29399
29529
29661
29781
29898
30016
30122
30213
30277
30317
30342
30349
30343
30338
30331
30315
30280
30231
30180
30132
30097
30080
30063
30040
30015
29986
29960
29942
29927
29916
29906
29891
29878
29873
29879
29891
29904
29913
29911
29903
29889
29860
29823
29782
29746
29707
29651
29583
29510
29440
29386
29331
29260
29184
29112
29051
29013
28983
28942
28885
28816
28751
28705
28681
28667
28647
28613
28563
28495
28420
28349
28284
28230
28186
28150
28109
28054
27987
27922
27871
27822
27758
27681
27602
27532
27468
27407
27357
27306
27242
27169
27091
27024
26969
26906
26836
26764
26689
26612
26541
26489
26451
26411
26360
26295
26217
26144
26090
26053
26012
25953
25891
25832
25780
25741
25705
25661
25604
25522
25422
25319
25224
25148
25089
25044
25005
24963
24923
24895
24855
24804
24753
24687
24611
24540
24485
24433
24369
24297
24222
24138
24051
23979
23924
23869
23799
23724
23668
23629
23602
23593
23600
23622
23671
23748
23854
23995
24160
24348
24571
24835
25133
25441
25736
26026
26325
26622
26904
27154
27368
27569
27763
27930
28062
28176
28281
28383
28489
28586
28661
28723
28784
28847
28908
28975
29053
29134
29224
29334
29458
29591
29726
29844
29946
30054
30172
30285
30380
30440
30463
30470
30469
30461
30438
30398
30341
30269
30198
30134
30074
30022
29969
29915
29860
29801
29754
29723
29712
29719
29730
29741
29737
29709
29679
29659
29641
29616
29579
29532
29480
29427
29380
29336
29293
29244
29182
29114
29048
28984
28928
28873
28808
28735
28650
28560
28469
28387
28320
28254
28175
28096
28030
27984
27946
27893
27814
27727
27642
27565
27505
27452
27395
27334
27272
27221
27177
27125
27061
26990
26918
26862
26814
26757
26689
26611
26525
26444
26362
26280
26210
26145
26083
26035
25995
25948
25891
25823
25753
25690
25617
25531
25441
25348
25271
25219
25174
25129
25081
25026
24968
24909
24854
24808
24755
24685
24610
24542
24491
24450
24405
24354
24297
24227
24151
24088
24037
23984
23921
23849
23782
23718
23651
23585
23521
23463
23409
23356
23308
23255
23194
23134
23070
23004
22951
22903
22844
22762
22659
22556
22467
22397
22346
22301
22248
22191
22142
22109
22098
22114
22155
22218
22310
22435
22585
22765
22978
23214
23472
23736
23997
24267
24538
24800
25048
25275
25479
25658
25823
25986
26132
26251
26342
26410
26479
26558
26634
26709
26782
26844
26902
26966
27044
27135
27226
27314
27401
27483
27566
27657
27747
27821
27872
27904
27939
27987
28034
28064
28071
28056
28035
28016
27993
27952
27890
27823
27757
27695
27648
27607
27561
27521
27497
27485
27476
27456
27425
27389
27348
27319
27309
27294
27270
27235
27183
27135
27102
27073
27040
26995
26939
26892
26868
26851
26815
26755
26691
26629
26559
26497
26447
26397
26344
26279
26207
26146
26084
26008
25922
25830
25751
25700
25674
25656
25618
25551
25483
25432
25389
25348
25301
25242
25183
25136
25106
25082
25050
24996
24921
24846
24780
24724
24677
24628
24566
24497
24422
24343
24279
24234
24199
24158
24094
24018
23949
23886
23831
23771
23693
23610
23535
23476
23427
23369
23305
23240
23166
23091
23029
22978
22930
22870
22796
22725
22660
22603
22561
22516
22448
22360
22267
22192
22132
22068
21996
21918
21837
21766
21711
21669
21625
21569
21508
21443
21373
21309
21254
21212
21173
21132
21118
21133
21170
21238
21333
21448
21590
21759
21960
22194
22453
22724
22983
23208
23410
23609
23805
23987
24153
24312
24462
24591
24699
24793
24866
24911
24933
24942
24954
24971
24991
25013
25026
25037
25059
25106
25179
25249
25304
25347
25375
25402
25438
25481
25525
25541
25526
25503
25476
25452
25438
25424
25402
25369
25323
25270
25223
25196
25196
25207
25215
25213
25204
25204
25219
25239
25253
25250
25223
25184
25148
25118
25089
25063
25032
24986
24930
24865
24801
24749
24707
24671
24633
24582
24523
24457
24392
24339
24300
24276
24252
24207
24147
24083
24023
23976
23949
23930
23903
23862
23815
23774
23741
23700
23658
23626
23591
23543
23480
23407
23343
23292
23255
23226
23200
23164
23109
23048
22987
22929
22879
22828
22770
22689
22587
22488
22411
22369
22355
22335
22293
22229
22149
22070
21997
21930
21877
21825
21761
21697
21639
21590
21549
21505
21455
21398
21336
21282
21244
21216
21183
21130
21059
20979
20898
20820
20748
20688
20626
20552
20471
20388
20319
20276
20252
20235
20203
20150
20081
19998
19928
19886
19856
19823
19799
19789
19800
19844
19925
20037
20179
20349
20545
20762
20997
21240
21494
21765
22041
22300
22526
22725
22910
23083
23240
23375
23492
23587
23661
23729
23793
23855
23928
23997
24051
24085
24098
24105
24118
24152
24215
24297
24381
24450
24503
24544
24580
24619
24665
24711
24748
24762
24752
24732
24721
24725
24740
24759
24766
24746
24706
24673
24647
24629
24622
24611
24593
24575
24564
24570
24580
24585
24584
24571
24558
24558
24560
24559
24538
24492
24446
24409
24378
24361
24345
24311
24260
24209
24170
24133
24085
24028
23960
23879
23802
23742
23689
23638
23590
23538
23487
23445
23420
23403
23373
23332
23293
23259
23224
23179
23128
23080
23028
22973
22924
22880
22842
22799
22747
22689
22628
22576
22544
22519
22494
22454
22400
22351
22309
22266
22218
22153
22061
21972
21909
21864
21822
21771
21706
21633
21563
21506
21456
21402
21344
21281
21219
21160
21094
21028
20980
20942
20908
20880
20851
20818
20768
20696
20627
20566
20507
20455
20399
20327
20242
20149
20069
20010
19963
19915
19865
19816
19767
19715
19661
19602
19534
19459
19392
19335
19289
19258
19222
19171
19126
19093
19069
19048
19037
19064
19133
19240
19391
19566
19746
19942
20177
20455
20754
21052
21334
21605
21861
22102
22339
22567
22772
22941
23079
23195
23286
23357
23428
23492
23540
23577
23613
23668
23743
23824
23900
23963
24023
24097
24191
24297
24394
24477
24564
24650
24724
24793
24851
24891
24919
24937
24954
24976
24984
24973
24949
24912
24868
24824
24787
24763
24735
24701
24674
24660
24654
24655
24656
24653
24653
24665
24694
24719
24724
24715
24693
24661
24633
24609
24584
24559
24529
24499
24476
24455
24432
24396
24335
24276
24238
24216
24193
24150
24084
24016
23958
23911
23877
23847
23807
23757
23704
23653
23606
23561
23519
23477
23435
23397
23361
23315
23263
23214
23170
23128
23085
23027
22961
22897
22845
22812
22790
22763
22724
22671
22617
22571
22518
22452
22374
22284
22200
22145
22116
22088
22036
21966
21899
21840
21781
21720
21661
21603
21550
21504
21474
21453
21420
21370
21297
21204
21122
21070
21036
20998
20946
20885
20817
20750
20696
20648
20600
20540
20462
20387
20316
20247
20195
20154
20111
20056
19986
19915
19854
19801
19753
19706
19653
19590
19514
19440
19380
19318
19240
19159
19085
19018
18957
18896
18833
18776
18736
18729
18750
18798
18878
18993
19134
19296
19483
19703
19947
20198
20455
20714
20980
21254
21517
21759
21974
22164
22347
22522
22678
22815
22923
22996
23057
23124
23191
23253
23301
23338
23374
23418
23481
23561
23641
23710
23776
23841
23917
24003
24085
24161
24233
24304
24381
24450
24501
24527
24523
24505
24487
24464
24432
24387
24334
24293
24271
24265
24268
24262
24245
24226
24209
24205
24219
24240
24258
24265
24258
24256
24266
24265
24240
24198
24151
24118
24105
24093
24071
24053
24039
24026
24010
23983
23947
23902
23843
23783
23732
23692
23659
23623
23592
23572
23552
23529
23501
23454
23400
23358
23318
23265
23197
23115
23045
23000
22962
22927
22896
22864
22830
22796
22758
22710
22663
22630
22611
22590
22552
22503
22460
22420
22373
22326
22273
22205
22139
22085
22039
21995
21944
21893
21852
21803
21739
21664
21583
21513
21463
21418
21371
21323
21267
21219
21191
21162
21123
21078
21027
20977
20937
20892
20837
20779
20727
20688
20657
20617
20561
20505
20455
20418
20394
20364
20314
20246
20174
20119
20070
20012
19956
19907
19872
19860
19866
19890
19932
19995
20099
20241
20401
20579
20768
20958
21166
21404
21661
21924
22169
22381
22560
22711
22852
22993
23116
23215
23306
23397
23481
23549
23606
23645
23666
23684
23713
23745
23775
23816
23860
23895
23930
23964
23998
24023
24029
24030
24029
24026
24023
24009
23987
23963
23929
23904
23906
23928
23954
23961
23945
23924
23908
23902
23909
23920
23925
23935
23958
23984
24004
24019
24039
24051
24041
24022
24014
24018
24024
24018
23992
23943
23890
23851
23822
23789
23742
23676
23609
23556
23515
23490
23466
23435
23383
23311
23239
23173
23112
23071
23054
23047
23033
23011
22990
22967
22946
22935
22921
22892
22847
22794
22744
22699
22645
22577
22502
22433
22381
22346
22326
22307
22274
22234
22196
22157
22120
22077
22022
21956
21881
21815
21763
21716
21676
21633
21571
21492
21403
21330
21280
21240
21200
21151
21088
21028
20981
20943
20908
20874
20833
20783
20727
20669
20615
20570
20534
20493
20444
20385
20317
20261
20230
20215
20196
20157
20107
20051
20001
19958
19907
19842
19759
19659
19567
19493
19437
19404
19387
19372
19351
19319
19303
19322
19385
19492
19627
19782
19962
20165
20400
20666
20943
21224
21506
21787
22072
22361
22639
22890
23106
23294
23457
23603
23742
23867
23970
24052
24118
24189
24268
24348
24432
24513
24581
24632
24675
24730
24804
24875
24937
24999
25064
25139
25229
25320
25398
25454
25485
25503
25520
25540
25557
25559
25549
25536
25519
25507
25495
25476
25461
25451
25447
25462
25496
25536
25558
25554
25546
25540
25538
25548
25557
25547
25536
25539
25550
25560
25546
25498
25441
25387
25344
25323
25308
25278
25228
25164
25106
25063
25018
24960
24896
24827
24766
24725
24688
24642
24597
24569
24556
24538
24501
24466
24448
24429
24402
24373
24333
24287
24249
24216
24182
24130
24059
23998
23953
23925
23911
23892
23857
23799
23721
23656
23613
23570
23521
23467
23402
23345
23311
23281
23240
23187
23123
23061
23009
22964
22916
22854
22791
22743
22705
22671
22643
22608
22562
22512
22465
22425
22382
22327
22267
22213
22168
22132
22086
22019
21956
21906
21864
21832
21799
21746
21683
21628
21576
21524
21466
21398
21336
21285
21233
21167
21096
21035
20995
20977
20972
20982
21006
21040
21101
21207
21357
21545
21762
22000
22261
22528
22784
23039
23309
23593
23885
24163
24411
24637
24850
25056
25255
25431
25582
25706
25810
25902
25991
26072
26138
26197
26259
26336
26428
26516
26597
26683
26769
26862
26964
27055
27137
27225
27314
27399
27475
27533
27569
27583
27588
27592
27585
27572
27548
27510
27479
27469
27469
27463
27440
27404
27372
27345
27331
27335
27336
27318
27290
27265
27257
27263
27262
27251
27237
27219
27206
27202
27200
27190
27164
27119
27059
26997
26938
26876
26811
26745
26677
26604
26525
26448
26384
26335
26295
26250
26196
26150
26103
26050
26007
25977
25958
25936
25892
25833
25765
25694
25638
25594
25542
25480
25415
25351
25289
25238
25199
25168
25136
25088
25030
24974
24916
24862
24820
24796
24776
24749
24709
24648
24576
24510
24451
24401
24347
24281
24212
24140
24069
24011
23965
23922
23867
23800
23736
23668
23600
23547
23500
23441
23369
23289
23216
23147
23080
23019
22959
22892
22820
22755
22695
22634
22569
22505
22436
22370
22316
22264
22209
22149
22086
22034
21997
21975
21981
22027
22110
22218
22348
22516
22725
22960
23214
23472
23727
23990
24262
24538
24808
25059
25290
25501
25682
25823
25943
26064
26187
26302
26405
26479
26520
26556
26603
26657
26710
26753
26785
26814
26853
26914
26992
27082
27168
27242
27311
27372
27426
27482
27538
27586
27602
27584
27563
27547
27527
27502
27470
27427
27387
27358
27342
27336
27319
27283
27250
27230
27225
27230
27227
27216
27215
27230
27248
27253
27238
27217
27199
27174
27135
27098
27064
27022
26971
26927
26895
26855
26809
26764
26707
26646
26595
26558
26528
26488
26434
26388
26355
26327
26307
26286
26252
26211
26171
26136
26101
26065
26026
25986
25948
25914
25880
25843
25803
25757
25701
25647
25598
25547
25499
25445
25387
25339
25304
25281
25253
25210
25156
25087
25015
24956
24906
24854
24787
24710
24647
24602
24563
24531
24505
24472
24430
24384
24345
24312
24263
24192
24110
24021
23935
23871
23817
23756
23690
23630
23580
23535
23483
23427
23371
23319
23271
23224
23179
23128
23073
23024
22976
22940
22932
22952
22999
23065
23146
23270
23446
23657
23896
24146
24399
24657
24918
25195
25492
25782
26047
26292
26519
26726
26916
27098
27261
27393
27505
27610
27711
27807
27897
27968
28021
28065
28102
28141
28187
28237
28288
28337
28392
28467
28554
28644
28717
28763
28793
28809
28818
28836
28851
28841
28797
28737
28684
28644
28616
28602
28594
28578
28547
28505
28468
28441
28421
28407
28388
28357
28330
28323
28323
28314
28288
28249
28199
28150
28114
28089
28071
28049
28016
27981
27940
27883
27822
27761
27700
27636
27565
27500
27445
27401
27371
27339
27289
27221
27144
27078
27027
26984
26944
26898
26842
26777
26716
26672
26634
26592
26548
26494
26427
26366
26313
26261
26208
26141
26064
25989
25924
25874
25828
25776
25717
25655
25598
25540
25481
25430
25380
25321
25253
25180
25114
25058
24998
24939
24883
24821
24757
24700
24658
24622
24573
24506
24431
24356
24293
24246
24207
24168
24128
24093
24065
24036
23993
23941
23886
23828
23777
23725
23657
23581
23509
23440
23373
23290
23196
23114
23041
22975
22928
22893
22856
22800
22717
22638
22582
22550
22541
22538
22529
22521
22530
22566
22629
22717
22830
22976
23167
23409
23690
23990
24303
24619
24929
25242
25552
25850
26136
26399
26641
26871
27088
27283
27447
27587
27713
27824
27933
28055
28182
28303
28406
28485
28569
28672
28787
28915
29047
29171
29289
29407
29538
29673
29799
29911
30002
30072
30135
30194
30235
30248
30225
30175
30122
30065
30007
29958
29904
29844
29798
29769
29748
29725
29696
29678
29671
29670
29681
29684
29668
29642
29617
29605
29601
29590
29576
29553
29517
29480
29450
29425
29400
29358
29301
29243
29191
29142
29096
29046
28983
28917
28860
28819
28786
28746
28697
28631
28552
28477
28413
28350
28290
28231
28176
28128
28083
28037
27981
27904
27824
27766
27731
27703
27657
27584
27504
27426
27363
27324
27299
27272
27234
27188
27139
27087
27031
26969
26893
26807
26732
26669
26619
26571
26514
26451
26385
26305
26221
26149
26095
26045
25980
25909
25846
25790
25740
25683
25610
25538
25477
25434
25405
25369
25321
25266
25201
25131
25067
25009
24953
24894
24837
24781
24723
24667
24615
24565
24519
24474
24428
24381
24331
24278
24225
24166
24091
24004
23913
23827
23751
23688
23629
23565
23494
23419
23360
23327
23318
23337
23379
23438
23519
23628
23776
23973
24209
24466
24730
24999
25283
25590
25916
26245
26563
26856
27123
27371
27607
27829
28037
28226
28383
28509
28623
28732
28836
28940
29030
29109
29191
29280
29379
29484
29595
29713
29825
29939
30068
30201
30332
30435
30507
30565
30613
30654
30695
30722
30722
30696
30651
30604
30564
30532
30504
30462
30399
30333
30279
30243
30223
30201
30169
30139
30121
30116
30123
30130
30123
30094
30050
29994
29932
29881
29846
29827
29808
29774
29729
29673
29613
29564
29523
29478
29411
29312
29213
29138
29093
29072
29049
29017
28971
28907
28838
28770
28705
28646
28593
28537
28472
28406
28343
28280
28225
28187
28168
28160
28141
28106
28061
28006
27949
27911
27896
27875
27833
27773
27696
27617
27544
27482
27433
27370
27289
27208
27130
27065
27014
26966
26921
26875
26822
26758
26680
26602
26535
26477
26431
26382
26316
26240
26165
26095
26034
25974
25898
25801
25699
25612
25538
25476
25426
25379
25324
25254
25181
25120
25060
24999
24939
24868
24791
24715
24643
24572
24490
24393
24303
24234
24194
24182
24184
24192
24208
24240
24304
24409
24557
24744
24958
25204
25478
25767
26074
26385
26694
27018
27336
27624
27888
28130
28351
28553
28724
28859
28961
29042
29124
29207
29279
29340
29392
29460
29546
29638
29731
29820
29898
29964
30025
30090
30156
30208
30246
30270
30274
30277
30291
30309
30319
30303
30262
30213
30163
30114
30077
30048
30018
29982
29944
29914
29894
29884
29883
29880
29871
29857
29839
29830
29822
29803
29780
29752
29728
29722
29716
29690
29638
29566
29500
29446
29393
29340
29274
29183
29088
29009
28945
28881
28809
28740
28680
28630
28594
28566
28537
28501
28450
28383
28324
28277
28237
28200
28147
28075
28006
27957
27919
27876
27826
27778
27734
27698
27674
27652
27627
27586
27528
27459
27374
27277
27191
27121
27064
27004
26935
26872
26819
26774
26739
26710
26675
26612
26523
26441
26382
26338
26306
26272
26228
26170
26103
26033
25972
25923
25873
25815
25759
25705
25651
25600
25540
25473
25409
25334
25257
25192
25126
25047
24950
24835
24729
24640
24563
24511
24471
24423
24366
24315
24291
24302
24340
24409
24512
24649
24822
25028
25268
25532
25800
26072
26366
26687
27019
27343
27645
27921
28164
28380
28583
28783
28977
29148
29291
29413
29514
29613
29715
29806
29886
29952
29989
30014
30062
30139
30237
30339
30439
30540
30640
30744
30852
30934
30976
30996
31013
31029
31036
31026
30993
30935
30860
30787
30734
30701
30676
30648
30624
30606
30592
30577
30559
30548
30540
30527
30511
30487
30463
30453
30457
30464
30450
30410
30368
30327
30294
30285
30274
30234
30172
30098
30017
29939
29868
29800
29734
29667
29591
29512
29439
29366
29296
29234
29169
29097
29032
28978
28928
28864
28786
28715
28665
28629
28600
28567
28518
28464
28420
28382
28345
28287
28207
28131
28064
28010
27968
27924
27862
27775
27678
27600
27545
27498
27457
27415
27359
27299
27245
27193
27133
27051
26957
26879
26824
26780
26733
26672
26604
26533
26457
26381
26305
26236
26174
26105
26036
25978
25935
25901
25853
25784
25708
25632
25567
25526
25491
25443
25384
25322
25270
25238
25207
25160
25113
25073
25035
24988
24917
24831
24748
24681
24624
24561
24479
24386
24301
24226
24164
24112
24063
24016
23979
23966
23989
24034
24092
24182
24316
24490
24710
24958
25214
25487
25794
26136
26495
26850
27184
27510
27835
28151
28450
28728
28977
29192
29377
29550
29709
29838
29947
30059
30179
30310
30444
30564
30674
30792
30923
31061
31199
31330
31453
31568
31679
31794
31904
31998
32084
32175
32266
32349
32404
32428
32428
32401
32362
32320
32273
32219
32148
32056
31966
31890
31830
31787
31744
31692
31648
31625
31616
31608
31590
31566
31549
31549
31564
31586
31600
31600
31586
31559
31523
31477
31425
31369
31308
31245
31170
31084
31007
30931
30849
30760
30664
30580
30518
30467
30414
30348
30268
30190
30124
30072
30030
29987
29931
29866
29803
29746
29688
29616
29537
29453
29373
29319
29286
29258
29232
29196
29140
29067
28996
28933
28873
28802
28720
28634
28555
28484
28422
28372
28320
28256
28180
28093
28015
27953
27894
27834
27763
27674
27579
27494
27424
27365
27301
27233
27168
27105
27046
26993
26933
26861
26794
26745
26707
26669
26619
26555
26483
26415
26356
26296
26230
26161
26087
26019
25964
25901
25826
25745
25650
25556
25485
25435
25398
25350
25279
25199
25121
25048
24985
24919
24844
24766
24685
24608
24538
24467
24395
24317
24237
24175
24153
24170
24208
24254
24317
24413
24550
24740
24981
25258
25550
25842
26143
26467
26799
27128
27454
27770
28080
28386
28670
28921
29136
29324
29514
29707
29881
30035
30166
30272
30358
30435
30517
30594
30650
30700
30776
30884
31009
31136
31253
31363
31484
31614
31732
31816
31860
31884
31912
31929
31928
31916
31883
31840
31797
31748
31695
31634
31565
31510
31468
31417
31361
31306
31254
31217
31199
31198
31201
31193
31178
31159
31132
31117
31119
31120
31110
31083
31044
31003
30961
30914
30856
30791
30726
30665
30606
30541
30475
30404
30331
30267
30206
30145
30091
30034
29979
29929
29886
29849
29794
29716
29640
29575
29518
29473
29422
29347
29264
29187
29124
29080
29039
28994
28954
28918
28883
28849
28814
28764
28693
28616
28544
28471
28392
28316
28243
28170
28113
28076
28044
28000
27936
27869
27814
27755
27686
27616
27541
27469
27410
27363
27322
27268
27192
27113
27040
26972
26919
26873
26815
26742
26674
26621
26565
26485
26398
26325
26257
26196
26149
26099
26043
25993
25952
25923
25889
25831
25746
25646
25549
25474
25417
25359
25313
25285
25270
25281
25322
25390
25500
25656
25849
26080
26341
26608
26890
27196
27524
27864
28191
28490
28779
29064
29339
29601
29830
30013
30167
30305
30428
30530
30605
30670
30738
30807
30874
30940
30995
31039
31085
31143
31217
31299
31375
31448
31522
31592
31660
31720
31759
31783
31795
31800
31799
31774
31717
31642
31559
31493
31453
31418
31370
31312
31254
31202
31160
31130
31110
31098
31091
31091
31095
31085
31066
31061
31070
31084
31093
31076
31042
31012
30982
30943
30895
30829
30751
30679
30607
30520
30430
30350
30282
30221
30153
30078
30006
29940
29879
29827
29778
29724
29661
29593
29541
29506
29467
29402
29310
29205
29108
29022
28939
28860
28778
28696
28631
28586
28554
28526
28483
28421
28356
28294
28235
28168
28086
28008
27937
27866
27800
27723
27622
27513
27407
27313
27235
27159
27080
26997
26902
26812
26743
26690
26642
26583
26506
26419
26330
26254
26199
26151
26102
26049
25990
25931
25877
25816
25740
25662
25595
25546
25507
25470
25421
25349
25268
25189
25115
25055
25002
24939
24867
24799
24737
24679
24617
24551
24483
24398
24316
24263
24228
24191
24136
24058
23979
23910
23844
23783
23728
23669
23595
23519
23459
23411
23370
23338
23315
23317
23360
23452
23595
23774
23967
24185
24440
24726
25042
25375
25706
26054
26431
26812
27183
27534
27863
28186
28498
28782
29032
29244
29411
29546
29670
29796
29918
30028
30127
30216
30299
30387
30483
30578
30674
30785
30910
31048
31193
31327
31441
31545
31646
31749
31843
31906
31939
31951
31948
31939
31918
31882
31835
31776
31716
31665
31618
31574
31528
31471
31420
31380
31353
31346
31343
31325
31293
31252
31226
31227
31238
31242
31238
31229
31221
31217
31219
31217
31195
31152
31091
31020
30956
30904
30861
30818
30759
30693
30624
30551
30479
30402
30309
30216
30135
30072
30029
29990
29944
29885
29812
29743
29689
29651
29622
29585
29528
29458
29384
29314
29252
29199
29155
29109
29059
29014
28971
28936
28910
28875
28820
28749
28680
28618
28558
28496
28435
28371
28312
28256
28199
28148
28092
28020
27944
27871
27803
27748
27696
27632
27553
27464
27379
27308
27245
27193
27135
27056
26968
26882
26812
26762
26718
26671
26627
26582
26532
26481
26427
26360
26277
26194
26124
26058
25994
25935
25877
25814
25739
25659
25591
25534
25481
25423
25353
25279
25210
25154
25115
25069
25009
24943
24870
24792
24717
24645
24582
24518
24440
24362
24297
24241
24184
24120
24055
23996
23939
23893
23868
23862
23879
23916
23981
24100
24285
24518
24775
25040
25324
25642
25983
26338
26694
27037
27380
27729
28076
28409
28714
28992
29244
29464
29662
29846
30020
30180
30316
30426
30531
30638
30746
30864
30986
31099
31196
31287
31390
31508
31633
31756
31873
31987
32100
32214
32323
32411
32464
32487
32484
32458
32431
32407
32373
32325
32267
32205
32148
32093
32039
31988
31930
31874
31833
31802
31779
31760
31736
31716
31701
31690
31689
31687
31675
31661
31655
31658
31650
31616
31565
31500
31421
31340
31269
31212
31168
31124
31067
31003
30940
30882
30823
30754
30685
30621
30560
30502
30435
30356
30276
30201
30138
30089
30050
30017
29970
29905
29839
29774
29712
29658
29614
29577
29523
29448
29362
29272
29189
29123
29068
29008
28947
28897
28860
28824
28772
28707
28631
28549
28472
28405
28343
28279
28207
28132
28051
27973
27913
27854
27774
27679
27580
27498
27446
27403
27351
27288
27209
27129
27064
27017
26981
26936
26870
26801
26738
26681
26626
26571
26511
26437
26357
26285
26216
26146
26074
25994
25908
25828
25758
25702
25652
25602
25544
25466
25379
25305
25245
25195
25136
25056
24984
24927
24875
24823
24756
24678
24608
24557
24535
24548
24587
24652
24737
24840
24984
25181
25423
25693
25975
26269
26584
26923
27267
27598
27906
28184
28444
28707
28977
29233
29465
29668
29828
29947
30036
30106
30177
30248
30313
30380
30440
30495
30570
30655
30740
30820
30891
30971
31062
31152
31237
31302
31339
31362
31379
31395
31404
31397
31373
31332
31280
31229
31183
31145
31107
31068
31034
31003
30972
30951
30939
30935
30937
30935
30921
30900
30884
30888
30908
30933
30942
30925
30898
30869
30846
30828
30806
30785
30754
30704
30635
30550
30473
30417
30377
30337
30278
30199
30115
30029
29959
29916
29880
29831
29767
29702
29654
29623
29598
29561
29500
29440
29393
29349
29311
29274
29236
29194
29136
29075
29028
28991
28961
28925
28877
28829
28778
28721
28669
28615
28544
28462
28387
28336
28306
28278
28239
28179
28105
28033
27973
27922
27866
27801
27740
27673
27587
27496
27412
27341
27284
27226
27159
27085
27012
26954
26913
26872
26814
26742
26680
26623
26562
26504
26446
26380
26309
26232
26165
26118
26082
26050
26009
25947
25863
25772
25702
25648
25588
25524
25458
25386
25308
25237
25185
25142
25098
25057
25028
25022
25049
25110
25207
25340
25505
25708
25957
26243
26564
26910
27275
27645
28008
28366
28709
29029
29328
29609
29865
30088
30273
30436
30587
30726
30865
30995
31097
31181
31263
31357
31452
31530
31604
31683
31768
31867
31980
32098
32211
32304
32374
32438
32497
32542
32578
32596
32601
32612
32615
32595
32558
32513
32471
32434
32379
32306
32238
32174
32118
32086
32072
32056
32024
31983
31947
31923
31909
31896
31870
31832
31801
31788
31782
31772
31746
31710
31677
31641
31593
31539
31480
31415
31350
31289
31238
31186
31122
31055
30990
30924
30860
30795
30721
30658
30613
30569
30522
30461
30380
30309
30254
30201
30154
30108
30046
29980
29931
29898
29865
29813
29743
29678
29621
29556
29485
29420
29365
29317
29270
29216
29151
29085
29034
28997
28953
28890
28819
28738
28653
28574
28488
28392
28292
28198
28126
28072
28021
27975
27928
27861
27781
27710
27653
27611
27564
27500
27435
27385
27343
27309
27275
27232
27179
27121
27068
27013
26950
26886
26823
26765
26715
26674
26629
26572
26496
26416
26348
26291
26243
26196
26132
26054
25974
25901
25841
25781
25716
25647
25572
25503
25444
25389
25342
25290
25218
25128
25026
24932
24871
24856
24883
24940
25031
25165
25342
25569
25844
26158
26500
26854
27204
27560
27928
28313
28704
29078
29425
29741
30034
30319
30586
30833
31051
31227
31379
31520
31647
31765
31865
31950
32024
32083
32146
32233
32346
32486
32632
32767
32889
32999
33110
33242
33396
33550
33678
33772
33837
33878
33898
33903
33888
33855
33799
33722
33641
33565
33505
33447
33372
33287
33204
33138
33100
33077
33058
33037
33011
32991
32987
33000
33020
33015
32979
32932
32883
32835
32798
32769
32735
32688
32636
32594
32559
32516
32458
32383
32294
32212
32146
32089
32022
31942
31866
31807
31756
31709
31658
31595
31521
31441
31354
31274
31196
31113
31040
30981
30923
30869
30812
30739
30667
30604
30549
30501
30448
30379
30312
30259
30212
30167
30108
30029
29953
29886
29820
29754
29683
29603
29529
29470
29412
29345
29272
29197
29128
29062
28992
28927
28867
28808
28746
28669
28577
28487
28408
28343
28294
28247
28180
28096
28015
27962
27932
27898
27849
27786
27706
27621
27546
27481
27416
27347
27268
27185
27110
27052
26999
26929
26848
26771
26708
26660
26623
26583
26537
26482
26410
26328
26250
26165
26069
25979
25903
25840
25773
25703
25638
25572
25508
25452
25398
25342
25282
25221
25184
25180
25199
25247
25331
25450
25608
25809
26051
26331
26630
26948
27292
27649
28019
28398
28758
29084
29386
29674
29952
30214
30452
30662
30829
30964
31098
31233
31360
31474
31568
31654
31737
31824
31926
32030
32126
32218
32318
32433
32558
32684
32811
32923
33014
33086
33147
33207
33262
33294
33297
33276
33243
33213
33190
33166
33134
33080
33011
32946
32892
32849
32813
32775
32736
32698
32667
32652
32637
32615
32598
32584
32573
32569
32559
32536
32492
32431
32380
32343
32307
32266
32211
32130
32036
31947
31874
31816
31758
31696
31631
31560
31488
31428
31379
31330
31268
31203
31143
31073
30994
30918
30837
30753
30676
30613
30576
30552
30526
30495
30455
30411
30369
30328
30291
30242
30172
30102
30035
29968
29917
29879
29839
29789
29732
29676
29627
29578
29527
29471
29405
29336
29272
29209
29143
29069
28983
28898
28829
28778
28737
28685
28617
28541
28469
28404
28340
28278
28230
28186
28134
28083
28036
27997
27950
27880
27803
27719
27637
27575
27517
27444
27349
27236
27133
27057
26995
26938
26879
26807
26729
26658
26596
26531
26458
26388
26324
26263
26213
26199
26230
26298
26388
26501
26647
26828
27052
27310
27586
27871
28159
28450
28750
29053
29357
29656
29931
30193
30446
30692
30922
31118
31279
31406
31484
31539
31600
31678
31767
31839
31889
31940
31984
32023
32077
32141
32198
32251
32316
32392
32472
32546
32603
32635
32653
32666
32671
32669
32657
32630
32590
32544
32493
32445
32398
32340
32270
32194
32140
32119
32117
32118
32109
32082
32058
32052
32063
32076
32075
32061
32039
32008
31976
31952
31931
31898
31848
31785
31720
31655
31583
31505
31411
31305
31212
31140
31083
31030
30971
30913
30861
30801
30734
30662
30579
30501
30442
30393
30341
30272
30185
30105
30037
29973
29921
29883
29846
29799
29740
29687
29646
29603
29548
29482
29404
29332
29277
29234
29189
29132
29068
29008
28947
28888
28836
28780
28717
28655
28597
28534
28455
28365
28283
28206
28123
28048
27968
27874
27790
27725
27680
27648
27607
27552
27488
27404
27322
27265
27222
27183
27145
27104
27065
27023
26971
26912
26850
26774
26693
26621
26560
26509
26458
26407
26359
26309
26250
26194
26138
26072
26000
25935
25882
25831
25774
25718
25661
25604
25554
25502
25434
25365
25304
25254
25214
25168
25111
25060
25027
25020
25048
25116
25218
25351
25524
25747
26007
26300
26623
26961
27305
27662
28025
28376
28716
29043
29348
29639
29915
30164
30392
30602
30799
30989
31164
31319
31460
31589
31706
31814
31907
31988
32070
32155
32249
32364
32488
32604
32715
32826
32937
33044
33147
33243
33325
33392
33459
33529
33580
33602
33591
33558
33521
33482
33427
33352
33271
33199
33149
33111
33074
33036
33001
32975
32958
32938
32913
32905
32911
32917
32925
32926
32902
32865
32832
32799
32765
32720
32653
32591
32544
32499
32455
32409
32351
32287
32234
32181
32120
32055
31998
31951
31900
31827
31740
31661
31589
31526
31467
31393
31310
31233
31162
31105
31059
31011
30963
30920
30872
30816
30753
30678
30610
30571
30546
30512
30461
30397
30339
30295
30241
30170
30100
30033
29974
29926
29875
29810
29740
29674
29610
29542
29471
29400
29344
29295
29236
29170
29098
29025
28965
28924
28888
28841
28780
28715
28655
28601
28554
28500
28429
28360
28305
28254
28205
28136
28041
27953
27883
27824
27775
27721
27655
27585
27519
27460
27401
27337
27272
27222
27179
27127
27078
27028
26965
26903
26853
26795
26714
26626
26550
26488
26427
26355
26271
26186
26104
26025
25946
25865
25792
25729
25666
25605
25541
25470
25414
25383
25373
25391
25427
25466
25519
25607
25752
25953
26187
26452
26748
27064
27403
27768
28137
28494
28839
29176
29500
29800
30069
30318
30549
30756
30946
31120
31269
31398
31512
31621
31738
31845
31932
32017
32108
32209
32330
32457
32566
32668
32777
32903
33044
33178
33293
33401
33500
33596
33682
33737
33756
33747
33723
33696
33665
33619
33555
33476
33397
33331
33278
33230
33180
33133
33099
33082
33069
33066
33073
33069
33060
33059
33071
33093
33093
33059
33014
32979
32950
32924
32891
32844
32794
32751
32710
32665
32607
32542
32485
32436
32389
32339
32275
32196
32121
32052
31989
31931
31868
31798
31729
31664
31617
31585
31546
31496
31443
31390
31346
31305
31260
31211
31153
31096
31045
30985
30915
30837
30751
30675
30616
30565
30519
30471
30410
30344
30285
30233
30182
30119
30043
29972
29909
29840
29766
29683
29590
29509
29455
29413
29358
29285
29207
29138
29081
29035
28989
28932
28863
28781
28695
28616
28539
28466
28405
28348
28294
28254
28221
28180
28120
28044
27978
27926
27869
27809
27740
27647
27543
27450
27371
27302
27233
27160
27090
27033
26987
26940
26883
26816
26756
26710
26682
26670
26670
26706
26783
26884
27023
27200
27399
27628
27892
28190
28519
28849
29161
29474
29792
30097
30381
30634
30853
31061
31273
31474
31645
31784
31896
31984
32046
32084
32110
32136
32162
32196
32244
32295
32344
32401
32473
32559
32644
32707
32751
32796
32841
32884
32919
32934
32931
32922
32900
32856
32810
32768
32722
32669
32600
32523
32454
32404
32378
32375
32377
32372
32359
32342
32329
32319
32307
32297
32308
32332
32351
32363
32356
32326
32298
32277
32247
32200
32143
32085
32028
31965
31881
31791
31718
31653
31591
31535
31479
31424
31376
31322
31257
31189
31122
31064
31020
30977
30926
30876
30828
30786
30748
30708
30663
30605
30534
30470
30418
30362
30303
30245
30182
30124
30077
30027
29964
29902
29852
29811
29763
29693
29611
29537
29463
29386
29313
29236
29162
29100
29047
29000
28951
28890
28837
28798
28754
28699
28630
28542
28457
28389
28340
28301
28248
28173
28101
28049
28003
27956
27909
27862
27813
27772
27732
27672
27599
27530
27472
27415
27345
27274
27216
27160
27109
27072
27031
26975
26914
26848
26778
26708
26638
26571
26510
26439
26354
26276
26216
26169
26143
26133
26130
26154
26232
26356
26515
26702
26917
27170
27463
27785
28128
28483
28840
29203
29566
29909
30228
30526
30803
31059
31296
31504
31683
31848
32003
32142
32261
32353
32434
32523
32605
32676
32758
32857
32969
33084
33184
33269
33358
33455
33553
33663
33776
33872
33947
34014
34070
34102
34112
34103
34082
34057
34020
33968
33918
33872
33825
33779
33724
33660
33609
33576
33549
33527
33513
33506
33501
33483
33452
33434
33433
33433
33430
33409
33363
33320
33292
33266
33229
33170
33094
33026
32972
32922
32875
32827
32772
32716
32660
32602
32541
32473
32401
32342
32294
32239
32182
32124
32066
32019
31983
31938
31882
31819
31753
31689
31623
31552
31489
31433
31381
31336
31288
31231
31176
31127
31086
31050
30994
30912
30825
30752
30699
30663
30624
30570
30507
30438
30370
30309
30239
30157
30082
30014
29944
29870
29793
29718
29660
29625
29602
29570
29514
29446
29380
29308
29238
29177
29111
29041
28973
28910
28858
28807
28751
28688
28616
28549
28502
28461
28419
28362
28285
28202
28121
28041
27971
27909
27847
27783
27728
27685
27638
27576
27505
27431
27359
27299
27242
27179
27118
27054
26982
26909
26838
26760
26685
26619
26565
26539
26538
26549
26579
26638
26725
26845
26997
27183
27423
27727
28067
28419
28780
29141
29499
29862
30231
30583
30897
31178
31446
31708
31953
32179
32388
32573
32744
32908
33047
33153
33241
33330
33434
33543
33642
33736
33832
33936
34058
34198
34345
34494
34638
34769
34886
34985
35070
35138
35179
35204
35218
35220
35208
35174
35117
35050
34983
34915
34857
34800
34735
34668
34608
34560
34521
34487
34459
34434
34413
34401
34395
34384
34373
34361
34347
34337
34327
34311
34289
34254
34209
34172
34142
34110
34061
33994
33927
33859
33792
33730
33671
33605
33514
33402
33296
33205
33126
33062
33004
32944
32873
32797
32723
32650
32581
32518
32455
32387
32319
32256
32207
32166
32119
32060
31983
31899
31824
31767
31722
31668
31597
31521
31445
31371
31304
31246
31187
31106
31003
30908
30831
30767
30712
30652
30575
30483
30385
30299
30228
30162
30094
30013
29922
29843
29783
29727
29661
29582
29498
29424
29366
29321
29275
29212
29139
29063
28988
28923
28868
28821
28781
28732
28669
28607
28541
28461
28378
28304
28243
28188
28119
28032
27952
27886
27829
27787
27745
27684
27606
27517
27432
27359
27289
27217
27146
27078
27009
26934
26852
26766
26683
26620
26573
26515
26429
26330
26229
26136
26069
26028
26010
26006
26016
26059
26149
26276
26441
26649
26895
27183
27514
27872
28243
28604
28941
29278
29627
29971
30295
30599
30876
31119
31331
31529
31717
31877
32004
32115
32214
32302
32388
32465
32528
32594
32674
32758
32840
32915
32998
33105
33221
33331
33442
33559
33668
33757
33818
33848
33870
33895
33911
33909
33880
33821
33759
33708
33661
33612
33556
33494
33447
33419
33389
33353
33316
33282
33267
33269
33268
33261
33258
33257
33251
33237
33209
33173
33142
33118
33094
33065
33027
32984
32938
32887
32842
32793
32728
32661
32602
32548
32499
32437
32359
32298
32258
32212
32158
32097
32017
31935
31873
31822
31776
31731
31688
31650
31613
31563
31501
31438
31377
31327
31289
31255
31222
31185
31137
31089
31043
30997
30949
30889
30819
30752
30691
30636
30576
30496
30417
30353
30295
30240
30172
30084
29996
29923
29869
29830
29782
29718
29653
29594
29540
29486
29428
29365
29299
29232
29172
29119
29057
28993
28934
28866
28793
28732
28675
28614
28563
28526
28500
28458
28384
28299
28213
28124
28043
27961
27868
27784
27722
27678
27639
27576
27485
27398
27334
27289
27263
27253
27255
27272
27315
27404
27540
27711
27913
28143
28393
28676
28999
29351
29714
30068
30408
30743
31069
31376
31657
31898
32107
32298
32475
32636
32775
32889
32983
33057
33115
33173
33230
33281
33320
33352
33401
33475
33553
33635
33720
33797
33870
33950
34031
34106
34161
34193
34206
34208
34205
34191
34164
34119
34050
33977
33915
33861
33819
33784
33738
33680
33614
33549
33504
33476
33457
33448
33439
33431
33439
33452
33452
33421
33365
33310
33263
33225
33203
33175
33132
33083
33025
32959
32886
32813
32740
32662
32581
32512
32459
32416
32370
32311
32239
32158
32066
31976
31906
31854
31799
31722
31636
31554
31481
31429
31394
31358
31316
31270
31226
31177
31119
31070
31025
30965
30892
30819
30757
30702
30651
30614
30583
30542
30487
30426
30368
30313
30247
30166
30074
29978
29891
29817
29748
29684
29626
29566
29486
29396
29306
29211
29119
29038
28970
28907
28835
28757
28683
28615
28554
28498
28446
28393
28326
28253
28182
28132
28099
28059
28014
27959
27881
27793
27707
27624
27552
27503
27472
27439
27396
27346
27290
27235
27182
27117
27033
26936
26832
26730
26638
26568
26513
26464
26424
26387
26343
26285
26225
26176
26132
26091
26051
26006
25974
25975
26021
26118
26249
26408
26606
26847
27140
27485
27864
28255
28638
29008
29378
29749
30111
30456
30775
31068
31335
31586
31826
32039
32221
32380
32518
32638
32745
32835
32912
32982
33050
33125
33205
33294
33409
33551
33710
33858
33987
34121
34257
34387
34517
34628
34713
34781
34827
34854
34866
34861
34834
34784
34709
34624
34540
34464
34399
34338
34282
34232
34179
34137
34123
34125
34118
34095
34070
34052
34041
34036
34036
34028
33992
33937
33894
33867
33838
33806
33764
33706
33641
33570
33505
33450
33385
33317
33255
33193
33137
33090
33050
33008
32949
32872
32792
32716
32648
32588
32530
32456
32369
32282
32200
32122
32058
32011
31964
31909
31844
31765
31680
31606
31552
31514
31477
31425
31362
31307
31262
31218
31175
31123
31054
30970
30879
30802
30744
30691
30635
30566
30474
30385
30328
30294
30255
30199
30136
30075
30012
29946
29879
29808
29728
29650
29585
29537
29502
29470
29431
29375
29299
29206
29108
29013
28918
28836
28776
28720
28663
28614
28576
28540
28488
28424
28355
28272
28192
28126
28068
28012
27939
27847
27754
27666
27594
27539
27497
27460
27409
27348
27294
27241
27186
27130
27062
26983
26894
26798
26707
26629
26560
26495
26429
26368
26314
26255
26188
26108
26012
25927
25867
25818
25775
25728
25677
25643
25642
25677
25753
25857
25979
26129
26319
26555
26838
27160
27514
27883
28256
28635
29020
29405
29788
30151
30478
30781
31070
31346
31593
31789
31936
32049
32146
32239
32334
32429
32526
32621
32719
32827
32942
33071
33212
33342
33467
33593
33719
33841
33955
34056
34153
34247
34339
34428
34494
34523
34520
34495
34460
34421
34374
34311
34230
34143
34064
33999
33943
33895
33851
33815
33799
33787
33771
33767
33760
33742
33726
33715
33704
33676
33624
33569
33515
33462
33422
33391
33356
33312
33264
33223
33190
33158
33125
33081
33014
32929
32841
32761
32684
32606
32533
32462
32387
32315
32253
32204
32157
32084
31985
31894
31822
31766
31719
31668
31604
31531
31471
31435
31400
31358
31315
31265
31210
31158
31116
31081
31034
30963
30880
30788
30702
30644
30601
30552
30486
30406
30326
30252
30189
30130
30057
29968
29885
29815
29752
29688
29613
29525
29446
29383
29329
29282
29237
29190
29140
29080
29019
28958
28890
28829
28777
28726
28684
28632
28556
28474
28400
28341
28292
28228
28147
28065
27982
27910
27862
27821
27768
27700
27626
27556
27496
27432
27359
27283
27203
27125
27055
26987
26911
26827
26745
26674
26617
26580
26564
26556
26570
26628
26730
26872
27034
27213
27430
27688
27974
28284
28596
28902
29203
29501
29806
30119
30424
30708
30959
31170
31357
31526
31679
31810
31912
31993
32068
32134
32189
32246
32301
32349
32403
32471
32536
32589
32633
32677
32734
32790
32832
32872
32911
32938
32955
32957
32941
32923
32910
32899
32890
32861
32799
32741
32706
32678
32647
32614
32574
32534
32506
32484
32464
32443
32418
32403
32399
32392
32382
32363
32335
32317
32310
32297
32263
32204
32133
32065
32000
31934
31871
31813
31760
31706
31636
31550
31464
31387
31325
31273
31211
31130
31042
30950
30870
30816
30774
30724
30662
30595
30542
30507
30461
30389
30311
30248
30202
30158
30104
30045
29991
29941
29894
29852
29804
29749
29698
29646
29591
29535
29463
29372
29286
29210
29136
29057
28973
28899
28843
28775
28686
28608
28552
28501
28447
28382
28303
28226
28163
28104
28037
27957
27869
27786
27713
27647
27587
27527
27468
27411
27353
27293
27233
27162
27082
27004
26937
26888
26844
26783
26717
26666
26623
26573
26511
26437
26361
26295
26222
26137
26062
25997
25934
25876
25810
25731
25654
25583
25518
25465
25404
25330
25262
25209
25165
25133
25124
25138
25186
25274
25392
25543
25735
25978
26267
26582
26901
27227
27572
27932
28296
28649
28981
29296
29604
29892
30147
30368
30563
30747
30923
31071
31186
31284
31379
31479
31587
31683
31761
31825
31879
31943
32028
32119
32213
32309
32404
32509
32627
32734
32813
32876
32934
32983
33014
33015
32980
32924
32869
32829
32797
32755
32705
32654
32610
32576
32531
32467
32411
32382
32371
32378
32384
32370
32342
32313
32294
32291
32286
32269
32247
32221
32195
32175
32148
32096
32023
31952
31894
31837
31769
31685
31594
31518
31458
31403
31345
31280
31205
31126
31056
30990
30930
30875
30811
30741
30678
30619
30567
30513
30452
30402
30368
30334
30296
30250
30179
30094
30018
29950
29881
29808
29736
29672
29615
29556
29488
29411
29330
29250
29171
29095
29030
28967
28897
28833
28775
28714
28646
28568
28489
28428
28388
28353
28307
28242
28169
28094
28015
27936
27857
27765
27673
27602
27541
27483
27419
27339
27267
27211
27159
27101
27037
26970
26914
26877
26843
26802
26754
26697
26640
26588
26522
26434
26347
26267
26192
26121
26046
25964
25885
25818
25757
25701
25646
25598
25553
25493
25417
25340
25261
25180
25113
25054
24987
24905
24825
24761
24711
24650
24568
24491
24432
24384
24348
24317
24291
24292
24335
24414
24526
24676
24875
25128
25418
25724
26045
26385
26749
27128
27511
27880
28234
28575
28901
29208
29480
29714
29926
30115
30272
30409
30536
30646
30748
30854
30961
31067
31167
31267
31382
31511
31634
31740
31841
31953
32084
32234
32381
32512
32630
32740
32834
32901
32935
32944
32942
32929
32904
32873
32836
32794
32754
32712
32654
32583
32505
32444
32403
32363
32328
32291
32241
32196
32174
32171
32181
32176
32149
32114
32073
32043
32036
32040
32038
32018
31977
31929
31877
31811
31735
31648
31561
31495
31446
31402
31368
31327
31268
31203
31146
31095
31043
30977
30899
30822
30755
30699
30634
30550
30470
30397
30333
30285
30235
30172
30098
30024
29969
29937
29905
29857
29792
29717
29641
29562
29476
29386
29298
29215
29142
29077
29007
28928
28849
28775
28716
28676
28638
28586
28516
28433
28350
28267
28181
28100
28026
27960
27902
27841
27769
27685
27601
27539
27496
27454
27408
27346
27258
27164
27080
27011
26951
26883
26804
26730
26660
26587
26505
26413
26321
26238
26172
26116
26051
25969
25890
25830
25778
25727
25674
25611
25541
25481
25433
25389
25334
25267
25200
25141
25072
24981
24883
24784
24695
24626
24554
24469
24376
24278
24194
24135
24079
24020
23957
23886
23810
23737
23669
23604
23545
23510
23510
23540
23604
23710
23854
24035
24263
24541
24861
25201
25537
25871
26219
26571
26915
27243
27547
27842
28136
28409
28645
28840
29001
29166
29340
29497
29629
29733
29810
29883
29970
30061
30140
30206
30272
30358
30459
30557
30658
30767
30882
31002
31128
31243
31330
31397
31457
31510
31544
31550
31538
31517
31478
31427
31375
31321
31273
31239
31205
31157
31100
31041
30990
30956
30932
30918
30899
30868
30849
30853
30868
30890
30907
30909
30911
30921
30922
30907
30879
30845
30812
30780
30736
30679
30618
30560
30507
30442
30349
30262
30200
30140
30065
29990
29928
29873
29811
29749
29699
29653
29612
29574
29524
29474
29433
29389
29341
29272
29186
29110
29051
29007
28983
28962
28923
28866
28799
28730
28656
28569
28483
28400
28314
28239
28177
28110
28045
27987
27931
27885
27858
27848
27833
27790
27734
27688
27643
27584
27507
27417
27334
27266
27197
27122
27052
26990
26937
26896
26855
26807
26753
26693
26632
26574
26513
26446
26373
26302
26243
26191
26140
26091
26038
25977
25921
25862
25789
25714
25634
25550
25481
25428
25376
25321
25261
25203
25154
25103
25049
24998
24953
24932
24944
24976
25031
25125
25264
25452
25685
25955
26250
26550
26845
27147
27466
27793
28120
28434
28727
29011
29288
29547
29776
29968
30116
30236
30345
30447
30534
30609
30675
30730
30782
30848
30927
31005
31075
31134
31200
31286
31378
31478
31579
31663
31714
31732
31737
31738
31734
31738
31737
31716
31666
31597
31534
31486
31444
31410
31386
31362
31329
31298
31275
31257
31251
31260
31272
31271
31245
31210
31180
31152
31127
31113
31102
31075
31027
30979
30938
30901
30871
30837
30791
30722
30635
30553
30485
30423
30362
30297
30232
30154
30063
29990
29942
29909
29879
29835
29775
29702
29617
29528
29443
29361
29281
29209
29153
29122
29112
29098
29071
29036
28995
28940
28874
28805
28731
28662
28598
28531
28466
28401
28351
28325
28305
28269
28201
28096
27986
27896
27823
27762
27709
27652
27582
27505
27436
27372
27311
27252
27188
27123
27060
26999
26942
26885
26816
26735
26642
26544
26453
26382
26329
26289
26251
26206
26149
26095
26049
26003
25956
25904
25845
25787
25724
25654
25591
25538
25496
25449
25392
25324
25237
25141
25045
24962
24902
24843
24773
24695
24610
24524
24444
24374
24304
24226
24162
24138
24151
24189
24251
24335
24440
24572
24748
24977
25249
25556
25899
26261
26633
27019
27403
27763
28092
28398
28700
28999
29274
29515
29721
29899
30069
30244
30412
30560
30678
30771
30857
30951
31065
31190
31315
31439
31566
31693
31826
31952
32065
32179
32292
32392
32486
32583
32679
32758
32801
32820
32827
32827
32822
32796
32744
32686
32634
32587
32544
32489
32425
32372
32334
32308
32295
32280
32255
32223
32190
32168
32157
32151
32146
32135
32114
32092
32073
32051
32021
31989
31957
31926
31898
31862
31814
31752
31686
31634
31588
31526
31453
31380
31315
31256
31184
31098
31020
30946
30874
30823
30788
30747
30686
30603
30521
30451
30387
30330
30274
30218
30166
30116
30068
30027
29984
29930
29867
29807
29758
29713
29663
29606
29538
29460
29385
29311
29239
29170
29096
29020
28954
28892
28829
28761
28681
28602
28531
28463
28397
28329
28249
28158
28067
27999
27956
27913
27853
27786
27724
27667
27612
27556
27492
27421
27352
27294
27238
27172
27096
27008
26911
26822
26763
26730
26695
26630
26547
26466
26388
26315
26243
26161
26079
26007
25926
25826
25719
25620
25553
25512
25473
25431
25377
25302
25227
25167
25115
25058
24984
24903
24839
24796
24764
24742
24733
24742
24794
24904
25072
25288
25534
25804
26116
26465
26834
27203
27560
27911
28261
28598
28921
29224
29502
29761
29999
30211
30412
30605
30785
30940
31065
31188
31319
31434
31534
31629
31718
31814
31928
32060
32207
32351
32481
32606
32728
32845
32955
33053
33136
33203
33257
33299
33326
33338
33343
33325
33280
33231
33186
33134
33063
32978
32908
32862
32822
32781
32728
32663
32609
32579
32576
32589
32592
32574
32541
32495
32452
32425
32409
32386
32356
32325
32293
32262
32227
32179
32115
32043
31983
31937
31891
31838
31766
31684
31608
31535
31459
31379
31289
31198
31120
31057
31008
30955
30886
30817
30755
30706
30674
30639
30586
30515
30428
30344
30277
30222
30178
30127
30054
29976
29910
29863
29830
29788
29728
29667
29609
29549
29490
29421
29338
29256
29188
29135
29079
29009
28941
28883
28826
28767
28706
28645
28579
28496
28409
28330
28257
28191
28128
28055
27969
27881
27813
27763
27711
27656
27596
27521
27436
27350
27273
27208
27143
27079
27022
26975
26935
26884
26815
26734
26653
26580
26522
26469
26393
26295
26193
26097
26031
26004
25996
26009
26057
26141
26263
26411
26577
26775
27002
27261
27557
27876
28202
28525
28833
29130
29421
29697
29963
30216
30445
30644
30818
30979
31135
31272
31384
31475
31552
31630
31712
31793
31864
31912
31943
31973
32013
32074
32151
32229
32306
32375
32433
32482
32519
32545
32556
32544
32519
32487
32456
32430
32387
32321
32247
32181
32137
32119
32107
32089
32062
32028
32006
32007
32010
32000
31979
31956
31943
31948
31960
31960
31937
31905
31871
31830
31793
31756
31708
31655
31587
31501
31415
31331
31249
31160
31052
30948
30860
30785
30725
30666
30593
30519
30452
30392
30346
30308
30274
30235
30179
30120
30074
30043
30013
29972
29920
29849
29767
29694
29631
29576
29531
29484
29421
29353
29292
29236
29181
29130
29077
29015
28945
28875
28807
28743
28668
28576
28485
28395
28309
28234
28166
28104
28038
27953
27866
27789
27721
27670
27624
27566
27494
27418
27355
27308
27254
27181
27103
27028
26961
26910
26872
26828
26764
26694
26625
26555
26491
26430
26365
26302
26248
26203
26171
26134
26074
25999
25925
25859
25798
25736
25662
25580
25507
25450
25404
25352
25285
25209
25125
25039
24954
24876
24808
24743
24685
24648
24647
24692
24784
24922
25103
25314
25553
25834
26157
26516
26908
27306
27687
28052
28412
28769
29108
29407
29670
29909
30135
30356
30563
30745
30888
30996
31096
31195
31294
31401
31506
31600
31685
31775
31886
32007
32120
32226
32330
32442
32574
32716
32847
32959
33045
33106
33159
33200
33223
33223
33190
33139
33075
33001
32921
32843
32777
32718
32650
32579
32520
32481
32460
32439
32411
32383
32361
32353
32363
32381
32394
32385
32347
32311
32288
32272
32261
32247
32216
32167
32114
32069
32025
31964
31894
31833
31778
31719
31661
31597
31523
31443
31368
31302
31236
31158
31083
31020
30956
30893
30834
30772
30711
30660
30619
30579
30518
30439
30364
30294
30226
30174
30131
30072
29999
29929
29873
29824
29761
29689
29612
29537
29481
29443
29406
29368
29320
29259
29203
29155
29105
29047
28973
28884
28791
28705
28632
28555
28476
28403
28325
28250
28187
28132
28079
28008
27924
27846
27776
27706
27639
27584
27537
27480
27414
27352
27294
27241
27201
27153
27081
27000
26922
26852
26788
26723
26656
26589
26527
26478
26441
26407
26365
26304
26225
26136
26038
25940
25852
25761
25672
25598
25527
25450
25362
25261
25160
25074
25016
24988
24979
24980
24986
24999
25042
25137
25282
25464
25675
25916
26194
26506
26843
27191
27544
27910
28279
28636
28981
29317
29642
29942
30200
30415
30597
30772
30956
31135
31291
31421
31537
31652
31772
31873
31949
32013
32084
32176
32287
32407
32526
32643
32754
32864
32975
33078
33178
33280
33370
33446
33506
33544
33565
33566
33539
33495
33446
33387
33313
33226
33146
33089
33049
33005
32957
32912
32866
32827
32792
32752
32727
32717
32712
32717
32718
32697
32666
32631
32587
32540
32486
32419
32358
32307
32271
32253
32229
32188
32134
32067
31991
31908
31815
31724
31648
31579
31511
31444
31379
31313
31235
31149
31062
30981
30914
30859
30792
30718
30658
30604
30545
30478
30402
30329
30259
30189
30127
30072
30012
29950
29894
29849
29813
29766
29701
29626
29545
29463
29384
29302
29211
29115
29028
28957
28895
28831
28762
28681
28598
28527
28465
28404
28339
28267
28196
28128
28059
27996
27932
27851
27767
27689
27617
27552
27480
27399
27314
27218
27127
27049
26980
26917
26845
26757
26665
26573
26493
26430
26379
26331
26272
26197
26129
26070
26012
25950
25873
25783
25684
25586
25506
25437
25365
25289
25215
25151
25104
25082
25108
25176
25271
25409
25597
25838
26130
26448
26767
27083
27399
27728
28070
28398
28698
28980
29243
29496
29744
29966
30146
30296
30438
30568
30670
30738
30787
30843
30912
30991
31075
31159
31246
31333
31410
31485
31565
31652
31735
31798
31848
31898
31939
31963
31963
31949
31929
31896
31851
31802
31758
31724
31687
31633
31575
31526
31484
31455
31433
31403
31364
31335
31325
31325
31332
31342
31344
31336
31319
31292
31277
31282
31293
31295
31271
31221
31163
31111
31068
31019
30953
30887
30821
30756
30706
30662
30610
30539
30455
30382
30321
30257
30195
30133
30059
29990
29946
29919
29898
29864
29810
29747
29679
29619
29574
29528
29469
29398
29328
29270
29225
29200
29180
29148
29105
29047
28980
28915
28857
28813
28777
28728
28663
28593
28533
28488
28430
28352
28267
28175
28089
28026
27984
27949
27896
27818
27738
27665
27599
27540
27484
27428
27365
27293
27220
27152
27076
26991
26907
26825
26751
26686
26614
26533
26450
26376
26327
26293
26258
26214
26157
26097
26043
25987
25928
25854
25761
25677
25611
25557
25524
25518
25536
25573
25636
25745
25903
26115
26382
26682
26991
27301
27613
27934
28263
28598
28932
29247
29534
29802
30056
30297
30517
30709
30880
31023
31132
31222
31305
31386
31463
31535
31600
31656
31715
31794
31886
31975
32049
32110
32178
32266
32367
32463
32535
32580
32609
32628
32645
32660
32663
32647
32609
32557
32507
32465
32434
32402
32346
32277
32220
32178
32155
32155
32169
32182
32179
32163
32154
32153
32148
32137
32118
32104
32099
32098
32095
32067
32009
31935
31858
31792
31742
31694
31639
31571
31491
31410
31331
31263
31213
31165
31114
31047
30965
30890
30833
30779
30722
30660
30593
30535
30494
30468
30445
30409
30359
30296
30217
30125
30038
29974
29922
29871
29822
29766
29703
29645
29596
29555
29505
29438
29372
29313
29259
29215
29166
29099
29017
28924
28836
28764
28703
28643
28578
28505
28430
28359
28295
28233
28181
28146
28111
28059
27989
27907
27828
27750
27684
27634
27579
27511
27441
27379
27326
27275
27229
27180
27122
27067
27020
26979
26934
26871
26797
26718
26630
26547
26485
26441
26401
26350
26285
26213
26132
26053
25988
25936
25882
25809
25725
25649
25589
25559
25563
25598
25654
25726
25827
25970
26157
26396
26687
27014
27353
27696
28060
28442
28824
29208
29576
29913
30222
30503
30769
31027
31259
31461
31631
31772
31896
32013
32127
32237
32347
32457
32552
32635
32716
32797
32896
33014
33134
33253
33369
33477
33581
33685
33784
33872
33948
34019
34074
34107
34126
34132
34119
34081
34020
33954
33884
33817
33760
33709
33660
33608
33555
33510
33479
33467
33473
33472
33449
33423
33411
33418
33431
33432
33421
33409
33391
33372
33358
33339
33302
33246
33187
33138
33092
33045
32989
32918
32852
32795
32734
32670
32605
32546
32491
32422
32346
32279
32225
32178
32123
32053
31977
31897
31830
31794
31776
31753
31710
31652
31594
31538
31483
31427
31363
31295
31229
31168
31112
31060
30993
30914
30833
30749
30678
30623
30567
30507
30440
30377
30321
30267
30218
30164
30093
30023
29961
29910
29864
29815
29771
29729
29670
29596
29524
29462
29407
29343
29276
29210
29136
29066
29008
28946
28870
28782
28689
28614
28564
28523
28473
28407
28334
28274
28230
28184
28123
28046
27964
27880
27799
27733
27672
27613
27545
27462
27382
27314
27258
27214
27159
27064
26943
26827
26736
26670
26612
26552
26487
26426
26394
26401
26442
26508
26600
26719
26874
27075
27328
27629
27971
28340
28719
29106
29488
29862
30235
30610
30975
31312
31606
31857
32064
32247
32417
32569
32705
32816
32901
32972
33039
33118
33211
33312
33422
33536
33655
33769
33864
33963
34081
34216
34363
34502
34623
34728
34814
34886
34944
34985
35003
34990
34945
34875
34795
34730
34681
34637
34589
34539
34499
34464
34430
34402
34380
34364
34343
34308
34268
34230
34198
34180
34175
34181
34179
34163
34143
34119
34093
34068
34041
34009
33970
33918
33848
33760
33666
33577
33498
33422
33353
33306
33270
33216
33131
33034
32940
32856
32784
32719
32658
32598
32536
32479
32431
32386
32349
32308
32253
32188
32125
32070
32030
31992
31946
31890
31821
31750
31685
31626
31570
31504
31425
31346
31272
31204
31144
31083
31008
30916
30822
30749
30702
30670
30635
30589
30534
30465
30383
30309
30240
30170
30105
30038
29972
29915
29855
29791
29715
29621
29530
29455
29390
29335
29271
29183
29083
28988
28906
28841
28785
28732
28673
28605
28532
28459
28388
28317
28239
28156
28087
28031
27980
27935
27886
27824
27759
27712
27701
27724
27780
27866
27978
28131
28334
28567
28820
29087
29374
29694
30032
30373
30725
31073
31397
31697
31970
32218
32451
32660
32833
32966
33074
33170
33249
33315
33384
33449
33499
33543
33593
33646
33709
33773
33823
33858
33895
33951
34012
34062
34103
34129
34143
34149
34146
34131
34100
34054
33999
33924
33848
33794
33768
33759
33742
33712
33693
33683
33687
33717
33757
33780
33787
33786
33780
33771
33765
33753
33724
33689
33658
33620
33580
33549
33520
33485
33436
33372
33307
33247
33195
33140
33066
32982
32895
32809
32731
32660
32585
32491
32388
32307
32253
32216
32184
32137
32077
32019
31969
31934
31911
31890
31871
31847
31808
31755
31700
31651
31610
31577
31542
31493
31431
31369
31309
31250
31191
31136
31093
31047
30989
30930
30878
30827
30770
30712
30646
30563
30477
30395
30321
30259
30210
30174
30133
30069
29975
29868
29774
29695
29624
29568
29526
29483
29429
29363
29285
29206
29136
29075
29030
29001
28969
28933
28887
28821
28739
28661
28606
28568
28540
28507
28450
28366
28260
28156
28065
27984
27913
27850
27791
27725
27643
27556
27465
27383
27334
27325
27359
27432
27550
27712
27915
28164
28458
28781
29117
29458
29806
30163
30526
30896
31264
31618
31943
32228
32474
32685
32867
33026
33173
33322
33466
33590
33686
33749
33798
33852
33924
34007
34076
34124
34159
34195
34243
34307
34395
34496
34591
34684
34771
34834
34873
34895
34906
34907
34901
34899
34888
34853
34800
34742
34693
34661
34650
34657
34661
34650
34623
34593
34569
34545
34528
34523
34526
34526
34516
34515
34526
34532
34527
34516
34503
34479
34435
34384
34338
34309
34291
34264
34227
34181
34123
34059
33989
33920
33864
33812
33755
33689
33622
33561
33500
33443
33394
33344
33289
33226
33158
33098
33050
33016
32991
32963
32925
32870
32808
32749
32691
32633
32574
32515
32444
32362
32293
32245
32214
32192
32160
32115
32051
31969
31879
31790
31708
31637
31568
31495
31419
31342
31272
31208
31144
31080
31009
30934
30862
30801
30754
30708
30656
30609
30554
30485
30414
30338
30264
30186
30097
30020
29953
29891
29840
29799
29763
29713
29639
29561
29492
29433
29382
29331
29273
29206
29137
29077
29023
28963
28896
28830
28769
28713
28658
28606
28559
28503
28433
28351
28261
28183
28131
28092
28049
27986
27914
27853
27814
27807
27842
27927
28057
28229
28458
28735
29048
29395
29767
30151
30538
30923
31317
31716
32108
32486
32834
33144
33430
33699
33950
34176
34367
34527
34667
34793
34916
35043
35168
35272
35351
35426
35510
35594
35683
35779
35886
36003
36115
36218
36316
36415
36511
36593
36656
36695
36715
36734
36755
36770
36779
36771
36737
36676
36595
36513
36437
36369
36312
36265
36212
36150
36096
36058
36026
36001
35990
35996
36008
36005
35991
35968
35938
35910
35889
35878
35859
35820
35767
35699
35628
35557
35489
35420
35343
35270
35198
35116
35019
34913
34820
34744
34673
34607
34541
34478
34418
34354
34290
34222
34151
34088
34026
33958
33880
33801
33738
33695
33667
33646
33621
33588
33538
33476
33404
33322
33238
33159
33091
33024
32949
32869
32781
32700
32634
32579
32534
32484
32412
32314
32197
32088
32002
31933
31879
31830
31773
31700
31621
31553
31490
31426
31368
31308
31245
31171
31086
31007
30946
30895
30840
30778
30702
30606
30509
30423
30350
30283
30212
30144
30083
30014
29940
29863
29792
29733
29679
29626
29564
29482
29380
29266
29156
29060
28989
28944
28904
28849
28773
28676
28572
28480
28416
28381
28377
28410
28467
28551
28689
28888
29142
29447
29786
30138
30487
30835
31192
31559
31938
32324
32697
33034
33334
33616
33880
34127
34354
34553
34724
34859
34959
35044
35123
35195
35269
35351
35442
35531
35618
35715
35818
35926
36045
36160
36261
36350
36428
36500
36566
36623
36665
36680
36662
36606
36526
36439
36353
36272
36198
36130
36065
35998
35939
35888
35847
35827
35820
35812
35798
35773
35753
35758
35773
35788
35800
35799
35780
35749
35719
35688
35659
35633
35606
35570
35518
35455
35396
35338
35270
35199
35129
35052
34966
34884
34823
34778
34733
34681
34617
34542
34465
34397
34344
34282
34202
34117
34036
33967
33913
33875
33847
33809
33760
33716
33676
33638
33601
33558
33507
33447
33379
33318
33275
33242
33203
33152
33087
33005
32921
32859
32807
32748
32684
32615
32542
32473
32419
32384
32346
32288
32227
32168
32105
32046
31983
31907
31820
31733
31664
31606
31538
31465
31393
31324
31270
31236
31210
31181
31131
31059
30983
30917
30855
30783
30697
30601
30506
30423
30364
30326
30299
30295
30317
30362
30442
30565
30733
30936
31167
31442
31762
32108
32472
32836
33188
33529
33870
34224
34583
34914
35210
35469
35684
35862
36021
36174
36318
36432
36516
36580
36625
36663
36699
36737
36787
36838
36881
36933
36999
37067
37131
37183
37220
37249
37279
37312
37331
37329
37314
37283
37246
37211
37171
37124
37064
36996
36933
36870
36809
36767
36734
36689
36631
36583
36567
36586
36618
36653
36686
36700
36690
36673
36652
36616
36564
36508
36458
36419
36390
36364
36328
36277
36214
36140
36059
35978
35904
35830
35742
35651
35574
35509
35450
35387
35314
35235
35144
35041
34938
34860
34817
34787
34753
34709
34650
34588
34540
34505
34467
34415
34366
34321
34268
34211
34163
34119
34075
34023
33956
33886
33825
33773
33715
33641
33555
33470
33398
33339
33277
33207
33132
33050
32976
32912
32851
32794
32726
32647
32581
32519
32455
32402
32347
