32968
32878
32792
32729
32695
32677
32659
32649
32656
32668
32677
32697
32733
32780
32852
32976
33183
33479
33866
34349
34920
35545
36189
36839
37496
38145
38758
39320
39842
40321
40742
41116
41450
41721
41925
42092
42229
42303
42315
42309
42300
42253
42164
42066
41966
41844
41707
41567
41420
41245
41046
40856
40680
40499
40327
40188
40073
39962
39865
39808
39763
39695
39627
39575
39514
39431
39356
39302
39233
39137
39051
38983
38900
38802
38729
38689
38642
38578
38538
38532
38522
38501
38504
38532
38550
38549
38555
38569
38561
38530
38504
38479
38437
38385
38347
38314
38253
38165
38081
38002
37902
37795
37701
37609
37495
37366
37247
37130
36999
36864
36735
36607
36474
36349
36240
36133
36023
35915
35799
35678
35572
35477
35382
35287
35207
35137
35055
34961
34883
34827
34773
34698
34611
34532
34449
34353
34268
34211
34164
34100
34035
33996
33965
33925
33901
33898
33880
33834
33798
33779
33737
33665
33598
33544
33482
33413
33368
33348
33316
33256
33196
33150
33100
33040
32989
32940
32868
32773
32688
32619
32545
32466
32394
32320
32219
32095
31979
31873
31747
31603
31471
31354
31233
31119
31037
30969
30881
30793
30735
30694
30667
30710
30865
31130
31510
32038
32703
33440
34207
34988
35740
36417
37009
37538
38006
38395
38712
38979
39198
39360
39469
39545
39589
39592
39564
39513
39435
39329
39208
39083
38948
38798
38655
38531
38399
38253
38121
38018
37912
37786
37672
37576
37464
37334
37228
37153
37066
36957
36862
36794
36713
36607
36514
36447
36381
36311
36268
36261
36263
36271
36305
36362
36415
36460
36519
36594
36658
36713
36766
36805
36824
36832
36843
36847
36829
36794
36757
36713
36652
36582
36514
36440
36349
36254
36168
36071
35953
35827
35695
35539
35371
35217
35077
34919
34746
34589
34448
34290
34118
33959
33819
33669
33511
33378
33268
33160
33057
32968
32888
32807
32722
32641
32567
32492
32420
32348
32272
32190
32111
32042
31979
31912
31843
31776
31711
31649
31593
31555
31524
31485
31448
31420
31383
31333
31287
31244
31195
31150
31121
31090
31046
30998
30943
30865
30762
30644
30521
30396
30254
30105
29961
29807
29640
29477
29325
29183
29067
29023
29079
29244
29549
30017
30632
31347
32116
32904
33684
34430
35117
35728
36256
36708
37094
37411
37657
37843
37985
38096
38171
38205
38210
38200
38168
38106
38020
37923
37808
37667
37518
37373
37228
37082
36943
36802
36647
36484
36338
36207
36070
35926
35789
35663
35535
35396
35255
35129
35020
34920
34833
34769
34731
34716
34728
34759
34804
34871
34964
35071
35180
35295
35409
35504
35577
35638
35704
35769
35818
35858
35897
35925
35928
35923
35928
35920
35878
35820
35760
35673
35555
35436
35325
35192
35025
34854
34691
34512
34318
34149
34013
33885
33757
33642
33551
33466
33373
33277
33175
33059
32938
32826
32710
32580
32450
32332
32222
32113
32013
31922
31828
31730
31639
31559
31486
31419
31373
31349
31329
31314
31317
31335
31354
31361
31357
31353
31348
31322
31279
31237
31190
31130
31071
31019
30957
30885
30830
30794
30752
30698
30652
30606
30534
30449
30385
30341
30302
30282
30325
30459
30690
31042
31525
32111
32761
33446
34157
34867
35531
36132
36682
37175
37594
37945
38256
38519
38716
38867
38994
39081
39117
39128
39122
39078
39002
38928
38866
38791
38694
38605
38524
38415
38279
38160
38069
37966
37848
37754
37693
37635
37579
37533
37481
37410
37331
37265
37201
37105
36989
36893
36808
36715
36633
36577
36531
36481
36449
36445
36446
36444
36467
36519
36567
36601
36647
36710
36762
36792
36826
36876
36919
36948
36967
36967
36945
36915
36889
36850
36787
36715
36647
36578
36489
36391
36292
36183
36054
35916
35777
35628
35468
35315
35174
35027
34877
34740
34619
34511
34405
34300
34204
34119
34033
33942
33853
33771
33699
33633
33562
33484
33409
33344
33285
33233
33205
33205
33209
33194
33172
33161
33157
33151
33147
33139
33114
33072
33021
32971
32924
32876
32845
32826
32793
32749
32724
32719
32699
32658
32628
32607
32561
32489
32429
32389
32332
32241
32152
32083
32008
31920
31837
31757
31669
31593
31572
31627
31774
32039
32439
32954
33549
34199
34882
35558
36196
36792
37360
37887
38354
38774
39146
39451
39692
39899
40082
40220
40311
40382
40438
40450
40418
40374
40327
40258
40159
40056
39963
39865
39755
39654
39570
39495
39425
39378
39352
39329
39308
39298
39285
39255
39215
39176
39128
39061
38984
38927
38884
38841
38806
38789
38776
38750
38729
38725
38722
38714
38730
38769
38801
38826
38862
38905
38935
38952
38979
39025
39067
39093
39114
39133
39139
39132
39123
39118
39105
39088
39070
39040
38990
38928
38866
38803
38729
38642
38552
38463
38365
38266
38171
38073
37969
37867
37769
37671
37567
37463
37372
37281
37170
37044
36922
36808
36690
36575
36479
36387
36286
36198
36133
36059
35968
35895
35843
35777
35688
35614
35562
35501
35429
35373
35328
35282
35241
35214
35185
35146
35106
35077
35046
34995
34937
34890
34841
34776
34714
34660
34588
34490
34389
34290
34172
34036
33909
33796
33681
33555
33424
33294
33169
33043
32912
32781
32657
32545
32436
32313
32182
32071
32000
31979
32017
32151
32435
32873
33433
34082
34790
35522
36243
36933
37589
38201
38743
39214
39632
39991
40270
40482
40655
40783
40852
40876
40881
40858
40790
40704
40619
40515
40388
40277
40187
40083
39954
39840
39759
39673
39566
39469
39393
39326
39268
39227
39190
39134
39065
39005
38951
38883
38811
38748
38682
38606
38539
38492
38449
38405
38373
38357
38341
38319
38302
38298
38305
38309
38304
38307
38321
38325
38317
38308
38293
38270
38254
38235
38182
38099
38022
37953
37857
37731
37615
37513
37388
37229
37059
36877
36665
36431
36204
35983
35745
35508
35304
35125
34944
34768
34623
34501
34373
34249
34158
34089
34012
33928
33850
33770
33672
33568
33472
33371
33250
33119
32981
32823
32649
32470
32288
32106
31938
31795
31666
31534
31410
31328
31284
31240
31190
31148
31107
31051
30987
30926
30861
30785
30701
30617
30527
30427
30324
30224
30119
30002
29880
29774
29689
29607
29522
29447
29378
29307
29238
29179
29117
29053
29007
28990
28988
29017
29131
29369
29733
30237
30904
31704
32556
33406
34246
35058
35798
36453
37039
37551
37978
38329
38630
38877
39049
39164
39254
39306
39303
39266
39230
39186
39109
39022
38955
38883
38782
38671
38565
38453
38330
38220
38138
38070
38009
37958
37909
37840
37759
37693
37636
37564
37480
37408
37346
37277
37213
37174
37153
37134
37120
37122
37134
37147
37164
37186
37200
37208
37229
37269
37310
37346
37390
37438
37476
37500
37523
37548
37566
37569
37557
37532
37497
37451
37396
37337
37268
37192
37115
37032
36937
36841
36753
36661
36557
36449
36343
36231
36101
35966
35839
35708
35553
35385
35226
35065
34884
34705
34545
34377
34181
33980
33791
33591
33371
33159
32962
32744
32505
32289
32111
31938
31763
31625
31531
31446
31363
31312
31289
31257
31211
31190
31198
31201
31186
31180
31187
31182
31164
31153
31146
31122
31078
31030
30976
30913
30859
30832
30832
30844
30891
31027
31269
31613
32069
32634
33280
33960
34654
35356
36030
36645
37197
37687
38113
38481
38794
39043
39218
39335
39421
39471
39478
39463
39434
39377
39287
39175
39062
38951
38838
38733
38650
38577
38494
38412
38353
38300
38247
38214
38198
38169
38123
38087
38062
38022
37967
37918
37877
37829
37776
37738
37724
37712
37695
37696
37721
37750
37779
37825
37889
37940
37973
38020
38087
38154
38227
38317
38409
38469
38501
38535
38565
38573
38575
38588
38604
38600
38581
38568
38551
38506
38445
38388
38329
38249
38158
38077
38003
37917
37820
37727
37633
37535
37439
37349
37259
37172
37094
37021
36947
36881
36834
36795
36747
36703
36683
36671
36642
36606
36576
36540
36493
36443
36401
36362
36319
36284
36259
36230
36203
36189
36187
36179
36155
36124
36106
36090
36059
36018
35977
35934
35885
35828
35765
35697
35622
35548
35474
35399
35333
35283
35229
35146
35047
34967
34903
34822
34718
34617
34525
34433
34363
34348
34396
34507
34706
35024
35447
35931
36464
37048
37653
38247
38833
39422
39983
40480
40932
41362
41744
42067
42355
42612
42806
42936
43040
43130
43171
43157
43130
43109
43064
42995
42926
42858
42764
42649
42544
42452
42362
42281
42221
42169
42103
42033
41984
41947
41890
41820
41765
41720
41671
41636
41624
41610
41574
41537
41509
41470
41418
41380
41362
41340
41310
41294
41300
41313
41318
41320
41324
41326
41330
41350
41370
41376
41382
41399
41413
41406
41379
41345
41304
41249
41187
41124
41059
40985
40903
40820
40726
40623
40533
40456
40366
40265
40169
40076
39980
39880
39775
39664
39550
39430
39306
39192
39082
38963
38832
38699
38579
38474
38385
38310
38242
38188
38152
38118
38064
37996
37930
37867
37807
37758
37719
37681
37632
37578
37525
37471
37414
37362
37312
37257
37206
37176
37167
37157
37136
37117
37107
37098
37090
37090
37094
37088
37062
37013
36942
36851
36741
36616
36474
36323
36186
36069
35952
35828
35716
35624
35531
35423
35318
35228
35146
35062
34993
34969
35000
35106
35326
35667
36103
36601
37158
37768
38390
39004
39624
40234
40799
41303
41765
42191
42551
42842
43105
43347
43534
43663
43768
43856
43894
43874
43836
43793
43721
43627
43537
43446
43324
43178
43047
42936
42826
42724
42648
42593
42537
42491
42475
42473
42454
42427
42417
42403
42361
42311
42279
42246
42184
42123
42086
42035
41952
41879
41831
41774
41700
41640
41608
41569
41518
41497
41513
41526
41528
41553
41601
41642
41666
41688
41710
41725
41724
41720
41706
41656
41575
41491
41399
41280
41148
41024
40905
40770
40628
40504
40379
40229
40087
39981
39884
39781
39697
39639
39565
39460
39359
39279
39186
39069
38965
38882
38794
38707
38646
38608
38555
38478
38409
38353
38289
38224
38177
38140
38084
38014
37953
37896
37825
37752
37705
37678
37649
37622
37616
37615
37586
37539
37506
37487
37464
37438
37423
37404
37360
37304
37250
37178
37083
37000
36935
36863
36778
36703
36641
36572
36497
36443
36404
36347
36268
36186
36096
35980
35846
35713
35576
35431
35289
35152
35017
34880
34750
34634
34527
34446
34430
34499
34650
34896
35272
35766
36321
36911
37541
38193
38821
39405
39968
40515
41007
41430
41812
42159
42440
42650
42827
42986
43096
43160
43208
43240
43223
43155
43073
42995
42905
42809
42720
42630
42526
42421
42333
42273
42228
42193
42173
42156
42126
42091
42071
42056
42018
41962
41912
41862
41790
41701
41612
41527
41447
41379
41325
41283
41260
41254
41243
41223
41213
41226
41255
41283
41314
41348
41367
41369
41367
41379
41404
41421
41432
41443
41445
41429
41410
41393
41364
41316
41276
41252
41214
41153
41092
41035
40958
40860
40776
40714
40639
40544
40456
40380
40285
40170
40075
40006
39929
39843
39783
39748
39700
39630
39568
39518
39456
39386
39329
39282
39229
39171
39123
39085
39047
39006
38954
38886
38810
38742
38684
38626
38559
38495
38447
38404
38354
38302
38260
38225
38185
38134
38083
38034
37980
37921
37860
37797
37746
37714
37684
37634
37570
37515
37468
37409
37342
37281
37209
37111
37002
36903
36816
36728
36643
36571
36503
36428
36346
36262
36175
36070
35956
35861
35781
35693
35608
35557
35558
35616
35758
36019
36388
36842
37378
37977
38591
39197
39806
40409
40959
41441
41881
42292
42647
42938
43189
43408
43582
43716
43829
43915
43947
43925
43872
43787
43666
43532
43408
43295
43169
43034
42924
42827
42711
42591
42491
42402
42312
42234
42183
42134
42064
42000
41951
41878
41779
41692
41626
41545
41442
41353
41297
41249
41202
41175
41172
41166
41153
41152
41161
41158
41147
41156
41186
41208
41234
41282
41330
41352
41361
41379
41389
41368
41337
41312
41263
41176
41091
41025
40956
40875
40798
40727
40635
40518
40411
40327
40230
40113
40015
39939
39846
39728
39614
39512
39401
39281
39188
39125
39055
38969
38885
38803
38714
38614
38517
38424
38323
38219
38119
38021
37921
37827
37744
37664
37577
37487
37403
37325
37248
37176
37121
37083
37048
37010
36973
36940
36908
36866
36805
36736
36675
36621
36565
36492
36404
36316
36220
36107
35988
35882
35783
35673
35557
35453
35363
35280
35201
35123
35032
34932
34839
34754
34662
34552
34436
34323
34208
34089
33964
33838
33709
33564
33405
33247
33093
32941
32799
32678
32585
32557
32639
32856
33207
33689
34306
35022
35767
36502
37227
37922
38557
39131
39662
40142
40548
40885
41174
41409
41575
41696
41800
41878
41907
41898
41888
41865
41804
41730
41658
41558
41435
41325
41235
41135
41018
40915
40840
40770
40691
40612
40533
40448
40358
40269
40177
40069
39951
39849
39763
39674
39593
39533
39486
39433
39383
39359
39360
39366
39390
39447
39514
39570
39629
39707
39779
39829
39887
39961
40013
40032
40050
40081
40104
40114
40127
40146
40150
40131
40107
40082
40041
39984
39936
39897
39840
39758
39672
39583
39471
39345
39236
39143
39034
38907
38786
38657
38501
38337
38196
38072
37933
37785
37658
37545
37416
37283
37172
37079
36983
36883
36797
36716
36629
36551
36488
36420
36343
36276
36228
36182
36134
36103
36080
36036
35979
35932
35884
35808
35706
35602
35493
35369
35242
35130
35024
34913
34801
34705
34624
34546
34476
34412
34344
34275
34220
34183
34153
34114
34061
33995
33917
33831
33753
33699
33671
33669
33711
33833
34060
34395
34829
35337
35895
36480
37081
37680
38252
38794
39310
39783
40191
40544
40855
41113
41306
41449
41562
41637
41665
41669
41672
41658
41598
41507
41417
41316
41188
41052
40931
40818
40692
40565
40456
40356
40253
40158
40079
40011
39940
39866
39786
39692
39598
39516
39435
39352
39280
39237
39215
39212
39235
39278
39320
39348
39374
39416
39467
39509
39546
39593
39639
39658
39663
39688
39723
39745
39769
39808
39837
39838
39833
39836
39816
39766
39723
39693
39643
39568
39502
39451
39384
39289
39203
39136
39048
38933
38827
38734
38622
38487
38363
38257
38140
38013
37894
37778
37655
37532
37431
37343
37248
37154
37076
36999
36906
36809
36739
36690
36633
36572
36530
36503
36467
36420
36378
36335
36281
36226
36182
36140
36096
36062
36021
35953
35871
35801
35743
35672
35590
35520
35459
35381
35287
35207
35141
35070
34991
34928
34893
34886
34930
35055
35268
35570
35962
36438
36971
37522
38079
38645
39204
39723
40193
40625
41023
41371
41669
41930
42155
42337
42469
42556
42606
42633
42643
42628
42582
42516
42438
42336
42203
42058
41924
41799
41668
41540
41426
41319
41219
41134
41068
41013
40956
40897
40844
40788
40731
40682
40627
40548
40455
40366
40294
40236
40184
40143
40117
40103
40092
40089
40102
40130
40159
40185
40209
40236
40275
40323
40353
40351
40342
40345
40347
40329
40294
40255
40210
40148
40067
39977
39884
39783
39672
39564
39453
39331
39206
39076
38929
38757
38574
38402
38232
38049
37864
37690
37521
37340
37142
36935
36730
36527
36329
36146
35981
35837
35716
35593
35450
35304
35186
35099
35010
34914
34845
34809
34779
34754
34741
34732
34719
34704
34697
34693
34674
34644
34623
34609
34586
34557
34546
34545
34523
34491
34473
34451
34401
34346
34296
34218
34107
34001
33909
33789
33628
33468
33330
33198
33073
32978
32918
32900
32957
33133
33440
33858
34378
34990
35665
36357
37041
37713
38359
38950
39482
39967
40400
40772
41096
41371
41586
41754
41893
42001
42061
42066
42043
42009
41964
41902
41835
41775
41723
41667
41597
41516
41429
41347
41278
41216
41153
41103
41073
41051
41020
40982
40948
40914
40867
40808
40746
40673
40582
40480
40370
40251
40118
39986
39875
39774
39679
39601
39546
39511
39476
39449
39450
39471
39488
39504
39528
39545
39548
39566
39604
39624
39617
39622
39649
39662
39649
39640
39636
39610
39564
39523
39480
39411
39321
39235
39146
39034
38908
38792
38680
38558
38434
38332
38246
38149
38052
37979
37918
37847
37777
37729
37685
37616
37540
37474
37401
37314
37244
37194
37137
37070
37022
37001
36983
36968
36974
36988
36981
36954
36943
36946
36939
36923
36916
36911
36898
36886
36886
36891
36888
36879
36867
36844
36816
36791
36762
36716
36653
36583
36511
36424
36330
36246
36181
36115
36029
35945
35875
35801
35718
35640
35566
35479
35371
35275
35214
35170
35154
35219
35389
35650
35997
36452
37002
37589
38193
38817
39447
40053
40617
41151
41654
42107
42512
42871
43176
43424
43630
43804
43935
44008
44032
44019
43976
43910
43835
43761
43673
43566
43463
43375
43276
43161
43069
43018
42972
42915
42875
42857
42824
42772
42740
42731
42704
42648
42585
42507
42403
42279
42151
42020
41882
41737
41585
41426
41270
41129
41003
40887
40781
40693
40632
40591
40560
40538
40529
40520
40505
40498
40502
40504
40502
40502
40502
40495
40474
40446
40407
40343
40264
40191
40121
40035
39933
39837
39751
39653
39545
39441
39337
39219
39098
38999
38907
38785
38651
38539
38441
38347
38272
38226
38179
38104
38033
37982
37916
37822
37746
37698
37636
37549
37472
37420
37362
37283
37217
37171
37121
37062
37021
36996
36952
36879
36804
36732
36650
36564
36489
36422
36344
36261
36200
36153
36091
36030
35998
35979
35946
35915
35906
35888
35844
35809
35801
35781
35735
35699
35682
35658
35622
35595
35578
35537
35458
35382
35317
35233
35128
35030
34943
34837
34712
34611
34540
34464
34381
34315
34260
34193
34131
34120
34177
34313
34560
34944
35449
36035
36679
37375
38090
38776
39431
40070
40681
41236
41731
42180
42582
42919
43199
43438
43629
43766
43862
43923
43935
43901
43846
43777
43682
43567
43451
43336
43202
43057
42935
42844
42763
42692
42643
42607
42572
42544
42529
42515
42494
42473
42449
42406
42343
42274
42199
42113
42016
41923
41845
41774
41703
41636
41577
41531
41493
41457
41428
41407
41388
41366
41340
41319
41314
41326
41341
41348
41351
41354
41343
41313
41286
41277
41269
41242
41202
41165
41119
41048
40968
40899
40823
40711
40573
40434
40286
40118
39961
39825
39669
39478
39292
39133
38969
38780
38597
38431
38253
38059
37893
37766
37643
37516
37412
37329
37242
37156
37097
37056
37002
36933
36878
36837
36795
36753
36720
36692
36657
36617
36586
36561
36542
36537
36539
36526
36491
36460
36438
36400
36347
36301
36260
36200
36121
36053
36005
35952
35883
35820
35773
35719
35652
35601
35576
35546
35496
35457
35433
35400
35356
35327
35307
35263
35200
35140
35077
34989
34891
34811
34746
34675
34599
34547
34508
34451
34387
34332
34275
34197
34104
34011
33908
33785
33668
33586
33544
33551
33649
33875
34224
34687
35274
35959
36678
37403
38139
38870
39551
40171
40754
41297
41775
42187
42558
42884
43150
43359
43530
43662
43753
43816
43854
43855
43819
43765
43698
43599
43467
43342
43234
43114
42976
42850
42750
42656
42564
42501
42463
42419
42360
42306
42258
42191
42106
42017
41919
41798
41672
41564
41466
41371
41294
41237
41187
41133
41083
41057
41049
41037
41027
41033
41041
41027
41010
41023
41047
41051
41060
41095
41123
41121
41117
41126
41121
41088
41049
41014
40950
40854
40763
40691
40609
40507
40409
40316
40207
40084
39971
39869
39760
39649
39548
39441
39317
39189
39080
38982
38875
38767
38677
38591
38490
38381
38285
38197
38093
37988
37904
37824
37721
37608
37513
37424
37313
37196
37094
36997
36895
36807
36738
36676
36614
36562
36519
36476
36443
36427
36413
36378
36328
36281
36232
36176
36126
36091
36057
36003
35929
35858
35792
35719
35646
35583
35520
35441
35359
35288
35203
35099
35007
34929
34838
34722
34607
34503
34377
34222
34073
33943
33805
33649
33508
33391
33265
33117
32984
32875
32761
32633
32519
32426
32319
32195
32102
32065
32076
32159
32361
32704
33181
33784
34511
35317
36150
36984
37790
38537
39204
39798
40336
40813
41221
41563
41848
42081
42256
42381
42472
42526
42541
42529
42498
42430
42318
42198
42091
41962
41799
41641
41502
41351
41186
41052
40962
40886
40816
40762
40717
40657
40584
40521
40467
40397
40314
40239
40166
40084
40001
39947
39911
39865
39826
39824
39847
39876
39916
39971
40014
40034
40067
40133
40193
40229
40274
40339
40391
40421
40455
40497
40515
40504
40501
40505
40478
40424
40376
40333
40273
40192
40104
40012
39915
39815
39717
39618
39515
39419
39331
39231
39113
39002
38901
38786
38652
38527
38424
38306
38168
38047
37951
37844
37720
37619
37550
37469
37366
37280
37221
37153
37067
36996
36939
36866
36778
36706
36652
36599
36545
36503
36472
36438
36404
36373
36346
36317
36292
36280
36259
36223
36200
36189
36156
36095
36037
35990
35931
35856
35791
35742
35675
35578
35489
35421
35333
35222
35129
35056
34962
34838
34722
34624
34509
34369
34233
34108
33969
33815
33675
33554
33438
33347
33314
33361
33508
33783
34191
34712
35309
35958
36638
37308
37946
38553
39120
39624
40057
40435
40768
41034
41229
41382
41511
41598
41635
41641
41634
41599
41529
41444
41350
41231
41090
40955
40838
40717
40592
40478
40370
40258
40153
40074
40012
39940
39861
39798
39742
39667
39580
39505
39425
39323
39227
39166
39118
39065
39028
39020
39025
39038
39076
39143
39204
39245
39307
39401
39482
39537
39605
39692
39759
39789
39816
39854
39873
39870
39871
39871
39840
39783
39726
39670
39593
39499
39409
39318
39206
39082
38971
38870
38751
38621
38507
38394
38256
38109
37981
37852
37710
37576
37465
37359
37257
37184
37141
37090
37022
36962
36919
36866
36787
36708
36639
36560
36471
36392
36324
36242
36147
36067
36005
35942
35876
35819
35762
35687
35600
35532
35485
35426
35356
35300
35248
35180
35105
35047
34999
34934
34858
34793
34736
34670
34594
34517
34440
34354
34258
34165
34084
34012
33951
33907
33892
33936
34077
34327
34687
35158
35725
36347
36974
37590
38200
38784
39318
39806
40262
40669
41007
41284
41531
41741
41883
41968
42031
42067
42049
41987
41919
41842
41736
41611
41490
41382
41273
41153
41030
40914
40803
40693
40584
40479
40384
40303
40232
40162
40089
40019
39948
39856
39748
39654
39577
39506
39436
39369
39307
39240
39179
39150
39146
39141
39139
39166
39214
39254
39295
39364
39444
39501
39546
39600
39654
39686
39699
39714
39726
39721
39700
39665
39612
39550
39482
39403
39309
39203
39098
38987
38866
38751
38643
38522
38380
38234
38104
37986
37866
37753
37659
37565
37458
37354
37276
37206
37116
37023
36940
36843
36721
36602
36510
36419
36311
36212
36134
36049
35943
35846
35774
35696
35603
35524
35462
35384
35290
35212
35158
35104
35047
35012
34990
34952
34902
34857
34815
34759
34696
34641
34592
34539
34487
34436
34375
34296
34210
34140
34087
34023
33951
33895
33845
33774
33686
33606
33528
33441
33369
33339
33362
33458
33662
33992
34446
35013
35680
36410
37145
37859
38555
39211
39802
40334
40828
41279
41670
42005
42291
42525
42697
42813
42884
42912
42894
42846
42781
42691
42577
42464
42364
42256
42136
42036
41960
41875
41774
41688
41629
41570
41501
41443
41398
41338
41259
41185
41123
41047
40955
40867
40781
40692
40620
40579
40554
40526
40495
40476
40463
40456
40472
40515
40572
40620
40664
40720
40766
40781
40791
40818
40836
40818
40791
40787
40792
40791
40788
40789
40784
40760
40735
40721
40689
40624
40551
40476
40376
40249
40118
39983
39826
39648
39480
39330
39172
39004
38854
38721
38584
38445
38321
38211
38100
37993
37896
37802
37700
37593
37487
37385
37295
37220
37157
37094
37023
36951
36896
36851
36805
36765
36737
36716
36690
36658
36632
36613
36593
36571
36548
36516
36475
36437
36401
36359
36319
36285
36244
36181
36104
36032
35956
35859
35749
35652
35562
35463
35368
35286
35200
35105
35018
34947
34868
34772
34688
34624
34553
34473
34399
34334
34261
34188
34158
34204
34326
34545
34902
35396
35974
36600
37279
38002
38716
39396
40053
40677
41236
41724
42168
42576
42919
43198
43437
43636
43782
43877
43936
43959
43941
43895
43827
43732
43607
43468
43334
43199
43058
42926
42815
42719
42630
42552
42498
42464
42433
42405
42385
42371
42360
42343
42314
42265
42200
42128
42048
41955
41859
41769
41674
41566
41465
41388
41325
41259
41205
41177
41155
41119
41086
41076
41072
41047
41016
41000
40979
40938
40908
40903
40891
40853
40828
40824
40802
40753
40701
40651
40573
40459
40351
40260
40150
40012
39883
39769
39639
39493
39364
39255
39131
38994
38880
38786
38690
38600
38533
38479
38416
38344
38272
38194
38103
38009
37928
37856
37776
37691
37605
37511
37413
37335
37282
37224
37146
37074
37018
36948
36858
36786
36743
36688
36613
36551
36508
36460
36405
36368
36354
36324
36271
36229
36198
36150
36094
36047
35999
35934
35860
35795
35736
35674
35617
35568
35513
35441
35356
35263
35160
35050
34946
34850
34748
34624
34494
34373
34253
34127
34014
33922
33822
33700
33584
33486
33370
33226
33096
33003
32930
32892
32955
33162
33508
34000
34652
35424
36247
37081
37908
38702
39438
40108
40720
41264
41734
42146
42507
42794
43006
43175
43315
43404
43435
43443
43446
43408
43319
43224
43140
43044
42927
42822
42743
42656
42554
42467
42400
42328
42248
42193
42160
42121
42078
42046
42017
41969
41908
41851
41792
41721
41649
41578
41498
41403
41310
41232
41154
41073
41011
40965
40913
40849
40802
40777
40747
40708
40697
40726
40749
40749
40758
40786
40797
40787
40778
40766
40731
40680
40636
40592
40527
40439
40352
40275
40192
40102
40022
39944
39857
39767
39680
39585
39478
39380
39312
39248
39158
39060
38973
38878
38749
38613
38505
38417
38323
38222
38124
38034
37941
37844
37752
37662
37570
37493
37443
37388
37314
37245
37187
37112
37021
36957
36927
36887
36830
36794
36777
36751
36713
36685
36669
36646
36615
36578
36535
36487
36443
36402
36343
36260
36185
36120
36041
35946
35864
35801
35724
35632
35558
35509
35447
35366
35306
35284
35249
35183
35126
35092
35046
34981
34932
34902
34856
34793
34739
34695
34635
34559
34497
34447
34384
34312
34238
34154
34064
33978
33918
33892
33911
34020
34260
34628
35122
35735
36434
37168
37908
38637
39343
40006
40617
41178
41690
42144
42528
42852
43130
43352
43516
43632
43699
43711
43687
43654
43615
43556
43483
43408
43323
43216
43108
43029
42973
42916
42862
42833
42817
42790
42759
42746
42737
42696
42630
42574
42525
42462
42385
42312
42240
42148
42055
41990
41945
41904
41873
41852
41818
41775
41746
41729
41704
41670
41651
41643
41626
41608
41606
41610
41599
41584
41575
41561
41536
41508
41482
41449
41406
41368
41337
41290
41223
41149
41069
40972
40858
40747
40641
40522
40391
40274
40174
40055
39913
39786
39686
39574
39444
39333
39245
39141
39016
38901
38800
38682
38548
38428
38332
38230
38118
38022
37944
37857
37762
37677
37597
37517
37442
37376
37310
37240
37168
37088
36994
36893
36807
36735
36653
36562
36490
36442
36398
36354
36320
36296
36257
36198
36148
36114
36069
36005
35955
35931
35891
35828
35777
35741
35691
35626
35576
35534
35476
35408
35344
35277
35198
35108
35018
34931
34840
34760
34692
34611
34518
34435
34364
34288
34206
34140
34091
34023
33927
33838
33773
33717
33676
33696
33811
34027
34359
34834
35452
36161
36912
37696
38491
39249
39951
40607
41210
41730
42169
42560
42911
43197
43430
43631
43788
43889
43944
43982
44002
43981
43931
43877
43809
43707
43583
43464
43348
43222
43096
42982
42872
42767
42677
42613
42564
42518
42481
42452
42416
42366
42318
42277
42218
42131
42041
41956
41859
41753
41664
41598
41528
41454
41401
41366
41329
41300
41301
41329
41360
41392
41434
41481
41517
41547
41578
41604
41606
41590
41568
41535
41494
41458
41423
41377
41316
41249
41188
41123
41047
40974
40912
40843
40757
40666
40569
40447
40307
40172
40049
39920
39784
39661
39546
39421
39294
39188
39095
38989
38879
38791
38722
38645
38559
38483
38417
38345
38267
38204
38149
38084
38013
37950
37901
37856
37809
37767
37738
37716
37696
37672
37646
37621
37593
37555
37507
37454
37406
37360
37316
37288
37283
37286
37272
37248
37233
37215
37168
37100
37041
36987
36910
36820
36745
36672
36576
36463
36362
36267
36157
36045
35956
35871
35767
35655
35557
35468
35370
35269
35171
35073
34971
34867
34755
34625
34488
34362
34252
34166
34142
34213
34389
34689
35137
35735
36444
37206
37991
38784
39553
40261
40903
41499
42033
42476
42846
43170
43436
43630
43773
43894
43973
43993
43992
43987
43946
43861
43768
43684
43578
43436
43298
43180
43048
42897
42760
42640
42513
42379
42264
42174
42095
42024
41971
41923
41857
41773
41692
41617
41539
41464
41398
41341
41292
41261
41253
41251
41246
41256
41279
41294
41305
41333
41378
41411
41429
41469
41532
41581
41609
41641
41685
41704
41681
41644
41610
41563
41505
41450
41395
41314
41206
41102
41004
40892
40773
40658
40533
40378
40201
40028
39855
39662
39461
39276
39100
38914
38727
38567
38425
38273
38120
37996
37889
37778
37676
37595
37512
37412
37319
37243
37149
37025
36910
36819
36726
36626
36554
36514
36465
36392
36334
36311
36298
36280
36276
36290
36286
36253
36224
36200
36164
36120
36083
36043
35977
35899
35835
35775
35691
35600
35538
35478
35394
35314
35252
35171
35058
34944
34841
34716
34561
34418
34300
34176
34036
33916
33830
33747
33664
33635
33697
33850
34118
34545
35123
35786
36491
37231
37971
38657
39284
39878
40425
40894
41292
41647
41950
42176
42338
42468
42569
42621
42627
42617
42586
42515
42412
42301
42191
42076
41959
41848
41744
41645
41555
41470
41373
41259
41161
41091
41018
40930
40847
40765
40659
40528
40403
40294
40185
40081
39999
39939
39890
39853
39844
39862
39896
39948
40016
40090
40161
40227
40295
40364
40425
40483
40536
40571
40586
40600
40618
40614
40580
40539
40503
40448
40364
40278
40202
40109
39994
39884
39782
39663
39528
39406
39295
39168
39031
38906
38782
38646
38507
38383
38269
38151
38031
37911
37788
37667
37564
37482
37399
37309
37239
37193
37143
37082
37038
37017
36977
36909
36856
36826
36780
36711
36656
36620
36566
36488
36411
36333
36235
36122
36024
35946
35869
35792
35728
35673
35614
35549
35487
35427
35362
35305
35259
35205
35136
35069
35022
34985
34959
34983
35080
35235
35450
35764
36193
36691
37217
37774
38355
38917
39426
39900
40351
40756
41102
41407
41665
41855
41990
42090
42156
42181
42181
42169
42137
42079
42004
41923
41829
41713
41595
41493
41399
41293
41185
41098
41022
40936
40850
40780
40716
40628
40525
40437
40352
40245
40124
40012
39901
39782
39668
39580
39516
39472
39442
39417
39398
39398
39420
39451
39480
39511
39546
39573
39597
39627
39668
39703
39716
39717
39725
39731
39719
39700
39696
39691
39651
39582
39515
39441
39337
39219
39116
39008
38861
38696
38551
38412
38267
38136
38027
37914
37787
37672
37578
37481
37386
37314
37260
37194
37111
37030
36955
36865
36762
36667
36574
36467
36359
36283
36241
36213
36200
36202
36206
36202
36206
36219
36233
36236
36229
36218
36192
36148
36102
36059
36005
35930
35859
35804
35742
35668
35599
35539
35469
35376
35293
35242
35195
35146
35131
35170
35249
35374
35596
35926
36327
36779
37285
37824
38356
38864
39361
39836
40264
40645
40980
41254
41469
41645
41798
41920
42008
42071
42106
42102
42063
42012
41961
41900
41827
41754
41685
41607
41525
41461
41420
41386
41353
41331
41317
41296
41273
41275
41301
41320
41319
41313
41302
41269
41223
41188
41157
41107
41044
40988
40939
40889
40844
40814
40795
40779
40772
40779
40786
40789
40808
40840
40857
40856
40873
40911
40931
40926
40930
40953
40963
40952
40938
40921
40889
40850
40809
40754
40683
40614
40549
40469
40367
40255
40149
40041
39917
39791
39689
39610
39531
39456
39396
39349
39306
39266
39230
39186
39136
39095
39055
38991
38904
38826
38766
38698
38616
38552
38511
38468
38414
38377
38365
38337
38283
38242
38219
38180
38117
38064
38029
37983
37924
37883
37868
37843
37797
37755
37727
37701
37682
37672
37658
37630
37597
37575
37550
37510
37478
37461
37442
37402
37367
37372
37419
37505
37658
37905
38226
38592
38997
39436
39889
40339
40780
41205
41599
41964
42303
42594
42822
43010
43175
43301
43372
43405
43421
43415
43382
43339
43296
43238
43156
43069
42991
42913
42824
42752
42708
42673
42650
42662
42706
42745
42770
42808
42861
42894
42899
42898
42896
42867
42802
42736
42687
42620
42530
42453
42395
42317
42209
42117
42057
41995
41922
41871
41841
41803
41753
41719
41708
41704
41705
41719
41738
41751
41764
41784
41808
41825
41842
41855
41851
41829
41807
41786
41758
41719
41678
41642
41601
41553
41498
41442
41381
41306
41223
41142
41068
41004
40951
40900
40840
40776
40723
40679
40626
40568
40523
40484
40433
40379
40341
40309
40256
40192
40140
40093
40030
39966
39935
39922
39890
39857
39845
39835
39813
39794
39798
39800
39780
39761
39753
39732
39696
39684
39702
39712
39704
39703
39705
39681
39635
39606
39590
39549
39484
39436
39415
39387
39343
39303
39270
39231
39186
39147
39112
39073
39034
38996
38950
38897
38848
38804
38747
38669
38590
38524
38456
38391
38354
38361
38403
38491
38647
38875
39159
39489
39871
40305
40759
41209
41661
42108
42529
42923
43298
43635
43917
44152
44354
44512
44615
44674
44710
44720
44700
44668
44644
44615
44557
44487
44441
44408
44363
44323
44319
44331
44324
44315
44331
44363
44390
44419
44462
44502
44525
44536
44537
44527
44510
44488
44450
44387
44314
44253
44202
44149
44101
44070
44046
44017
43995
43995
44006
44013
44021
44035
44046
44045
44039
44045
44047
44030
44018
44021
44012
43985
43966
43955
43930
43888
43853
43827
43777
43702
43638
43593
43537
43457
43387
43342
43283
43203
43139
43098
43043
42969
42912
42875
42824
42759
42708
42669
42616
42547
42478
42422
42369
42313
42258
42198
42130
42060
41994
41940
41897
41861
41835
41812
41782
41755
41741
41727
41697
41664
41631
41583
41514
41443
41387
41335
41276
41230
41202
41170
41139
41137
41164
41180
41168
41161
41170
41164
41133
41102
41074
41028
40964
40909
40862
40806
40750
40713
40680
40623
40551
40492
40436
40353
40257
40174
40100
40008
39896
39786
39688
39591
39485
39371
39261
39159
39065
38987
38930
38899
38904
38951
39059
39256
39554
39930
40356
40819
41312
41816
42301
42766
43225
43665
44061
44415
44736
45016
45242
45419
45559
45657
45718
45759
45787
45789
45763
45729
45695
45635
45554
45495
45468
45433
45376
45334
45313
45283
45246
45239
45261
45277
45278
45282
45278
45253
45223
45201
45170
45114
45051
44987
44911
44820
44728
44656
44598
44530
44463
44414
44369
44313
44267
44250
44240
44218
44210
44228
44246
44253
44269
44305
44327
44317
44306
44302
44273
44218
44174
44141
44084
43999
43922
43861
43787
43694
43612
43544
43464
43377
43308
43254
43200
43144
43092
43033
42961
42884
42810
42737
42666
42605
42545
42478
42414
42367
42330
42282
42210
42133
42058
41974
41876
41779
41689
41599
41499
41408
41340
41279
41214
41157
41112
41060
40993
40942
40914
40880
40829
40788
40759
40718
40667
40626
40589
40543
40493
40455
40424
40382
40339
40311
40280
40233
40186
40147
40108
40058
40010
39970
39929
39888
39847
39805
39757
39698
39634
39575
39514
39442
39372
39303
39227
39141
39059
38990
38921
38856
38815
38805
38829
38914
39087
39349
39678
40066
40516
41005
41501
42003
42516
43016
43470
43887
44292
44663
44972
45245
45497
45698
45837
45948
46049
46113
46134
46142
46144
46108
46036
45964
45910
45840
45741
45652
45595
45540
45484
45461
45472
45473
45456
45460
45485
45489
45464
45431
45390
45333
45263
45191
45118
45040
44964
44892
44816
44733
44655
44592
44529
44467
44423
44401
44384
44365
44356
44360
44367
44368
44365
44359
44346
44322
44287
44244
44200
44161
44128
44098
44069
44049
44037
44014
43975
43932
43891
43844
43784
43723
43670
43613
43536
43447
43366
43287
43187
43086
43006
42925
42832
42749
42694
42644
42573
42506
42456
42389
42293
42203
42141
42077
41995
41921
41864
41803
41738
41691
41658
41613
41554
41506
41470
41427
41381
41347
41319
41278
41226
41186
41154
41113
41064
41011
40950
40886
40829
40780
40731
40681
40644
40613
40568
40511
40463
40424
40368
40294
40226
40164
40079
39966
39854
39752
39637
39499
39354
39208
39052
38886
38722
38560
38394
38238
38108
37994
37883
37774
37677
37586
37498
37428
37395
37412
37486
37643
37905
38261
38694
39202
39759
40331
40907
41488
42065
42613
43112
43563
43966
44325
44646
44924
45156
45338
45468
45550
45599
45625
45629
45603
45540
45446
45343
45242
45133
45004
44868
44743
44629
44527
44445
44393
44366
44347
44333
44334
44340
44343
44348
44348
44322
44263
44194
44130
44053
43956
43864
43785
43704
43622
43558
43515
43479
43439
43404
43378
43356
43334
43320
43326
43347
43367
43385
43403
43412
43416
43430
43446
43439
43410
43381
43352
43301
43232
43168
43105
43017
42906
42798
42687
42555
42409
42268
42129
41972
41799
41638
41488
41323
41174
41076
40997
40908
40819
40738
40653
40554
40455
40361
40259
40155
40069
39995
39904
39797
39707
39634
39551
39457
39369
39279
39173
39062
38974
38909
38854
38808
38779
38754
38724
38696
38667
38630
38582
38536
38494
38431
38348
38266
38191
38109
38016
37930
37859
37784
37702
37621
37546
37473
37396
37314
37233
37155
37082
37011
36930
36833
36728
36629
36527
36411
36284
36152
36008
35846
35682
35524
35368
35200
35035
34902
34783
34653
34539
34455
34373
34267
34157
34071
33988
33885
33796
33742
33706
33699
33788
34018
34379
34869
35513
36282
37092
37893
38685
39452
40153
40771
41327
41825
42240
42573
42859
43106
43292
43425
43522
43580
43597
43592
43577
43543
43484
43413
43339
43244
43123
43001
42897
42792
42670
42561
42488
42433
42378
42337
42323
42316
42296
42275
42256
42223
42180
42136
42086
42016
41932
41851
41770
41683
41606
41549
41503
41460
41431
41421
41417
41404
41387
41384
41389
41384
41379
41392
41412
41413
41393
41381
41368
41334
41286
41240
41195
41142
41083
41028
40974
40903
40811
40706
40598
40486
40363
40241
40123
40009
39898
39784
39671
39575
39494
39404
39289
39160
39038
38918
38785
38648
38517
38380
38225
38067
37928
37799
37657
37517
37408
37322
37228
37134
37077
37048
37016
36990
36991
36999
36992
36981
36991
37011
37018
37013
36997
36963
36906
36836
36759
36667
36568
36474
36369
36239
36109
36010
35938
35871
35809
35766
35734
35702
35675
35662
35656
35644
35630
35618
35601
35577
35553
35515
35446
35345
35228
35104
34965
34808
34639
34459
34272
34083
33903
33750
33640
33573
33562
33640
33841
34189
34694
35334
36069
36865
37689
38496
39250
39947
40584
41145
41627
42040
42397
42693
42912
43071
43185
43241
43236
43196
43149
43087
42988
42879
42785
42682
42552
42425
42325
42222
42092
41965
41861
41750
41622
41518
41450
41376
41280
41197
41139
41065
40970
40890
40824
40732
40619
40525
40455
40377
40300
40254
40232
40215
40207
40226
40268
40312
40355
40408
40466
40520
40577
40648
40721
40768
40795
40828
40862
40883
40885
40877
40861
40824
40766
40700
40633
40560
40484
40399
40299
40190
40080
39962
39824
39670
39519
39362
39188
39011
38845
38683
38508
38329
38154
37973
37781
37592
37416
37254
37105
36971
36856
36744
36629
36538
36473
36404
36323
36255
36210
36157
36081
36007
35944
35879
35810
35764
35752
35737
35696
35664
35655
35641
35613
35596
35596
35573
35521
35474
35435
35380
35310
35245
35183
35100
35002
34912
34825
34725
34624
34534
34446
34347
34244
34154
34074
33991
33932
33950
34074
34312
34688
35213
35843
36521
37235
37967
38665
39302
39901
40461
40947
41356
41725
42061
42329
42517
42666
42795
42873
42892
42888
42869
42810
42711
42604
42489
42349
42199
42063
41930
41779
41627
41502
41391
41263
41136
41041
40954
40857
40781
40737
40680
40593
40509
40440
40358
40252
40154
40072
39984
39888
39819
39789
39759
39712
39679
39676
39678
39684
39730
39819
39902
39958
40021
40098
40171
40238
40304
40357
40376
40367
40358
40349
40322
40274
40212
40136
40038
39928
39827
39729
39618
39494
39366
39231
39080
38914
38746
38584
38423
38260
38096
37929
37760
37603
37459
37313
37169
37039
36915
36785
36660
36553
36451
36333
36206
36089
35976
35851
35727
35624
35526
35411
35296
35210
35141
35061
34979
34926
34891
34849
34817
34823
34840
34837
34824
34813
34790
34746
34699
34657
34609
34549
34483
34409
34318
34219
34124
34030
33921
33802
33678
33539
33382
33220
33070
32926
32770
32614
32480
32361
32257
32198
32221
32353
32628
33086
33728
34498
35339
36224
37108
37939
38694
39385
40018
40572
41036
41426
41754
42019
42221
42369
42472
42534
42561
42560
42528
42466
42389
42306
42205
42077
41930
41781
41632
41481
41337
41213
41098
40978
40869
40797
40743
40682
40627
40595
40566
40521
40476
40446
40408
40338
40255
40174
40083
39982
39905
39865
39825
39766
39720
39703
39690
39669
39667
39685
39691
39679
39689
39729
39756
39757
39768
39797
39817
39823
39841
39867
39871
39848
39815
39767
39695
39607
39514
39416
39297
39157
39014
38868
38703
38531
38374
38228
38069
37900
37738
37585
37426
37256
37079
36901
36727
36557
36390
36219
36045
35886
35742
35595
35454
35341
35249
35146
35035
34939
34857
34772
34688
34620
34559
34493
34428
34370
34319
34264
34204
34145
34085
34026
33983
33951
33909
33855
33805
33762
33713
33657
33611
33571
33504
33408
33318
33243
33156
33052
32960
32882
32782
32654
32530
32419
32289
32140
32007
31893
31771
31634
31501
31370
31228
31083
30951
30834
30742
30714
30792
31000
31373
31948
32716
33618
34594
35604
36600
37520
38343
39083
39738
40288
40729
41089
41385
41603
41747
41848
41923
41949
41918
41874
41838
41780
41703
41632
41561
41466
41352
41247
41151
41037
40918
40818
40730
40638
40546
40475
40421
40362
40300
40253
40213
40164
40109
40071
40045
40002
39942
39890
39848
39803
39765
39745
39724
39691
39673
39675
39672
39656
39651
39662
39660
39641
39639
39649
39644
39625
39619
39629
39627
39616
39620
39630
39624
39602
39588
39580
39547
39489
39427
39355
39245
39101
38955
38803
38626
38444
38271
38086
37882
37687
37516
37339
37154
36986
36839
36692
36534
36378
36235
36094
35948
35804
35667
35532
35407
35298
35197
35087
34977
34885
34810
34736
34662
34595
34526
34442
34352
34266
34172
34058
33942
33831
33704
33567
33439
33318
33183
33034
32906
32817
32743
32676
32627
32597
32568
32528
32482
32443
32411
32381
32349
32312
32270
32228
32193
32152
32087
32002
31911
31810
31696
31586
31494
31410
31311
31204
31116
31037
30943
30848
30766
30677
30583
30531
30571
30716
30987
31442
32104
32929
33870
34889
35929
36932
37861
38716
39495
40176
40748
41227
41623
41934
42170
42345
42464
42526
42548
42550
42526
42468
42394
42319
42229
42109
41968
41830
41695
41552
41418
41302
41187
41060
40948
40876
40817
40747
40695
40662
40617
40559
40511
40477
40428
40354
40282
40218
40145
40055
39970
39896
39822
39746
39686
39654
39631
39613
39609
39608
39599
39595
39604
39616
39608
39581
39551
39517
39469
39421
39384
39350
39305
39259
39221
39173
39108
39049
38990
38901
38786
38677
38572
38445
38294
38139
37982
37807
37621
37441
37270
37097
36915
36731
36552
36372
36192
36015
35841
35665
35497
35348
35206
35056
34906
34766
34632
34488
34338
34204
34082
33948
33815
33705
33603
33492
33394
33313
33220
33106
33007
32944
32888
32820
32769
32741
32700
32635
32582
32557
32531
32493
32469
32467
32452
32405
32363
32341
32303
32242
32197
32176
32142
32079
32012
31943
31854
31747
31647
31549
31426
31290
31161
31024
30864
30696
30545
30405
30251
30086
29936
29794
29641
29479
29334
29207
29082
28986
28971
29065
29287
29686
30284
31071
32024
33109
34252
35374
36430
37403
38268
38999
39607
40123
40554
40878
41107
41281
41406
41472
41494
41486
41442
41355
41242
41122
40988
40836
40671
40493
40291
40068
39845
39641
39460
39293
39143
39019
38921
38836
38753
38678
38611
38538
38451
38357
38259
38161
38065
37960
37847
37742
37664
37611
37569
37546
37550
37568
37589
37624
37685
37761
37833
37904
37985
38060
38123
38186
38242
38274
38279
38272
38264
38246
38200
38136
38075
38012
37932
37838
37747
37656
37545
37427
37320
37210
37094
36981
36861
36714
36552
36409
36285
36151
36005
35873
35754
35626
35495
35382
35276
35153
35019
34885
34747
34598
34453
34324
34201
34070
33949
33849
33742
33622
33515
33434
33352
33258
33183
33135
33078
33007
32964
32957
32938
32893
32860
32846
32820
32774
32735
32708
32660
32587
32525
32477
32414
32332
32262
32209
32146
32075
32021
31979
31917
31830
31746
31667
31580
31495
31434
31390
31334
31269
31218
31172
31100
31004
30902
30786
30647
30500
30361
30217
30056
29914
29822
29788
29844
30055
30459
31040
31781
32688
33722
34786
35813
36786
37681
38463
39130
39710
40210
40612
40922
41169
41352
41457
41504
41518
41503
41441
41344
41245
41132
40974
40795
40630
40471
40295
40114
39947
39779
39595
39417
39260
39114
38971
38841
38731
38630
38533
38441
38345
38238
38130
38039
37957
37865
37774
37691
37608
37534
37486
37473
37487
37506
37535
37592
37662
37729
37813
37917
38019
38110
38209
38321
38412
38469
38517
38557
38562
38533
38499
38467
38408
38316
38223
38141
38035
37895
37755
37631
37488
37316
37155
37017
36865
36694
36536
36390
36225
36047
35887
35735
35573
35411
35263
35116
34954
34791
34654
34528
34380
34226
34098
33982
33859
33759
33690
33619
33540
33477
33434
33389
33332
33287
33255
33219
33177
33138
33106
33073
33035
32987
32921
32833
32745
32672
32595
32504
32414
32340
32278
32205
32119
32032
31938
31833
31730
31639
31546
31432
31308
31192
31071
30959
30909
30949
31074
31300
31678
32228
32918
33717
34604
35530
36429
37269
38049
38763
39388
39905
40320
40646
40892
41078
41216
41297
41317
41297
41257
41191
41091
40964
40823
40659
40469
40266
40070
39874
39663
39440
39219
38990
38746
38519
38315
38110
37894
37691
37511
37329
37139
36965
36811
36655
36500
36374
36289
36221
36159
36132
36154
36207
36290
36412
36562
36712
36861
37027
37203
37367
37522
37684
37844
37982
38100
38213
38310
38367
38389
38403
38398
38358
38307
38261
38195
38094
37984
37885
37770
37631
37508
37409
37286
37124
36967
36831
36681
36510
36350
36210
36061
35900
35752
35621
35476
35307
35146
35006
34864
34721
34596
34483
34361
34234
34123
34027
33928
33832
33758
33695
33619
33544
33497
33469
33424
33363
33309
33252
33185
33132
33101
33067
33017
32981
32974
32962
32933
32919
32923
32909
32863
32821
32797
32752
32670
32586
32512
32417
32302
32202
32122
32028
31917
31820
31747
31691
31673
31731
31892
32170
32590
33176
33906
34722
35581
36460
37322
38124
38845
39497
40083
40588
41010
41367
41666
41901
42072
42193
42274
42313
42318
42296
42250
42190
42125
42048
41942
41813
41687
41567
41439
41309
41194
41091
40985
40881
40796
40730
40669
40617
40573
40525
40464
40398
40337
40268
40184
40102
40026
39935
39836
39749
39678
39608
39532
39467
39429
39412
39407
39411
39430
39458
39487
39516
39540
39554
39563
39577
39588
39577
39547
39519
39485
39427
39355
39289
39223
39141
39047
38956
38858
38741
38621
38516
38409
38287
38167
38056
37931
37793
37673
37577
37479
37367
37260
37162
37047
36912
36777
36648
36518
36383
36256
36145
36040
35936
35841
35753
35664
35583
35517
35457
35392
35337
35303
35272
35230
35191
35174
35166
35147
35121
35098
35075
35043
35016
35003
34982
34945
34913
34896
34875
34841
34813
34792
34748
34680
34626
34596
34556
34493
34441
34407
34350
34268
34199
34148
34080
33991
33917
33874
33832
33798
33830
33960
34179
34510
34990
35605
36307
37053
37812
38565
39294
39983
40628
41221
41747
42208
42615
42961
43228
43431
43600
43739
43833
43882
43903
43897
43858
43794
43713
43607
43477
43343
43211
43074
42940
42822
42709
42587
42470
42379
42309
42240
42173
42118
42066
42005
41941
41884
41825
41750
41672
41597
41510
41410
41327
41270
41217
41156
41113
41097
41087
41080
41099
41148
41191
41213
41248
41308
41361
41391
41422
41462
41483
41480
41487
41508
41501
41454
41399
41344
41269
41175
41093
41025
40937
40828
40724
40624
40516
40408
40316
40233
40141
40037
39933
39818
39687
39549
39413
39278
39134
38980
38834
38699
38570
38448
38339
38238
38135
38032
37941
37862
37785
37713
37646
37575
37498
37431
37375
37314
37254
37224
37218
37196
37153
37121
37102
37077
37052
37038
37029
37007
36974
36945
36914
36870
36816
36754
36677
36583
36494
36418
36333
36242
36171
36119
36049
35951
35863
35795
35715
35615
35530
35473
35398
35286
35176
35082
34981
34879
34806
34766
34745
34774
34906
35165
35552
36064
36689
37394
38130
38868
39589
40268
40888
41462
41998
42475
42884
43239
43549
43794
43979
44134
44267
44349
44371
44359
44324
44254
44154
44043
43928
43805
43674
43549
43433
43319
43199
43087
42992
42905
42828
42781
42758
42732
42702
42683
42669
42644
42615
42590
42557
42492
42409
42346
42290
42208
42124
42064
42014
41960
41925
41931
41954
41974
42004
42046
42070
42068
42076
42114
42148
42161
42180
42209
42212
42191
42182
42181
42148
42081
42017
41965
41893
41794
41695
41596
41477
41347
41230
41129
41022
40904
40793
40684
40565
40446
40338
40232
40109
39975
39863
39762
39646
39524
39420
39328
39226
39122
39036
38958
38880
38805
38727
38642
38557
38487
38430
38371
38310
38266
38238
38200
38148
38101
38063
38010
37946
37894
37851
37808
37772
37750
37735
37719
37698
37682
37664
37632
37591
37543
37483
37410
37334
37260
37175
37068
36950
36835
36725
36618
36518
36428
36348
36272
36196
36125
36054
35982
35907
35815
35702
35588
35493
35418
35377
35401
35524
35758
36117
36614
37235
37928
38631
39324
40011
40663
41262
41821
42329
42752
43087
43364
43600
43780
43895
43973
44036
44059
44032
43992
43961
43901
43798
43699
43621
43529
43414
43305
43212
43119
43035
42971
42913
42847
42781
42727
42682
42642
42613
42590
42557
42499
42433
42385
42339
42275
42209
42159
42108
42032
41957
41913
41884
41848
41824
41831
41842
41838
41836
41857
41887
41908
41937
41980
42010
42019
42022
42020
41996
41956
41916
41867
41795
41715
41644
41571
41483
41391
41309
41226
41121
41003
40895
40792
40671
40545
40439
40336
40208
40074
39972
39890
39793
39683
39576
39470
39351
39228
39125
39035
38937
38826
38713
38610
38511
38412
38323
38251
38197
38158
38124
38080
38032
37996
37975
37946
37911
37896
37903
37898
37876
37859
37843
37810
37769
37731
37691
37629
37553
37486
37428
37366
37305
37256
37213
37158
37091
37032
36985
36937
36884
36829
36772
36708
36633
36551
36464
36372
36284
36203
36129
36082
36088
36156
36300
36554
36938
37433
38008
38636
39296
39953
40572
41139
41660
42132
42544
42910
43235
43496
43679
43811
43926
44010
44046
44062
44064
44021
43925
43820
43737
43652
43543
43424
43307
43181
43048
42934
42847
42768
42691
42621
42550
42466
42379
42298
42212
42103
41989
41882
41773
41660
41557
41477
41423
41380
41348
41342
41349
41347
41349
41390
41458
41518
41574
41645
41722
41781
41832
41899
41965
42004
42030
42055
42069
42062
42039
42012
41983
41946
41903
41846
41773
41700
41629
41550
41455
41356
41266
41167
41048
40924
40809
40698
40580
40460
40353
40254
40144
40022
39911
39813
39718
39630
39550
39476
39401
39335
39289
39243
39184
39132
39088
39033
38965
38912
38884
38848
38791
38753
38745
38727
38685
38651
38629
38589
38530
38480
38445
38401
38349
38301
38249
38186
38120
38062
38011
37958
37911
37874
37828
37762
37702
37668
37637
37596
37581
37619
37709
37860
38103
38453
38878
39341
39844
40377
40904
41409
41906
42394
42846
43249
43602
43905
44164
44396
44604
44768
44876
44946
44990
44994
44959
44901
44835
44758
44656
44539
44426
44305
44157
44006
43881
43773
43651
43529
43433
43346
43257
43190
43151
43107
43041
42973
42916
42839
42738
42658
42610
42556
42489
42445
42432
42416
42398
42417
42470
42525
42578
42649
42738
42817
42882
42944
42996
43024
43036
43054
43072
43070
43053
43046
43037
43000
42947
42915
42892
42847
42783
42724
42665
42584
42483
42374
42266
42155
42034
41909
41790
41679
41576
41479
41384
41286
41194
41112
41027
40933
40843
40756
40657
40553
40463
40384
40296
40206
40130
40055
39969
39888
39833
39797
39749
39691
39648
39620
39588
39554
39534
39524
39505
39477
39456
39439
39417
39385
39349
39316
39277
39228
39175
39120
39061
39009
38968
38917
38851
38792
38745
38688
38616
38556
38512
38450
38365
38303
38284
38307
38392
38576
38870
39253
39718
40256
40829
41411
42005
42601
43165
43684
44184
44668
45088
45432
45737
46011
46221
46353
46446
46515
46531
46497
46448
46390
46310
46212
46106
45984
45840
45699
45578
45466
45358
45268
45198
45134
45065
44996
44942
44893
44830
44754
44685
44627
44560
44481
44412
44350
44283
44219
44169
44119
44057
43996
43945
43890
43829
43798
43804
43809
43802
43818
43864
43901
43921
43958
44013
44051
44064
44078
44091
44083
44056
44027
43995
43954
43911
43874
43827
43758
43679
43606
43532
43445
43359
43279
43186
43067
42946
42849
42751
42632
42512
42405
42291
42157
42023
41908
41804
41695
41579
41457
41328
41200
41081
40967
40856
40757
40671
40582
40489
40407
40344
40292
40236
40185
40148
40113
40058
39992
39947
39908
39850
39796
39773
39766
39739
39691
39644
39597
39527
39433
39338
39247
39137
39002
38863
38731
38605
38476
38347
38230
38121
38014
37910
37813
37725
37644
37563
37474
37388
37310
37227
37132
37039
36973
36942
36952
37040
37259
37618
38093
38670
39338
40053
40765
41455
42124
42763
43356
43899
44392
44827
45199
45529
45831
46085
46288
46454
46583
46658
46678
46673
46660
46612
46516
46402
46284
46142
45977
45828
45710
45596
45483
45397
45338
45280
45221
45173
45130
45084
45047
45024
45004
44971
44927
44876
44800
44694
44586
44496
44400
44280
44166
44085
44014
43938
43878
43849
43826
43793
43767
43754
43741
43732
43739
43754
43760
43764
43769
43762
43744
43724
43706
43684
43640
43578
43518
43457
43375
43279
43190
43097
42985
42869
42771
42679
42567
42437
42310
42178
42020
41847
41682
41524
41354
41176
41013
40867
40727
40592
40470
40362
40262
40178
40114
40056
40001
39957
39923
39875
39809
39759
39737
39711
39670
39632
39595
39540
39474
39425
39390
39348
39301
39259
39213
39160
39116
39094
39078
39059
39050
39048
39033
39002
38973
38953
38923
38877
38832
38789
38733
38658
38586
38535
38483
38412
38339
38275
38193
38089
37996
37927
37844
37738
37637
37551
37454
37332
37205
37085
36957
36824
36714
36639
36613
36666
36835
37141
37580
38145
38817
39551
40307
41069
41819
42524
43158
43729
44249
44708
45103
45451
45759
46002
46172
46305
46413
46469
46469
46441
46397
46314
46193
46067
45940
45798
45647
45513
45396
45276
45157
45055
44960
44870
44797
44744
44697
44643
44602
44578
44545
44494
44448
44416
44373
44314
44266
44230
44171
44083
44007
43960
43906
43835
43784
43759
43725
43685
43671
43679
43684
43687
43704
43723
43731
43735
43747
43754
43741
43716
43691
43655
43601
43538
43491
43446
43369
43282
43215
43156
43076
42980
42897
42821
42726
42617
42511
42402
42281
42165
42061
41943
41803
41679
41584
41479
41357
41254
41167
41065
40952
40861
40786
40707
40631
40558
40472
40371
40274
40200
40136
40057
39973
39909
39858
39794
39721
39662
39611
39547
39479
39426
39389
39357
39331
39312
39282
39236
39191
39154
39111
39057
39011
38976
38922
38845
38791
38775
38749
38695
38647
38610
38550
38469
38401
38343
38267
38173
38078
37982
37875
37761
37654
37547
37431
37324
37238
37162
37073
36972
36876
36767
36631
36494
36381
36268
36137
36029
36003
36081
36284
36642
37169
37833
38583
39377
40186
40987
41763
42488
43142
43718
44223
44666
45041
45348
45602
45817
45991
46105
46171
46213
46225
46193
46125
46043
45956
45849
45723
45589
45438
45268
45103
44955
44813
44680
44577
44502
44426
44345
44286
44253
44216
44161
44114
44080
44027
43944
43867
43813
43751
43670
43601
43554
43502
43440
43406
43406
43404
43392
43395
43411
43424
43440
43471
43507
43521
43511
43497
43487
43491
43510
43539
43549
43525
43491
43456
43407
43344
43274
43201
43125
43036
42929
42809
42678
42539
42403
42281
42153
42000
41837
41672
41506
41347
41211
41090
40951
40793
40648
40515
40366
40218
40098
39992
39867
39740
39641
39550
39438
39317
39214
39125
39023
38905
38797
38705
38615
38519
38425
38340
38261
38180
38105
38042
37983
37922
37861
37804
37757
37714
37668
37618
37575
37540
37504
37461
37421
37389
37352
37295
37224
37152
37072
36974
36871
36779
36681
36556
36423
36310
36205
36087
35969
35865
35758
35629
35503
35390
35268
35124
34977
34829
34646
34424
34207
34016
33824
33629
33483
33427
33463
33624
33975
34538
35271
36132
37097
38112
39100
40016
40857
41614
42264
42811
43273
43645
43929
44147
44310
44411
44450
44453
44436
44377
44280
44171
44058
43915
43741
43568
43407
43234
43049
42884
42749
42609
42456
42330
42238
42144
42046
41975
41925
41860
41777
41707
41652
41582
41498
41424
41363
41299
41236
41185
41146
41117
41109
41127
41154
41179
41218
41281
41346
41407
41490
41595
41683
41742
41811
41896
41955
41974
41995
42031
42043
42014
41981
41959
41912
41828
41737
41650
41530
41372
41215
41062
40880
40670
40463
40262
40057
39852
39665
39494
39320
39141
38973
38812
38655
38504
38358
38207
38055
37916
37785
37647
37508
37390
37300
37202
37080
36967
36872
36757
36617
36490
36390
36281
36153
36049
35977
35902
35818
35762
35738
35710
35670
35649
35655
35653
35636
35625
35620
35606
35583
35560
35529
35488
35451
35436
35425
35387
35344
35316
35281
35215
35141
35088
35038
34963
34876
34798
34731
34664
34584
34495
34403
34309
34213
34111
34001
33888
33799
33762
33787
33902
34158
34580
35146
35836
36644
37529
38416
39271
40089
40844
41495
42035
42478
42832
43114
43344
43525
43639
43688
43710
43720
43692
43616
43525
43444
43341
43201
43048
42897
42738
42567
42392
42222
42051
41880
41712
41538
41358
41186
41022
40857
40685
40522
40377
40240
40092
39939
39807
39698
39594
39508
39459
39443
39436
39441
39479
39545
39613
39688
39787
39903
40013
40113
40218
40329
40441
40552
40660
40759
40835
40893
40945
40978
40982
40978
40977
40947
40878
40801
40729
40630
40499
40374
40264
40135
39984
39839
39706
39575
39443
39315
39185
39041
38887
38729
38565
38403
38253
38108
37957
37797
37649
37526
37411
37299
37200
37115
37026
36934
36852
36786
36729
36674
36624
36579
36535
36500
36483
36477
36470
36463
36466
36467
36459
36450
36447
36442
36413
36369
36330
36288
36222
36149
36094
36045
35976
35899
35839
35780
35700
35619
35551
35480
35391
35306
35255
35244
35276
35383
35606
35958
36434
37022
37705
38441
39189
39924
40620
41263
41858
42408
42900
43323
43677
43976
44221
44406
44534
44623
44673
44671
44629
44575
44505
44400
44271
44150
44032
43886
43721
43561
43392
43187
42974
42790
42611
42413
42214
42032
41857
41676
41498
41333
41175
41018
40880
40768
40671
40599
40559
40540
40528
40531
40560
40607
40669
40754
40867
40993
41114
41229
41349
41466
41572
41669
41756
41831
41896
41959
42015
42039
42029
42016
41997
41951
41885
41818
41743
41637
41505
41376
41257
41122
40965
40815
40682
40527
40337
40150
39980
39804
39617
39454
39322
39187
39042
38908
38782
38645
38503
38368
38237
38099
37962
37835
37703
37557
37411
37284
37164
37046
36951
36884
36809
36718
36645
36603
36544
36454
36380
36333
36289
36251
36243
36261
36265
36247
36242
36252
36239
36203
36176
36160
36126
36071
36011
35940
35854
35764
35691
35629
35555
35467
35371
35263
35147
35042
34965
34928
34957
35108
35417
35879
36487
37228
38063
38919
39748
40545
41304
41997
42613
43163
43647
44058
44401
44691
44934
45114
45229
45313
45370
45380
45350
45305
45251
45170
45069
44966
44862
44744
44620
44507
44408
44303
44197
44108
44020
43919
43830
43770
43716
43650
43588
43539
43480
43407
43338
43279
43208
43120
43037
42966
42892
42818
42764
42736
42709
42673
42654
42661
42667
42670
42701
42757
42803
42838
42889
42950
42993
43021
43049
43072
43067
43041
43024
43005
42953
42875
42802
42732
42630
42503
42383
42266
42124
41975
41845
41728
41598
41455
41314
41176
41028
40871
40714
40560
40406
40255
40111
39956
39789
39634
39489
39329
39159
39011
38895
38779
38654
38540
38434
38319
38204
38100
38002
37906
37825
37760
37699
37635
37588
37566
37541
37499
37469
37465
37453
37418
37390
37379
37358
37320
37291
37279
37263
37234
37200
37159
37115
37081
37057
37027
36982
36933
36891
36845
36773
36680
36590
36503
36404
36298
36208
36143
36095
36081
36143
36313
36615
37066
37661
38358
39112
39899
40695
41453
42152
42810
43426
43970
44436
44856
45236
45542
45770
45957
46117
46227
46284
46315
46319
46276
46198
46105
46001
45881
45755
45627
45494
45347
45195
45061
44941
44818
44700
44614
44551
44475
44388
44312
44247
44181
44125
44091
44060
44007
43942
43873
43794
43708
43629
43566
43507
43444
43406
43406
43409
43407
43433
43490
43535
43555
43580
43619
43657
43691
43741
43807
43862
43897
43928
43951
43959
43951
43928
43885
43820
43755
43699
43628
43537
43438
43330
43196
43034
42871
42720
42567
42414
42291
42202
42113
42005
41907
41836
41757
41656
41557
41470
41375
41265
41175
41120
41064
41000
40954
40927
40892
40849
40823
40807
40774
40733
40710
40695
40666
40642
40631
40610
40559
40501
40470
40449
40419
40402
40404
40388
40344
40305
40286
40258
40214
40182
40166
40123
40046
39979
39935
39876
39789
39712
39652
39576
39481
39398
39320
39212
39078
38956
38846
38725
38594
38464
38331
38190
38043
37898
37749
37593
37443
37304
37171
37049
36960
36927
36958
37080
37339
37752
38297
38942
39667
40443
41226
41985
42712
43399
44027
44585
45084
45535
45920
46237
46509
46738
46908
47025
47114
47178
47191
47160
47109
47034
46914
46764
46614
46460
46281
46088
45914
45752
45579
45407
45258
45130
45005
44893
44819
44761
44686
44608
44543
44483
44420
44358
44301
44237
44161
44090
44032
43978
43938
43921
43916
43912
43918
43937
43950
43954
43965
43987
44000
43991
43973
43968
43964
43948
43935
43945
43954
43927
43872
43821
43761
43668
43555
43453
43356
43240
43101
42951
42800
42644
42480
42323
42172
42024
41880
41740
41603
41472
41349
41226
41088
40943
40805
40664
40508
40349
40211
40089
39958
39814
39675
39539
39389
39232
39092
38970
38843
38713
38603
38507
38405
38295
38198
38116
38034
37952
37881
37823
37771
37715
37662
37612
37553
37500
37458
37409
37342
37290
37264
37228
37169
37121
37087
37033
36956
36884
36814
36728
36627
36526
36425
36313
36196
36089
35979
35855
35733
35625
35507
35355
35190
35035
34875
34689
34490
34295
34094
33875
33668
33517
33451
33497
33690
34066
34644
35402
36295
37258
38228
39167
40066
40904
41641
42268
42821
43307
43698
43990
44213
44371
44462
44501
44510
44486
44427
44352
44277
44176
44040
43896
43768
43643
43503
43367
43252
43141
43021
42904
42803
42717
42635
42550
42465
42371
42259
42147
42047
41937
41813
41712
41637
41555
41469
41414
41393
41380
41371
41381
41405
41431
41467
41528
41598
41652
41699
41767
41850
41921
41971
42018
42059
42077
42082
42081
42052
41990
41922
41858
41772
41667
41574
41498
41402
41280
41163
41049
40915
40764
40613
40463
40293
40108
39930
39753
39567
39388
39234
39096
38955
38818
38701
38591
38465
38333
38215
38100
37964
37818
37689
37570
37432
37285
37162
37063
36969
36877
36799
36731
36659
36583
36515
36457
36404
36351
36300
36249
36196
36143
36093
36041
35988
35948
35914
35869
35810
35760
35721
35672
35613
35555
35491
35406
35309
35218
35133
35042
34956
34877
34791
34695
34602
34525
34454
34389
34366
34418
34556
34807
35212
35786
36488
37265
38101
38962
39781
40526
41220
41863
42419
42883
43286
43632
43897
44085
44235
44359
44436
44474
44502
44515
44493
44440
44369
44272
44144
44009
43875
43724
43557
43401
43263
43119
42968
42839
42734
42623
42497
42378
42266
42134
41976
41822
41683
41531
41368
41241
41165
41103
41039
41005
41005
41013
41032
41087
41177
41273
41368
41467
41561
41639
41703
41766
41822
41859
41887
41918
41935
41920
41897
41898
41900
41869
41822
41787
41743
41660
41557
41463
41367
41250
41125
41004
40876
40731
40575
40412
40241
40069
39899
39721
39535
39354
39182
39000
38805
38611
38424
38234
38032
37827
37634
37446
37250
37056
36881
36720
36549
36370
36202
36043
35882
35728
35590
35458
35328
35205
35094
34995
34919
34880
34870
34860
34838
34831
34841
34839
34820
34817
34835
34830
34789
34746
34716
34672
34614
34574
34554
34524
34478
34427
34367
34293
34216
34152
34091
34021
33971
33974
34037
34177
34446
34881
35459
36154
36960
37842
38729
39581
40389
41143
41816
42396
42903
43354
43728
44019
44255
44448
44581
44654
44703
44738
44735
44696
44650
44593
44503
44382
44258
44134
43988
43830
43690
43562
43433
43304
43193
43103
43013
42920
42842
42775
42696
42609
42536
42475
42403
42325
42255
42195
42139
42092
42057
42028
42004
41988
41985
41996
42029
42081
42134
42172
42209
42260
42316
42362
42411
42474
42542
42594
42631
42673
42709
42715
42699
42677
42649
42593
42512
42436
42362
42264
42145
42031
41917
41783
41637
41501
41374
41246
41107
40964
40820
40670
40510
40349
40187
40024
39872
39731
39578
39419
39278
39151
39014
38871
38738
38611
38469
38321
38194
38083
37967
37855
37767
37702
37647
37602
37570
37544
37516
37494
37481
37467
37433
37387
37348
37311
37267
37219
37172
37126
37069
37004
36940
36876
36814
36763
36717
36669
36625
36596
36570
36531
36484
36434
36364
36270
36165
36076
36002
35915
35817
35725
35629
35516
35393
35295
35251
35266
35378
35634
36050
36609
37290
38071
38909
39750
40560
41331
42054
42711
43296
43808
44252
44633
44950
45199
45390
45541
45661
45732
45742
45712
45666
45597
45497
45386
45282
45173
45042
44899
44767
44634
44479
44320
44184
44071
43959
43852
43778
43731
43676
43610
43557
43518
43471
43410
43352
43299
43238
43165
43089
43018
42959
42911
42870
42831
42806
42808
42823
42835
42853
42894
42946
42995
43042
43089
43121
43137
43153
43179
43204
43200
43176
43164
43148
43105
43057
43022
42976
42884
42769
42670
42570
42449
42325
42214
42093
41948
41804
41678
41537
41368
41203
41054
40893
40716
40562
40436
40308
40172
40048
39940
39833
39727
39633
39541
39432
39318
39212
39106
38993
38883
38787
38700
38614
38539
38479
38415
38340
38279
38245
38206
38148
38102
38082
38053
38001
37962
37949
37928
37883
37848
37830
37793
37734
37691
37672
37637
37576
37527
37502
37467
37412
37362
37321
37265
37191
37119
37046
36957
36851
36739
36626
36512
36404
36305
36205
36106
36020
35937
35828
35690
35558
35444
35323
35205
35137
35153
35271
35523
35956
36579
37338
38170
39049
39942
40795
41584
42319
43000
43591
44085
44511
44872
45163
45401
45604
45760
45858
45919
45975
46012
46001
45949
45875
45773
45621
45435
45257
45084
44887
44684
44508
44352
44193
44035
43897
43788
43697
43613
43537
43471
43402
43311
43205
43097
42997
42915
42840
42767
42704
42666
42651
42640
42632
42638
42648
42647
42645
42665
42697
42722
42749
42796
42850
42889
42919
42966
43020
43045
43052
43072
43091
43084
43059
43036
43005
42950
42878
42801
42712
42615
42524
42434
42327
42211
42103
41992
41858
41712
41564
41407
41239
41072
40917
40756
40571
40371
40175
39972
39755
39535
39324
39121
38921
38735
38570
38414
38269
38146
38050
37977
37919
37869
37827
37787
37746
37704
37666
37639
37613
37582
37555
37530
37503
37481
37469
37465
37476
37498
37520
37528
37529
37537
37545
37539
37529
37525
37514
37474
37420
37375
37329
37269
37213
37168
37107
37014
36919
36849
36778
36692
36620
36568
36490
36376
36266
36177
36071
35937
35807
35693
35558
35392
35226
35069
34892
34692
34515
34392
34316
34319
34459
34762
35226
35843
36603
37450
38313
39162
39985
40751
41435
42031
42559
43019
43394
43703
43977
44197
44341
44431
44500
44540
44534
44505
44480
44445
44384
44312
44234
44127
43986
43837
43691
43537
43379
43249
43145
43036
42925
42848
42804
42755
42692
42643
42611
42571
42517
42465
42411
42349
42290
42261
42258
42255
42253
42270
42301
42326
42352
42408
42490
42569
42639
42712
42785
42843
42885
42918
42948
42967
42965
42938
42903
42869
42829
42766
42675
42573
42478
42381
42276
42173
42072
41956
41816
41660
41513
41374
41223
41068
40925
40777
40614
40453
40309
40167
40012
39878
39778
39677
39562
39457
39368
39259
39120
38990
38885
38767
38626
38497
38392
38282
38160
38068
38027
38000
37968
37957
37971
37976
37963
37964
37982
37979
37956
37941
37933
37919
37900
37893
37896
37896
37896
37905
37910
37900
37882
37872
37865
37836
37788
37745
37709
37664
37603
37538
37476
37410
37343
37288
37234
37178
37129
37082
37026
36974
36934
36884
36800
36694
36595
36497
36394
36293
36202
36115
36030
35969
35977
36072
36278
36632
37142
37771
38471
39226
40019
40790
41516
42218
42890
43487
43993
44433
44816
45119
45347
45542
45719
45842
45906
45954
45994
45988
45927
45850
45767
45651
45511
45379
45251
45090
44899
44716
44550
44385
44226
44088
43963
43828
43681
43540
43395
43223
43032
42844
42649
42429
42202
42001
41826
41664
41518
41405
41329
41287
41279
41308
41368
41446
41544
41659
41784
41920
42066
42203
42311
42396
42474
42539
42580
42613
42645
42657
42645
42611
42564
42501
42422
42344
42274
42197
42096
41983
41879
41767
41632
41500
41376
41222
41031
40846
40690
40534
40367
40221
40103
39965
39800
39651
39529
39395
39239
39103
38994
38872
38734
38617
38523
38419
38303
38201
38114
38019
37925
37859
37819
37778
37732
37693
37660
37621
37585
37551
37511
37461
37409
37361
37304
37219
37113
36997
36858
36693
36519
36351
36186
36015
35845
35688
35544
35408
35288
35181
35073
34969
34889
34827
34762
34705
34675
34663
34645
34638
34691
34826
35052
35401
35907
36551
37276
38047
38856
39661
40406
41081
41704
42263
42737
43144
43512
43817
44037
44198
44323
44404
44436
44433
44404
44346
44264
44167
44044
43895
43738
43579
43406
43219
43033
42858
42686
42508
42334
42174
42024
41867
41712
41573
41429
41266
41107
40964
40823
40673
40545
40458
40390
40329
40307
40329
40360
40387
40442
40535
40619
40679
40752
40847
40928
40984
41041
41102
41138
41146
41153
41162
41142
41096
41057
41026
40964
40865
40763
40667
40564
40455
40351
40252
40148
40051
39963
39869
39769
39675
39588
39489
39368
39253
39147
39020
38876
38743
38623
38492
38339
38188
38056
37924
37784
37661
37566
37471
37361
37259
37178
37093
37003
36929
36873
36809
36740
36697
36685
36675
36661
36652
36640
36608
36567
36540
36526
36497
36458
36432
36401
36338
36266
36209
36156
36089
36031
36005
35982
35939
35893
35848
35783
35693
35610
35544
35478
35408
35356
35331
35313
35323
35425
35651
35986
36432
37011
37700
38440
39194
39949
40683
41371
42003
42582
43100
43552
43947
44291
44577
44798
44973
45115
45208
45251
45272
45272
45241
45180
45107
45026
44924
44788
44636
44481
44305
44097
43886
43689
43496
43306
43139
42997
42872
42774
42711
42661
42586
42490
42402
42320
42230
42143
42081
42035
41985
41944
41938
41943
41926
41906
41911
41929
41931
41941
41990
42054
42102
42141
42186
42223
42238
42252
42276
42285
42262
42222
42171
42107
42043
41989
41934
41864
41788
41718
41637
41539
41445
41359
41270
41169
41063
40958
40843
40707
40563
40426
40290
40132
39959
39799
39645
39481
39318
39181
39062
38934
38801
38678
38558
38430
38314
38220
38125
38020
37938
37885
37829
37764
37713
37672
37616
37548
37484
37419
37342
37269
37214
37175
37141
37118
37119
37135
37144
37151
37158
37155
37139
37112
37084
37041
36982
36935
36901
36845
36769
36714
36688
36650
36586
36526
36477
36403
36293
36189
36103
35998
35866
35755
35690
35645
35630
35701
35881
36163
36556
37092
37762
38508
39292
40099
40896
41644
42335
42979
43571
44099
44563
44959
45280
45530
45733
45913
46067
46178
46232
46231
46192
46122
46017
45892
45762
45628
45490
45359
45239
45123
45010
44892
44762
44634
44526
44427
44327
44236
44150
44057
43963
43877
43812
43758
43692
43620
43556
43496
43440
43396
43364
43331
43295
43263
43245
43233
43220
43204
43188
43173
43154
43134
43129
43134
43129
43121
43123
43132
43136
43140
43138
43118
43082
43043
43001
42947
42883
42812
42723
42610
42487
42376
42264
42132
41992
41859
41728
41582
41425
41280
41142
40989
40827
40675
40523
40346
40162
40009
39883
39759
39639
39536
39447
39357
39262
39169
39080
38987
38902
38839
38775
38692
38611
38540
38457
38360
38283
38231
38175
38110
38052
37998
37933
37863
37807
37758
37690
37610
37542
37483
37426
37379
37338
37288
37223
37162
37110
37048
36977
36926
36895
36846
36767
36690
36619
36513
36366
36221
36100
35972
35823
35689
35576
35453
35321
35207
35108
34992
34854
34721
34596
34462
34335
34241
34185
34168
34232
34423
34771
35288
35978
36809
37715
38636
39559
40458
41280
42008
42665
43258
43757
44157
44502
44813
45056
45225
45362
45482
45551
45559
45546
45525
45467
45370
45272
45173
45049
44901
44766
44648
44518
44376
44245
44131
44023
43925
43850
43800
43755
43705
43653
43597
43538
43481
43425
43364
43284
43193
43123
43074
43025
42978
42947
42933
42921
42909
42910
42926
42951
42981
43009
43033
43063
43097
43121
43129
43131
43137
43142
43129
43103
43079
43050
42989
42909
42838
42769
42690
42616
42566
42518
42435
42329
42230
42127
42005
41887
41786
41679
41549
41426
41322
41204
41057
40913
40782
40637
40470
40306
40154
40001
39840
39685
39536
39388
39250
39127
39009
38891
38782
38692
38611
38525
38437
38356
38277
38193
38117
38063
38012
37935
37848
37780
37709
37626
37556
37505
37451
37393
37349
37317
37274
37214
37160
37119
37076
37028
36977
36929
36883
36836
36782
36718
36644
36575
36517
36456
36381
36310
36250
36186
36104
36013
35931
35852
35765
35672
35579
35481
35373
35261
35155
35050
34924
34782
34659
34554
34443
34348
34310
34351
34491
34785
35267
35908
36665
37529
38462
39385
40252
41070
41839
42534
43142
43682
44163
44563
44874
45127
45333
45486
45591
45670
45723
45733
45707
45673
45624
45540
45436
45327
45192
45028
44864
44712
44553
44379
44222
44089
43947
43788
43643
43520
43392
43242
43092
42957
42819
42664
42510
42371
42242
42131
42047
41976
41909
41862
41853
41867
41888
41925
41979
42034
42074
42108
42158
42213
42252
42281
42312
42333
42341
42352
42360
42351
42327
42308
42291
42259
42211
42165
42124
42065
41978
41884
41797
41705
41596
41479
41359
41231
41097
40962
40828
40691
40557
40436
40323
40202
40078
39957
39829
39687
39540
39401
39269
39135
39006
38895
38800
38708
38627
38563
38497
38416
38337
38284
38248
38198
38135
38086
38049
38008
37972
37951
37924
37882
37852
37843
37818
37767
37729
37720
37704
37674
37653
37637
37599
37545
37502
37476
37446
37405
37368
37331
37274
37210
37157
37105
37032
36950
36878
36808
36723
36642
36569
36477
36370
36266
36168
36059
35933
35809
35703
35608
35508
35397
35280
35166
35059
34964
34893
34866
34914
35076
35373
35817
36427
37188
38041
38919
39792
40646
41451
42173
42802
43352
43823
44213
44533
44795
45005
45157
45259
45330
45365
45347
45280
45185
45075
44940
44785
44630
44475
44308
44136
43970
43809
43652
43509
43374
43230
43079
42944
42824
42698
42565
42445
42332
42197
42039
41896
41778
41667
41569
41500
41455
41433
41436
41463
41503
41550
41614
41702
41800
41894
41991
42094
42191
42267
42329
42397
42466
42517
42546
42560
42566
42562
42542
42506
42454
42388
42316
42239
42142
42026
41915
41805
41672
41519
41365
41201
41009
40801
40593
40383
40167
39955
39754
39559
39357
39150
38962
38789
38599
38395
38215
38059
37909
37776
37676
37584
37480
