35776
35768
35756
35766
35794
35799
35794
35805
35823
35796
35814
35835
35801
35797
35817
35835
35824
35836
35841
35848
35879
35870
35867
35884
35907
35920
35930
35926
35931
35928
35929
35935
35925
35933
35958
35950
35986
35969
35956
35939
35938
35922
35961
35985
35964
35976
35995
35989
36010
36009
35985
35986
35976
36023
36011
35999
36000
35989
35990
36010
36028
36013
36000
36036
36040
36036
36039
36028
36051
36010
36042
36033
36035
36013
36069
36065
36072
36081
36057
36115
36105
36073
36092
36099
36103
36090
36082
36109
36091
36105
36114
36092
36088
36091
36116
36083
36120
36133
36098
36091
36123
36113
36096
36092
36072
36126
36091
36090
36081
36066
36015
36047
36008
35996
35990
35939
35951
35936
35921
35907
35907
35876
35859
35853
35887
35879
35853
35867
35856
35847
35859
35853
35826
35847
35841
35858
35842
35862
35843
35859
35837
35848
35833
35852
35854
35829
35869
35858
35854
35875
35897
35893
35900
35953
35914
35955
35937
35976
35947
35941
35973
35968
36010
35972
35993
35994
36013
36010
36017
36017
36039
36067
36048
36020
36046
36059
36075
36079
36074
36056
36108
36097
36039
36085
36059
36085
36091
36116
36106
36088
36121
36123
36091
36119
36130
36110
36102
36120
36127
36138
36128
36121
36116
36115
36140
36131
36106
36108
36104
36127
36110
36138
36138
36139
36144
36146
36129
36135
36130
36149
36144
36164
36127
36159
36153
36150
36173
36172
36182
36170
36162
36175
36191
36220
36198
36202
36209
36197
36245
36177
36179
36172
36140
36122
36086
36092
36068
36040
36034
36041
36000
36005
36014
35962
35991
35974
35951
35964
35931
35971
35997
35944
35962
35938
35946
35930
35970
35957
35942
35959
35928
35958
35932
35946
35946
35949
35931
35946
35941
35968
35964
35967
35981
35966
36009
36003
36053
36014
36010
36037
36060
36068
36051
36061
36093
36082
36064
36088
36069
36092
36047
36037
36031
36053
36000
36006
36018
35988
36014
36031
35997
36004
35995
36027
36021
36016
35995
36003
36000
36024
36023
36007
36041
36002
36015
36016
36012
36011
36020
35998
36027
36026
35989
35973
36011
35975
35984
35994
35998
35988
36031
35990
35983
36016
36017
35976
36002
35972
35958
35947
35975
35959
35938
35945
35970
35980
35966
35980
35927
35961
35954
36002
35955
35980
35980
35979
35981
35969
35958
35943
35917
35928
35921
35902
35860
35851
35809
35826
35769
35770
35846
35765
35766
35765
35726
35750
35769
35735
35725
35779
35790
35731
35766
35684
35756
35727
35728
35697
35732
35756
35733
35754
35736
35731
35746
35730
35720
35764
35762
35727
35762
35742
35773
35772
35757
35781
35787
35802
35791
35789
35838
35778
35830
35804
35847
35821
35842
35841
35826
35848
35841
35847
35845
35871
35865
35858
35858
35842
35848
35848
35835
35907
35878
35852
35866
35853
35855
35875
35866
35880
35858
35841
35849
35847
35855
35862
35870
35872
35894
35910
35882
35887
35895
35897
35904
35915
35866
35924
35867
35895
35866
35892
35905
35916
35880
35879
35905
35906
35927
35917
35905
35912
35899
35896
35901
35894
35949
35952
35936
35907
35900
35907
35931
35929
35944
35925
35938
35950
35935
35915
35920
35927
35900
35873
35850
35840
35762
35820
35823
35743
35764
35712
35702
35710
35721
35710
35709
35708
35682
35690
35702
35703
35688
35713
35660
35702
35694
35679
35691
35706
35676
35685
35676
35719
35713
35730
35739
35723
35741
35715
35724
35706
35717
35739
35766
35760
35804
35798
35766
35797
35776
35786
35816
35824
35838
35826
35843
35850
35850
35846
35851
35848
35809
35812
35848
35844
35845
35842
35849
35842
35854
35874
35875
35834
35860
35886
35867
35898
35865
35861
35882
35905
35890
35912
35899
35864
35918
35927
35922
35945
35935
35949
35967
35952
35979
35931
35951
35962
35968
35989
35982
36000
36014
35985
35986
35991
36029
36036
35996
36012
36056
36033
36047
36071
36061
36062
36089
36070
36065
36084
36070
36094
36119
36101
36115
36146
36119
36119
36137
36134
36139
36120
36148
36114
36111
36096
36072
36061
36074
35998
35977
36013
35997
35944
35943
35958
35919
35934
35938
35951
35942
35918
35928
35943
35903
35931
35918
35936
35953
35935
35935
35929
35938
35951
35987
35969
35980
36020
35986
35994
35996
36021
36037
36062
36064
36048
36045
36070
36079
36086
36085
36123
36123
36122
36079
36121
36146
36133
36138
36127
36152
36172
36151
36185
36182
36260
36269
36312
36365
36380
36362
36371
36371
36365
36372
36386
36373
36402
36404
36394
36415
36441
36407
36428
36419
36427
36413
36412
36406
36408
36421
36403
36413
36398
36390
36422
36409
36417
36431
36428
36404
36421
36403
36412
36381
36471
36391
36418
36441
36418
36407
36407
36406
36414
36423
36403
36433
36418
36380
36417
36380
36399
36402
36382
36382
36364
36377
36369
36358
36348
36371
36310
36360
36299
36271
36249
36216
36214
36206
36165
36181
36097
36112
36095
36109
36089
36075
36082
36051
36057
36063
36061
36062
36043
36061
36047
36060
36000
36067
36028
36035
36037
36045
36029
36049
36054
36041
36030
36030
36049
36047
36062
36075
36069
36069
36079
36098
36105
36134
36106
36086
36136
36127
36139
36157
36165
36125
36131
36154
36133
36165
36161
36143
36170
36147
36163
36161
36160
36182
36179
36168
36188
36186
36176
36169
36174
36188
36212
36187
36194
36190
36220
36232
36214
36215
36228
36220
36227
36229
36239
36237
36252
36221
36230
36265
36260
36252
36224
36266
36243
36266
36226
36244
36235
36242
36245
36257
36251
36258
36287
36245
36275
36234
36276
36296
36287
36289
36294
36302
36276
36304
36323
36297
36287
36274
36248
36308
36279
36237
36295
36259
36284
36275
36256
36222
36215
36181
36139
36125
36115
36069
36031
35983
35934
35937
35881
35881
35830
35814
35796
35799
35749
35777
35799
35773
35796
35778
35785
35784
35815
35786
35816
35805
35768
35819
35820
35805
35810
35819
35847
35815
35852
35866
35860
35858
35876
35865
35887
35914
35914
35925
35960
35940
35948
35951
35990
35989
35982
35982
36016
35983
36012
36010
35996
36038
36016
35994
35993
35999
35996
36037
35988
36044
36015
36022
35992
36035
36006
36034
36045
36003
36049
36041
36036
36036
36058
36065
36036
36058
36059
36082
36066
36043
36067
36075
36062
36067
36084
36082
36086
36084
36056
36057
36071
36048
36117
36079
36082
36089
36064
36049
36066
36080
36092
36059
36059
36094
36088
36107
36066
36085
36067
36083
36033
36047
36066
36060
36029
36048
36046
36053
36025
36021
36026
36051
36005
36016
36026
35999
35977
35932
35934
35868
35875
35833
35851
35820
35794
35798
35746
35733
35754
35762
35749
35769
35734
35758
35740
35736
35755
35746
35736
35740
35739
35764
35756
35755
35759
35772
35781
35764
35778
35795
35750
35755
35763
35802
35800
35776
35820
35824
35837
35843
35868
35832
35858
35863
35876
35882
35896
35932
35865
35963
35910
35936
35936
35936
35988
35960
35972
35991
35993
35966
35999
35985
35994
36004
36011
35952
35986
35995
36032
36053
36013
36022
36054
36055
36061
36088
36068
36070
36080
36075
36115
36103
36088
36097
36117
36098
36134
36102
36108
36105
36115
36124
36139
36107
36149
36108
36149
36157
36158
36143
36126
36151
36150
36153
36162
36132
36198
36190
36151
36169
36180
36185
36167
36163
36201
36179
36140
36173
36197
36157
36188
36170
36185
36159
36168
36147
36163
36165
36124
36103
36087
36075
36061
36041
36023
35996
35983
35953
35953
35976
35941
35905
35916
35935
35906
35913
35928
35952
35904
35921
35938
35893
35923
35884
35874
35890
35879
35898
35903
35888
35865
35902
35904
35895
35900
35890
35914
35907
35919
35938
35948
35928
35973
35958
35961
35995
35996
35996
35980
36024
36000
36002
36022
36016
36031
36057
36016
36043
36068
36043
36033
36018
36037
36054
36066
36093
36031
36056
36044
36021
36056
36031
36048
36069
36036
36035
36092
36063
36075
36074
36104
36064
36074
36110
36108
36113
36131
36118
36141
36102
36089
36177
36160
36170
36136
36182
36147
36162
36160
36191
36187
36225
36257
36198
36206
36231
36219
36239
36273
36259
36265
36224
36250
36279
36255
36292
36280
36285
36287
36306
36315
36332
36317
36329
36320
36330
36285
36292
36326
36285
36317
36312
36286
36265
36219
36190
36177
36178
36177
36136
36112
36125
36110
36060
36088
36062
36052
36068
36013
36039
36026
36060
36012
36013
36000
35992
36009
35996
35983
35991
36025
36014
36010
35996
35998
35960
35975
35976
35993
35989
36007
35965
36023
35979
36038
35967
35983
36023
36033
36028
36021
36067
36036
36023
36042
35987
36060
36056
36056
36067
36023
36046
36053
36063
36057
36051
36016
36043
36048
36034
35989
36043
36003
36038
36023
36035
36017
36066
36073
36058
36095
36079
36063
36078
36086
36091
36068
36091
36078
36077
36077
36084
36117
36103
36088
36102
36078
36090
36132
36057
36078
36063
36085
36091
36091
36108
36072
36097
36103
36086
36077
36087
36088
36104
36083
36094
36089
36075
36099
36073
36107
36107
36105
36113
36095
36089
36114
36110
36127
36114
36102
36094
36081
36093
36076
36055
36024
36006
35976
35983
35947
35921
35922
35923
35930
35892
35877
35898
35904
35870
35867
35847
35866
35883
35884
35889
35920
35893
35870
35874
35908
35879
35888
35898
35892
35894
35870
35876
35907
35910
35921
35925
35937
35912
35905
35927
35972
35938
35943
35948
36015
35962
35982
36003
36029
36005
36017
36022
36020
36011
36027
36015
36011
36024
35989
35993
36002
36037
36025
36048
36037
36036
36070
36031
36045
36043
36052
36074
36036
36034
36067
36029
36053
36077
36056
36059
36071
36048
36081
36069
36073
36102
36089
36091
36085
36089
36114
36088
36119
36089
36113
36105
36096
36116
36110
36129
36135
36146
36137
36131
36115
36127
36159
36153
36146
36140
36117
36119
36160
36135
36148
36153
36130
36149
36164
36157
36172
36158
36167
36162
36169
36148
36140
36162
36155
36165
36151
36139
36134
36115
36124
36065
36057
36032
35999
35966
35956
35986
35950
35938
35943
35916
35936
35906
35925
35888
35890
35901
35875
35877
35883
35892
35867
35852
35868
35843
35863
35848
35870
35860
35862
35875
35857
35868
35881
35870
35889
35874
35872
35860
35897
35906
35920
35926
35909
35942
35942
35956
35976
35954
35938
35973
35975
35994
35962
35958
35989
35969
35991
35967
35983
35988
35989
35974
35962
35963
35967
36000
35982
35979
35975
36025
36014
35996
36014
36014
36052
36017
36039
36035
36051
36046
36041
36038
36038
36045
36076
36064
36054
36079
36069
36072
36040
36075
36085
36064
36042
36019
36049
36030
36056
36078
36060
36024
36051
36032
36036
36019
36015
36050
36060
36025
36060
36022
36032
36021
35994
36009
36041
36016
36018
36028
36020
36031
36039
36033
36056
36070
36015
36052
36053
36073
36065
36011
36002
35992
35950
35928
35911
35905
35892
35858
35847
35843
35836
35799
35824
35824
35808
35807
35816
35813
35772
35801
35791
35774
35751
35781
35794
35765
35770
35758
35766
35780
35761
35776
35743
35777
35769
35781
35758
35771
35783
35786
35775
35790
35828
35811
35770
35807
35801
35827
35823
35856
35827
35836
35870
35886
35863
35867
35886
35907
35883
35882
35876
35908
35865
35863
35886
35869
35867
35872
35856
35835
35823
35865
35848
35864
35866
35853
35873
35854
35833
35853
35869
35871
35877
35883
35851
35865
35855
35866
35838
35821
35816
35842
35804
35792
35789
35785
35813
35803
35811
35797
35781
35762
35759
35766
35772
35769
35759
35762
35742
35752
35744
35721
35708
35713
35740
35731
35717
35714
35706
35662
35694
35681
35683
35678
35691
35650
35672
35704
35694
35713
35700
35702
35675
35669
35661
35611
35627
35610
35581
35545
35513
35508
35505
35492
35501
35461
35475
35471
35466
35462
35454
35470
35457
35455
35472
35446
35417
35422
35448
35468
35440
35446
35434
35481
35408
35412
35424
35455
35425
35416
35447
35455
35440
35451
35453
35468
35485
35493
35503
35530
35514
35525
35543
35539
35527
35528
35553
35536
35573
35529
35577
35585
35591
35608
35614
35639
35629
35638
35619
35608
35635
35634
35651
35647
35669
35636
35671
35662
35632
35637
35667
35671
35661
35673
35684
35665
35665
35701
35709
35709
35694
35718
35719
35743
35735
35739
35742
35724
35733
35747
35744
35749
35772
35762
35743
35769
35764
35758
35753
35760
35778
35769
35780
35792
35809
35781
35742
35764
35784
35793
35791
35808
35827
35758
35780
35783
35791
35837
35801
35813
35806
35787
35817
35777
35810
35789
35759
35781
35751
35718
35723
35728
35682
35615
35617
35588
35546
35532
35479
35497
35490
35455
35441
35450
35415
35420
35421
35406
35413
35428
35411
35412
35404
35396
35382
35393
35417
35406
35424
35416
35437
35422
35446
35436
35455
35443
35455
35485
35481
35519
35528
35527
35557
35586
35596
35611
35600
35600
35611
35624
35662
35659
35659
35652
35673
35676
35683
35659
35652
35699
35696
35672
35669
35701
35682
35660
35734
35742
35703
35717
35721
35673
35726
35757
35709
35709
35726
35755
35747
35765
35753
35768
35778
35775
35813
35765
35793
35769
35754
35772
35777
35762
35794
35778
35778
35778
35776
35786
35772
35789
35768
35781
35789
35781
35777
35777
35736
35778
35763
35775
35779
35770
35792
35787
35803
35794
35813
35805
35807
35812
35810
35801
35789
35825
35798
35802
35795
35795
35782
35798
35803
35795
35772
35765
35741
35730
35709
35656
35639
35653
35610
35553
35588
35558
35552
35501
35497
35466
35505
35485
35492
35497
35490
35495
35463
35458
35448
35481
35506
35465
35472
35497
35509
35473
35498
35478
35510
35499
35473
35511
35498
35499
35555
35539
35516
35528
35554
35534
35569
35584
35586
35588
35592
35592
35602
35625
35632
35625
35645
35654
35661
35644
35653
35624
35629
35653
35628
35630
35635
35638
35652
35685
35660
35650
35656
35686
35650
35644
35658
35645
35657
35645
35663
35674
35666
35644
35689
35676
35677
35680
35667
35658
35679
35716
35724
35705
35728
35705
35710
35752
35724
35758
35757
35741
35726
35753
35763
35749
35759
35760
35786
35746
35839
35765
35770
35779
35774
35794
35813
35815
35848
35828
35841
35799
35816
35812
35830
35838
35820
35799
35825
35814
35821
35824
35865
35797
35836
35824
35809
35840
35795
35770
35754
35718
35708
35668
35676
35643
35635
35591
35588
35607
35573
35577
35562
35507
35555
35542
35500
35542
35555
35508
35527
35507
35523
35551
35529
35554
35564
35556
35549
35545
35564
35584
35579
35545
35574
35596
35618
35629
35629
35622
35652
35629
35648
35630
35656
35644
35660
35632
35675
35667
35653
35684
35716
35682
35689
35711
35692
35668
35689
35684
35694
35692
35669
35683
35666
35674
35696
35660
35672
35654
35681
35691
35682
35695
35689
35726
35696
35660
35733
35700
35701
35698
35675
35716
35706
35734
35725
35725
35763
35740
35748
35723
35741
35769
35714
35720
35752
35744
35739
35755
35722
35754
35759
35795
35755
35782
35778
35748
35743
35798
35798
35776
35789
35771
35791
35746
35808
35772
35760
35772
35782
35796
35814
35784
35833
35812
35803
35825
35779
35819
35816
35801
35825
35754
35755
35734
35726
35714
35697
35694
35676
35632
35662
35608
35613
35625
35611
35582
35636
35567
35602
35580
35572
35572
35562
35565
35563
35601
35573
35567
35592
35624
35558
35584
35562
35576
35621
35605
35602
35582
35606
35625
35638
35599
35624
35654
35645
35622
35663
35632
35615
35663
35650
35672
35719
35657
35697
35653
35642
35641
35628
35673
35665
35643
35656
35657
35624
35683
35632
35662
35657
35659
35660
35686
35664
35688
35672
35694
35669
35695
35675
35677
35701
35673
35672
35725
35707
35729
35713
35737
35701
35734
35771
35771
35760
35757
35747
35748
35725
35755
35786
35806
35760
35766
35786
35778
35770
35784
35783
35765
35783
35764
35773
35759
35797
35757
35779
35768
35782
35757
35785
35784
35752
35764
35793
35786
35774
35768
35757
35789
35767
35762
35769
35772
35801
35746
35708
35695
35673
35636
35627
35597
35612
35559
35537
35543
35528
35494
35508
35480
35533
35491
35485
35497
35477
35424
35471
35465
35444
35460
35465
35473
35492
35487
35481
35480
35484
35509
35488
35506
35522
35500
35502
35512
35499
35521
35509
35518
35532
35540
35543
35552
35576
35569
35589
35599
35602
35607
35613
35609
35609
35604
35625
35616
35656
35655
35619
35635
35646
35630
35624
35665
35656
35687
35653
35677
35661
35654
35675
35638
35655
35658
35651
35673
35687
35685
35681
35687
35674
35691
35694
35699
35697
35670
35663
35697
35700
35703
35713
35733
35757
35773
35722
35730
35732
35739
35748
35779
35747
35755
35757
35777
35729
35754
35756
35794
35808
35791
35791
35789
35781
35798
35762
35810
35794
35764
35779
35796
35790
35808
35797
35813
35807
35816
35773
35818
35839
35809
35805
35787
35797
35786
35726
35777
35742
35690
35688
35669
35617
35623
35624
35588
35547
35518
35548
35536
35511
35509
35522
35526
35494
35502
35470
35507
35526
35511
35488
35507
35531
35505
35479
35493
35484
35540
35474
35524
35514
35518
35499
35507
35520
35530
35538
35524
35542
35525
35574
35579
35564
35568
35584
35601
35617
35604
35602
35617
35637
35653
35631
35642
35632
35662
35595
35654
35638
35650
35644
35630
35633
35619
35609
35607
35627
35650
35642
35633
35639
35641
35635
35612
35631
35642
35642
35661
35592
35607
35651
35614
35601
35610
35622
35601
35599
35596
35590
35630
35621
35581
35606
35622
35630
35621
35612
35601
35620
35636
35603
35624
35594
35614
35650
35621
35608
35612
35648
35613
35641
35635
35664
35592
35637
35630
35656
35654
35648
35626
35668
35668
35616
35632
35636
35642
35631
35627
35639
35644
35641
35620
35618
35632
35599
35587
35559
35560
35532
35505
35485
35477
35461
35470
35412
35416
35403
35401
35406
35405
35404
35398
35407
35389
35355
35369
35362
35375
35359
35380
35356
35366
35367
35365
35400
35380
35356
35364
35360
35381
35379
35392
35400
35394
35391
35418
35405
35421
35431
35425
35419
35464
35434
35447
35477
35510
35521
35479
35499
35489
35448
35507
35474
35501
35508
35526
35531
35544
35503
35531
35515
35510
35522
35540
35525
35518
35555
35572
35543
35550
35566
35567
35565
35546
35554
35588
35536
35560
35567
35583
35568
35561
35644
35579
35583
35625
35606
35578
35595
35571
35585
35617
35610
35622
35614
35588
35593
35604
35607
35598
35620
35588
35592
35638
35591
35668
35623
35639
35615
35636
35636
35583
35620
35641
35631
35642
35625
35613
35618
35610
35629
35631
35632
35598
35630
35638
35623
35653
35628
35627
35612
35587
35603
35563
35533
35515
35493
35464
35455
35431
35415
35412
35404
35398
35403
35439
35421
35393
35402
35402
35415
35395
35383
35383
35358
35372
35371
35342
35368
35382
35394
35399
35393
35399
35383
35380
35336
35356
35365
35378
35424
35419
35406
35401
35420
35406
35417
35455
35447
35457
35473
35526
35515
35490
35474
35490
35477
35501
35520
35477
35508
35512
35493
35503
35503
35486
35528
35515
35500
35505
35553
35528
35556
35513
35558
35573
35564
35527
35540
35558
35550
35573
35570
35577
35595
35590
35598
35605
35597
35605
35585
35593
35590
35611
35607
35574
35608
35621
35587
35635
35629
35634
35628
35662
35621
35617
35600
35627
35643
35643
35666
35650
35663
35623
35661
35654
35667
35641
35652
35668
35682
35670
35710
35692
35708
35707
35682
35662
35704
35731
35716
35712
35680
35684
35694
35703
35703
35715
35694
35692
35676
35663
35677
35639
35630
35586
35573
35548
35534
35491
35508
35457
35482
35487
35468
35447
35445
35439
35451
35423
35431
35454
35434
35436
35438
35433
35447
35433
35476
35452
35438
35451
35446
35459
35453
35476
35454
35452
35465
35450
35500
35491
35492
35506
35540
35519
35502
35530
35504
35510
35552
35527
35553
35533
35537
35571
35564
35570
35542
35565
35577
35577
35551
35578
35599
35581
35595
35608
35586
35603
35579
35603
35607
35597
35582
35602
35595
35608
35546
35580
35582
35607
35568
35624
35625
35605
35588
35621
35616
35588
35608
35630
35656
35618
35630
35629
35617
35669
35639
35642
35650
35642
35656
35658
35657
35667
35678
35638
35657
35680
35661
35679
35672
35656
35647
35677
35664
35656
35688
35686
35670
35689
35680
35681
35696
35674
35682
35684
35683
35673
35675
35639
35666
35663
35693
35690
35684
35644
35670
35648
35639
35614
35598
35587
35566
35522
35519
35485
35488
35458
35449
35429
35429
35419
35389
35403
35397
35426
35404
35412
35388
35403
35401
35419
35385
35399
35369
35396
35398
35411
35402
35378
35427
35398
35413
35397
35397
35455
35451
35425
35463
35458
35458
35474
35470
35458
35484
35494
35482
35502
35467
35494
35517
35531
35511
35555
35545
35542
35540
35534
35525
35523
35540
35532
35525
35573
35547
35550
35539
35537
35513
35524
35524
35503
35547
35538
35603
35537
35556
35569
35589
35556
35562
35573
35579
35583
35586
35596
35586
35582
35570
35580
35587
35605
35621
35603
35621
35623
35643
35621
35641
35665
35623
35679
35664
35663
35671
35698
35642
35657
35680
35670
35669
35679
35685
35656
35673
35678
35663
35678
35691
35673
35672
35668
35684
35654
35692
35668
35685
35675
35692
35688
35704
35702
35680
35696
35639
35653
35638
35644
35614
35600
35599
35548
35530
35515
35507
35466
35476
35442
35452
35434
35438
35449
35429
35434
35417
35433
35419
35404
35423
35402
35430
35423
35439
35429
35436
35472
35463
35440
35426
35432
35429
35471
35467
35474
35456
35440
35440
35475
35473
35477
35480
35493
35492
35522
35522
35508
35530
35535
35531
35562
35542
35552
35546
35562
35560
35538
35574
35571
35534
35547
35549
35563
35536
35536
35546
35524
35560
35560
35602
35586
35589
35590
35592
35592
35609
35600
35589
35573
35589
35626
35609
35630
35593
35609
35642
35628
35629
35642
35651
35635
35647
35640
35662
35644
35645
35654
35661
35663
35677
35681
35664
35678
35685
35703
35685
35691
35703
35703
35685
35718
35690
35699
35698
35739
35739
35711
35729
35717
35701
35747
35717
35745
35731
35745
35731
35749
35718
35733
35739
35731
35717
35721
35723
35725
35705
35705
35701
35699
35658
35635
35627
35587
35609
35581
35528
35531
35510
35507
35472
35499
35469
35464
35469
35462
35478
35477
35448
35435
35447
35458
35452
35450
35457
35428
35461
35461
35455
35445
35461
35459
35447
35445
35477
35474
35480
35498
35486
35478
35479
35501
35496
35520
35542
35549
35572
35552
35558
35539
35577
35593
35580
35560
35575
35577
35556
35598
35583
35566
35551
35549
35549
35575
35593
35570
35598
35597
35535
35550
35557
35563
35531
35566
35551
35568
35581
35556
35594
35568
35556
35569
35551
35573
35589
35565
35575
35549
35577
35592
35595
35579
35584
35592
35587
35577
35569
35565
35612
35573
35602
35622
35603
35580
35566
35621
35577
35564
35566
35558
35561
35550
35547
35578
35597
35615
35569
35596
35564
35595
35577
35610
35576
35559
35595
35597
35572
35560
35597
35596
35572
35592
35587
35558
35594
35544
35543
35545
35529
35508
35513
35490
35476
35456
35432
35411
35398
35374
35367
35357
35353
35323
35362
35306
35321
35348
35293
35281
35298
35319
35277
35280
35314
35274
35284
35312
35279
35294
35287
35303
35312
35305
35304
35287
35304
35317
35309
35293
35323
35299
35354
35333
35340
35351
35370
35347
35360
35374
35372
35389
35363
35377
35411
35380
35405
35390
35370
35381
35382
35409
35375
35418
35378
35379
35428
35376
35412
35439
35434
35430
35445
35472
35480
35429
35451
35433
35486
35471
35462
35461
35469
35455
35438
35480
35431
35498
35489
35509
35472
35513
35547
35510
35507
35478
35509
35499
35510
35546
35497
35549
35512
35505
35532
35539
35549
35535
35580
35566
35528
35510
35516
35533
35546
35543
35564
35582
35553
35567
35521
35538
35552
35570
35555
35527
35550
35573
35547
35559
35576
35518
35539
35512
35558
35496
35504
35523
35514
35480
35476
35434
35437
35415
35406
35361
35378
35358
35344
35317
35303
35299
35270
35279
35296
35302
35303
35296
35299
35296
35317
35319
35289
35293
35295
35322
35284
35306
35346
35304
35331
35322
35325
35297
35322
35349
35334
35289
35363
35331
35353
35384
35355
35408
35444
35412
35450
35416
35451
35468
35477
35464
35461
35473
35440
35494
35471
35432
35448
35426
35476
35452
35468
35495
35479
35481
35437
35464
35428
35481
35469
35515
35501
35495
35498
35492
35491
35475
35461
35462
35483
35493
35501
35452
35461
35440
35474
35501
35474
35503
35506
35495
35481
35514
35529
35497
35528
35498
35506
35538
35496
35544
35553
35534
35524
35538
35503
35542
35542
35509
35531
35542
35525
35531
35515
35511
35559
35512
35516
35481
35503
35517
35539
35531
35545
35511
35564
35534
35542
35530
35536
35557
35535
35553
35530
35515
35485
35521
35526
35433
35452
35446
35397
35356
35363
35362
35312
35294
35335
35291
35282
35276
35267
35250
35221
35215
35224
35255
35199
35234
35223
35226
35228
35212
35252
35214
35239
35204
35219
35228
35198
35245
35226
35230
35237
35234
35229
35281
35248
35269
35246
35252
35290
35281
35281
35318
35313
35301
35277
35321
35308
35308
35283
35325
35331
35329
35320
35309
35291
35326
35337
35315
35297
35338
35312
35348
35310
35343
35324
35344
35370
35374
35369
35380
35400
35411
35398
35371
35376
35378
35370
35385
35389
35386
35393
35401
35416
35405
35436
35415
35427
35421
35422
35401
35407
35411
35423
35431
35390
35431
35438
35420
35408
35377
35405
35413
35413
35385
35420
35373
35384
35406
35439
35397
35433
35402
35401
35423
35444
35431
35449
35443
35448
35469
35419
35446
35440
35459
35441
35461
35440
35388
35433
35409
35449
35400
35381
35325
35387
35367
35308
35303
35295
35272
35260
35205
35200
35200
35219
35152
35223
35179
35198
35172
35174
35186
35154
35142
35181
35137
35167
35185
35172
35129
35174
35204
35191
35190
35191
35197
35228
35210
35198
35238
35219
35225
35203
35239
35273
35271
35263
35294
35273
35293
35313
35309
35291
35297
35356
35344
35358
35325
35340
35365
35325
35345
35364
35342
35359
35347
35388
35338
35350
35352
35371
35331
35363
35394
35371
35376
35380
35400
35411
35374
35368
35401
35399
35407
35399
35424
35410
35423
35418
35416
35428
35428
35413
35438
35446
35423
35430
35433
35443
35425
35419
35434
35404
35445
35440
35418
35435
35443
35442
35418
35422
35458
35447
35431
35452
35440
35479
35462
35463
35448
35446
35492
35449
35470
35462
35421
35439
35449
35448
35455
35463
35455
35474
35433
35431
35470
35458
35447
35429
35430
35415
35426
35354
35376
35344
35346
35336
35317
35313
35286
35301
35294
35269
35273
35272
35273
35287
35235
35319
35270
35269
35281
35260
35259
35282
35303
35281
35285
35297
35248
35266
35330
35304
35284
35260
35295
35262
35309
35318
35307
35270
35311
35281
35315
35316
35321
35384
35342
35370
35383
35411
35440
35423
35414
35429
35433
35394
35398
35422
35407
35395
35421
35462
35467
35457
35457
35457
35459
35445
35475
35434
35466
35442
35471
35484
35490
35450
35489
35488
35509
35488
35511
35533
35524
35545
35527
35556
35551
35554
35530
35581
35579
35544
35554
35572
35586
35550
35563
35572
35559
35584
35586
35587
35561
35584
35598
35610
35593
35575
35553
35548
35554
35572
35549
35600
35548
35538
35530
35536
35550
35556
35568
35584
35551
35569
35541
35549
35541
35546
35529
35537
35529
35546
35527
35500
35490
35514
35432
35417
35399
35392
35348
35351
35313
35302
35257
35233
35211
35209
35215
35175
35158
35170
35191
35156
35160
35135
35175
35165
35175
35169
35159
35151
35180
35168
35181
35151
35169
35178
35210
35201
35198
35205
35209
35246
35210
35196
35197
35223
35250
35207
35244
35235
35235
35236
35285
35263
35295
35279
35278
35264
35288
35287
35323
35316
35324
35329
35318
35336
35294
35317
35336
35339
35309
35326
35350
35317
35351
35319
35316
35296
35315
35315
35356
35348
35368
35346
35367
35400
35380
35373
35392
35400
35394
35400
35397
35402
35424
35408
35422
35420
35409
35399
35442
35450
35481
35421
35439
35442
35466
35482
35436
35451
35478
35454
35482
35475
35466
35496
35510
35483
35518
35503
35484
35490
35488
35510
35507
35505
35529
35492
35488
35513
35491
35468
35513
35469
35481
35486
35469
35510
35500
35478
35444
35448
35413
35396
35382
35370
35325
35341
35282
35295
35305
35260
35237
35217
35219
35244
35210
35228
35228
35210
35218
35223
35190
35216
35199
35189
35220
35230
35207
35223
35191
35206
35223
35210
35205
35164
35215
35212
35197
35211
35246
35251
35236
35269
35234
35254
35299
35273
35294
35314
35328
35320
35312
35330
35309
35319
35314
35342
35337
35348
35342
35370
35378
35340
35362
35410
35414
35411
35391
35393
35403
35403
35386
35403
35388
35410
35412
35424
35407
35426
35411
35415
35415
35445
35416
35422
35420
35424
35445
35435
35461
35455
35458
35483
35477
35458
35489
35498
35517
35517
35508
35528
35528
35507
35524
35518
35515
35556
35526
35554
35518
35554
35551
35535
35572
35522
35515
35538
35555
35569
35586
35554
35553
35554
35561
35592
35564
35569
35591
35561
35613
35602
35557
35577
35574
35583
35532
35526
35530
35520
35537
35471
35462
35448
35415
35402
35421
35429
35425
35350
35350
35342
35351
35301
35362
35346
35355
35324
35345
35353
35346
35319
35310
35335
35321
35349
35350
35353
35336
35328
35315
35320
35330
35334
35356
35340
35348
35353
35337
35380
35349
35368
35404
35370
35375
35415
35382
35400
35446
35406
35409
35447
35389
35438
35379
35383
35388
35394
35420
35412
35412
35403
35424
35386
35414
35439
35415
35439
35453
35434
35468
35449
35424
35410
35404
35428
35453
35426
35455
35448
35453
35428
35462
35445
35450
35470
35447
35497
35472
35492
35482
35457
35466
35456
35477
35489
35513
35473
35485
35536
35496
35495
35527
35495
35505
35491
35513
35497
35482
35519
35521
35532
35536
35528
35512
35532
35528
35527
35512
35528
35538
35568
35545
35525
35549
35567
35544
35553
35543
35557
35510
35515
35496
35516
35519
35458
35453
35421
35383
35368
35369
35344
35322
35304
35281
35304
35270
35244
35277
35282
35232
35222
35235
35250
35279
35261
35265
35255
35271
35268
35265
35253
35226
35222
35236
35247
35288
35299
35273
35266
35283
35298
35294
35298
35328
35292
35300
35317
35338
35333
35351
35359
35371
35365
35389
35373
35372
35374
35355
35368
35407
35416
35373
35378
35400
35384
35373
35388
35383
35415
35400
35405
35421
35461
35397
35376
35386
35427
35444
35414
35455
35429
35420
35431
35438
35432
35424
35429
35441
35428
35432
35456
35431
35427
35485
35435
35441
35448
35408
35450
35477
35480
35455
35450
35429
35454
35460
35479
35463
35481
35468
35449
35471
35492
35484
35493
35472
35484
35493
35512
35508
35506
35494
35477
35504
35513
35515
35506
35535
35491
35499
35509
35520
35485
35505
35520
35492
35488
35494
35478
35485
35446
35453
35407
35362
35386
35385
35340
35325
35353
35312
35282
35311
35281
35294
35273
35259
35257
35257
35296
35278
35264
35273
35259
35284
35266
35279
35283
35274
35272
35250
35265
35294
35282
35265
35262
35272
35252
35281
35256
35292
35350
35293
35329
35316
35309
35348
35340
35337
35370
35379
35352
35365
35367
35359
35368
35370
35369
35408
35413
35404
35408
35413
35415
35421
35411
35403
35427
35422
35396
35392
35412
35409
35414
35404
35397
35394
35419
35399
35395
35424
35408
35429
35415
35413
35407
35406
35407
35448
35410
35425
35409
35422
35425
35445
35405
35419
35390
35410
35389
35419
35419
35408
35410
35392
35397
35412
35407
35400
35386
35396
35428
35400
35396
35397
35401
35416
35416
35411
35399
35385
35390
35402
35411
35442
35401
35385
35435
35434
35412
35463
35439
35431
35440
35389
35399
35365
35369
35339
35297
35292
35280
35247
35250
35252
35253
35203
35231
35201
35213
35200
35199
35197
35163
35169
35149
35129
35163
35151
35169
35132
35168
35148
35156
35175
35148
35159
35159
35154
35172
35157
35156
35151
35151
35159
35180
35172
35190
35169
35186
35198
35205
35211
35211
35200
35225
35203
35206
35194
35196
35206
35194
35217
35210
35199
35206
35195
35201
35174
35197
35218
35206
35215
35212
35209
35273
35221
35201
35221
35211
35208
35229
35227
35240
35222
35224
35226
35209
35256
35212
35221
35234
35240
35242
35264
35267
35282
35278
35291
35258
35294
35274
35302
35274
35256
35295
35265
35289
35272
35303
35263
35275
35267
35263
35273
35258
35243
35289
35258
35277
35286
35290
35264
35295
35259
35259
35273
35235
35280
35245
35271
35290
35279
35283
35275
35266
35278
35255
35267
35272
35275
35260
35223
35208
35182
35173
35163
35160
35111
35103
35130
35108
35130
35088
35114
35104
35097
35098
35098
35077
35083
35064
35081
35073
35078
35094
35083
35086
35073
35104
35091
35116
35090
35086
35091
35097
35085
35098
35068
35108
35094
35070
35116
35127
35103
35118
35097
35091
35122
35095
35104
35121
35149
35121
35095
35168
35138
35137
35114
35151
35147
35159
35133
35142
35180
35164
35184
35191
35189
35137
35159
35163
35187
35205
35190
35195
35219
35222
35205
35211
35205
35227
35237
35217
35232
35243
35263
35240
35267
35259
35255
35270
35270
35308
35289
35292
35285
35307
35268
35309
35293
35310
35284
35314
35324
35326
35323
35340
35335
35334
35316
35332
35363
35334
35355
35368
35356
35366
35382
35375
35329
35375
35358
35373
35377
35367
35312
35351
35367
35373
35353
35327
35353
35321
35310
35314
35291
35270
35244
35239
35210
35207
35220
35171
35151
35132
35135
35127
35119
35086
35131
35097
35103
35096
35087
35079
35126
35109
35102
35082
35072
35095
35106
35081
35112
35083
35097
35094
35078
35091
35084
35120
35128
35117
35115
35159
35161
35160
35154
35167
35194
35174
35210
35189
35183
35209
35246
35244
35220
35227
35223
35236
35224
35248
35218
35233
35243
35243
35226
35231
35246
35268
35267
35268
35268
35245
35278
35252
35266
35279
35262
35240
35234
35238
35266
35262
35250
35239
35262
35239
35275
35279
35260
35265
35275
35243
35268
35259
35270
35291
35258
35269
35287
35289
35290
35287
35286
35306
35316
35295
35301
35285
35308
35306
35304
35311
35317
35283
35325
35321
35267
35306
35304
35324
35302
35317
35319
35312
35311
35359
35340
35316
35327
35308
35336
35311
35346
35301
35302
35314
35274
35264
35273
35224
35196
35180
35177
35168
35147
35148
35138
35145
35104
35107
35083
35096
35098
35085
35100
35064
35046
35051
35080
35076
35077
35067
35075
35033
35057
35060
35071
35058
35075
35071
35034
35081
35061
35046
35087
35077
35112
35106
35094
35082
35110
35099
35134
35117
35145
35134
35121
35116
35138
35140
35140
35146
35160
35135
35174
35184
35161
35131
35174
35161
35186
35156
35130
35159
35192
35184
35175
35160
35178
35186
35209
35196
35175
35209
35179
35188
35182
35196
35192
35180
35162
35182
35186
35177
35152
35184
35194
35212
35206
35204
35201
35227
35227
35238
35238
35233
35203
35226
35230
35281
35264
35239
35238
35255
35265
35272
35267
35257
35238
35254
35256
35275
35256
35255
35262
35263
35272
35258
35267
35261
35284
35256
35277
35284
35294
35310
35319
35299
35280
35298
35279
35233
35248
35227
35207
35169
35160
35153
35123
35134
35078
35101
35084
35105
35068
35073
35086
35049
35061
35058
35047
35041
35050
35076
35039
35048
35068
35063
35068
35067
35083
35059
35056
35041
35078
35054
35064
35085
35095
35079
35074
35088
35103
35102
35115
35121
35147
35148
35129
35153
35139
35154
35153
35151
35153
35171
35171
35160
35155
35204
35189
35193
35191
35176
35199
35200
35185
35202
35184
35214
35216
35224
35226
35238
35246
35226
35247
35256
35257
35258
35248
35260
35262
35283
35270
35290
35301
35283
35293
35312
35324
35327
35288
35301
35322
35323
35299
35321
35315
35316
35312
35308
35361
35343
35339
35346
35371
35370
35350
35322
35353
35328
35356
35335
35384
35360
35391
35351
35385
35393
35335
35353
35383
35359
35359
35376
35352
35355
35357
35372
35349
35354
35358
35325
35351
35318
35296
35263
35241
35213
35226
35185
35171
35177
35147
35142
35142
35142
35136
35123
35127
35134
35106
35096
35108
35082
35100
35116
35087
35081
35071
35099
35086
35069
35073
35067
35055
35071
35080
35105
35081
35100
35062
35074
35091
35074
35092
35098
35127
35115
35104
35118
35114
35123
35115
35127
35131
35123
35132
35145
35169
35176
35164
35166
35173
35129
35146
35135
35170
35156
35165
35159
35146
35155
35143
35176
35191
35187
35183
35176
35165
35153
35206
35213
35207
35183
35214
35204
35196
35198
35219
35221
35205
35235
35211
35213
35230
35223
35246
35270
35249
35258
35262
35222
35265
35256
35274
35202
35261
35262
35259
35260
35261
35227
35273
35265
35265
35275
35269
35270
35249
35230
35267
35239
35276
35277
35285
35272
35288
35284
35230
35212
35263
35279
35256
35193
35190
35174
35134
35128
35094
35118
35079
35066
35064
35029
35061
35035
35057
35030
35029
35057
35032
35054
35015
35044
35011
35025
35006
35019
35024
35021
35025
35028
35047
35037
35040
35050
35065
35054
35063
35074
35066
35088
35085
35103
35141
35131
35136
35162
35142
35145
35158
35155
35178
35191
35212
35185
35216
35225
35184
35189
35253
35234
35236
35232
35260
35273
35220
35234
35254
35257
35286
35286
35262
35271
35269
35276
35262
35267
35286
35278
35302
35325
35290
35315
35285
35276
35297
35294
35309
35323
35307
35282
35277
35297
35300
35294
35304
35269
35286
35306
35334
35314
35307
35302
35297
35277
35297
35317
35334
35327
35344
35321
35340
35340
35307
35320
35342
35335
35343
35352
35348
35342
35371
35312
35366
35342
35338
35336
35389
35356
35366
35350
35352
35306
35316
35287
35305
35263
35259
35226
35230
35170
35186
35147
35118
35136
35152
35141
35124
35120
35083
35064
35073
35066
35101
35103
35086
35064
35072
35034
35068
35027
35040
35029
35077
35085
35085
35036
35040
35050
35068
35076
35062
35051
35106
35069
35114
35120
35126
35135
35142
35163
35116
35146
35175
35164
35153
35178
35169
35148
35196
35195
35154
35211
35200
35201
35196
35220
35208
35182
35216
35211
35229
35208
35215
35219
35210
35222
35224
35243
35237
35240
35230
35261
35257
35257
35277
35280
35301
35279
35309
35310
35314
35319
35327
35295
35330
35347
35342
35344
35319
35381
35350
35340
35365
35322
35338
35330
35344
35348
35344
35362
35374
35362
35391
35386
35378
35359
35350
35378
35370
35356
35365
35369
35366
35348
35357
35333
35378
35343
35349
35367
35350
35356
35326
35293
35282
35264
35269
35185
35225
35192
35168
35140
35108
35125
35119
35090
35085
35051
35056
35011
35029
35038
35017
35005
35026
35042
34999
34978
35014
35023
35001
35020
35033
35026
35037
35014
35022
34996
35015
35032
35049
35011
35045
35037
35070
35045
35060
35075
35091
35111
35107
35103
35131
35119
35132
35143
35099
35137
35149
35134
35122
35130
35133
35152
35138
35153
35166
35148
35151
35152
35139
35139
35168
35176
35181
35164
35159
35185
35155
35166
35175
35181
35154
35171
35171
35201
35203
35200
35217
35231
35223
35243
35217
35247
35245
35249
35232
35237
35265
35259
35217
35266
35243
35264
35239
35286
35270
35276
35270
35289
35274
35284
35280
35274
35290
35266
35282
35287
35305
35295
35318
35307
35296
35296
35317
35283
35330
35324
35321
35315
35337
35321
35323
35312
35316
35307
35270
35245
35221
35221
35193
35165
35148
35159
35145
35124
35104
35130
35093
35114
35088
35079
35094
35115
35112
35114
35072
35087
35092
35073
35085
35105
35081
35089
35057
35090
35065
35082
35084
35079
35103
35089
35118
35094
35117
35091
35125
35135
35152
35138
35138
35161
35128
35192
35196
35196
35214
35214
35215
35225
35257
35245
35215
35235
35240
35239
35244
35247
35273
35255
35220
35238
35272
35228
35234
35254
35289
35257
35269
35272
35277
35245
35268
35267
35231
35256
35256
35305
35318
35273
35304
35348
35301
35336
35343
35347
35333
35325
35308
35348
35328
35382
35391
35371
35363
35376
35351
35365
35386
35397
35383
35379
35386
35373
35401
35385
35396
35424
35390
35406
35409
35405
35405
35372
35431
35394
35405
35411
35396
35407
35397
35424
35404
35384
35434
35375
35356
35330
35332
35329
35294
35261
35253
35236
35245
35204
35174
35156
35216
35158
35178
35128
35145
35151
35160
35145
35144
35149
35155
35122
35128
35140
35143
35139
35146
35161
35141
35170
35146
35165
35142
35128
35122
35183
35178
35171
35191
35174
35208
35221
35231
35196
35222
35257
35257
35244
35263
35277
35294
35290
35276
35283
35266
35282
35317
35313
35305
35288
35315
35306
35307
35303
35304
35309
35313
35327
35352
35347
35315
35326
35350
35352
35346
35343
35363
35333
35370
35339
35395
35371
35345
35351
35348
35358
35389
35367
35389
35384
35382
35376
35401
35402
35400
35394
35405
35417
35401
35390
35423
35419
35392
35390
35396
35376
35410
35398
35404
35439
35408
35428
35434
35425
35459
35435
35403
35431
35420
35410
35432
35403
35451
35463
35442
35432
35465
35422
35427
35413
35426
35402
35375
35359
35305
35315
35264
35252
35253
35242
35248
35207
35177
35192
35193
35182
35189
35162
35151
35166
35156
35173
35165
35149
35141
35134
35135
35135
35119
35132
35153
35123
35193
35139
35137
35128
35147
35164
35108
35179
35160
35160
35158
35155
35187
35187
35198
35211
35205
35244
35210
35247
35222
35262
35253
35253
35275
35282
35271
35291
35246
35254
35266
35280
35260
35261
35278
35289
35294
35283
35264
35247
35288
35324
35340
35285
35301
35297
35316
35338
35256
35289
35351
35347
35306
35311
35349
35331
35337
35333
35340
35379
35390
35336
35374
35352
35357
35351
35388
35361
35351
35402
35397
35392
35386
35371
35361
35402
35413
35371
35398
35370
35372
35389
35416
35355
35392
35420
35402
35411
35379
35384
35392
35383
35400
35398
35404
35405
35415
35392
35398
35395
35351
35350
35315
35288
35284
35275
35249
35214
35193
35179
35148
35154
35162
35144
35156
35134
35151
35159
35126
35144
35122
35146
35121
35164
35119
35131
35140
35161
35115
35143
35099
35162
35118
35154
35142
35132
35131
35140
35152
35155
35148
35160
35145
35176
35195
35189
35209
35193
35215
35185
35176
35186
35200
35211
35203
35180
35177
35176
35182
35173
35174
35173
35171
35156
35174
35181
35177
35179
35157
35181
35192
35165
35179
35209
35187
35225
35201
35211
35228
35226
35225
35230
35255
35226
35244
35253
35232
35243
35227
35259
35276
35254
35270
35236
35267
35268
35261
35272
35237
35268
35260
35298
35285
35277
35287
35282
35293
35304
35329
35303
35270
35314
35313
35304
35313
35304
35334
35299
35307
35290
35288
35256
35273
35321
35292
35311
35317
35278
35272
35290
35251
35245
35227
35198
35204
35167
35197
35174
35113
35122
35088
35082
35085
35072
35071
35065
35070
35022
35036
35041
35047
35038
35055
35017
35057
35015
35048
35029
35022
35037
35036
35040
35070
35050
35064
35038
35040
35056
35078
35077
35090
35097
35116
35136
35082
35085
35116
35132
35141
35140
35145
35154
35147
35136
35170
35145
35148
35175
35157
35201
35186
35206
35178
35213
35209
35199
35211
35217
35228
35200
35225
35245
35233
35265
35248
35293
35250
35283
35268
35244
35259
35249
35253
35266
35251
35263
35259
35292
35259
35271
35304
35323
35329
35300
35301
35340
35356
35343
35316
35370
35348
35336
35337
35325
35333
35340
35350
35333
35319
35349
35315
35330
35304
35306
35318
35304
35302
35294
35311
35301
35292
35298
35302
35310
35284
35301
35288
35286
35273
35290
35267
35267
35272
35261
35218
35194
35154
35136
35123
35089
35093
35062
35090
35042
35032
35031
34995
35009
35026
34993
35013
34988
34988
34994
34990
35001
34995
34974
35009
34954
34995
34996
34980
35017
35003
34994
35013
34982
35003
35004
35010
35017
35014
34996
35022
35044
35031
35029
35045
35046
35080
35061
35066
35035
35058
35051
35073
35071
35060
35050
35044
35029
35042
35038
35043
35066
35053
35048
35017
35051
35024
35032
35036
35032
35063
34990
35022
35004
35044
35050
35031
35058
35065
35076
35066
35081
35103
35070
35078
35106
35108
35105
35075
35092
35117
35083
35100
35092
35105
35101
35098
35148
35094
35093
35084
35088
35107
35103
35081
35084
35120
35109
35082
35109
35105
35095
35122
35131
35072
35095
35105
35100
35097
35095
35126
35111
35115
35105
35128
35094
35087
35114
35092
35057
35061
35061
34991
34988
34958
34924
34918
34902
34912
34894
34897
34891
34883
34880
34879
34881
34839
34903
34862
34853
34860
34853
34843
34845
34852
34875
34814
34873
34852
34832
34880
34860
34848
34880
34891
34840
34881
34907
34922
34923
34972
34950
34960
34963
34977
34961
34964
34955
34972
34961
34988
35001
34984
34973
34976
34959
34992
34950
34970
34952
34955
34955
34975
34987
34962
34978
34981
34981
34974
35011
35033
34969
35043
35003
35029
35049
35040
35039
35050
35065
35012
35046
35055
35051
35085
35085
35058
35076
35076
35086
35077
35072
35089
35094
35112
35079
35113
35103
35087
35065
35144
35078
35111
35086
35106
35087
35092
35058
35087
35099
35084
35100
35115
35105
35090
35118
35107
35117
35126
35111
35127
35117
35116
35122
35114
35117
35127
35110
35110
35112
35070
35068
35036
34987
34963
34956
34939
34934
34911
34889
34888
34874
34866
34878
34851
34859
34868
34899
34829
34874
34874
34872
34852
34884
34872
34873
34855
34843
34863
34852
34883
34894
34861
34899
34867
34863
34869
34871
34880
34884
34901
34891
34914
34907
34926
34904
34901
34941
34958
34934
34933
34951
34982
34931
34951
34983
34941
34968
34975
34952
34989
34989
34996
34976
34985
34997
35001
35014
35008
35014
35016
35015
35027
35028
35030
35049
35042
35040
35049
35041
35069
35054
35058
35070
35046
35075
35075
35093
35072
35108
35118
35101
35088
35118
35126
35137
35123
35136
35104
35141
35145
35151
35168
35140
35133
35155
35136
35140
35162
35173
35172
35192
35200
35177
35197
35207
35155
35200
35196
35201
35181
35191
35197
35207
35164
35202
35185
35157
35177
35196
35151
35134
35102
35086
35061
35045
35030
35011
34964
34966
34949
34922
34902
34886
34905
34867
34861
34838
34853
34866
34873
34858
34856
34865
34876
34875
34836
34838
34837
34884
34856
34867
34867
34882
34864
34858
34889
34865
34882
34837
34900
34891
34895
34918
34911
34937
34935
34951
34947
34933
34918
34951
34918
34943
34914
34926
34966
34952
34960
34916
34980
34965
34952
34990
34980
34959
35012
35024
35030
35028
35079
35065
35062
35073
35079
35081
35125
35131
35141
35154
35121
35137
35145
35118
35136
35179
35158
35168
35161
35158
35157
35152
35170
35171
35207
35181
35196
35176
35198
35184
35193
35221
35206
35184
35176
35172
35181
35199
35177
35181
35173
35144
35161
35146
35118
35131
35155
35147
35140
35147
35158
35145
35136
35125
35120
35148
35098
35123
35091
35082
35081
35062
35020
34992
34960
34970
34971
34916
34909
34899
34864
34873
34842
34817
34848
34848
34807
34838
34849
34837
34833
34853
34851
34833
34844
34863
34854
34836
34847
34820
34815
34811
34830
34848
34837
34848
34867
34849
34843
34867
34882
34910
34900
34897
34929
34915
34918
34931
34928
34955
34930
34950
34978
34955
34937
34955
34977
34984
34968
34989
34989
34993
34984
34999
34987
34957
34963
34978
34967
34977
34984
34994
34976
34968
34951
34946
34988
35003
34964
35017
34995
34976
34998
34975
34989
34993
34984
35015
35026
35005
35015
35019
35030
35012
35023
35003
34996
35021
35041
35030
35035
35027
35038
35040
35008
35034
35065
35029
35034
35009
35000
35043
35016
35018
35054
35034
35027
35028
35038
35060
35063
35074
35065
35069
35093
35071
35085
35067
35057
35023
34998
34980
34992
34971
34927
34931
34916
34911
34911
34923
34884
34876
34895
34880
34879
34888
34873
34851
34910
34889
34916
34896
34904
34918
34898
34907
34919
34912
34930
34902
34883
34919
34908
34899
34927
34907
34942
34959
34968
34966
34994
35005
35002
35013
35028
35034
35013
35049
35066
35081
35060
35080
35040
35051
35101
35079
35072
35064
35080
35063
35054
35010
34996
35036
35017
34981
34987
34993
34938
34955
34957
34941
34951
34948
34961
34938
34966
34979
34967
34984
34964
34995
35025
35018
35025
35044
35041
35039
35051
35070
35062
35096
35094
35092
35109
35100
35074
35088
35081
35137
35130
35145
35163
35164
35163
35144
35150
35160
35201
35170
35171
35158
35176
35192
35171
35192
35159
35171
35187
35200
35216
35209
35199
35190
35155
35148
35184
35158
35134
35141
35131
35094
35049
35045
35025
35014
35020
35013
34999
35003
34987
34982
34986
34982
34961
34986
34975
34969
34954
34966
34970
34971
34963
34947
34993
34973
35033
35028
35030
35002
35028
35046
35066
35092
35083
35075
35083
35076
35104
35126
35109
35116
35116
35131
35133
35135
35150
35136
35127
35125
35152
35146
35133
35152
35130
35153
35165
35172
35159
35121
35165
35218
35213
35211
35159
35175
35201
35242
35218
35252
35214
35230
35233
35265
35228
35253
35231
35256
35248
35265
35278
35265
35249
35267
35291
35271
35264
35281
35290
35318
35312
35347
35333
35343
35327
35326
35343
35360
35319
35374
35332
35340
35322
35333
35300
35301
35312
35343
35344
35363
35317
35313
35329
35378
35355
35349
35350
35373
35339
35355
35323
35333
35330
35331
35287
35307
35286
35249
35223
35226
35202
35171
35172
35134
35112
35115
35121
35084
35112
35100
35084
35094
35065
35095
35058
35076
35074
35051
35079
35092
35080
35052
35087
35063
35124
35116
35113
35096
35109
35115
35143
35129
35112
35146
35153
35177
35178
35163
35215
35231
35226
35260
35243
35268
35289
35287
35301
35282
35303
35340
35354
35328
35346
35334
35342
35358
35362
35359
35362
35375
35386
35384
35421
35397
35398
35388
35394
35381
35400
35398
35422
35430
35433
35415
35422
35384
35409
35410
35429
35418
35410
35448
35446
35434
35391
35443
35447
35479
35453
35469
35466
35489
35447
35453
35506
35477
35482
35513
35508
35476
35458
35484
35459
35480
35491
35480
35485
35471
35480
35482
35460
35455
35471
35467
35472
35487
35455
35459
35469
35467
35448
35442
35418
35403
35409
35392
35364
35337
35327
35275
35235
35217
35235
35204
35190
35186
35190
35175
35169
35167
35170
35177
35165
35160
35168
35145
35157
35138
35157
35135
35141
35156
35158
35171
35147
35147
35154
35144
35165
35145
35177
35185
35193
35184
35185
35204
35201
35205
35215
35228
35238
35272
35274
35288
35259
35292
35285
35279
35300
35292
35306
35327
35324
35310
35288
35296
35294
35326
35302
35305
35316
35313
35323
35310
35323
35299
35341
35309
35315
35346
35328
35341
35341
35320
35350
35335
35334
35314
35342
35323
35313
35320
35357
35351
35332
35332
35324
35330
35301
35310
35320
35316
35307
35316
35319
35313
35343
35281
35319
35301
35315
35349
35312
35293
35328
35317
35286
35315
35321
35298
35304
35330
35300
35324
35307
35317
35314
35325
35301
35317
35287
35270
35263
35254
35227
35201
35164
35154
35123
35129
35118
35089
35081
35078
35082
35046
35066
35069
35054
35055
35054
35048
35022
35032
35040
35043
34993
35042
35039
35026
34995
35012
35028
35004
35014
35052
34989
35022
35022
35009
35014
35038
35058
35048
35066
35068
35087
35087
35154
35085
35127
35132
35094
35158
35156
35172
35163
35156
35193
35167
35143
35167
35181
35200
35145
35184
35210
35200
35156
35166
35190
35186
35182
35171
35197
35215
35211
35214
35215
35231
35201
35254
35228
35262
35249
35230
35252
35275
35249
35221
35248
35259
35233
35218
35234
35245
35295
35252
35220
35207
35206
35217
35179
35206
35202
35181
35188
35167
35192
35182
35196
35179
35208
35216
35235
35234
35197
35220
35250
35244
35267
35280
35228
35241
35221
35253
35255
35240
35237
35237
35233
35191
35189
35214
35178
35154
35134
35110
35083
35080
35072
35063
35022
35019
35035
35038
35042
35003
35031
35005
35004
34997
35024
35021
35040
34990
34988
34987
35027
35014
35029
35017
35002
35020
35016
35002
35029
35021
35014
35009
35029
35048
35027
34990
35029
35016
35002
35038
35011
35056
35066
35063
35047
35113
35085
35073
35086
35087
35076
35089
35064
35107
35073
35103
35053
35111
35075
35113
35088
35096
35070
35119
35077
35076
35090
35125
35069
35113
35108
35079
35125
35085
35127
35090
35101
35107
35118
35108
35099
35107
35114
35095
35081
35112
35127
35082
35100
35109
35103
35099
35099
35125
35098
35098
35110
35092
35097
35097
35110
35134
35151
35145
35134
35154
35146
35175
35191
35176
35148
35154
35156
35178
35179
35165
35175
35132
35153
35182
35153
35172
35124
35114
35112
35097
35060
35034
35006
35001
34981
34959
34956
34929
34926
34909
34905
34898
34903
34880
34918
34914
34915
34862
34908
34888
34900
34897
34884
34901
34893
34908
34898
34899
34886
34887
34909
34910
34898
34868
34920
34897
34890
34921
34901
34914
34924
34932
34942
34926
34926
34929
34949
34959
34985
34946
35002
34997
35008
34999
35017
35015
35018
35017
35003
34995
35017
34986
35019
35017
35022
35027
35036
35030
35015
35015
35046
35047
35046
35034
35049
35060
35079
35054
35048
35037
35059
35055
35075
35051
35055
35040
35016
35082
35063
35059
35065
35067
35056
35075
35066
35082
35097
35079
35106
35095
35096
35105
35124
35113
35098
35091
35104
35098
35118
35109
35125
35090
35119
35127
35111
35094
35123
35087
35131
35102
35101
35127
35099
35109
35087
35084
35076
35095
35043
35043
35012
34977
34949
34957
34893
34909
34896
34876
34861
34857
34851
34827
34807
34835
34792
34801
34783
34784
34787
34775
34787
34771
34761
34778
34792
34791
34754
34793
34783
34777
34804
34783
34784
34789
34789
34789
34790
34812
34836
34813
34862
34844
34838
34874
34894
34910
34899
34906
34861
34880
34913
34898
34909
34902
34922
34916
34908
34920
34923
34927
34944
34924
34947
34968
34937
34937
34955
34974
34968
34982
34964
34982
34997
34988
34978
35012
35001
35017
35013
35049
35043
35057
35069
35040
35080
35061
35058
35067
35069
35099
35096
35077
35073
35095
35107
35100
35091
35114
35102
35125
35082
35132
35107
35112
35098
35113
35120
35089
35119
35104
35123
35073
35111
35119
35088
35131
35100
35136
35129
35122
35165
35128
35127
35108
35100
35090
35071
35084
35027
35042
35010
34960
34946
34932
34913
34910
34851
34849
34849
34833
34844
34827
34810
34793
34785
34792
34809
34764
34795
34783
34784
34771
34782
34774
34792
34755
34800
34792
34809
34819
34832
34809
34791
34817
34799
34834
34860
34876
34845
34844
34860
34933
34890
34862
34902
34933
34894
34937
34919
34901
34939
34907
34909
34907
34926
34929
34909
34913
34913
34904
34930
34901
34889
34937
34909
34918
34927
34883
34920
34920
34925
34938
34946
34959
34974
34912
34949
34952
34955
34954
34985
34977
34984
34999
34998
34976
34980
35002
34996
35037
35063
35040
35028
35008
35017
35041
35016
35035
35025
35034
35048
35042
35029
35055
35052
35072
35042
35057
35066
35059
35072
35078
35084
35069
35082
35064
35072
35069
35111
35112
35100
35098
35087
35072
35112
35068
35038
34979
35013
34968
34920
34889
34882
34835
34851
34808
34817
34796
34806
34790
34791
34808
34785
34813
34768
34793
34789
34787
34784
34798
34773
34779
34753
34789
34807
34765
34798
34803
34765
34807
34791
34776
34800
34809
34802
34813
34801
34838
34828
34854
34906
34875
34860
34847
34898
34899
34938
34904
34911
34901
34912
34900
34907
34929
34949
34920
34898
34902
34946
34956
34924
34953
34927
34958
34970
34940
34970
34955
34950
34947
34936
34963
34972
34950
34969
34959
34943
34965
34978
34961
34968
34978
34972
34968
34949
34979
34973
34983
34989
34946
34974
34985
34986
34972
34956
34995
34986
34992
35002
34998
34984
34991
34974
34992
34982
34996
34997
34962
34958
34994
34977
34970
34971
34978
34992
34970
34969
34973
35007
34995
34997
34973
34989
34982
34946
34941
34890
34914
34876
34835
34821
34805
34770
34775
34766
34750
34728
34731
34703
34727
34745
34714
34702
34708
34720
34707
34685
34666
34676
34663
34670
34701
34688
34682
34663
34759
34710
34741
34727
34729
34734
34756
34760
34772
34762
34778
34783
34789
34767
34768
34812
34801
34852
34837
34836
34840
34895
34829
34864
34860
34879
34865
34878
34907
34899
34898
34888
34852
34895
34904
34904
34878
34900
34878
34876
34896
34891
34916
34914
34913
34924
34925
34947
34946
34932
34951
34931
34956
34948
34963
34953
34972
34944
34944
34973
34982
35018
34996
34991
34983
34985
34978
35002
35008
34993
34999
34993
35037
35025
35007
35020
35017
35029
35028
35017
35029
35029
35045
35046
35051
35052
35064
35037
35050
35049
35052
35045
35029
35067
35035
35059
35011
35016
35021
34995
34968
34958
34927
34890
34859
34827
34816
34790
34791
34775
34790
34722
34736
34750
34735
34720
34712
34741
34713
34708
34692
34721
34701
34709
34711
34718
34729
34715
34703
34730
34758
34750
34749
34777
34743
34746
34748
34751
34756
34776
34779
34789
34809
34824
34821
34831
34836
34810
34804
34862
34815
34850
34837
34852
34851
34834
34820
34848
34852
34853
34898
34846
34895
34893
34890
34876
34874
34901
34888
34889
34917
34936
34911
34893
34923
34979
34953
34970
34957
34956
34946
34958
34952
34985
34989
35002
34976
35013
35005
35000
34981
35006
35021
35039
35028
35044
35073
35064
35048
35065
35038
35043
35030
35046
35070
35057
35055
35076
35054
35069
35086
35052
35053
35060
35052
35074
35072
35060
35100
35097
35092
35109
35084
35084
35067
35075
35065
35053
35040
35054
34986
34951
34941
34909
34895
34879
34878
34867
34818
34842
34814
34795
34810
34790
34792
34788
34794
34774
34779
34826
34794
34786
34777
34803
34761
34808
34778
34758
34767
34764
34770
34764
34797
34808
34782
34791
34804
34846
34857
34845
34844
34840
34860
34873
34836
34869
34854
34882
34858
34887
34864
34883
34879
34879
34880
34873
34880
34895
34879
34897
34868
34891
34888
34923
34899
34920
34909
34919
34909
34911
34912
34909
34908
34920
34918
34924
34924
34956
34940
34924
34928
34917
34932
34936
34951
34950
34955
34974
34953
34918
34924
34971
34926
34956
34950
34919
34903
34966
34971
34992
34953
34928
34901
34926
34967
34991
34968
34969
34955
34958
34962
34963
35022
34993
35008
34976
34978
34977
34973
34993
34964
34964
34983
34968
34962
34948
34948
34882
34867
34865
34831
34803
34793
34762
34781
34741
34735
34725
34738
34726
34714
34720
34721
34735
34725
34746
34732
34711
34715
34687
34742
34742
34727
34727
34756
34711
34746
34688
34756
34717
34717
34752
34734
34740
34737
34792
34761
34773
34777
34797
34796
34815
34825
34806
34834
34866
34851
34868
34840
34869
34896
34894
34904
34894
34919
34867
34905
34923
34919
34919
34936
34942
34963
34906
34956
34959
34970
34971
34997
34983
34996
35018
34999
35012
35013
35027
35035
35007
35031
35009
35017
35024
35002
35003
35030
35012
35029
35041
35011
35046
35052
35002
35019
35044
35059
35047
35030
35035
35041
35035
35060
35079
35052
35054
35065
35055
35074
35060
35086
35068
35053
35056
35037
35045
35048
35083
35079
35054
35054
35072
35078
35095
35065
35056
35014
35028
35016
34997
35010
34938
34909
34877
34876
34850
34792
34813
34807
34812
34813
34816
34767
34761
34743
34764
34770
34789
34749
34753
34786
34755
34750
34741
34775
34735
34790
34769
34734
34760
34736
34760
34748
34760
34731
34815
34809
34750
34801
34764
34810
34808
34826
34849
34843
34864
34840
34839
34886
34855
34858
34886
34902
34906
34881
34873
34918
34898
34905
34932
34934
34909
34896
34909
34898
34922
34932
34925
34942
34936
34954
34966
34981
34950
34970
34937
34993
34984
34976
34976
35002
34966
34968
35001
35007
34986
35003
35008
34979
34999
34998
35000
35035
35015
35001
34996
35013
34991
34973
34999
35011
34990
35027
35007
35000
35028
35016
35026
35080
35052
35066
35052
35047
35038
35053
35093
35087
35079
35081
35077
35058
35083
35053
35056
35069
35098
35047
35048
35064
35050
35032
35025
35002
34948
34921
34887
34875
34868
34838
34823
34824
34797
34805
34803
34790
34746
34765
34741
34750
34740
34750
34756
34740
34728
34721
34715
34712
34711
34701
34703
34696
34706
34728
34723
34720
34746
34734
34697
34730
34739
34761
34737
34742
34785
34774
34773
34795
34808
34873
34853
34865
34820
34899
34843
34875
34882
34869
34868
34893
34884
34896
34903
34892
34884
34920
34897
34890
34891
34940
34895
34926
34896
34914
34910
34895
34914
34936
34891
34897
34904
34904
34933
34945
34932
34945
34970
34956
34949
34953
34934
34948
34972
34985
34954
34981
35014
34976
34979
34978
34967
35022
34981
34988
34974
35038
34996
35021
35010
35016
35024
35021
34994
35009
35002
34999
35009
35017
35018
35010
35007
35001
35044
35046
35001
35038
34995
35028
35011
35039
35042
35031
35002
35041
35027
35022
34966
34993
34951
34958
34923
34873
34846
34854
34805
34820
34805
34795
34758
34762
34750
34745
34758
34760
34746
34739
34753
34716
34714
34731
34751
34681
34744
34759
34725
34723
34725
34741
34783
34755
34770
34777
34787
34771
34751
34792
34734
34790
34834
34798
34797
34821
34827
34815
34830
34836
34834
34850
34863
34858
34868
34808
34856
34846
34860
34844
34813
34858
34824
34826
34822
34826
34833
34832
34825
34823
34841
34848
34812
34849
34840
34837
34861
34875
34878
34871
34868
34870
34876
34908
34845
34871
34886
34895
34906
34883
34888
34889
34867
34890
34872
34847
34892
34902
34882
34906
34861
34878
34862
34886
34866
34881
34853
34851
34854
34853
34874
34832
34829
34801
34805
34785
34833
34826
34805
34795
34828
34819
34805
34776
34787
34804
34815
34808
34820
34803
34772
34770
34749
34752
34705
34686
34685
34639
34615
34609
34608
34566
34570
34592
34585
34568
34565
34564
34577
34576
34559
34564
34587
34573
34589
34573
34585
34553
34564
34552
34585
34592
34565
34589
34609
34562
34546
34580
34598
34568
34602
34594
34629
34599
34584
34643
34603
34610
34622
34648
34629
34639
34617
34604
34604
34584
34577
34626
34615
34612
34635
34633
34609
34633
34615
34641
34637
34625
34669
34680
34673
34711
34694
34715
34713
34733
34758
34750
34776
34772
34770
34796
34787
34835
34842
34815
34827
34796
34828
34857
34846
34818
34837
34832
34811
34849
34867
34827
34829
34866
34838
34863
34865
34841
34840
34836
34839
34860
34854
34835
34827
34867
34825
34815
34808
34818
34805
34824
34785
34796
34775
34786
34807
34781
34771
34750
34776
34767
34753
34777
34791
34780
34778
34749
34772
34730
34715
34658
34656
34622
34627
34602
34578
34547
34549
34507
34502
34489
34473
34478
34481
34469
34495
34493
34500
34476
34499
34481
34518
34495
34514
34506
34514
34530
34491
34506
34537
34579
34543
34582
34584
34574
34571
34604
34624
34635
34666
34639
34640
34691
34676
34686
34674
34690
34713
34709
34705
34724
34726
34724
34727
34739
34748
34744
34733
34741
34751
34762
34774
34776
34760
34775
34777
34817
34812
34775
34816
34791
34818
34821
34782
34818
34809
34806
34774
34784
34814
34791
34825
34796
34816
34798
34821
34832
34821
34790
34803
34817
34827
34818
34834
34853
34841
34824
34813
34792
34810
34815
34789
34819
34801
34813
34839
34803
34825
34816
34804
34810
34790
34816
34789
34820
34838
34816
34840
34829
34857
34821
34835
34823
34878
34862
34859
34857
34821
34831
34856
34820
34807
34785
34769
34758
34740
34703
34676
34710
34672
34652
34665
34654
34648
34653
34601
34584
34596
34597
34608
34655
34586
34587
34615
34610
34606
34660
34635
34649
34631
34661
34682
34691
34663
34704
34703
34726
34739
34739
34737
34747
34763
34764
34795
34807
34801
34829
34816
34826
34846
34864
34850
34893
34857
34823
34855
34861
34870
34871
34857
34873
34865
34920
34918
34914
34909
34924
34928
34932
34935
34924
34916
34918
34930
34928
34967
34980
34977
34972
35002
34976
35008
34977
35015
35012
34984
34984
35003
34983
35006
34997
35008
34987
35000
35019
35032
35042
35052
35018
35025
35027
35021
35041
35036
35064
35041
35046
35050
35048
35043
35035
35054
35046
35055
35054
35053
35031
35024
35059
35037
35053
35057
35058
35048
35041
35038
35032
35039
35043
35060
35019
35017
34986
35008
34966
34968
34919
34914
34863
34802
34785
34797
34783
34764
34733
34685
34690
34638
34644
34625
34621
34639
34628
34603
34573
34610
34634
34606
34593
34612
34610
34602
34577
34607
34626
34631
34639
34623
34633
34650
34645
34655
34698
34658
34672
34711
34667
34699
34687
34731
34719
34698
34716
34719
34722
34763
34766
34770
34765
34781
34780
34792
34776
34780
34784
34809
34820
34803
34815
34805
34784
34825
34826
34786
34810
34861
34830
34827
34822
34838
34831
34824
34830
34815
34832
34833
34831
34822
34782
34826
34814
34817
34836
34821
34835
34845
34862
34848
34856
34843
34859
34854
34844
34840
34849
34839
34851
34861
34861
34865
34882
34886
34891
34860
34884
34919
34886
34873
34934
34913
34889
34892
34902
34897
34893
34902
34917
34917
34917
34905
34917
34923
34895
34909
34895
34881
34895
34858
34849
34817
34778
34724
34704
34707
34696
34650
34596
34597
34583
34591
34553
34580
34559
34589
34576
34560
34576
34570
34567
34607
34565
34590
34575
34592
34593
34584
34558
34585
34577
34606
34583
34613
34590
34620
34622
34627
34669
34632
34638
34656
34664
34686
34716
34724
34730
34716
34733
34724
34742
34749
34755
34787
34779
34781
34775
34761
34778
34774
34795
34771
34757
34794
34797
34782
34816
34815
34786
34817
34824
34819
34811
34812
34817
34828
34839
34858
34800
34816
34798
34854
34831
34841
34837
34838
34821
34848
34856
34855
34858
34876
34868
34876
34876
34895
34895
34900
34908
34896
34917
34925
34933
34920
34904
34920
34946
34918
34925
34934
34921
34920
34922
34928
34894
34912
34911
34941
34937
34901
34901
34917
34905
34902
34920
34923
34917
34907
34924
34954
34897
34889
34871
34873
34793
34821
34819
34779
34779
34773
34744
34730
34728
34732
34702
34719
34725
34727
34707
34691
34685
34703
34711
34738
34722
34719
34732
34752
34714
34716
34759
34769
34758
34766
34751
34787
34791
34789
34801
34830
34842
34867
34837
34874
34878
34894
34903
34923
34940
34936
34973
34963
34971
35001
34998
34975
34968
34977
34967
34979
34984
34974
34986
34956
34990
34973
34987
34973
34976
34960
34943
34977
34970
34936
34955
34961
34988
34992
34940
34983
34970
34993
34983
34997
34974
34979
34944
34959
34958
34965
34983
34984
34989
34972
34985
34968
34957
34977
34986
34990
34959
34968
34970
34970
34955
34968
34985
34980
34972
34965
34991
34997
34988
34975
34956
34999
34973
34959
34951
34958
34966
34973
34947
34983
34973
34989
34980
34984
34978
34988
34966
35002
35007
35009
35003
34985
34980
34949
34943
34911
34912
34893
34865
34841
34850
34840
34817
34806
34808
34755
34775
34748
34773
34762
34784
34738
34759
34798
34757
34783
34778
34780
34796
34832
34808
34789
34820
34823
34816
34821
34825
34855
34830
34842
34862
34862
34875
34864
34896
34894
34885
34932
34898
34902
34900
34901
34919
34893
34910
34895
34917
34941
34944
34940
34916
34915
34914
34903
34942
34958
34920
34923
34931
34943
34953
34967
34966
34969
34970
34931
34964
34976
34978
34990
34964
34974
34996
34997
35013
35003
35012
34984
34987
34992
34963
35007
34989
34996
34983
34993
34987
34996
34971
35017
35025
35002
34998
34968
34969
34987
35002
35035
35036
35031
35015
35002
35049
35025
35026
35041
35035
35056
35036
35006
35040
35017
35034
35010
35029
34993
35028
34980
35013
35030
34993
35016
35011
35001
34959
34922
34900
34876
34846
34844
34844
34798
34778
34764
34774
34774
34758
34788
34788
34742
34743
34769
34792
34769
34787
34774
34762
34776
34793
34763
34778
34807
34802
34778
34804
34805
34810
34790
34838
34790
34837
34820
34840
34832
34850
34864
34883
34873
34880
34884
34856
34895
34895
34888
34899
34893
34933
34935
34906
34908
34913
34922
34912
34905
34899
34940
34930
34920
34892
34920
34951
34904
34915
34933
34950
34914
34951
34959
34946
34950
34962
34992
34981
34993
34980
34980
34976
34989
34983
35000
35026
35021
35023
35000
35028
35019
35009
35045
35029
35035
35000
35046
34997
35010
35032
35051
35047
35021
35034
35017
35024
35036
35037
35034
35023
34999
35036
35010
35018
35027
35057
35043
35032
35044
35056
35038
35043
35035
35033
35039
35057
35040
35029
35015
35014
34987
34939
34926
34929
34951
34905
34898
34866
34846
34831
34808
34804
34792
34787
34800
34781
34780
34764
34729
34787
34775
34783
34770
34788
34790
34796
34796
34750
34808
34815
34837
34817
34839
34791
34830
34819
34816
34849
34872
34825
34874
34853
34864
34881
34892
34887
34891
34917
34916
34895
34934
34915
34938
34920
34909
34944
34948
34957
34950
34940
34926
34958
34949
34946
34961
34962
34948
34968
34945
34947
34960
34946
34923
34971
34951
34968
34947
34958
34936
34962
34967
34930
34950
34974
34933
34959
34971
34954
34931
34943
34929
34932
34923
34930
34932
34923
34944
34968
34918
34917
34947
34914
34942
34950
34935
34941
34930
34937
34917
34934
34930
34946
34950
34926
34970
34981
34950
34963
34964
34959
34950
34926
34975
34936
34914
34897
34959
34925
34904
34919
34898
34863
34863
34843
34852
34800
34784
34796
34768
34761
34756
34707
34682
34725
34701
34693
34695
34704
34699
34701
34690
34667
34664
34680
34660
34672
34704
34686
34679
34690
34661
34701
34678
34701
34724
34711
34728
34735
34741
34750
34742
34774
34800
34788
34804
34794
34837
34803
34826
34782
34819
34841
34833
34850
34877
34828
34861
34878
34849
34875
34867
34874
34880
34903
34882
34888
34871
34909
34903
34856
34893
34906
34902
34881
34895
34939
34884
34904
34912
34903
34921
34901
34904
34915
34947
34943
34954
34913
34934
34911
34932
34936
34960
34944
34962
34973
34945
34937
34974
34952
34987
34951
34980
34986
34986
34960
34972
34959
34961
34975
34977
34985
34987
34968
34998
34958
34953
34967
34974
34955
34966
34977
34963
34985
34967
34972
34963
34973
34975
34984
34983
34966
34952
34947
34958
34904
34888
34889
34848
34830
34813
34787
34782
34809
34771
34766
34761
34749
34758
34719
34733
34719
34709
34695
34693
34697
34718
34698
34709
34701
34694
34705
34704
34702
34727
34693
34710
34711
34717
34724
34742
34726
34732
34746
34728
34750
34740
34718
34752
34736
34751
34758
34744
34753
34757
34742
34775
34765
34740
34729
34741
34763
34769
34769
34762
34804
34782
34803
34782
34771
34746
34810
34812
34802
34804
34790
34800
34808
34813
34795
34811
34809
34820
34784
34844
34828
34802
34816
34816
34814
34826
34811
34798
34785
34801
34821
34803
34810
34794
34804
34796
34784
34805
34812
34781
34782
34801
34765
34798
34810
34801
34777
34787
34787
34793
34795
34792
34778
34798
34813
34783
34778
34795
34816
34788
34810
34793
34784
34788
34757
34787
34749
34756
34748
34728
34682
34649
34651
34637
34593
34575
34578
34570
34542
34500
34504
34505
34527
34516
34490
34511
34503
34514
34525
34535
34504
34506
34522
34537
34543
34515
34559
34535
34537
34521
34521
34572
34572
34587
34572
34582
34572
34584
34603
34641
34628
34644
34643
34635
34671
34657
34661
34688
34639
34658
34668
34663
34671
34656
34660
34674
34637
34667
34643
34679
34679
34661
34664
34661
34684
34661
34644
34654
34657
34655
34646
34645
34635
34646
34642
34634
34624
34625
34615
34617
34610
34644
34605
34627
34626
34609
34630
34664
34593
34674
34641
34658
34655
34665
34673
34648
34669
34651
34675
34691
34700
34675
34666
34708
34713
34702
34696
34697
34738
34756
34726
34695
34714
34700
34734
34717
34740
34717
34739
34743
34738
34738
34733
34750
34724
34707
34717
34710
34703
34718
34689
34676
34657
34649
34643
34604
34567
34554
34554
34536
34495
34521
34501
34483
34477
34472
34491
34472
34472
34479
34451
34456
34477
34458
34493
34482
34455
34495
34466
34451
34480
34464
34492
34485
34464
34515
34535
34498
34512
34525
34529
34562
34537
34572
34561
34597
34607
34610
34601
34611
34607
34631
34602
34613
34636
34611
34621
34616
34632
34608
34614
34601
34623
34612
34636
34631
34609
34630
34637
34629
34619
34614
34650
34630
34635
34652
34648
34650
34648
34663
34667
34672
34650
34654
34648
34637
34642
34637
34646
34668
34655
34661
34681
34651
34667
34662
34673
34648
34657
34682
34687
34662
34676
34665
34670
34658
34657
34670
34666
34687
34693
34688
34673
34695
34687
34695
34675
34709
34678
34711
34699
34690
34689
34707
34703
34716
34719
34699
34719
34734
34712
34682
34666
34673
34669
34624
34580
34582
34514
34568
34501
34509
34525
34479
34479
34493
34466
34472
34489
34453
34465
34467
34455
34464
34478
34487
34489
34456
34491
34478
34493
34480
34468
34473
34518
34484
34478
34484
34506
34472
34475
34529
34525
34559
34541
34543
34553
34577
34532
34531
34576
34564
34578
34590
34601
34588
34595
34610
34607
34591
34603
34639
34605
34633
34612
34631
34626
34628
34645
34646
34647
34640
34636
34666
34646
34640
34661
34640
34643
34645
34658
34665
34687
34661
34667
34655
34670
34714
34671
34705
34692
34715
34710
34694
34673
34703
34725
34740
34690
34702
34682
34685
34697
34716
34697
34708
34695
34697
34693
34700
34703
34677
34693
34691
34696
34658
34673
34676
34676
34650
34687
34686
34666
34668
34678
34670
34668
34691
34675
34664
34686
34657
34671
34609
34590
34599
34603
34562
34571
34530
34525
34499
34493
34472
34463
34455
34463
34447
34464
34460
34461
34451
34442
34459
34448
34454
34480
34464
34486
34483
34460
34516
34491
34457
34494
34501
34497
34513
34543
34535
34551
34544
34533
34547
34522
34551
34561
34545
34595
34584
34616
34617
34622
34617
34615
34635
34651
34662
34651
34651
34652
34662
34649
34618
34641
34632
34647
34670
34661
34683
34670
34645
34659
34663
34638
34661
34656
34669
34653
34687
34655
34652
34650
34666
34660
34662
34647
34677
34672
34652
34660
34659
34676
34709
34665
34716
34712
34693
34721
34699
34691
34686
34697
34707
34698
34718
34717
34725
34701
34692
34703
34715
34721
34702
34718
34696
34723
34742
34717
34713
34706
34737
34745
34710
34717
34729
34748
34731
34747
34744
34748
34752
34737
34731
34771
34716
34718
34696
34687
34671
34657
34655
34627
34580
34569
34545
34513
34534
34520
34486
34497
34474
34458
34482
34481
34456
34497
34447
34459
34468
34484
34469
34469
34461
34479
34460
34493
34497
34492
34486
34511
34493
34514
34519
34479
34507
34545
34531
34500
34492
34529
34554
34543
34561
34583
34575
34572
34585
34584
34603
34590
34598
34603
34616
34618
34630
34606
34632
34633
34640
34661
34653
34656
34651
34641
34642
34653
34701
34645
34634
34676
34684
34688
34693
34686
34673
34677
34675
34712
34710
34717
34718
34723
34715
34715
34717
34692
34705
34717
34723
34730
34733
34732
34731
34723
34750
34739
34769
34734
34755
34736
34732
34738
34733
34756
34770
34744
34759
34724
34755
34771
34763
34733
34745
34744
34738
34733
34749
34726
34734
34757
34750
34748
34746
34769
34738
34745
34768
34770
34748
34750
34711
34732
34717
34687
34668
34635
34620
34640
34608
34572
34547
34546
34542
34540
34524
34520
34495
34516
34500
34480
34498
34489
34487
34499
34493
34502
34489
34506
34488
34537
34511
34506
34524
34539
34528
34535
34534
34563
34556
34567
34565
34596
34575
34583
34598
34589
34624
34623
34623
34622
34601
34623
34615
34642
34617
34663
34630
34626
34647
34672
34628
34625
34648
34632
34680
34673
34628
34663
34663
34630
34676
34657
34661
34675
34708
34677
34684
34664
34690
34699
34664
34669
34728
34700
34682
34710
34722
34701
34721
34703
34741
34728
34733
34736
34715
34716
34729
34749
34734
34748
34739
34737
34760
34742
34776
34741
34756
34768
34761
34778
34760
34772
34768
34762
34757
34759
34771
34795
34764
34750
34786
34751
34790
34745
34775
34781
34729
34762
34766
34788
34817
34793
34742
34740
34729
34755
34738
34733
34679
34677
34658
34627
34592
34609
34603
34571
34567
34576
34537
34565
34566
34523
34521
34521
34520
34534
34562
34515
34497
34519
34551
34514
34549
34552
34554
34544
34535
34530
34551
34556
34547
34582
34592
34536
34569
34591
34617
34614
34616
34617
34613
34624
34674
34653
34665
34640
