43619
43666
43666
43627
43671
43666
43651
43690
43651
43664
43680
43663
43722
43730
43701
43721
43709
43762
43761
43686
43710
43733
43730
43742
43687
43703
43720
43696
43741
43749
43756
43803
43745
43725
43723
43707
43753
43743
43736
43793
43764
43769
43788
43790
43828
43783
43747
43803
43779
43778
43797
43816
43873
43836
43799
43843
43816
43843
43879
43857
43876
43866
43874
43930
43876
43850
43865
43895
43960
43940
43937
43987
43930
43949
43995
43952
43942
43942
43963
43999
43953
43983
43996
43940
43969
43982
43960
43959
43913
43950
43965
43922
43954
43943
43909
43939
43911
43906
43886
43866
43907
43862
43822
43863
43811
43795
43807
43798
43834
43809
43779
43804
43751
43752
43769
43752
43771
43737
43725
43770
43703
43672
43675
43662
43688
43648
43615
43658
43625
43632
43643
43623
43655
43639
43618
43624
43537
43545
43600
43589
43589
43553
43551
43613
43584
43602
43647
43662
43691
43643
43625
43684
43639
43635
43667
43660
43659
43626
43653
43700
43600
43606
43676
43646
43638
43645
43662
43701
43682
43714
43692
43629
43688
43715
43676
43673
43651
43703
43715
43670
43703
43713
43722
43760
43703
43719
43749
43712
43724
43733
43750
43772
43701
43732
43777
43735
43754
43780
43790
43797
43739
43784
43825
43775
43770
43755
43768
43832
43802
43810
43820
43807
43869
43887
43880
43896
43830
43845
43876
43847
43861
43861
43874
43889
43794
43805
43857
43844
43892
43890
43824
43835
43862
43902
43847
43783
43829
43812
43796
43840
43762
43719
43720
43696
43713
43687
43662
43669
43590
43592
43612
43578
43608
43610
43587
43600
43550
43548
43538
43505
43540
43542
43562
43601
43508
43498
43529
43482
43481
43491
43509
43539
43477
43475
43482
43465
43501
43472
43448
43496
43471
43487
43479
43415
43430
43430
43427
43479
43463
43476
43459
43403
43415
43401
43422
43501
43468
43471
43466
43417
43468
43501
43482
43498
43476
43481
43449
43432
43510
43484
43429
43487
43482
43462
43446
43457
43510
43464
43454
43527
43469
43458
43506
43497
43494
43479
43515
43569
43490
43485
43528
43506
43503
43486
43507
43557
43507
43541
43582
43535
43549
43572
43582
43591
43540
43600
43665
43637
43630
43604
43614
43662
43619
43671
43747
43728
43720
43678
43662
43733
43739
43743
43708
43671
43724
43707
43685
43742
43723
43739
43763
43745
43746
43687
43664
43718
43666
43652
43669
43654
43663
43618
43596
43622
43553
43557
43573
43518
43530
43546
43560
43589
43535
43529
43502
43443
43477
43466
43421
43424
43391
43429
43431
43367
43388
43388
43369
43403
43388
43414
43412
43374
43399
43375
43366
43417
43381
43402
43421
43367
43371
43373
43382
43420
43364
43352
43356
43349
43382
43347
43337
43397
43360
43372
43380
43324
43347
43369
43366
43385
43350
43377
43388
43361
43401
43395
43391
43438
43392
43401
43436
43428
43442
43409
43411
43482
43453
43470
43516
43520
43536
43494
43474
43505
43458
43515
43592
43563
43562
43553
43544
43576
43547
43567
43589
43595
43627
43566
43546
43629
43615
43632
43643
43593
43617
43629
43616
43639
43613
43645
43672
43681
43744
43738
43741
43788
43714
43710
43772
43797
43831
43792
43758
43802
43789
43815
43821
43790
43829
43832
43839
43884
43834
43840
43853
43801
43796
43782
43804
43872
43824
43799
43784
43752
43784
43781
43795
43836
43746
43707
43719
43706
43728
43694
43668
43707
43666
43665
43676
43662
43687
43659
43662
43704
43618
43600
43625
43595
43611
43606
43596
43623
43584
43590
43567
43518
43567
43566
43531
43573
43588
43639
43638
43598
43645
43629
43588
43644
43660
43675
43648
43620
43667
43651
43650
43711
43669
43685
43716
43669
43674
43688
43715
43757
43712
43736
43757
43714
43714
43698
43717
43763
43696
43712
43741
43687
43703
43722
43726
43780
43779
43780
43746
43737
43800
43762
43746
43825
43779
43751
43770
43780
43830
43817
43795
43834
43811
43839
43855
43826
43860
43864
43878
43929
43873
43865
43886
43879
43910
43888
43885
43939
43901
43918
43945
43926
43967
43959
43921
43942
43928
43962
43958
43924
43983
43986
43960
44005
43995
44007
43993
43962
44007
43985
43952
43998
43977
43979
43954
43893
43913
43906
43895
43929
43886
43898
43896
43825
43814
43793
43793
43830
43764
43752
43779
43778
43795
43748
43735
43780
43717
43727
43773
43748
43760
43761
43768
43789
43716
43712
43729
43703
43716
43683
43674
43725
43672
43656
43661
43643
43673
43638
43602
43651
43642
43660
43651
43608
43636
43617
43596
43631
43587
43599
43634
43634
43661
43620
43600
43660
43644
43666
43678
43639
43671
43695
43721
43746
43657
43654
43700
43697
43717
43706
43721
43762
43701
43725
43756
43698
43709
43744
43769
43785
43721
43740
43764
43744
43782
43773
43769
43826
43795
43791
43786
43771
43834
43826
43786
43828
43830
43855
43845
43815
43874
43892
43908
43952
43894
43913
43942
43901
43948
43994
43993
44022
44018
44045
44021
43985
44030
43999
43982
44065
44035
43992
43976
43990
44056
44027
44006
44079
44071
44087
44083
44032
44061
44066
44052
44079
44041
44046
44038
43998
44015
43978
43957
43995
43935
43932
43954
43919
43910
43858
43827
43872
43847
43863
43871
43838
43850
43807
43781
43834
43804
43803
43811
43797
43827
43806
43809
43858
43794
43785
43783
43728
43764
43780
43736
43729
43704
43726
43707
43688
43759
43737
43692
43753
43756
43764
43749
43712
43731
43692
43681
43759
43740
43734
43722
43690
43740
43741
43714
43746
43726
43746
43759
43748
43777
43731
43712
43783
43755
43756
43773
43747
43754
43738
43761
43808
43734
43755
43813
43773
43753
43746
43779
43840
43793
43791
43800
43784
43827
43817
43809
43852
43792
43765
43776
43789
43829
43790
43779
43826
43758
43764
43815
43808
43842
43839
43816
43848
43827
43831
43824
43824
43869
43824
43826
43927
43898
43879
43864
43807
43835
43854
43844
43867
43849
43887
43881
43833
43878
43884
43866
43887
43827
43823
43842
43839
43862
43807
43769
43801
43729
43692
43680
43654
43706
43723
43705
43685
43589
43607
43647
43609
43620
43610
43590
43614
43585
43602
43586
43531
43556
43537
43513
43555
43529
43545
43543
43479
43469
43453
43477
43516
43429
43433
43481
43450
43464
43480
43487
43495
43439
43476
43499
43449
43476
43491
43485
43499
43460
43504
43510
43435
43470
43511
43507
43517
43481
43497
43483
43445
43491
43477
43456
43514
43502
43519
43509
43453
43476
43483
43488
43516
43454
43472
43520
43515
43540
43516
43502
43553
43527
43539
43558
43559
43611
43591
43561
43580
43519
43537
43601
43619
43644
43605
43592
43644
43600
43600
43621
43614
43652
43629
43601
43646
43626
43649
43680
43691
43725
43668
43639
43719
43718
43738
43749
43741
43825
43841
43785
43807
43818
43828
43784
43762
43820
43791
43783
43839
43779
43809
43873
43815
43786
43796
43813
43821
43764
43794
43787
43703
43714
43711
43669
43667
43638
43671
43657
43598
43648
43668
43646
43651
43595
43607
43619
43588
43603
43560
43520
43541
43488
43494
43498
43445
43457
43450
43445
43477
43426
43425
43422
43390
43434
43429
43392
43403
43365
43391
43406
43363
43368
43359
43392
43440
43354
43365
43420
43381
43385
43389
43381
43415
43404
43409
43363
43326
43397
43397
43372
43404
43358
43372
43387
43342
43369
43382
43376
43402
43360
43366
43368
43354
43404
43379
43352
43411
43398
43409
43412
43386
43418
43400
43390
43443
43408
43421
43465
43475
43487
43428
43423
43515
43498
43502
43514
43478
43483
43470
43495
43552
43477
43453
43478
43471
43487
43465
43489
43564
43511
43497
43526
43518
43516
43488
43541
43637
43568
43546
43559
43509
43522
43538
43539
43576
43561
43581
43582
43576
43620
43567
43525
43578
43539
43532
43535
43503
43536
43534
43513
43525
43480
43512
43525
43458
43450
43440
43446
43483
43428
43438
43457
43418
43421
43368
43313
43358
43362
43373
43349
43311
43326
43289
43305
43366
43278
43267
43305
43252
43249
43271
43275
43273
43209
43216
43213
43183
43223
43211
43200
43240
43195
43214
43240
43200
43204
43189
43185
43221
43183
43215
43239
43194
43213
43210
43199
43243
43241
43285
43281
43211
43218
43220
43247
43316
43280
43284
43285
43236
43256
43269
43283
43302
43236
43280
43329
43280
43294
43298
43264
43276
43269
43307
43306
43283
43302
43235
43211
43298
43269
43256
43271
43254
43260
43214
43198
43266
43248
43253
43267
43261
43280
43227
43214
43290
43268
43283
43305
43267
43269
43250
43258
43327
43300
43296
43301
43304
43360
43346
43339
43381
43317
43313
43338
43320
43358
43356
43335
43369
43342
43338
43323
43322
43397
43382
43350
43378
43313
43305
43343
43353
43373
43312
43271
43317
43293
43306
43307
43262
43288
43285
43268
43284
43225
43231
43254
43238
43253
43224
43225
43256
43180
43206
43254
43191
43180
43193
43191
43202
43172
43210
43209
43170
43218
43225
43218
43260
43217
43216
43208
43158
43182
43185
43194
43242
43196
43191
43190
43154
43174
43154
43148
43203
43159
43138
43130
43113
43149
43137
43151
43207
43143
43143
43174
43136
43129
43108
43115
43182
43171
43182
43170
43144
43204
43201
43171
43206
43181
43197
43209
43201
43259
43255
43242
43279
43225
43220
43245
43245
43270
43232
43228
43299
43266
43264
43285
43278
43316
43306
43307
43360
43317
43315
43335
43332
43376
43366
43363
43402
43345
43356
43400
43388
43400
43389
43405
43436
43343
43337
43384
43373
43384
43363
43351
43376
43322
43338
43369
43353
43373
43357
43369
43424
43363
43357
43390
43382
43395
43349
43312
43333
43280
43293
43313
43278
43293
43276
43267
43298
43240
43240
43262
43246
43263
43222
43196
43232
43177
43167
43171
43137
43156
43142
43141
43187
43140
43141
43149
43111
43114
43077
43070
43148
43137
43126
43100
43067
43108
43096
43080
43109
43044
43038
43060
43045
43077
43061
43037
43056
43016
43054
43078
43018
43012
43009
43026
43066
43013
43041
43082
43046
43047
43046
43080
43131
43060
43055
43067
43027
43068
43095
43078
43074
43038
43092
43104
43042
43080
43108
43091
43087
43045
43106
43159
43133
43146
43129
43129
43179
43134
43141
43167
43145
43141
43096
43108
43196
43157
43136
43152
43151
43165
43129
43151
43229
43174
43182
43234
43211
43203
43189
43221
43293
43234
43194
43188
43213
43302
43282
43220
43241
43220
43244
43257
43233
43256
43246
43276
43345
43270
43241
43271
43272
43294
43262
43248
43297
43263
43264
43265
43231
43258
43263
43277
43284
43174
43176
43212
43137
43109
43136
43179
43178
43067
43073
43093
43034
43059
43078
43048
43055
43039
43054
43020
42983
43029
43001
42985
43043
42989
42978
43001
42987
43020
43014
42995
43016
42972
43000
43045
43043
43052
42992
42967
43016
42979
43011
43045
42999
43023
43043
43033
43055
43029
43039
43027
43024
43100
43078
43031
43075
43071
43111
43123
43065
43058
43032
43021
43063
43031
43059
43078
43038
43059
43058
43059
43103
43063
43068
43073
43053
43107
43109
43099
43156
43144
43148
43130
43099
43145
43135
43119
43152
43114
43168
43235
43204
43188
43153
43143
43188
43169
43208
43215
43154
43172
43180
43180
43227
43206
43223
43227
43215
43271
43270
43268
43319
43287
43323
43362
43331
43358
43360
43345
43381
43356
43348
43336
43343
43401
43364
43356
43422
43379
43407
43451
43396
43400
43440
43458
43445
43365
43395
43417
43347
43324
43300
43303
43338
43277
43282
43289
43237
43255
43260
43248
43248
43165
43159
43177
43159
43177
43147
43139
43176
43116
43133
43156
43090
43085
43093
43097
43118
43074
43097
43094
43032
43041
43026
43025
43092
43077
43082
43078
43057
43097
43068
43032
43067
43044
43078
43091
43033
43041
43049
43063
43100
43056
43079
43084
43033
43083
43122
43107
43099
43045
43067
43075
43055
43122
43120
43069
43092
43077
43085
43083
43088
43142
43121
43143
43231
43168
43137
43158
43149
43187
43189
43178
43215
43197
43218
43212
43175
43212
43206
43212
43269
43216
43204
43224
43213
43226
43194
43210
43296
43252
43221
43241
43265
43300
43263
43278
43346
43278
43287
43347
43313
43288
43283
43332
43399
43340
43331
43362
43361
43364
43310
43326
43424
43398
43405
43429
43401
43426
43430
43416
43417
43357
43383
43393
43329
43338
43345
43345
43356
43286
43300
43323
43279
43277
43246
43227
43254
43201
43206
43209
43173
43220
43240
43225
43224
43155
43171
43186
43136
43143
43124
43109
43140
43096
43113
43139
43121
43138
43106
43101
43157
43114
43123
43145
43115
43128
43095
43055
43082
43067
43103
43108
43066
43103
43103
43098
43154
43136
43147
43147
43127
43171
43154
43133
43176
43142
43155
43165
43126
43139
43138
43161
43205
43139
43162
43214
43183
43187
43181
43182
43221
43191
43212
43208
43162
43192
43198
43220
43286
43254
43266
43270
43230
43279
43298
43280
43306
43289
43307
43291
43268
43342
43352
43328
43348
43298
43313
43320
43280
43340
43387
43377
43373
43322
43345
43349
43312
43353
43367
43382
43415
43362
43419
43483
43437
43449
43468
43452
43450
43411
43440
43447
43417
43447
43431
43441
43503
43451
43467
43514
43488
43494
43486
43485
43505
43431
43420
43436
43423
43441
43406
43395
43424
43343
43351
43400
43375
43395
43394
43373
43387
43339
43322
43299
43295
43358
43305
43234
43285
43280
43273
43242
43205
43239
43223
43215
43250
43168
43142
43171
43176
43212
43182
43152
43194
43153
43126
43112
43120
43175
43125
43080
43139
43122
43138
43164
43152
43175
43153
43155
43207
43157
43157
43159
43110
43139
43153
43148
43194
43186
43206
43204
43184
43211
43165
43153
43229
43186
43169
43202
43215
43238
43205
43218
43282
43208
43177
43191
43177
43207
43198
43184
43209
43173
43217
43261
43243
43272
43260
43245
43285
43260
43282
43289
43250
43270
43245
43220
43257
43220
43235
43267
43268
43298
43255
43236
43320
43326
43339
43337
43316
43364
43361
43356
43401
43364
43389
43425
43406
43432
43435
43443
43466
43388
43402
43456
43435
43423
43388
43395
43440
43378
43396
43454
43439
43433
43395
43393
43430
43356
43336
43345
43312
43315
43287
43285
43312
43228
43221
43248
43220
43240
43229
43210
43249
43234
43256
43264
43240
43249
43200
43201
43266
43199
43195
43248
43235
43221
43176
43170
43217
43173
43183
43194
43152
43154
43121
43106
43157
43141
43178
43187
43137
43172
43170
43122
43130
43128
43180
43181
43130
43145
43121
43121
43189
43153
43149
43146
43108
43152
43166
43146
43164
43141
43186
43200
43158
43194
43204
43199
43218
43157
43174
43201
43166
43184
43187
43200
43240
43178
43176
43212
43213
43217
43172
43204
43314
43277
43251
43248
43224
43270
43273
43235
43230
43196
43245
43261
43206
43227
43224
43213
43253
43230
43250
43248
43207
43246
43258
43249
43248
43176
43232
43305
43267
43273
43298
43323
43353
43299
43312
43326
43292
43303
43282
43292
43343
43281
43291
43334
43315
43337
43331
43323
43370
43349
43347
43315
43278
43331
43324
43295
43307
43235
43237
43272
43249
43236
43187
43182
43220
43148
43151
43181
43145
43163
43159
43133
43150
43127
43151
43132
43075
43102
43085
43061
43097
43069
43101
43106
43030
43038
43056
43063
43081
43006
42977
42975
42976
43021
42987
42974
43034
42987
42985
43005
42978
43001
43002
42999
43013
42952
42988
43038
43006
43004
42975
42965
43008
42972
42985
43000
42981
43013
43003
43009
43069
43022
43011
43021
42996
42996
42957
42971
43055
43015
43002
43023
43021
43041
42998
42979
43031
43002
43035
43084
43081
43112
43089
43065
43109
43094
43109
43091
43043
43087
43099
43092
43125
43090
43118
43130
43077
43094
43112
43136
43161
43089
43112
43143
43080
43076
43088
43103
43133
43092
43134
43181
43175
43207
43179
43155
43200
43170
43178
43174
43137
43173
43153
43114
43163
43166
43171
43149
43144
43214
43195
43174
43237
43206
43197
43192
43150
43161
43124
43083
43114
43097
43123
43116
43058
43070
43052
43045
43092
43037
43005
42993
42978
43003
42960
42946
43002
42951
42943
42955
42921
42941
42921
42887
42916
42896
42908
42913
42903
42909
42846
42851
42910
42818
42818
42879
42842
42849
42873
42857
42844
42816
42861
42861
42825
42861
42834
42806
42843
42814
42857
42886
42833
42868
42897
42873
42885
42885
42927
42896
42843
42911
42925
42897
42937
42911
42896
42884
42889
42947
42919
42908
42959
42899
42912
42962
42919
42891
42879
42914
42967
42904
42904
42930
42916
42950
42952
42956
42986
42921
42931
42970
42953
42961
42942
42956
43000
42947
42992
43055
43015
43018
43024
43024
43054
43020
43034
43042
43038
43089
43065
43057
43123
43086
43085
43101
43083
43122
43112
43081
43119
43102
43104
43091
43087
43147
43116
43091
43158
43131
43123
43127
43104
43118
43083
43067
43105
43046
43048
43071
43033
43023
42991
42996
43049
42995
42979
42968
42928
42961
42962
42934
42923
42850
42876
42903
42843
42826
42816
42844
42908
42850
42815
42806
42794
42831
42806
42792
42831
42783
42807
42836
42781
42788
42800
42800
42809
42759
42790
42808
42772
42818
42840
42836
42856
42794
42793
42824
42834
42856
42817
42834
42904
42835
42841
42894
42869
42888
42904
42900
42923
42902
42932
42933
42917
42981
42978
42968
43029
42997
42980
42973
42970
43036
43029
43006
43045
43010
43021
43043
43042
43088
43071
43056
43112
43097
43123
43142
43116
43135
43101
43080
43130
43099
43113
43146
43152
43184
43147
43145
43249
43246
43217
43207
43238
43314
43280
43257
43319
43271
43261
43295
43306
43352
43330
43305
43367
43364
43372
43377
43387
43428
43374
43363
43449
43411
43399
43429
43423
43435
43403
43404
43463
43424
43433
43452
43417
43424
43403
43399
43432
43361
43343
43346
43324
43360
43347
43323
43346
43293
43299
43324
43307
43306
43259
43258
43291
43196
43199
43240
43179
43176
43212
43232
43220
43143
43179
43218
43178
43182
43155
43151
43228
43228
43231
43205
43164
43195
43176
43161
43184
43096
43082
43136
43158
43187
43149
43129
43177
43147
43174
43207
43179
43169
43115
43095
43150
43125
43151
43179
43153
43176
43173
43176
43213
43166
43188
43214
43176
43194
43199
43212
43251
43206
43230
43258
43219
43226
43225
43246
43273
43185
43188
43217
43173
43203
43234
43230
43232
43182
43212
43247
43246
43268
43213
43200
43290
43263
43231
43221
43218
43259
43241
43250
43302
43257
43316
43379
43312
43303
43326
43326
43353
43340
43346
43322
43323
43389
43350
43332
43397
43335
43330
43379
43364
43363
43335
43316
43334
43292
43337
43387
43370
43384
43346
43317
43355
43319
43324
43334
43308
43311
43259
43237
43266
43182
43168
43187
43148
43162
43162
43146
43151
43085
43083
43097
43093
43131
43067
42999
43056
43054
43027
42984
42982
43055
43011
42959
43021
42996
42955
42919
42910
42972
42950
42916
42956
42916
42912
42924
42918
42952
42921
42895
42924
42871
42883
42909
42872
42876
42864
42883
42957
42928
42922
42928
42924
42967
42948
42933
42948
42859
42865
42913
42883
42891
42896
42897
42910
42858
42896
42933
42903
42915
42897
42895
42928
42859
42855
42879
42859
42879
42867
42868
42906
42852
42865
42880
42836
42864
42884
42886
42911
42855
42845
42840
42823
42856
42818
42797
42857
42834
42854
42871
42828
42837
42833
42848
42909
42870
42860
42864
42856
42896
42892
42926
42994
42922
42911
42944
42931
42973
42983
42955
42963
42937
42964
42962
42930
42967
42948
42938
42983
42927
42929
42953
42920
42936
42947
42974
43014
42930
42906
42932
42926
42924
42855
42830
42886
42853
42877
42905
42854
42850
42854
42873
42900
42822
42820
42839
42802
42806
42776
42752
42777
42726
42728
42732
42697
42720
42709
42704
42736
42669
42661
42680
42658
42666
42633
42620
42654
42597
42613
42653
42616
42588
42547
42574
42664
42633
42621
42619
42584
42599
42589
42610
42675
42635
42642
42657
42620
42644
42650
42657
42690
42638
42651
42687
42691
42720
42671
42636
42706
42713
42728
42728
42717
42757
42722
42695
42747
42717
42721
42726
42688
42716
42726
42742
42784
42740
42764
42804
42794
42822
42804
42789
42831
42801
42820
42844
42824
42835
42804
42805
42852
42792
42812
42870
42849
42838
42817
42836
42880
42830
42866
42887
42811
42837
42883
42869
42866
42861
42926
42922
42874
42933
42957
42964
43015
42959
42922
42901
42897
42981
42987
42944
42961
42928
42944
42964
42962
42997
42967
42970
43035
42982
42977
42988
42946
42978
43000
42986
42991
42936
42928
42910
42885
42923
42877
42838
42902
42891
42889
42870
42820
42824
42787
42779
42846
42816
42809
42809
42779
42791
42753
42728
42760
42714
42739
42781
42753
42748
42718
42730
42796
42736
42689
42694
42713
42732
42644
42616
42707
42679
42654
42660
42651
42673
42649
42660
42728
42675
42643
42644
42653
42722
42723
42701
42726
42688
42707
42701
42644
42695
42732
42717
42727
42707
42739
42729
42700
42775
42783
42741
42767
42760
42786
42779
42759
42825
42810
42749
42771
42781
42837
42836
42783
42835
42859
42836
42843
42807
42835
42847
42821
42868
42859
42830
42876
42864
42875
42887
42898
42939
42904
42906
42956
42879
42901
42959
42900
42890
42919
42927
42929
42904
42974
43003
42961
42980
42951
42916
42952
42926
42945
42954
42921
42942
42919
42904
42947
42921
42958
42973
42904
42912
42927
42932
42962
42916
42914
42915
42909
42953
42918
42889
42924
42854
42836
42863
42862
42883
42855
42850
42898
42843
42838
42850
42802
42784
42766
42812
42885
42812
42796
42805
42748
42753
42765
42772
42794
42750
42775
42790
42755
42780
42763
42750
42797
42753
42730
42734
42749
42792
42738
42713
42788
42766
42760
42753
42703
42715
42711
42715
42757
42703
42691
42719
42733
42739
42666
42668
42745
42687
42700
42769
42750
42740
42734
42756
42795
42744
42760
42782
42751
42759
42723
42717
42794
42782
42777
42774
42772
42826
42804
42782
42821
42787
42826
42867
42820
42814
42810
42823
42860
42810
42827
42862
42857
42882
42858
42862
42914
42864
42888
42926
42881
42882
42884
42893
42930
42898
42931
42936
42891
42945
42975
42969
43010
42997
43010
43008
43002
43045
43009
43011
43099
43057
43029
43024
42997
43040
43039
43009
43039
43034
43078
43093
43066
43089
43065
43068
43111
43026
43010
43069
43082
43080
43019
42999
43040
42984
42998
43033
42992
42968
42916
42890
42917
42869
42891
42922
42898
42919
42893
42853
42861
42816
42843
42849
42788
42800
42814
42832
42865
42808
42829
42861
42822
42821
42785
42758
42804
42793
42813
42813
42776
42781
42754
42777
42823
42731
42738
42792
42743
42739
42768
42792
42815
42757
42742
42737
42745
42798
42751
42730
42809
42789
42793
42809
42786
42826
42832
42820
42855
42827
42836
42834
42826
42892
42890
42868
42892
42840
42865
42905
42868
42858
42832
42838
42887
42847
42877
42919
42894
42902
42886
42892
42932
42883
42914
42945
42904
42936
42940
42900
42914
42910
42937
42905
42861
42916
42905
42890
42964
42957
42963
42967
42957
43004
43003
43017
43080
43035
43051
43116
43130
43126
43080
43102
43157
43063
43053
43111
43088
43084
43092
43121
43140
43056
43071
43115
43084
43071
43054
43088
43127
43025
43011
43035
42989
43011
43025
42996
42997
42969
42982
42960
42932
42963
42895
42845
42917
42914
42923
42914
42857
42854
42835
42845
42885
42823
42836
42852
42776
42753
42743
42747
42778
42733
42732
42706
42644
42669
42666
42661
42713
42690
42701
42693
42642
42654
42637
42642
42717
42698
42699
42720
42735
42779
42744
42732
42786
42737
42745
42784
42761
42757
42734
42741
42785
42733
42751
42805
42802
42799
42765
42799
42872
42789
42763
42799
42795
42826
42818
42802
42840
42831
42861
42839
42778
42835
42874
42867
42879
42827
42840
42857
42846
42885
42873
42870
42907
42850
42875
42919
42883
42895
42904
42914
42950
42910
42919
42916
42883
42923
42913
42892
42934
42912
42937
42951
42922
42952
42932
42914
42974
42958
42956
42963
42975
43027
43012
43043
43118
43023
42974
43006
43019
43070
43065
43028
43040
43021
43064
43072
43046
43110
43116
43080
43106
43068
43043
43021
43031
43106
43077
43042
43077
43012
43004
43035
43012
43004
42964
42958
43010
42953
42925
42921
42899
42905
42850
42829
42867
42797
42796
42828
42801
42822
42820
42807
42833
42798
42803
42784
42733
42751
42731
42729
42778
42712
42674
42668
42654
42703
42712
42713
42722
42640
42666
42725
42690
42690
42704
42744
42799
42745
42738
42756
42756
42785
42738
42706
42750
42713
42734
42774
42764
42787
42748
42709
42776
42791
42782
42735
42725
42809
42799
42775
42828
42793
42792
42804
42780
42812
42815
42813
42840
42786
42805
42842
42818
42814
42784
42805
42874
42828
42841
42862
42819
42847
42857
42827
42831
42805
42834
42841
42841
42910
42887
42841
42877
42845
42848
42854
42837
42883
42885
42891
42944
42899
42901
42935
42950
43001
42987
42971
43002
42964
43009
43040
42978
42990
43007
42993
42991
42946
42976
42991
42970
43017
43016
43014
43066
43026
43033
43043
42999
43004
42988
42990
43040
42986
42958
42950
42936
42968
42938
42925
42968
42910
42918
42954
42924
42912
42874
42865
42901
42854
42878
42886
42807
42795
42794
42794
42823
42780
42780
42777
42751
42769
42733
42734
42787
42717
42704
42709
42649
42675
42718
42727
42743
42704
42712
42704
42690
42741
42717
42695
42729
42677
42709
42754
42708
42714
42712
42691
42727
42716
42703
42685
42728
42820
42776
42754
42810
42731
42720
42764
42728
42736
42759
42760
42771
42741
42768
42745
42697
42764
42775
42734
42762
42755
42762
42732
42699
42755
42743
42720
42767
42735
42748
42767
42744
42768
42748
42727
42763
42720
42705
42697
42688
42745
42743
42744
42795
42759
42794
42843
42811
42803
42782
42790
42835
42793
42818
42860
42850
42880
42876
42880
42910
42852
42880
42913
42869
42901
42932
42927
42930
42880
42903
42908
42880
42935
42944
42924
42944
42913
42963
42988
42920
42920
42934
42961
43011
42975
42992
42992
42935
42938
42909
42885
42927
42891
42877
42866
42851
42881
42819
42761
42787
42743
42753
42770
42731
42739
42719
42706
42739
42699
42713
42734
42719
42742
42700
42660
42690
42655
42677
42691
42655
42690
42701
42693
42718
42671
42674
42685
42677
42708
42668
42640
42676
42611
42600
42639
42648
42660
42595
42572
42670
42694
42694
42656
42619
42664
42655
42649
42702
42675
42684
42643
42528
42552
42625
42642
42629
42576
42622
42636
42583
42620
42640
42629
42637
42579
42595
42614
42573
42574
42560
42587
42645
42579
42577
42611
42594
42612
42601
42592
42625
42598
42633
42644
42593
42624
42641
42635
42640
42577
42596
42622
42599
42637
42645
42654
42704
42658
42638
42620
42603
42678
42689
42659
42686
42668
42689
42692
42681
42751
42747
42702
42722
42709
42748
42757
42705
42710
42689
42689
42747
42720
42741
42763
42736
42759
42748
42743
42794
42758
42747
42751
42751
42787
42745
42725
42776
42737
42751
42755
42670
42657
42677
42701
42719
42646
42638
42635
42601
42631
42605
42566
42601
42582
42585
42563
42521
42548
42524
42507
42545
42485
42472
42486
42467
42494
42475
42461
42510
42478
42473
42476
42462
42480
42422
42391
42443
42408
42419
42454
42450
42489
42494
42510
42558
42510
42515
42521
42479
42511
42519
42498
42509
42483
42531
42546
42488
42503
42504
42501
42533
42504
42544
42566
42530
42574
42581
42540
42550
42540
42583
42592
42571
42617
42596
42573
42630
42610
42616
42616
42583
42606
42602
42625
42700
42662
42646
42641
42616
42654
42668
42701
42761
42707
42708
42728
42695
42712
42707
42710
42765
42737
42736
42735
42730
42785
42777
42784
42859
42824
42821
42847
42836
42828
42762
42764
42880
42891
42894
42890
42864
42880
42859
42876
42933
42869
42880
42938
42931
42941
42943
42972
43001
42929
42972
43035
42989
42977
42972
42970
43001
42964
42963
42942
42909
42951
42934
42913
42934
42858
42860
42904
42891
42899
42863
42836
42860
42809
42815
42823
42776
42766
42737
42766
42865
42836
42810
42788
42755
42790
42773
42745
42768
42744
42786
42774
42675
42703
42770
42779
42752
42677
42705
42716
42661
42689
42700
42706
42767
42751
42748
42737
42733
42793
42775
42765
42826
42780
42765
42781
42770
42785
42742
42727
42796
42785
42797
42788
42746
42788
42783
42747
42785
42783
42795
42791
42797
42848
42805
42790
42857
42796
42774
42803
42790
42798
42790
42829
42906
42853
42838
42847
42830
42872
42873
42871
42920
42906
42948
42970
42935
42962
42944
42912
42947
42924
42926
42911
42884
42925
42903
42895
42956
42903
42880
42904
42923
42963
42929
42930
43018
42992
42976
42989
42995
43022
42980
42981
43049
42997
42995
43031
43012
43019
42998
42995
43038
42994
42999
43011
42992
43031
43034
43045
43088
43013
42987
42999
42985
43005
42966
42930
42961
42923
42939
42959
42933
42944
42908
42887
42923
42876
42884
42889
42826
42815
42802
42812
42847
42791
42804
42808
42750
42790
42813
42767
42734
42686
42718
42726
42708
42769
42757
42725
42773
42747
42719
42686
42668
42725
42724
42726
42756
42667
42658
42703
42683
42680
42650
42627
42641
42600
42645
42680
42636
42647
42654
42672
42716
42673
42685
42689
42643
42679
42699
42694
42707
42674
42735
42759
42670
42648
42647
42648
42673
42634
42665
42690
42665
42687
42662
42654
42711
42678
42674
42675
42654
42698
42694
42683
42725
42699
42729
42758
42740
42771
42760
42751
42796
42763
42780
42816
42816
42832
42776
42755
42826
42804
42802
42812
42804
42848
42830
42804
42842
42822
42860
42896
42877
42894
42875
42889
42960
42925
42924
42937
42921
42962
42951
42923
42939
42890
42907
42925
42892
42905
42893
42909
42965
42917
42937
42979
42945
42922
42864
42844
42909
42885
42861
42829
42803
42851
42828
42807
42858
42814
42795
42785
42762
42802
42778
42737
42767
42749
42768
42761
42727
42782
42786
42746
42741
42692
42715
42720
42676
42722
42735
42697
42701
42679
42716
42715
42664
42679
42652
42634
42677
42631
42620
42618
42597
42646
42649
42630
42644
42592
42610
42623
42579
42600
42591
42570
42610
42586
42581
42583
42608
42676
42620
42571
42653
42671
42694
42713
42703
42717
42685
42705
42787
42740
42743
42792
42783
42781
42747
42753
42819
42796
42809
42812
42764
42777
42811
42886
42918
42804
42858
42977
42937
42929
42994
43053
43083
43051
43096
43130
43135
43182
43144
43131
43219
43221
43259
43307
43296
43303
43295
43355
43462
43435
43453
43482
43441
43465
43505
43555
43625
43612
43645
43659
43626
43664
43689
43726
43757
43659
43665
43726
43701
43694
43685
43697
43732
43679
43699
43721
43684
43713
43720
43716
43733
43672
43691
43718
43700
43754
43755
43710
43716
43690
43714
43696
43634
43660
43657
43656
43708
43657
43632
43628
43621
43661
43615
43576
43631
43594
43556
43532
43531
43587
43555
43527
43571
43516
43509
43550
43562
43579
43528
43514
43572
43533
43543
43562
43531
43553
43529
43489
43524
43519
43526
43487
43452
43530
43561
43566
43589
43509
43518
43572
43564
43582
43560
43536
43566
43542
43575
43578
43525
43551
43550
43533
43561
43527
43552
43575
43545
43553
43536
43575
43658
43586
43549
43570
43567
43588
43566
43571
43614
43543
43531
43556
43545
43578
43590
43623
43672
43601
43609
43666
43666
43678
43645
43638
43685
43645
43666
43693
43665
43678
43648
43630
43693
43685
43699
43718
43738
43794
43744
43696
43740
43709
43729
43771
43759
43763
43748
43797
43870
43782
43754
43776
43750
43786
43795
43769
43793
43783
43801
43792
43791
43854
43833
43828
43877
43800
43802
43863
43847
43846
43834
43829
43840
43771
43783
43809
43774
43761
43716
43719
43774
43708
43697
43724
43706
43726
43713
43709
43748
43702
43699
43680
43610
43623
43629
43644
43691
43638
43631
43636
43609
43632
43603
43589
43643
43610
43615
43624
43602
43637
43611
43571
43607
43596
43621
43609
43558
43594
43582
43548
43589
43583
43606
43604
43578
43610
43582
43571
43620
43563
43558
43575
43548
43580
43573
43544
43579
43567
43574
43547
43519
43579
43578
43580
43647
43612
43605
43592
43546
43604
43642
43629
43643
43618
43646
43646
43617
43662
43656
43652
43703
43670
43702
43734
43684
43683
43681
43689
43723
43669
43676
43695
43684
43741
43742
43722
43760
43735
43748
43745
43716
43763
43768
43767
43800
43744
43764
43812
43796
43798
43774
43791
43840
43783
43812
43845
43769
43752
43769
43799
43844
43806
43814
43814
43786
43806
43765
43758
43833
43793
43768
43767
43755
43786
43754
43731
43771
43716
43695
43681
43641
43662
43638
43613
43646
43598
43592
43603
43597
43629
43578
43538
43583
43539
43517
43506
43478
43497
43456
43437
43501
43484
43497
43511
43492
43518
43492
43473
43499
43443
43462
43478
43418
43435
43461
43479
43516
43467
43445
43417
43388
43425
43403
43393
43420
43342
43370
43433
43380
43359
43368
43391
43413
43357
43388
43421
43394
43408
43385
43379
43424
43374
43380
43403
43387
43422
43406
43381
43412
43384
43412
43422
43373
43381
43372
43390
43444
43392
43398
43419
43402
43464
43472
43418
43427
43435
43487
43488
43466
43513
43475
43441
43508
43491
43484
43469
43432
43468
43477
43494
43530
43449
43441
43501
43525
43533
43469
43459
43530
43505
43539
43565
43508
43526
43532
43497
43526
43560
43614
43574
43504
43538
43534
43537
43573
43489
43498
43570
43562
43557
43545
43578
43642
43593
43602
43623
43593
43614
43599
43582
43624
43586
43562
43539
43524
43556
43508
43493
43546
43473
43451
43465
43431
43458
43469
43447
43433
43359
43371
43401
43394
43417
43383
43375
43413
43338
43337
43371
43329
43317
43297
43306
43372
43349
43346
43337
43321
43365
43345
43339
43394
43337
43320
43341
43332
43346
43310
43311
43376
43336
43349
43399
43391
43372
43321
43347
43411
43320
43303
43335
43297
43313
43337
43345
43358
43310
43329
43338
43322
43373
43355
43314
43324
43275
43307
43349
43321
43337
43339
43364
43415
43351
43342
43356
43341
43393
43407
43407
43443
43406
43430
43455
43438
43475
43462
43450
43506
43475
43466
43470
43462
43477
43424
43442
43556
43513
43461
43477
43522
43590
43572
43572
43618
43544
43545
43597
43588
43599
43597
43641
43732
43718
43739
43744
43696
43725
43735
43731
43750
43685
43685
43716
43718
43733
43682
43679
43744
43689
43689
43728
43709
43718
43703
43708
43766
43741
43748
43738
43688
43694
43669
43670
43702
43637
43670
43709
43635
43616
43621
43616
43626
43582
43597
43588
43549
43581
43540
43483
43508
43487
43515
43522
43487
43536
43537
43500
43525
43510
43522
43481
43417
43465
43481
43472
43494
43434
43435
43446
43423
43471
43483
43478
43501
43440
43441
43463
43451
43467
43402
43354
43424
43440
43459
43450
43411
43415
43375
43396
43489
43441
43427
43460
43456
43483
43479
43486
43512
43430
43421
43457
43455
43476
43447
43438
43482
43433
43445
43466
43432
43457
43469
43479
43505
43451
43489
43543
43523
43537
43518
43504
43544
43509
43511
43507
43481
43517
43509
43518
43577
43518
43502
43525
43519
43533
43495
43499
43578
43554
43563
43577
43551
43583
43592
43602
43636
43589
43632
43685
43657
43665
43653
43643
43664
43617
43650
43673
43623
43637
43628
43611
43652
43629
43636
43645
43654
43695
43637
43605
43660
43620
43639
43667
43612
43615
43624
43614
43610
43545
43559
43562
43517
43546
43537
43524
43575
43547
43533
43498
43455
43503
43496
43465
43483
43431
43440
43453
43406
43399
43368
43372
43418
43344
43321
43344
43338
43343
43280
43246
43301
43278
43297
43321
43299
43308
43276
43270
43301
43233
43259
43324
43309
43318
43305
43312
43376
43360
43368
43373
43363
43390
43357
43360
43398
43299
43309
43406
43414
43403
43366
43364
43424
43405
43409
43394
43366
43410
43395
43385
43435
43395
43411
43436
43405
43422
43399
43375
43428
43426
43440
43426
43403
43456
43450
43445
43483
43403
43380
43413
43418
43442
43423
43434
43479
43409
43421
43476
43461
43466
43450
43467
43545
43533
43542
43536
43514
43574
43574
43550
43595
43586
43619
43649
43649
43673
43607
43562
43625
43621
43651
43661
43615
43644
43649
43632
43659
43631
43661
43705
43724
43755
43713
43723
43788
43698
43670
43729
43730
43711
43648
43623
43645
43574
43581
43608
43573
43585
43572
43557
43578
43524
43532
43545
43525
43565
43555
43536
43564
43517
43530
43540
43493
43497
43462
43428
43465
43452
43486
43480
43415
43432
43421
43390
43408
43366
43371
43372
43349
43379
43359
43358
43406
43349
43364
43409
43387
43399
43388
43373
43377
43300
43301
43317
43289
43324
43333
43346
43395
43351
43363
43383
43356
43381
43372
43385
43473
43466
43457
43441
43427
43465
43423
43400
43467
43440
43444
43462
43446
43476
43462
43459
43523
43502
43500
43483
43451
43501
43503
43496
43540
43506
43520
43532
43514
43571
43596
43598
43612
43557
43611
43666
43626
43647
43655
43625
43629
43615
43674
43685
43634
43663
43678
43704
43748
43674
43683
43733
43711
43709
43681
43684
43748
43718
43713
43714
43709
43760
43746
43743
43810
43785
43801
43824
43790
43786
43758
43764
43805
43733
43731
43754
43712
43715
43693
43664
43672
43619
43632
43637
43600
43617
43575
43536
43582
43583
43625
43604
43523
43577
43614
43560
43531
43509
43550
43536
43497
43543
43512
43465
43504
43466
43448
43448
43457
43524
43522
43523
43572
43514
43514
43544
43515
43517
43499
43509
43555
43484
43467
43520
43568
43600
43539
43551
43655
43605
43573
43598
43603
43632
43607
43599
43660
43638
43646
43660
43656
43694
43673
43680
43745
43688
43678
43711
43714
43752
43728
43698
43736
43703
43701
43714
43733
43789
43746
43722
43793
43763
43753
43763
43749
43778
43767
43784
43852
43798
43772
43783
43786
43818
43788
43801
43892
43857
43838
43856
43878
43947
43927
43891
43944
43938
43944
43937
43935
44001
43987
43972
44021
43984
44006
44034
43997
44023
44038
44043
44073
44032
44050
44054
44013
44051
44044
44020
44068
44053
44056
44059
44062
44094
44031
44011
44081
44018
43986
44000
43981
43998
43986
43986
44010
43947
43971
44006
43950
43934
43932
43965
43999
43904
43893
43931
43921
43941
43899
43848
43874
43856
43865
43836
43790
43843
43829
43780
43818
43815
43827
43814
43796
43847
43822
43802
43857
43815
43797
43771
43715
43754
43783
43779
43773
43702
43728
43743
43683
43711
43736
43729
43747
43726
43774
43784
43725
43728
43715
43728
43775
43718
43748
43800
43766
43777
43775
43753
43762
43724
43749
43758
43739
43793
43775
43731
43758
43730
43748
43767
43756
43788
43778
43804
43868
43806
43813
43835
43771
43772
43788
43784
43790
43756
43800
43793
43735
43812
43861
43827
43834
43833
43877
43880
43868
43915
43875
43857
43940
43898
43849
43851
43882
43940
43896
43873
43938
43905
43912
43949
43949
43973
43938
43919
43967
43936
43949
43970
43949
43962
43936
43956
44035
43987
43974
44000
43991
43988
43929
43920
43980
43933
43932
43926
43852
43866
43894
43900
43902
43827
43821
43819
43794
43848
43844
43816
43846
43802
43788
43766
43732
43786
43790
43764
43772
43707
43721
43752
43718
43718
43689
43678
43711
43644
43630
43649
43625
43607
43568
43614
43676
43553
43526
43590
43558
43530
43512
43521
43559
43514
43519
43528
43522
43554
43508
43499
43593
43578
43565
43570
43566
43588
43539
43526
43598
43575
43588
43610
43579
43587
43575
43582
43610
43545
43572
43595
43529
43555
43593
43575
43571
43546
43583
43586
43574
43631
43614
43610
43676
43632
43630
43654
43631
43643
43620
43616
43678
43655
43658
43672
43682
43736
43692
43650
43708
43690
43688
43698
43714
43779
43741
43693
43752
43745
43739
43733
43744
43811
43775
43735
43791
43778
43795
43803
43772
43804
43789
43756
43774
43734
43758
43787
43774
43805
43777
43762
43817
43781
43775
43781
43770
43809
43790
43793
43878
43846
43794
43757
43744
43776
43724
43708
43771
43711
43684
43675
43628
43659
43656
43606
43615
43617
43645
43593
43521
43581
43589
43551
43575
43543
43552
43566
43563
43588
43538
43520
43560
43487
43497
43542
43509
43531
43540
43505
43506
43482
43497
43480
43469
43528
43489
43459
43523
43493
43490
43478
43411
43422
43423
43417
43466
43464
43499
43501
43469
43496
43468
43466
43549
43525
43515
43541
43571
43622
43580
43556
43602
43552
43561
43585
43552
43592
43615
43601
43611
43567
43574
43576
43581
43654
43647
43635
43674
43621
43644
43682
43640
43647
43651
43657
43689
43637
43632
43634
43624
43677
43663
43650
43706
43662
43646
43675
43712
43763
43723
43724
43803
43757
43752
43782
43770
43808
43825
43832
43852
43797
43828
43855
43805
43815
43811
43807
43839
43774
43747
43763
43802
43866
43815
43792
43872
43846
43841
43844
43814
43857
43845
43785
43792
43778
43789
43752
43711
43750
43705
43659
43700
43653
43637
43635
43610
43638
43615
43589
43613
43555
43549
43547
43508
43540
43536
43521
43547
43486
43466
43456
43451
43534
43535
43473
43466
43427
43461
43509
43511
43511
43449
43456
43518
43428
43419
43488
43467
43431
43398
43422
43468
43401
43414
43458
43448
43473
43439
43395
43440
43445
43460
43444
43428
43476
43438
43412
43475
43444
43449
43466
43421
43406
43392
43437
43504
43441
43452
43475
43406
43402
43417
43417
43441
43424
43476
43503
43471
43472
43435
43463
43554
43495
43478
43524
43531
43544
43509
43507
43563
43524
43536
43558
43528
43527
43490
43493
43562
43535
43545
43538
43478
43509
43531
43535
43578
43562
43583
43582
43559
43613
43623
43632
43665
43590
43604
43657
43628
43624
43617
43629
43656
43585
43598
43662
43679
43691
43649
43665
43729
43661
43667
43712
43670
43663
43650
43629
43627
43556
43548
43551
43537
43566
43522
43500
43543
43481
43477
43510
43489
43491
43441
43397
43427
43405
43430
43444
43417
43432
43386
43357
43399
43349
43345
43368
43369
43415
43390
43354
43392
43370
43380
43370
43336
43378
43372
43360
43403
43357
43348
43352
43343
43391
43366
43330
43379
43372
43397
43417
43421
43468
43423
43382
43442
43433
43442
43462
43478
43523
43467
43413
43446
43411
43434
43468
43455
43491
43479
43452
43484
43470
43510
43518
43469
43494
43503
43516
43549
43488
43508
43549
43533
43571
43578
43562
43580
43552
43600
43620
43577
43621
43647
43645
43659
43598
43608
43621
43607
43678
43678
43610
43619
43634
43693
43701
43685
43753
43760
43762
43816
43768
43772
43798
43779
43817
43840
43865
43905
43838
43824
43825
43791
43826
43836
43842
43868
43804
43826
43871
43841
43845
43839
43859
43901
43831
43831
43861
43834
43826
43771
43744
43794
43765
43770
43762
43713
43727
43698
43674
43722
43693
43684
43678
43669
43706
43640
43571
43610
43599
43614
43596
43542
43584
43586
43545
43570
43580
43635
43628
43560
43571
43561
43562
43601
43536
43537
43561
43531
43552
43550
43554
43596
43561
43589
43624
43618
43657
43640
43627
43672
43649
43695
43719
43664
43686
43699
43684
43697
43671
43720
43742
43706
43736
43730
43726
43773
43729
43732
43757
43761
43801
43762
43733
43800
43801
43818
43788
43713
43745
43762
43753
43792
43758
43740
43739
43762
43798
43701
43651
43736
43726
43740
43759
43717
43733
43733
43717
43746
43751
43827
43850
43790
43807
43837
43882
43899
43790
43816
43889
43847
43849
43864
43866
43913
43924
43947
43908
43870
43924
43906
43906
43990
43952
43926
43934
43921
43931
43908
43943
44015
43940
43926
43953
43924
43960
43982
43966
43965
43914
43924
43923
43901
43934
43897
43870
43905
43836
43821
43828
43775
43770
43757
43760
43788
43733
43755
43762
43688
43697
43702
43678
43681
43634
43643
43645
43629
43651
43591
43554
43596
43540
43544
43567
43524
43536
43547
43550
43566
43514
43542
43540
43459
43469
43477
43461
43485
43461
43482
43480
43455
43500
43490
43487
43537
43474
43457
43481
43477
43500
43477
43485
43540
43486
43495
43532
43521
43557
43548
43516
43526
43488
43512
43504
43458
43524
43538
43482
43503
43523
43555
43520
43494
43571
43563
43541
43606
43581
43570
43563
43541
43593
43597
43585
43615
43562
43555
43561
43548
43601
43619
43638
43677
43610
43624
43647
43595
43626
43654
43639
43649
43621
43639
43635
43626
43679
43661
43680
43774
43730
43715
43755
43763
43781
43750
43747
43779
43706
43716
43754
43729
43761
43775
43773
43807
43775
43774
43763
43765
43853
43839
43782
43806
43779
43792
43799
43769
43771
43706
43675
43743
43711
43680
43672
43673
43711
43656
43613
43655
43614
43621
43645
43621
43636
43604
43574
43601
43544
43526
43539
43546
43568
43506
43489
43545
43478
43472
43508
43481
43490
43489
43489
43501
43439
43460
43468
43406
43420
43440
43447
43445
43370
43422
43478
43426
43439
43465
43460
43463
43421
43461
43485
43464
43501
43480
43460
43505
43467
43473
43484
43471
43535
43551
43540
43573
43546
43574
43579
43533
43569
43577
43575
43625
43604
43616
43624
43610
43645
43612
43593
43638
43587
43603
43648
43633
43645
43630
43636
43677
43620
43622
43634
43602
43632
43627
43621
43688
43682
43690
43703
43728
43780
43712
43673
43748
43713
43693
43711
43731
43797
43783
43753
43806
43800
43814
43818
43806
43836
43792
43779
43851
43812
43806
43843
43852
43865
43816
43821
43896
43853
43847
43845
43781
43787
43794
43792
43811
43746
43730
43725
43698
43691
43603
43570
43648
43627
43629
43624
43563
43566
43556
43545
43572
43534
43550
43525
43449
43493
43519
43478
43468
43424
43419
43390
43362
43401
43369
43356
43408
43349
43360
43404
43356
43320
43281
43286
43349
43320
43314
43288
43246
43299
43298
43262
43287
43260
43268
43270
43266
43317
43298
43293
43341
43272
43261
43295
43285
43302
43280
43275
43327
43302
43321
43316
43266
43308
43324
43305
43320
43292
43335
43342
43280
43295
43293
43297
43367
43367
43388
43376
43329
43349
43329
43325
43381
43341
43346
43372
43366
43401
43392
43394
43433
43354
43321
43345
43369
43416
43364
43315
43365
43351
43369
43392
43387
43404
43350
43333
43407
43390
43403
43415
43380
43406
43414
43419
43432
43375
43435
43479
43398
43394
43429
43429
43417
43377
43440
43458
43393
43415
43432
43443
43476
43428
43454
43481
43441
43445
43428
43431
43478
43425
43423
43446
43437
43457
43401
43350
43385
43351
43344
43322
43286
43346
43348
43309
43341
43313
43275
43229
43231
43296
43249
43207
43236
43156
43160
43212
43163
43122
43100
43137
43208
43157
43131
43123
43116
43163
43123
43074
43122
43108
43105
43078
43049
43117
43121
43084
43108
43079
43081
43070
43049
43095
43057
43004
43041
43030
43052
43046
43001
43046
43079
43109
43154
43088
43081
43110
43107
43135
43122
43135
43185
43134
43173
43230
43189
43181
43169
43162
43198
43182
43218
43222
43189
43251
43281
43285
43311
43261
43302
43372
43375
43383
43328
43306
43385
43384
43378
43354
43330
43385
43384
43386
43439
43402
43434
43488
43478
43499
43486
43485
43537
43518
43549
43566
43533
43567
43564
43557
43611
43595
43611
43618
43599
43629
43590
43564
43625
43606
43621
43638
43613
43633
43615
43621
43677
43615
43588
43616
43641
43673
43618
43600
43655
43605
43613
43623
43550
43550
43569
43568
43569
43511
43526
43517
43461
43486
43478
43462
43494
43445
43437
43425
43390
43432
43437
43427
43438
43359
43363
43381
43337
43362
43367
43354
43404
43397
43396
43381
43393
43451
43397
43371
43443
43405
43404
43415
43357
43355
43362
43367
43381
43337
43401
43448
43399
43417
43424
43403
43419
43391
43416
43422
43400
43434
43404
43392
43451
43403
43396
43425
43416
43426
43405
43438
43512
43460
43479
43529
43492
43491
43504
43553
43620
43570
43561
43571
43569
43623
43605
43573
43610
43585
43605
43622
43605
43639
43619
43591
43587
43515
43568
43629
43567
43560
43590
43612
43634
43612
43680
43691
43603
43611
43636
43646
43668
43637
43706
43758
43711
43709
43700
43710
43748
43691
43706
43731
43691
43705
43714
43740
43781
43719
43742
43800
43791
43798
43765
43767
43841
43809
43781
43755
43734
43781
43758
43731
43775
43738
43739
43747
43717
43728
43690
43662
43689
43621
43607
43622
43596
43588
43526
43507
43558
43498
43480
43507
43507
43522
43476
43467
43527
43481
43482
43511
43498
43518
43507
43524
43574
43501
43468
43453
43410
43447
43466
43464
43464
43388
43413
43446
43402
43418
43440
43457
43464
43378
43396
43427
43378
43388
43387
43381
43428
43427
43462
43445
43382
43410
43407
43411
43486
43473
43472
43476
43479
43526
43498
43492
43553
43493
43468
43485
43474
43488
43450
43446
43519
43500
43511
43520
43490
43504
43475
43483
43582
43582
43570
43535
43492
43526
43507
43494
43547
43508
43496
43481
43454
43519
43529
43499
43535
43529
43551
43543
43524
43580
43566
43561
43648
43649
43653
43638
43608
43664
43660
43628
43678
43671
43659
43635
43637
43679
43603
43563
43654
43645
43637
43630
43594
43626
43636
43642
43671
43616
43628
43625
43543
43525
43531
43562
43588
43495
43495
43537
43510
43506
43467
43441
43484
43460
43460
43433
43386
43424
43408
43372
43389
43342
43356
43370
43332
43348
43336
43336
43370
43311
43328
43368
43343
43345
43312
43296
43340
43308
43329
43345
43295
43269
43216
43227
43308
43274
43277
43284
43237
43260
43267
43261
43293
43275
43315
43323
43280
43320
43324
43313
43355
43326
43331
43330
43307
43331
43294
43288
43366
43347
43363
43393
43382
43404
43381
43374
43425
43394
43414
43429
43384
43397
43398
43416
43459
43404
43418
43446
43429
43475
43467
43423
43447
43433
43445
43443
43458
43519
43453
43391
43452
43438
43434
43428
43402
43442
43436
43428
43484
43484
43542
43560
43491
43495
43504
43523
43589
43561
43545
43551
43588
43657
43610
43585
43638
43562
43538
43597
43634
43669
43628
43607
43660
43621
43615
43644
43668
43703
43635
43595
43662
43643
43639
43617
43551
43561
43556
43547
43568
43509
43510
43493
43429
43462
43475
43454
43465
43410
43389
43369
43360
43416
43365
43299
43346
43333
43327
43314
43296
43328
43305
43319
43398
43348
43333
43347
43318
43331
43302
43272
43312
43297
43316
43320
43301
43322
43262
43236
43321
43306
43285
43279
43289
43352
43324
43297
43363
43340
43318
43307
43312
43368
43331
43301
43370
43352
43340
43335
43323
43358
43335
43350
43437
43399
43385
43402
43400
43439
43420
43412
43478
43454
43437
43417
43403
43462
43448
43429
43487
43465
43470
43490
43492
43521
43482
43480
43551
43509
43513
43542
43523
43554
43551
43547
43616
43606
43581
43554
43579
43665
43622
43582
43640
43596
43593
43643
43659
43682
43655
43669
43743
43718
43752
43790
43747
43745
43739
43743
43760
43697
43729
43760
43711
43736
43765
43785
43827
43807
43848
43848
43782
43808
43807
43769
43762
43698
43698
43716
43714
43738
43674
43628
43666
43614
43614
43646
43630
43634
43608
43612
43635
43553
43576
43632
43581
43559
43567
43601
43618
43541
43579
43607
43507
43470
43486
43516
43538
43464
43465
43486
43470
43487
43449
43443
43510
43468
43452
43450
43437
43505
43514
43468
43456
43408
43432
43425
43370
43416
43422
43380
43406
43406
43431
43417
43407
43481
43468
43438
43486
43457
43472
43501
43483
43494
43478
43504
43559
43479
43466
43506
43502
43532
43514
43487
43524
43503
43505
43493
43478
43511
43470
43475
43571
43540
43524
43536
43528
43579
43586
43577
43603
43558
43575
43589
43563
43604
43605
43601
43646
43600
43581
43584
43593
43643
43604
43584
43655
43634
43643
43653
43625
43667
43693
43717
43768
43727
43738
43757
43731
43741
43708
43706
43751
43678
43663
43692
43685
43716
43695
43672
43708
43680
43702
43724
43701
43702
43659
43679
43775
43727
43679
43648
43612
43657
43657
43624
43642
43612
43623
43594
43537
43583
43576
43525
43558
43556
43561
43537
43519
43548
43481
43453
43528
43477
43447
43466
43457
43468
43441
43453
43502
43428
43415
43443
43428
43451
43425
43394
43436
43416
43415
43410
43416
43471
43426
43398
43468
43442
43433
43431
43405
43449
43450
43428
43451
43407
43414
43431
43428
43466
43441
43437
43490
43447
43477
43518
43478
43494
43508
43508
43533
43498
43514
43504
43462
43498
43487
43478
43535
43518
43547
43573
43543
43549
43522
43532
43598
43562
43583
43615
43590
43621
43629
43625
43649
43594
43591
43593
43582
43642
43647
43643
43678
43642
43692
43722
43656
43688
43738
43732
43727
43690
43721
43722
43705
43766
43754
43726
43764
43738
43790
43838
43788
43774
43753
43756
43805
43774
43791
43802
43773
43793
43769
43776
43861
43851
43854
43823
43746
43766
43777
43772
43796
43744
43733
43714
43687
43751
43726
43635
43631
43619
43644
43642
43639
43700
43671
43638
43678
43614
43591
43614
43615
43629
43590
43589
43620
43527
43525
43569
43524
43509
43505
43510
43520
43452
43473
43503
43477
43507
43486
43441
43454
43432
43478
43491
43437
43450
43443
43451
43503
43461
43462
43451
43411
43482
43505
43447
43433
43418
43458
43455
43435
43494
43475
43446
43499
43468
43464
43477
43480
43527
43500
43476
43527
43510
43543
43557
43506
43535
43557
43575
43637
43616
43605
43585
43577
43636
43613
43592
43638
43603
43642
43680
43637
43673
43706
43677
43652
43629
43724
43762
43686
43678
43687
43717
43755
43679
43683
43714
43691
43728
43732
43717
43755
43740
43766
43782
43782
43830
43792
43768
43834
43806
43803
43820
43815
43852
43836
43836
43886
43825
43807
43828
43822
43838
43806
43827
43915
43890
43908
43923
43865
43878
43902
43915
43918
43837
43852
43884
43854
43859
43826
43816
43871
43837
43824
43788
43725
43762
43761
43725
43743
43718
43739
43729
43688
43727
43702
43653
43678
43644
43632
43607
43582
43638
43637
43635
43688
43646
43652
43671
43642
43670
43680
43692
43724
43658
43665
43696
43666
43656
43625
43648
43707
43640
43647
43679
43635
43650
43659
43656
43701
43680
43671
43665
43679
43707
43634
43655
43771
43698
43654
43696
43677
43645
43611
43638
43688
43631
43667
43709
43666
43700
43713
43670
43699
43737
43767
43699
43655
43737
43729
43703
43764
43733
43731
43754
43739
43749
43728
43753
43807
43725
43718
43755
43732
43765
43785
43789
43828
43806
43815
43798
43777
43831
43807
43786
43848
43826
43839
43856
43839
43885
43891
43899
43965
43945
43939
43921
43891
43929
43913
43902
43943
43886
43886
43911
43903
43950
43931
43877
43911
43934
43979
43956
43900
43936
43935
43935
43952
43851
43839
43876
43847
43858
43853
43831
43824
43764
43798
43809
43742
43763
43777
43753
43742
43673
43682
43691
43654
43669
43639
43626
43672
43613
43598
43612
43596
43616
43579
43551
43585
43541
43556
43589
43570
43576
43549
43571
43635
43552
43507
43527
43533
43562
43533
43539
43615
43593
43612
43634
43596
43591
43578
43617
43678
43604
43610
43661
43645
43664
43663
43661
43690
43648
43666
43673
43659
43740
43750
43692
43700
43698
43743
43749
43729
43777
43747
43714
43763
43742
43767
43795
43770
43786
43765
43764
43829
43810
43831
43857
43843
43865
43840
43845
43907
43854
43837
43848
43831
43857
43836
43829
43877
43828
43816
43814
43806
43886
43903
43868
43887
43876
43914
43910
43860
43885
43877
43883
43952
43925
43926
43925
43886
43903
43882
43878
43929
43901
43926
43927
43863
43896
43922
43904
43903
43843
43835
43834
43828
43862
43819
43813
43874
43798
43771
43807
43798
43792
43755
43758
43789
43709
43716
43745
43687
43683
43684
43677
43690
43639
43649
43654
43629
43663
43649
43643
43674
43601
43610
43651
43615
43614
43613
43631
43668
43611
43631
43662
43635
43658
43648
43644
43697
43661
43648
43647
43654
43713
43673
43633
43698
43691
43698
43698
43671
43694
43674
43685
43745
43695
43706
43732
43691
43711
43719
43716
43763
43757
43774
43754
43717
43750
43732
43738
43789
43711
43704
43753
43747
43774
43793
43822
43852
43793
43839
43888
43833
43842
43866
43873
43883
43839
43882
43897
43835
43842
43855
43889
43934
43875
43914
43962
43905
43904
43920
43936
43968
43926
43937
43939
43919
43973
43973
43967
44005
43946
43949
44003
44023
44041
43992
43995
44067
44001
43969
44000
44012
44028
43996
44027
44106
44047
44048
44081
44047
44071
44101
44121
44144
44079
44064
44052
44027
44066
44048
44037
44069
43986
43958
43970
43952
43973
43945
43912
43921
43864
43890
43912
43850
43847
43856
43883
43918
43849
43854
43861
43800
43806
43796
43768
43774
43720
43727
43750
43753
43779
43710
43668
43728
43697
43695
43697
43665
43711
43715
43680
43686
43647
43663
43661
43625
43652
43637
43645
43716
43683
43692
43718
43701
43724
43700
43682
43727
43697
43710
43728
43721
43762
43752
43753
43784
43722
43760
43796
43716
43715
43757
43769
43771
43739
43798
43818
43774
43816
43821
43801
43836
43823
43867
43895
43875
43904
43881
43860
43888
43833
43850
43871
43834
43881
43904
43881
43903
43884
43889
43873
43867
43916
43869
43864
43963
43917
43861
43861
43888
43950
43921
43900
43961
43938
43942
43935
43900
43950
43958
43930
43951
43922
43935
43934
43911
43944
43919
43921
43988
43930
43909
43932
43938
43982
43957
43927
43972
43945
43937
43919
43895
43945
43924
43897
43936
43878
43847
43853
43862
43892
43834
43808
43862
43804
43783
43778
43737
43774
43782
43741
43730
43693
43737
43754
43723
43772
43771
43750
43791
43780
43814
43811
43747
43761
43757
43747
43765
43695
43694
43724
43710
43715
43682
43697
43753
43667
43644
43695
43713
43739
43717
43724
43770
43696
43687
43750
43772
43748
43656
43678
43793
43744
43716
43720
43672
43692
43712
43713
43741
43717
43746
43749
43727
43775
43755
43730
43782
43745
43730
43745
43752
43753
43677
43691
43791
43737
43730
43763
43723
43743
43763
43744
43744
43717
43751
43740
43703
43767
43775
43758
43808
43793
43817
43840
43813
43801
43757
43802
43918
43870
43845
43867
43856
43883
43874
43869
43917
43915
43972
43973
43899
43938
43966
43935
43929
43911
43968
43966
43891
43906
43919
43951
44025
43975
43944
43937
43934
43990
43966
43931
43968
43919
43892
43886
43883
43911
43855
43824
43868
43804
43788
43798
43762
43777
43756
43721
43741
43714
43739
43739
43696
43709
43659
43619
43674
43649
43625
43597
43574
43617
43593
43585
43647
43598
43583
43601
43578
43561
43505
43521
43611
43572
43567
43587
43551
43550
43548
43575
43594
43495
43518
43585
43543
43520
43495
43476
43499
43489
43557
43569
43507
43557
43596
43586
43601
43567
43579
43572
43554
43611
43598
43578
43620
43570
43569
43584
43561
43593
43583
43565
43600
43564
43577
43602
43605
43646
43617
43605
43659
43605
43592
43610
43600
43633
43625
43629
43673
43613
43615
43653
43650
43665
43627
43631
43713
43689
43691
43714
43717
43747
43704
43686
43747
43724
43749
43785
43771
43793
43768
43766
43845
43849
43862
43829
43775
43850
43876
43822
43819
43803
43824
43805
43773
43806
43776
43782
43854
43800
43805
43854
43836
43850
43855
43866
43885
43813
43825
43847
43809
43832
43816
43774
43775
43727
43739
43750
43729
43745
43678
43630
43689
43670
43658
43639
43600
43615
43579
43567
43614
43558
43549
43557
43520
43542
43536
43524
43546
43508
43546
43566
43511
43521
43517
43505
43514
43445
43451
43471
43451
43497
43494
43473
43512
43488
43499
43505
43492
43521
43491
43495
43557
43506
43526
43566
43517
43516
43519
43515
43535
43495
43516
43528
43510
43544
43530
43550
43623
43573
43575
43608
43584
43602
43595
43582
43599
43564
43614
43630
43566
43600
43639
43637
43641
43593
43623
43645
43617
43633
43613
43631
43694
43615
43586
43630
43654
43680
43645
43644
43689
43639
43682
43725
43663
43680
43711
43688
43690
43687
43739
43732
43708
43772
43753
43725
43789
43783
43811
43822
43777
43788
43768
43757
43813
43790
43786
43776
43767
43827
43803
43756
43780
43749
43780
43811
43785
43796
43775
43779
43835
43781
43759
43745
43694
43702
43686
43683
43705
43626
43627
43648
43612
43640
43636
43600
43603
43569
43592
43573
43510
43533
43510
43475
43519
43511
43528
43508
43460
43508
43522
43518
43550
43492
43485
43506
43510
43550
43504
43461
43516
43498
43489
43481
43472
43505
43466
43460
43524
43468
43466
43515
43519
43538
43510
43504
43560
43529
43540
43555
43544
43583
43555
43533
43602
43589
43568
43536
43531
43611
43590
43541
43601
43603
43594
43567
43562
43628
43610
43590
43636
43596
43627
43674
43644
43663
43671
43668
43692
43667
43725
43762
43724
43740
43732
43740
43802
43782
43806
43808
43755
43779
43781
43774
43812
43785
43813
43831
43808
43852
43841
43825
43889
43872
43851
43836
43851
43919
43913
43953
44040
43955
43924
43982
43985
43971
43924
43924
43972
43927
43948
43973
43920
43911
43920
43963
43980
43877
43919
43992
43928
43923
43953
43939
43924
43889
43926
43923
43886
43907
43855
43824
43872
43818
43822
43851
43806
43785
43753
43753
43778
43710
43735
43784
43744
43723
43690
43699
43756
43705
43691
43693
43679
43726
43712
43685
43710
43663
43675
43688
43656
43690
43693
43690
43721
43677
43701
43711
43645
43652
43664
43677
43700
43642
43673
43712
43679
43696
43702
43712
43731
43663
43698
43744
43687
43667
43666
43708
43775
43714
43681
43682
43695
43760
43745
43728
43769
43724
43745
43774
43736
43747
43739
43727
43745
43707
43756
43778
43709
43713
43719
43722
43776
43769
43790
43787
43776
43841
43821
43770
43786
43737
43749
43789
43796
43823
43790
43791
43849
43785
43774
43810
43803
43818
43804
43820
43856
43781
43802
43866
43851
43861
43859
43872
43906
43860
43901
43931
43890
43940
43970
43944
43949
43925
43938
43906
43868
43926
43920
43904
43952
43913
43928
43958
43940
43971
43951
43908
43923
43892
43909
43901
43849
43853
43805
43774
43819
43776
43763
43759
43718
43710
43670
43681
43738
43662
43646
43675
43646
43644
43625
43628
43669
43618
43626
43644
43616
43629
43600
43591
43647
43613
43610
43599
43560
43602
43606
43589
43616
43578
43589
43597
43574
43608
43590
43577
43608
43543
43543
43555
43496
43491
43497
43536
43605
43557
43547
43560
43551
43569
43531
43533
43593
43530
43519
43547
43527
43546
43545
43560
43602
43553
43581
43620
43591
43603
43597
43601
43617
43531
43537
43594
43606
43645
43628
43608
43647
43621
43651
43665
43628
43658
43655
43649
43687
43643
43653
43685
43691
43721
43674
43655
43727
43707
43709
43702
43661
43704
43713
43704
43754
43744
43756
43748
43729
43770
43747
43747
43819
43782
43782
43806
43792
43817
43802
43789
43812
43763
43799
43838
43795
43804
43807
43813
43834
43779
43822
43878
43838
43808
43771
43796
43851
43771
43755
43756
43699
43740
43778
43764
43785
43770
43760
43700
43658
43691
43638
43618
43674
43593
43562
43583
43551
43567
43570
43551
43556
43513
43540
43536
43479
43501
43492
43485
43548
43537
43539
43507
43454
43494
43497
43490
43532
43481
43469
43491
43501
43529
43484
43480
43537
43470
43472
43519
43487
43480
43477
43509
43566
43515
43513
43522
43495
43526
43521
43524
43562
43504
43513
43542
43522
43547
43534
43528
43587
43567
43557
43517
43464
43507
43510
43500
43542
43514
43539
43551
43509
43538
43542
43535
43565
43530
43561
43592
43568
43586
43563
43567
43646
43629
43632
43643
43629
43650
43634
43667
43712
43611
43624
43703
43671
43656
43683
43736
43762
43689
43724
43766
43723
43744
43751
43740
43773
43756
43780
43781
43763
43811
43789
43779
43841
43794
43773
43779
43767
43802
43770
43743
43811
43824
43853
43843
43801
43839
43842
43847
43895
43838
43824
43839
43830
43854
43828
43823
43851
43753
43714
43721
43690
43701
43678
43667
43710
43671
43667
43675
43671
43710
43679
43667
43708
43645
43649
43661
43592
43594
43614
43608
43598
43545
43608
43653
43598
43594
43586
43587
43613
43547
43550
43564
43532
43559
43544
43507
43507
43461
43511
43557
43522
43535
43506
43460
43480
43461
43487
43489
43463
43504
43496
43507
43576
43512
43457
43456
43477
43518
43475
43471
43525
43453
43455
43503
43474
43479
43482
43486
43506
43459
43484
43501
43472
43504
43494
43482
43513
43465
43491
43538
43540
43589
43585
43566
43599
43564
43574
43589
43579
43602
43568
43575
43637
43572
43570
43616
43590
43571
43541
43566
43640
43587
43558
43564
43575
43639
43629
43612
43655
43617
43628
43642
43603
43611
43607
43636
43688
43616
43617
43659
43642
43648
43623
43622
43671
43630
43632
43629
43588
43628
43642
43644
43684
43641
43639
43632
43590
43608
43599
43609
43638
43521
43464
43497
43512
43505
43428
43425
43496
43427
43401
43413
43378
43398
43382
43337
43349
43324
43325
43300
43287
43347
43322
43302
43342
43280
43297
43337
43295
43308
43310
43271
43258
43213
43232
43236
43218
43248
43210
43204
43269
43216
43215
43246
43219
43232
43229
43241
43288
43238
43222
43201
43163
43209
43207
43195
43257
43248
43249
43237
43231
43299
43293
43280
43330
43292
43300
43317
43286
43307
43318
43351
43400
43328
43321
43354
43342
43363
43361
43380
43415
43346
43376
43424
43369
43361
43380
43411
43438
43374
43395
43425
43393
43417
43426
43447
43496
43454
43485
43527
43496
43497
43475
43477
43514
43456
43486
43560
43577
43603
43564
43536
43591
43582
43614
43656
43671
43704
43671
43683
43748
43693
43727
43798
43779
43808
43833
43819
43814
43770
43797
43799
43764
43793
43761
43749
43826
43813
43819
43825
43807
43848
43835
43814
43830
43757
43754
43777
43754
43772
43746
43733
43797
43778
43769
43760
43751
43788
43745
43732
43806
43759
43728
43732
43728
43761
43728
43703
43742
43684
43657
43658
43655
43691
43655
43640
43693
43648
43649
43660
43618
43632
43632
43637
43666
43599
43592
43601
43583
43629
43619
43582
43591
43551
43596
43636
43606
43621
43610
43612
43656
43622
43660
43699
43672
43702
43706
43701
43739
43699
43702
43718
43733
43796
43763
43726
43776
43745
43738
43749
43746
43778
43764
43796
43870
43804
43803
43851
43834
43850
43862
43876
43873
43776
43805
43873
43866
43904
43895
43845
43856
43859
43905
43884
43837
43898
43895
43853
43890
43897
43958
43979
43931
43944
43923
43913
43979
43966
43967
43971
43976
44024
43993
43996
44081
44034
44006
44037
44072
44122
44079
44060
44142
44144
44158
44159
44126
44138
44095
44079
44148
44124
44117
44124
44122
44163
44143
44138
44169
44100
44139
44212
44167
44124
44087
44083
44108
44053
44080
44111
44072
44075
44041
44022
44076
44045
44027
44011
43992
44014
43963
43955
44021
43964
43958
43991
43959
43948
43922
43922
43950
43879
43883
43901
43855
43860
43857
43879
43938
43889
43884
43901
43894
43925
43897
43893
43955
43920
43928
43939
43894
43900
43889
43897
43946
43912
43945
43970
43923
43943
43954
43963
44008
43978
43996
44003
43959
43954
43927
43965
44049
43978
43951
43982
43979
44002
43989
43999
44055
44006
43995
44006
43995
44027
44005
44012
44078
44032
44023
44034
44015
44048
44042
44052
44134
44141
44171
44177
44136
44141
44114
44137
44217
44164
44153
44186
44175
44180
44152
44167
44217
44142
44139
44196
44196
44191
44160
44195
44259
44181
44175
44193
44133
44168
44239
44267
44258
44196
44244
44280
44244
44266
44261
44263
44303
44245
44243
44266
44256
44287
44270
44269
44318
44270
44286
44326
44304
44303
44274
44290
44348
44279
44260
44282
44259
44252
44207
44209
44268
44201
44176
44207
44206
44189
44107
44105
44183
44135
44138
44149
44078
44083
44105
44091
44075
44018
44051
44071
44040
44065
44032
44007
44051
44011
44015
44020
43992
44037
44031
43992
44006
43968
43975
43974
43958
44009
43992
43972
44023
43992
43994
43986
43939
43965
43963
43957
43995
43960
43986
44006
43971
43998
43990
43979
44023
44003
44034
44043
43991
43996
43980
43986
44027
43975
44003
44037
43993
44025
44054
44055
44082
44062
44086
44071
44029
44076
44065
44040
44088
44071
44087
44083
44049
44101
44115
44106
44132
44087
44105
44113
44075
44122
44131
44094
44100
44083
44140
44150
44090
44114
44114
44110
44175
44176
44192
44178
44148
44188
44181
44193
44238
44153
44145
44202
44208
44230
44201
44182
44237
44226
44232
44219
44195
44227
44193
44179
44236
44183
44174
44207
44207
44232
44220
44226
44240
44147
44177
44248
44203
44180
44162
44146
44151
44109
44147
44149
44077
44082
44081
44086
44115
44056
44071
44082
44015
44022
44034
44042
44069
44017
44027
44029
43978
43989
43966
43946
43972
43908
43895
43901
43883
43920
43900
43878
43918
43872
43855
43845
43827
43879
43864
43827
43846
43804
43829
43855
43823
43839
43833
43855
43939
43916
43902
43884
43853
43885
43864
43857
43910
43869
43881
43913
43890
43903
43897
43919
43961
43880
43869
43895
43867
43876
43855
43842
43870
43828
43865
43904
43875
43889
43865
43845
43890
43877
43915
43930
43890
43909
43889
43875
43914
43859
43847
43863
43877
43950
43929
43875
43916
43913
43927
43931
43929
43955
43896
43892
43985
43950
43943
43964
43942
43974
43980
43960
43957
43910
43965
43994
43942
43987
44025
44018
44039
44020
44048
44051
44031
44063
44012
43985
44051
44002
43969
43990
44026
44092
44047
44004
44069
44065
44063
44044
44020
44070
44042
43994
44024
43989
43989
44001
44000
44028
43968
43920
43958
43911
43912
43935
43906
43892
43841
43835
43876
43809
43817
43836
43769
43767
43775
43771
43789
43751
43763
43746
43712
43772
43763
43715
43743
43729
43740
43695
43618
43658
43667
43638
43655
43622
43643
43652
43626
43656
43628
43614
43688
43687
43700
43672
43605
43645
43664
43646
43673
43658
43685
43671
43630
43686
43691
43675
43720
43696
43699
43679
43645
43714
43716
43660
43690
43704
43730
43709
43683
43724
43686
43675
43746
43701
43701
43748
43749
43763
43743
43756
43804
43737
43743
43821
43876
43927
43884
43849
43881
43831
43847
43873
43845
43880
43890
43893
43946
43927
43936
43943
43941
43980
43938
43934
44025
43998
43983
43995
43993
44037
44016
43990
44033
44003
44008
44025
44028
44065
44032
44032
44090
44020
44006
44046
44061
44124
44119
44081
44138
44171
44189
44138
44104
44175
44160
44118
44133
44064
44070
44108
44075
44060
44026
44021
44048
43973
43972
43998
43968
43989
43989
43983
43991
43907
43899
43913
43876
43878
43863
43892
43956
43884
43857
43866
43850
43891
43874
43828
43849
43822
43820
43809
43805
43846
43789
43763
43841
43811
43800
43801
43768
43796
43796
43792
43833
43790
43791
43818
43844
43899
43852
43815
43869
43826
43811
43833
43842
43860
43819
43835
43895
43808
43799
43851
43833
43854
43854
43827
43834
43806
43836
43849
43856
43934
43920
43892
43954
43938
43936
43941
43927
43940
43891
43899
43980
43925
43910
43949
43943
43948
43913
43921
44007
43990
43983
43987
43985
44022
43985
43967
44005
43943
43978
44073
44082
44069
44002
43975
44044
44043
44061
44083
44093
44122
44073
44075
44136
44064
44077
44140
44111
44119
44123
44098
44098
44060
44079
44084
44076
44104
44051
44052
44144
44094
44072
44096
44091
44128
44098
44046
44090
44101
44098
44044
44003
44028
43967
43954
44049
43990
43909
43898
43927
43975
43920
43888
43941
43900
43908
43922
43862
43847
43814
43793
43833
43807
43807
43793
43782
43845
43815
43751
43763
43742
43803
43842
43789
43794
43790
43773
43768
43690
43711
43759
43744
43745
43696
43685
43766
43752
43745
43755
43769
43814
43765
43750
43835
43819
43820
43822
43781
43802
43801
43809
43855
43803
43797
43820
43821
43833
43779
43795
43901
43868
43848
43858
43838
43865
43866
43886
43943
43898
43906
43936
43923
43936
43904
43911
43975
43939
43964
43979
43921
43964
44011
43996
43993
43963
43991
43994
43974
43989
43930
43936
44038
43998
43985
44015
44001
44019
44005
43998
44038
44001
44007
44016
44009
44061
44054
44045
44073
44019
44065
44110
44047
44058
44097
44108
44113
44065
44094
44107
44073
44087
44057
44056
44103
44038
44044
44081
44042
44044
44046
44063
44100
44046
44057
44063
44005
44007
43998
44009
44046
43973
43962
43974
43937
43937
43907
43909
43965
43919
43924
43949
43926
43933
43895
43877
43912
43852
43840
43825
43764
43790
43806
43803
43817
43751
43750
43772
43768
43794
43756
43753
43815
43756
43749
43801
43816
43829
43765
43737
43815
43812
43812
43808
43805
43863
43840
43805
43838
43801
43825
43859
43837
43855
43839
43831
43863
43816
43851
43899
43876
43888
43866
43854
43894
43854
43868
43892
43875
43887
43850
43853
43921
43881
43897
43930
43896
43900
43883
43868
43884
43841
43888
43925
43892
43942
43969
43948
43945
43917
43985
44017
43970
44009
44031
44027
44052
44014
44042
44065
44039
44060
44046
44065
44143
44104
44106
44152
44163
44175
44121
44122
44213
44196
44210
44242
44237
44278
44274
44265
44290
44237
44261
44288
44255
44290
44313
44327
44363
44310
44312
44315
44279
44304
44295
44310
44385
44348
44330
44319
44287
44302
44248
44209
44263
44243
44237
44215
44167
44190
44176
44174
44223
44167
44154
44166
44139
44143
44104
44094
44123
44040
44041
44092
44089
44115
44088
44052
44085
44052
44025
43990
43990
44067
44042
44014
44079
44052
44048
44070
44065
44076
44027
44027
44102
44055
44032
44025
43987
44030
44058
44065
44070
43989
43996
44022
43994
44025
44027
44031
44081
44037
44026
44046
44070
44115
44062
44047
44134
44096
44064
44072
44087
44153
44144
44115
44134
44093
44139
44178
44107
44065
44057
44122
44201
44146
44174
44224
44179
44179
44181
44186
44224
44193
44199
44180
44139
44179
44165
44152
44206
44160
44141
44154
44175
44244
44213
44167
44205
44183
44206
44232
44227
44272
44250
44229
44298
44294
44295
44292
44302
44371
44339
44288
44310
44268
44293
44322
44281
44290
44286
44299
44367
44336
44316
44303
44307
44364
44314
44253
44267
44219
44254
44287
44223
44218
44219
44208
44212
44154
44158
44133
44063
44088
44089
44073
44092
44046
44082
44111
44070
44089
44068
44024
44047
44035
44052
44015
43943
43967
43962
43963
44004
43938
43927
43946
43923
43938
43921
43929
43981
43927
43927
43948
43917
43918
43879
43870
43927
43892
43896
43921
43919
43936
43885
43869
43923
43865
43857
43884
43874
43903
43891
43877
43899
43853
43890
43920
43875
43905
43919
43896
43889
43834
43867
43900
43883
43909
43877
43851
43895
43861
43873
43896
43888
43926
43918
43921
43949
43873
43893
43952
43937
43958
43938
43891
43907
43900
43930
43905
43863
43931
43946
43935
43982
43949
43950
43963
43960
43994
43938
43896
43972
43988
44013
44028
44030
44076
44050
44047
44106
44047
44028
44034
44003
44036
44037
44016
44035
43987
43986
44010
44039
44089
44026
43992
44068
44040
44027
44028
43999
44018
43999
43984
44000
43936
43966
44000
43931
43900
43879
43882
43907
43843
43849
43855
43800
43809
43802
43806
43862
43822
43802
43791
43768
43774
43728
43746
43813
43713
43671
43715
43716
43731
43709
43691
43714
43666
43681
43694
43663
43691
43684
43683
43722
43668
43678
43709
43693
43715
43711
43723
43739
43641
43656
43724
43693
43673
43654
43671
43712
43648
43644
43653
43624
43654
43645
43637
43683
43638
43625
43636
43643
43681
43648
43658
43731
43653
43611
43651
43687
43725
43695
43693
43736
43676
43706
43760
43721
43722
43724
43719
43727
43679
43723
43754
43716
43747
43748
43737
43778
43740
43723
43718
43724
43774
43735
43727
43809
43786
43806
43837
43796
43801
43806
43834
43895
43867
43886
43900
43876
43905
43882
43869
43929
43904
43901
43894
43873
43922
43917
43911
43967
43950
43980
43992
43942
43954
43940
43933
43992
43961
43929
43897
43884
43927
43870
43826
43884
43851
43838
43837
43802
43803
43763
43758
43813
43754
43732
43730
43700
43727
43697
43649
43664
43627
43639
43651
43645
43681
43632
43593
43645
43621
43629
43635
43592
43589
43558
43574
43648
43603
43588
43580
43536
43573
43584
43561
43566
43510
43514
43517
43497
43536
43515
43507
43572
43534
43516
43523
43519
43543
43494
43488
43583
43568
43555
43550
43532
43565
43540
43531
43598
43577
43574
43566
43542
43579
43556
43532
43579
43554
43564
43558
43512
43541
43555
43566
43586
43506
43523
43587
43577
43569
43545
43585
43663
43606
43607
43632
43590
43584
43565
43566
43615
43592
43613
43604
43550
43596
43619
43599
43588
43523
43561
43600
43562
43575
43572
43577
43619
43584
43625
43673
43659
43687
43681
43676
43702
43640
43648
43667
43633
43649
43637
43635
43682
