26402
26440
26464
26455
26479
26473
26487
26503
26525
26552
26585
26630
26633
26672
26710
26741
26741
26812
26850
26928
26970
27036
27109
27131
27267
27344
27411
27535
27592
27689
27795
27872
27969
28063
28091
28193
28288
28264
28326
28362
28368
28389
28421
28372
28364
28367
28345
28347
28315
28322
28325
28274
28234
28244
28224
28206
28216
28191
28173
28130
28134
28111
28080
28079
28087
28038
28017
28032
28032
27959
27955
27954
27917
27924
27883
27885
27851
27848
27824
27803
27790
27784
27761
27755
27723
27687
27671
27647
27634
27599
27603
27586
27556
27535
27493
27473
27449
27443
27428
27403
27374
27336
27317
27296
27273
27271
27250
27251
27211
27170
27163
27166
27148
27074
27042
27035
27032
27016
26990
26960
26961
26908
26914
26863
26858
26815
26814
26791
26811
26806
26776
26730
26690
26681
26673
26646
26589
26585
26550
26510
26485
26424
26413
26369
26316
26285
26230
26226
26222
26179
26136
26162
26159
26180
26166
26169
26206
26212
26245
26207
26251
26263
26299
26326
26363
26386
26392
26426
26471
26528
26548
26575
26663
26713
26759
26829
26893
26998
27044
27132
27231
27321
27408
27530
27609
27727
27808
27890
27959
28038
28079
28120
28170
28210
28209
28208
28201
28175
28183
28148
28166
28157
28131
28113
28083
28041
28043
28056
27998
28011
27972
27954
27935
27892
27891
27895
27864
27865
27870
27815
27825
27790
27748
27758
27750
27726
27703
27678
27681
27672
27636
27632
27598
27573
27553
27542
27525
27521
27481
27487
27474
27428
27389
27387
27382
27353
27347
27323
27292
27268
27272
27237
27223
27193
27148
27131
27122
27131
27080
27051
27026
27018
26996
26945
26948
26895
26903
26880
26879
26793
26787
26801
26791
26757
26740
26679
26709
26666
26666
26621
26601
26588
26587
26552
26520
26512
26496
26445
26434
26394
26340
26300
26257
26206
26196
26156
26118
26084
26089
26026
26006
25971
25986
25980
25963
25983
26011
25969
26011
26010
26033
26067
26096
26111
26134
26142
26175
26183
26186
26279
26288
26323
26437
26462
26496
26582
26625
26719
26757
26845
26953
27035
27133
27232
27355
27434
27569
27662
27726
27854
27941
28008
28042
28115
28159
28181
28250
28217
28243
28233
28200
28222
28151
28158
28128
28115
28123
28101
28085
28052
28048
28043
28063
27989
27991
28005
27967
27960
27925
27929
27897
27852
27871
27844
27833
27842
27767
27790
27803
27754
27747
27738
27708
27710
27676
27665
27638
27625
27585
27590
27554
27528
27537
27542
27473
27492
27459
27442
27413
27390
27389
27371
27355
27336
27323
27271
27280
27267
27212
27211
27203
27156
27162
27157
27119
27077
27073
27050
27023
27019
27012
26956
26951
26869
26888
26895
26836
26831
26833
26779
26762
26745
26786
26736
26712
26689
26670
26622
26642
26617
26598
26585
26567
26532
26519
26481
26439
26404
26362
26314
26296
26276
26221
26201
26135
26105
26125
26046
26073
26058
26079
26048
26086
26065
26065
26080
26081
26106
26146
26139
26159
26198
26211
26204
26283
26299
26347
26369
26391
26476
26503
26532
26620
26710
26758
26834
26907
26993
27116
27208
27279
27404
27485
27566
27704
27768
27827
27893
27940
27951
28007
28029
28046
28053
28088
28051
28010
28006
28019
27997
27958
27939
27956
27912
27926
27910
27844
27872
27869
27799
27815
27796
27785
27770
27726
27713
27677
27691
27643
27647
27652
27625
27598
27555
27549
27585
27520
27514
27508
27467
27461
27424
27458
27417
27406
27373
27378
27332
27345
27295
27271
27262
27258
27226
27171
27180
27186
27135
27139
27115
27066
27079
27044
27025
26985
26987
26957
26926
26934
26889
26907
26876
26871
26878
26831
26817
26796
26792
26790
26770
26729
26726
26740
26696
26628
26621
26596
26615
26559
26509
26463
26464
26407
26371
26325
26326
26298
26304
26240
26228
26254
26270
26240
26270
26296
26263
26281
26287
26364
26345
26354
26393
26400
26418
26466
26496
26542
26579
26613
26629
26701
26777
26803
26926
26966
27099
27154
27239
27344
27434
27518
27633
27712
27828
27860
27956
28002
28072
28112
28107
28146
28168
28165
28143
28142
28130
28126
28120
28079
28083
28064
28060
28041
28025
28017
27972
27960
27948
27922
27895
27938
27894
27887
27887
27853
27823
27822
27799
27814
27773
27747
27716
27748
27702
27696
27704
27686
27653
27667
27633
27604
27612
27597
27580
27571
27541
27501
27512
27486
27442
27442
27440
27421
27382
27371
27366
27317
27284
27306
27267
27243
27225
27189
27179
27163
27146
27104
27072
27088
27095
27025
27000
27008
26957
26925
26926
26891
26883
26851
26868
26854
26847
26836
26816
26797
26769
26724
26724
26686
26658
26679
26596
26637
26552
26516
26494
26428
26369
26368
26343
26284
26282
26259
26233
26239
26219
26213
26228
26216
26260
26265
26277
26309
26319
26329
26397
26370
26416
26464
26471
26519
26539
26558
26575
26628
26710
26747
26802
26886
26942
27033
27124
27220
27266
27368
27474
27578
27659
27750
27856
27931
27992
28075
28074
28157
28188
28206
28188
28192
28203
28172
28157
28135
28129
28122
28124
28131
28058
28085
28069
28044
28028
28005
27969
27957
27939
27929
27928
27912
27893
27912
27869
27835
27842
27811
27796
27772
27756
27720
27735
27714
27674
27683
27696
27679
27631
27638
27600
27600
27583
27587
27540
27572
27523
27500
27492
27481
27468
27435
27410
27396
27374
27363
27313
27305
27287
27244
27252
27221
27232
27208
27182
27167
27139
27119
27080
27120
27060
27009
27017
26984
26952
26947
26944
26926
26892
26902
26868
26872
26848
26793
26831
26809
26775
26771
26732
26706
26658
26658
26665
26633
26600
26552
26522
26490
26460
26436
26387
26332
26299
26259
26234
26216
26212
26204
26205
26212
26197
26227
26214
26256
26269
26240
26298
26305
26330
26343
26374
26408
26425
26459
26518
26583
26596
26658
26681
26745
26792
26905
26952
27006
27121
27210
27311
27401
27496
27581
27694
27785
27870
27981
28070
28150
28195
28266
28287
28323
28325
28331
28356
28361
28335
28307
28329
28329
28311
28264
28244
28254
28238
28220
28195
28174
28179
28156
28135
28142
28142
28113
28079
28053
28036
28044
28012
28009
28008
27960
27921
27957
27940
27900
27890
27859
27843
27816
27816
27767
27791
27768
27730
27735
27717
27695
27648
27644
27621
27609
27607
27562
27553
27542
27457
27477
27460
27437
27381
27361
27381
27345
27342
27314
27316
27295
27272
27240
27205
27191
27169
27142
27120
27126
27069
27057
27036
27038
26990
26989
26963
26951
26910
26918
26873
26859
26847
26829
26778
26774
26737
26720
26683
26653
26634
26591
26570
26536
26480
26427
26431
26338
26343
26307
26260
26255
26186
26167
26174
26176
26133
26139
26149
26165
26180
26182
26191
26201
26222
26238
26261
26312
26308
26358
26409
26422
26458
26500
26535
26605
26606
26662
26757
26823
26893
26955
27001
27112
27186
27288
27386
27491
27572
27683
27758
27830
27942
28056
28091
28130
28219
28223
28224
28267
28255
28263
28249
28237
28244
28218
28170
28187
28153
28141
28163
28090
28074
28124
28068
28061
28083
28027
28020
28017
27997
27936
27960
27929
27930
27907
27863
27859
27864
27864
27828
27810
27789
27791
27766
27765
27749
27723
27723
27715
27649
27633
27632
27634
27606
27582
27594
27534
27503
27530
27503
27470
27489
27455
27430
27436
27365
27360
27357
27316
27287
27282
27262
27252
27215
27199
27151
27170
27159
27084
27086
27073
27064
27048
27004
26984
26977
26946
26933
26900
26893
26868
26854
26855
26807
26828
26805
26781
26793
26730
26742
26714
26712
26670
26663
26615
26617
26589
26551
26472
26438
26408
26361
26370
26326
26274
26262
26281
26260
26237
26244
26246
26262
26279
26284
26291
26334
26320
26356
26377
26363
26441
26459
26468
26504
26559
26565
26639
26693
26718
26738
26845
26883
26927
27021
27108
27214
27285
27381
27457
27585
27649
27748
27858
27940
27992
28103
28131
28210
28235
28261
28275
28290
28288
28275
28270
28305
28271
28261
28255
28237
28215
28208
28162
28215
28173
28157
28109
28119
28104
28105
28067
28074
28045
28047
28045
28027
27993
27975
27978
27964
27909
27916
27923
27884
27888
27864
27876
27838
27845
27807
27784
27754
27761
27734
27720
27696
27730
27684
27702
27646
27636
27662
27639
27595
27546
27555
27549
27515
27521
27477
27516
27487
27459
27422
27408
27382
27359
27351
27313
27254
27302
27269
27225
27217
27222
27194
27204
27140
27165
27142
27105
27104
27116
27082
27056
27023
27051
27013
27015
26968
26981
26964
26902
26935
26907
26885
26855
26781
26799
26737
26716
26703
26674
26661
26609
26572
26564
26522
26504
26515
26529
26508
26504
26540
26525
26562
26543
26566
26583
26620
26594
26623
26660
26683
26696
26752
26780
26810
26830
26917
26939
27018
27057
27122
27224
27274
27376
27449
27512
27623
27724
27811
27908
27972
28056
28125
28186
28253
28277
28297
28337
28342
28328
28355
28320
28313
28290
28265
28253
28257
28219
28233
28187
28182
28170
28159
28159
28121
28132
28097
28055
28058
28052
28039
28015
28004
27996
27981
27947
27921
27937
27897
27878
27852
27851
27815
27794
27791
27785
27765
27760
27716
27722
27666
27690
27664
27650
27609
27616
27576
27565
27560
27534
27512
27503
27483
27482
27454
27418
27384
27384
27372
27337
27300
27304
27283
27266
27242
27207
27216
27165
27139
27146
27127
27095
27038
27030
27016
27022
26976
26953
26915
26937
26919
26905
26872
26869
26840
26834
26805
26777
26779
26767
26738
26727
26701
26677
26634
26612
26588
26557
26517
26511
26438
26424
26387
26337
26325
26295
26259
26270
26255
26262
26266
26278
26237
26287
26275
26294
26300
26309
26359
26377
26406
26418
26449
26455
26545
26554
26584
26631
26680
26746
26777
26818
26890
26967
27051
27130
27214
27315
27375
27493
27583
27678
27784
27861
27921
28019
28094
28158
28243
28224
28217
28302
28301
28274
28247
28266
28260
28256
28211
28189
28194
28174
28165
28141
28143
28148
28122
28126
28090
28059
28058
28022
28033
27975
28011
27965
27948
27967
27948
27911
27899
27910
27864
27824
27829
27825
27774
27793
27764
27738
27736
27693
27669
27668
27666
27635
27634
27611
27603
27550
27542
27544
27528
27498
27480
27463
27425
27429
27387
27379
27367
27348
27319
27297
27270
27229
27234
27219
27187
27187
27157
27145
27119
27081
27079
27043
27014
27033
26980
26960
26944
26906
26891
26851
26875
26854
26821
26809
26823
26800
26793
26749
26752
26721
26712
26697
26693
26637
26598
26606
26561
26507
26532
26468
26405
26358
26351
26328
26277
26250
26255
26203
26194
26169
26202
26195
26186
26192
26217
26232
26253
26233
26270
26304
26331
26360
26377
26424
26436
26466
26507
26502
26569
26653
26659
26722
26771
26862
26918
26980
27093
27151
27256
27363
27430
27542
27610
27746
27862
27930
28030
28095
28148
28206
28267
28319
28291
28326
28309
28316
28316
28308
28281
28285
28293
28232
28245
28208
28192
28211
28164
28153
28131
28113
28097
28077
28093
28057
28027
28036
28009
28025
27991
27985
27950
27968
27949
27915
27907
27877
27851
27855
27826
27832
27812
27821
27772
27789
27720
27726
27692
27710
27685
27659
27635
27612
27600
27586
27564
27534
27543
27510
27517
27476
27471
27460
27417
27390
27382
27371
27388
27335
27287
27274
27253
27252
27231
27217
27201
27109
27145
27146
27104
27085
27076
27058
27034
27005
26988
26986
26958
26917
26939
26929
26893
26886
26865
26849
26819
26824
26811
26798
26766
26754
26726
26703
26708
26634
26629
26573
26526
26492
26455
26440
26383
26355
26339
26321
26306
26324
26291
26305
26298
26266
26337
26341
26312
26361
26364
26381
26407
26443
26433
26451
26537
26546
26584
26634
26628
26683
26746
26793
26842
26915
27007
27035
27135
27196
27273
27391
27468
27569
27668
27747
27851
27936
28045
28142
28185
28258
28316
28347
28387
28391
28425
28423
28402
28389
28400
28383
28364
28346
28340
28317
28320
28283
28275
28261
28246
28207
28226
28194
28192
28193
28197
28140
28113
28108
28102
28096
28068
28037
28057
28038
28001
28012
27985
27967
27952
27938
27908
27881
27900
27872
27841
27895
27813
27812
27791
27778
27742
27727
27720
27717
27719
27701
27660
27668
27623
27616
27592
27598
27555
27529
27509
27499
27487
27446
27405
27432
27379
27379
27340
27329
27313
27294
27274
27278
27223
27195
27180
27170
27173
27136
27128
27084
27057
27052
27061
27019
27006
26959
26982
26954
26938
26914
26944
26888
26880
26860
26823
26799
26786
26747
26703
26680
26673
26600
26597
26556
26502
26483
26462
26459
26437
26428
26441
26388
26407
26457
26414
26444
26478
26460
26507
26492
26551
26559
26566
26612
26637
26675
26709
26760
26802
26818
26890
26951
26960
27030
27096
27167
27250
27300
27418
27502
27588
27706
27815
27879
27995
28093
28140
28240
28301
28409
28410
28434
28475
28467
28469
28468
28470
28449
28456
28449
28464
28437
28424
28384
28376
28344
28348
28336
28312
28296
28288
28263
28247
28257
28252
28238
28221
28180
28189
28171
28203
28135
28144
28122
28077
28102
28086
28041
28021
28079
28022
27985
28004
27974
27968
27961
27977
27922
27914
27903
27902
27875
27820
27820
27819
27769
27754
27798
27751
27732
27742
27697
27661
27659
27630
27627
27614
27588
27588
27563
27555
27516
27492
27482
27464
27421
27436
27407
27399
27378
27365
27355
27319
27306
27307
27275
27307
27255
27257
27203
27222
27206
27188
27178
27170
27166
27143
27116
27094
27061
27030
27031
26985
26954
26916
26872
26853
26821
26786
26795
26760
26729
26745
26709
26694
26720
26735
26742
26733
26734
26762
26773
26780
26798
26851
26868
26877
26910
26956
26970
26991
27037
27095
27146
27189
27240
27316
27392
27440
27544
27626
27700
27778
27878
27953
28052
28137
28228
28314
28365
28434
28479
28512
28561
28584
28564
28578
28597
28572
28547
28569
28528
28516
28515
28510
28462
28469
28442
28411
28435
28401
28397
28357
28365
28363
28345
28336
28346
28316
28294
28252
28242
28235
28200
28181
28168
28137
28143
28116
28130
28107
28091
28068
28046
28060
28019
28013
28008
27982
27984
27944
27951
27915
27873
27856
27881
27825
27842
27811
27789
27768
27728
27718
27729
27703
27671
27659
27636
27611
27582
27568
27544
27513
27521
27475
27442
27431
27420
27414
27388
27355
27359
27299
27309
27277
27255
27232
27251
27187
27172
27178
27127
27126
27104
27105
27085
27072
27035
27066
27008
27007
26975
26946
26920
26899
26906
26849
26808
26768
26715
26695
26637
26649
26620
26595
26576
26572
26573
26558
26597
26557
26580
26603
26622
26637
26639
26673
26675
26671
26716
26738
26769
26822
26810
26852
26928
26958
26996
27043
27092
27206
27252
27346
27441
27512
27610
27698
27837
27858
27981
28025
28141
28216
28288
28344
28390
28404
28428
28455
28505
28491
28454
28423
28450
28428
28385
28390
28374
28370
28341
28336
28327
28287
28272
28266
28230
28212
28206
28205
28177
28145
28137
28118
28099
28085
28079
28056
28041
28018
28008
27985
27960
27980
27944
27925
27928
27899
27858
27844
27838
27854
27783
27774
27741
27733
27725
27702
27699
27683
27676
27664
27638
27619
27558
27568
27545
27511
27507
27491
27435
27448
27419
27393
27387
27353
27331
27291
27266
27230
27241
27182
27186
27183
27145
27126
27111
27082
27048
27055
27008
26983
26993
26944
26923
26900
26910
26912
26847
26858
26826
26827
26818
26756
26781
26726
26711
26688
26657
26683
26631
26613
26567
26494
26473
26455
26421
26332
26357
26317
26289
26236
26241
26234
26199
26196
26201
26227
26203
26238
26234
26241
26263
26249
26300
26347
26352
26352
26407
26427
26482
26515
26530
26593
26639
26663
26738
26822
26886
26948
27017
27105
27209
27318
27414
27504
27611
27704
27796
27903
27973
28053
28108
28173
28240
28263
28282
28311
28296
28316
28285
28251
28285
28263
28253
28217
28195
28179
28162
28146
28164
28104
28084
28107
28079
28088
28054
28056
28018
28008
27987
27967
27946
27923
27914
27904
27898
27831
27848
27867
27812
27787
27796
27753
27776
27766
27748
27715
27702
27677
27679
27626
27607
27610
27594
27565
27547
27555
27481
27483
27471
27455
27423
27401
27378
27350
27349
27376
27297
27287
27279
27257
27233
27207
27206
27171
27132
27117
27088
27066
27030
27001
26976
26973
26946
26946
26912
26891
26888
26850
26814
26801
26804
26770
26761
26754
26727
26702
26708
26683
26683
26652
26658
26588
26610
26566
26531
26499
26492
26439
26407
26361
26335
26276
26216
26169
26157
26131
26112
26116
26064
26047
26067
26062
26074
26077
26065
26077
26125
26123
26129
26160
26181
26208
26223
26239
26287
26342
26357
26387
26448
26471
26546
26614
26644
26719
26797
26902
26990
27057
27158
27292
27367
27493
27602
27681
27808
27899
27986
28058
28116
28185
28229
28256
28262
28248
28278
28291
28267
28284
28217
28244
28201
28197
28200
28184
28165
28138
28122
28126
28139
28091
28090
28076
28065
28039
28032
28042
28025
27988
27944
27977
27946
27940
27915
27898
27900
27870
27852
27834
27823
27772
27773
27769
27729
27730
27736
27702
27652
27631
27642
27629
27610
27583
27567
27540
27535
27508
27476
27447
27442
27404
27381
27379
27338
27351
27265
27280
27264
27228
27204
27203
27149
27155
27102
27097
27105
27016
26993
26992
26962
26961
26928
26935
26929
26872
26865
26848
26821
26805
26790
26756
26745
26742
26709
26677
26710
26670
26631
26623
26614
26582
26544
26536
26501
26434
26434
26404
26352
26305
26271
26236
26189
26159
26103
26109
26105
26066
26118
26070
26070
26114
26131
26081
26105
26149
26197
26182
26225
26241
26224
26250
26337
26323
26370
26399
26454
26502
26586
26604
26689
26763
26838
26910
26992
27074
27191
27264
27357
27501
27623
27696
27815
27895
27982
28058
28163
28216
28252
28292
28321
28289
28340
28333
28331
28317
28310
28299
28273
28249
28226
28212
28197
28183
28147
28143
28141
28148
28086
28141
28106
28069
28055
28018
27992
27993
27993
27972
27920
27925
27925
27885
27864
27860
27855
27840
27821
27821
27804
27779
27768
27748
27718
27720
27696
27687
27631
27631
27607
27602
27584
27549
27549
27506
27509
27510
27480
27442
27442
27425
27361
27354
27376
27331
27298
27271
27227
27185
27233
27177
27170
27169
27126
27115
27109
27061
27079
27019
27020
27029
26999
26909
26959
26906
26879
26871
26854
26851
26830
26822
26843
26767
26780
26729
26731
26719
26685
26678
26621
26601
26559
26576
26486
26484
26418
26370
26352
26328
26283
26287
26241
26195
26218
26221
26217
26244
26249
26246
26264
26273
26275
26278
26316
26341
26338
26382
26407
26439
26428
26498
26520
26575
26644
26732
26767
26804
26926
26951
27052
27175
27247
27340
27452
27568
27616
27781
27859
27946
28037
28109
28196
28205
28235
28253
28277
28297
28262
28303
28325
28288
28304
28289
28224
28224
28188
28195
28188
28178
28152
28141
28125
28109
28125
28078
28057
28080
28072
28014
28004
28004
27988
27952
27952
27955
27922
27900
27892
27837
27843
27829
27834
27816
27804
27749
27792
27751
27736
27704
27677
27670
27642
27671
27660
27605
27614
27580
27563
27549
27532
27508
27487
27459
27436
27426
27414
27374
27345
27314
27302
27294
27275
27263
27234
27204
27155
27163
27118
27133
27088
27111
27059
27024
27027
27020
26969
26970
26951
26950
26904
26866
26904
26858
26834
26826
26838
26793
26763
26761
26744
26710
26686
26636
26611
26569
26565
26502
26460
26406
26367
26349
26298
26263
26296
26251
26258
26231
26263
26288
26273
26290
26272
26314
26306
26312
26338
26348
26391
26430
26478
26437
26544
26558
26591
26664
26727
26758
26834
26892
26977
27075
27154
27257
27351
27439
27545
27647
27758
27843
27953
27992
28078
28126
28172
28171
28212
28198
28226
28178
28209
28169
28168
28165
28155
28148
28119
28092
28051
28058
28055
28029
28014
27975
27974
27958
27965
27919
27912
27869
27849
27834
27852
27814
27785
27812
27755
27753
27720
27698
27726
27688
27624
27657
27629
27597
27585
27583
27556
27544
27546
27495
27465
27453
27454
27417
27393
27372
27394
27351
27315
27319
27294
27273
27258
27198
27160
27184
27147
27121
27115
27056
27047
27010
26997
27006
26939
26941
26927
26895
26897
26850
26812
26816
26802
26773
26730
26736
26703
26668
26673
26655
26653
26636
26620
26579
26573
26564
26523
26514
26520
26457
26414
26408
26361
26330
26301
26225
26208
26146
26129
26099
26062
26040
25993
26001
25981
25932
25948
25952
25962
25976
25982
26000
25994
26037
26046
26045
26077
26080
26097
26149
26168
26204
26267
26275
26334
26388
26440
26502
26584
26673
26739
26827
26922
26985
27090
27229
27319
27441
27556
27633
27720
27865
27949
27979
28034
28061
28102
28117
28094
28102
28071
28072
28053
28028
28021
28041
27993
27984
27977
27935
27914
27912
27896
27894
27873
27854
27836
27818
27818
27816
27791
27731
27725
27746
27688
27690
27637
27647
27610
27606
27603
27598
27578
27550
27549
27512
27490
27476
27459
27459
27409
27419
27411
27362
27362
27332
27321
27305
27287
27264
27232
27219
27171
27147
27156
27123
27101
27104
27086
27037
27003
26989
26974
26939
26904
26877
26875
26812
26800
26782
26781
26748
26718
26723
26729
26684
26672
26627
26607
26614
26579
26545
26507
26517
26512
26490
26477
26454
26449
26415
26379
26342
26321
26311
26265
26239
26227
26176
26151
26097
26046
25993
25923
25937
25878
25840
25800
25816
25791
25773
25818
25790
25809
25791
25823
25829
25833
25877
25886
25891
25910
25964
25998
25996
26074
26068
26139
26174
26188
26272
26312
26411
26456
26574
26626
26736
26838
26919
27082
27185
27290
27400
27543
27628
27707
27815
27891
27966
27987
28048
28083
28116
28096
28113
28067
28068
28071
28065
28041
28017
28016
28009
27983
27964
27967
27923
27925
27913
27895
27881
27850
27845
27820
27828
27810
27793
27763
27737
27738
27734
27727
27710
27672
27660
27647
27609
27637
27603
27581
27539
27527
27536
27532
27492
27469
27404
27432
27384
27353
27354
27354
27305
27323
27276
27242
27256
27208
27190
27171
27158
27103
27094
27090
27039
27010
26967
26971
26957
26910
26888
26868
26875
26838
26822
26782
26768
26727
26717
26687
26669
26652
26625
26592
26579
26586
26552
26533
26539
26494
26485
26458
26447
26393
26391
26370
26344
26297
26285
26227
26199
26151
26092
26085
26014
25984
25951
25901
25894
25846
25864
25875
25853
25870
25891
25868
25877
25910
25928
25907
25966
25973
25979
25996
26048
26053
26128
26154
26153
26208
26278
26336
26347
26467
26540
26637
26702
26780
26890
26990
27109
27242
27364
27481
27596
27721
27824
27859
27958
28031
28076
28140
28162
28163
28170
28164
28148
28145
28175
28112
28131
28118
28103
28072
28060
28071
28061
28088
28017
27978
28004
27974
27965
27929
27916
27892
27881
27875
27864
27857
27847
27795
27812
27781
27749
27729
27711
27710
27687
27636
27678
27666
27605
27627
27587
27558
27579
27514
27498
27472
27450
27471
27444
27394
27380
27390
27361
27341
27335
27264
27283
27259
27200
27205
27143
27155
27132
27076
27096
27066
27039
27003
26995
27013
26962
26961
26909
26902
26913
26868
26837
26839
26799
26778
26754
26776
26747
26721
26717
26687
26688
26662
26637
26644
26617
26568
26550
26527
26491
26459
26376
26360
26311
26261
26229
26177
26167
26153
26118
26110
26115
26135
26097
26090
26117
26089
26112
26127
26150
26175
26183
26196
26227
26245
26298
26318
26339
26395
26429
26469
26524
26577
26651
26716
26759
26855
26953
27062
27151
27262
27397
27469
27598
27710
27858
27949
28058
28140
28201
28252
28335
28364
28363
28390
28386
28369
28367
28385
28342
28341
28335
28331
28298
28280
28240
28281
28241
28215
28189
28199
28197
28161
28130
28149
28100
28067
28075
28068
28024
28038
28001
27985
27996
27969
27977
27921
27910
27895
27910
27870
27842
27830
27837
27793
27772
27781
27755
27720
27699
27686
27667
27642
27630
27630
27589
27555
27575
27528
27508
27487
27471
27433
27421
27409
27366
27329
27317
27340
27284
27278
27221
27205
27202
27176
27122
27139
27115
27100
27095
27070
27050
27051
26999
26985
26982
26979
26968
26977
26927
26903
26905
26880
26838
26809
26784
26754
26726
26698
26674
26611
26577
26547
26502
26453
26425
26424
26349
26348
26350
26346
26346
26327
26320
26349
26335
26382
26382
26411
26411
26437
26458
26459
26492
26526
26605
26600
26624
26705
26733
26756
26843
26893
26986
27071
27198
27278
27337
27474
27561
27663
27757
27891
27997
28074
28181
28256
28321
28352
28369
28417
28403
28430
28403
28441
28414
28387
28370
28338
28346
28326
28284
28275
28292
28258
28224
28221
28213
28219
28179
28150
28128
28109
28107
28083
28071
28060
28049
28051
28009
27981
28000
27948
27930
27931
27916
27910
27871
27860
27864
27846
27795
27770
27749
27745
27718
27707
27690
27641
27642
27602
27570
27554
27571
27537
27523
27497
27467
27439
27446
27405
27360
27372
27335
27297
27253
27241
27228
27187
27165
27133
27160
27139
27091
27079
27074
27070
27009
26986
26997
26950
26954
26943
26939
26903
26885
26870
26857
26840
26810
26748
26743
26746
26719
26686
26630
26614
26556
26522
26498
26429
26381
26364
26311
26307
26276
26263
26249
26258
26237
26231
26263
26236
26271
26268
26282
26278
26329
26330
26357
26372
26398
26426
26462
26506
26531
26598
26618
26711
26781
26849
26940
27011
27091
27195
27315
27410
27534
27682
27773
27860
27974
28015
28079
28175
28235
28268
28293
28305
28270
28255
28287
28272
28263
28221
28203
28193
28194
28181
28150
28135
28119
28095
28093
28016
28016
28047
28038
27967
27954
27984
27933
27885
27887
27852
27879
27840
27821
27806
27762
27776
27746
27707
27684
27638
27657
27641
27639
27614
27602
27590
27565
27538
27528
27496
27472
27418
27442
27399
27376
27356
27330
27325
27290
27286
27248
27206
27200
27175
27113
27110
27061
27096
27073
27021
26974
26988
26947
26939
26887
26884
26848
26803
26819
26772
26748
26742
26723
26714
26684
26656
26682
26633
26629
26616
26567
26542
26544
26483
26499
26468
26446
26428
26374
26381
26301
26284
26199
26155
26106
26057
25993
26009
25946
25932
25912
25877
25890
25874
25903
25894
25914
25899
25931
25920
25944
25953
25984
25978
26013
25993
26025
26082
26099
26138
26172
26219
26267
26338
26404
26478
26585
26638
26764
26829
26940
27063
27150
27292
27411
27499
27603
27720
27803
27887
27952
28027
28030
28091
28131
28086
28086
28097
28069
28064
28038
28040
28036
27993
27945
27957
27927
27934
27915
27908
27911
27859
27852
27840
27825
27789
27777
27782
27697
27722
27712
27678
27701
27670
27656
27618
27618
27609
27575
27569
27533
27534
27514
27471
27457
27463
27446
27413
27416
27371
27342
27350
27306
27282
27280
27292
27241
27224
27194
27170
27133
27116
27118
27065
27034
27039
27004
26963
26931
26941
26928
26892
26873
26814
26820
26819
26771
26748
26727
26698
26670
26658
26661
26603
26607
26569
26603
26549
26535
26517
26499
26485
26477
26431
26424
26390
26370
26339
26275
26264
26253
26225
26164
26069
26075
26012
25948
25912
25859
25848
25821
25803
25791
25806
25796
25759
25804
25815
25805
25821
25834
25873
25873
25897
25940
25914
25922
25982
26021
26032
26061
26162
26177
26212
26269
26332
26389
26505
26611
26674
26760
26886
26963
27122
27233
27337
27472
27597
27656
27730
27852
27901
27976
28022
28023
28063
28068
28074
28082
28062
28075
28048
28037
28006
27976
27961
27978
27938
27919
27902
27865
27886
27856
27842
27840
27835
27792
27803
27733
27764
27701
27729
27708
27673
27667
27656
27664
27609
27617
27556
27563
27552
27524
27504
27481
27464
27468
27443
27414
27379
27372
27353
27340
27303
27312
27281
27261
27239
27213
27196
27199
27173
27118
27097
27081
27070
27031
27040
26988
26960
26962
26900
26914
26897
26826
26842
26803
26777
26750
26756
26721
26717
26682
26678
26668
26599
26630
26626
26578
26555
26492
26535
26482
26496
26472
26447
26426
26365
26337
26328
26309
26233
26203
26178
26121
26051
26045
25987
25962
25930
25874
25850
25878
25838
25819
25842
25847
25839
25839
25870
25861
25893
25884
25923
25924
25971
25975
25993
25996
26068
26090
26121
26166
26239
26278
26336
26388
26474
26561
26663
26733
26838
26942
27058
27202
27288
27366
27488
27593
27678
27763
27831
27936
27958
28002
28001
28041
28040
28051
28032
28034
28025
27995
27961
27987
27990
27935
27964
27894
27902
27899
27852
27869
27860
27778
27782
27793
27780
27736
27728
27715
27694
27692
27650
27653
27631
27605
27622
27581
27586
27559
27553
27532
27505
27507
27504
27446
27458
27409
27460
27410
27383
27372
27354
27326
27285
27304
27257
27234
27215
27196
27225
27187
27113
27092
27099
27091
27074
27033
27028
26984
26956
26957
26931
26887
26859
26890
26829
26825
26799
26793
26743
26755
26710
26706
26701
26672
26669
26669
26622
26637
26589
26590
26579
26570
26550
26511
26493
26474
26410
26386
26341
26313
26245
26197
26195
26152
26153
26091
26054
26000
26010
25997
26017
26010
26051
26029
26035
26058
26075
26082
26129
26133
26127
26155
26199
26206
26228
26283
26299
26336
26445
26473
26549
26614
26691
26768
26850
26947
27029
27130
27232
27363
27468
27602
27676
27765
27849
27906
27956
27990
28076
28040
28044
28081
28074
28078
28041
28081
28020
27992
27999
27997
27992
27952
27927
27917
27917
27867
27861
27869
27816
27797
27801
27782
27771
27741
27738
27697
27689
27668
27660
27645
27616
27583
27593
27578
27533
27569
27543
27512
27464
27472
27438
27441
27421
27395
27400
27351
27355
27281
27282
27240
27251
27236
27191
27177
27192
27155
27155
27098
27080
27036
26995
26973
26965
26917
26903
26907
26898
26843
26817
26764
26795
26724
26735
26731
26685
26660
26649
26652
26609
26575
26591
26564
26559
26559
26559
26501
26489
26463
26486
26441
26412
26348
26309
26274
26232
26181
26151
26092
26037
26025
25950
25936
25923
25902
25902
25904
25900
25922
25892
25882
25899
25947
25953
25944
25942
26018
25995
26025
26042
26084
26080
26129
26201
26222
26290
26311
26412
26474
26539
26643
26669
26777
26867
26983
27074
27211
27301
27408
27516
27612
27710
27762
27821
27851
27884
27925
27930
27938
27947
27934
27927
27905
27892
27844
27838
27829
27810
27778
27775
27756
27715
27712
27693
27703
27653
27645
27622
27580
27553
27567
27561
27529
27488
27486
27441
27452
27409
27403
27385
27350
27349
27316
27325
27290
27274
27273
27249
27200
27181
27222
27151
27121
27115
27120
27079
27065
27055
27011
27005
26960
26973
26928
26887
26860
26839
26809
26769
26774
26756
26726
26686
26676
26669
26654
26614
26589
26573
26544
26514
26542
26490
26480
26444
26429
26390
26395
26349
26370
26324
26269
26264
26261
26234
26258
26251
26193
26168
26140
26112
26098
26052
26057
25972
25961
25883
25858
25807
25736
25734
25700
25677
25645
25661
25624
25610
25612
25628
25643
25678
25655
25681
25680
25694
25722
25780
25776
25801
25851
25849
25894
25905
25926
25997
26033
26093
26181
26242
26292
26418
26498
26554
26655
26755
26859
26966
27084
27231
27288
27422
27484
27576
27672
27760
27763
27795
27811
27825
27839
27841
27823
27783
27756
27779
27754
27757
27732
27696
27663
27670
27661
27624
27633
27588
27585
27539
27586
27535
27487
27504
27498
27475
27412
27398
27415
27371
27371
27347
27366
27338
27343
27291
27262
27271
27258
27208
27200
27210
27201
27165
27114
27127
27118
27112
27058
27059
27032
26970
26985
26936
26920
26927
26867
26864
26817
26805
26806
26766
26765
26762
26714
26664
26679
26661
26630
26573
26576
26556
26540
26534
26515
26501
26487
26492
26412
26394
26376
26363
26318
26330
26305
26265
26257
26219
26215
26201
26180
26149
26118
26088
26009
25975
25916
25883
25848
25792
25765
25705
25679
25670
25670
25644
25666
25701
25666
25689
25722
25724
25734
25741
25772
25785
25790
25809
25870
25850
25953
25930
25976
26014
26066
26116
26190
26285
26284
26386
26476
26570
26628
26751
26838
26991
27079
27185
27304
27470
27543
27647
27708
27767
27859
27889
27937
27957
27981
27951
27978
27962
27920
27918
27917
27894
27892
27874
27887
27830
27835
27817
27788
27753
27725
27773
27727
27701
27697
27691
27660
27648
27624
27614
27594
27557
27569
27549
27513
27524
27478
27478
27470
27459
27442
27421
27391
27393
27391
27336
27357
27316
27289
27278
27246
27261
27210
27177
27178
27166
27106
27086
27061
27062
27034
27019
27008
26965
26923
26914
26930
26903
26870
26816
26822
26793
26766
26756
26733
26720
26666
26673
26626
26680
26594
26569
26601
26549
26543
26531
26508
26526
26457
26469
26455
26437
26389
26365
26343
26298
26259
26213
26159
26121
26062
26031
26005
25973
25949
25939
25910
25934
25920
25937
25905
25929
25945
25949
25988
25977
25999
26024
26061
26053
26086
26081
26159
26178
26193
26271
26308
26364
26404
26492
26555
26629
26718
26797
26864
26978
27093
27172
27311
27375
27513
27603
27706
27792
27858
27908
27948
28011
28025
28046
28072
28054
28012
28041
28026
27990
27973
27962
27977
27934
27939
27890
27894
27914
27877
27863
27829
27824
27804
27829
27788
27742
27764
27744
27717
27711
27682
27678
27651
27661
27629
27622
27603
27559
27598
27554
27537
27497
27480
27511
27450
27449
27434
27410
27427
27380
27347
27351
27330
27278
27301
27269
27241
27211
27198
27161
27141
27116
27123
27099
27109
27051
27079
27013
26977
26986
26948
26939
26910
26916
26889
26862
26830
26835
26808
26786
26816
26771
26787
26770
26757
26692
26703
26691
26647
26641
26624
26571
26555
26506
26459
26418
26356
26321
26277
26242
26229
26220
26196
26210
26142
26183
26164
26170
26196
26175
26204
26202
26236
26277
26238
26328
26299
26348
26351
26394
26455
26484
26509
26578
26610
26686
26720
26789
26851
26948
27047
27095
27227
27321
27446
27561
27630
27731
27835
27908
27976
28023
28083
28095
28102
28130
28134
28139
28165
28125
28110
28097
28081
28093
28035
28050
28022
27975
27987
27942
27940
27941
27929
27880
27897
27858
27844
27844
27797
27797
27806
27762
27772
27731
27745
27685
27690
27665
27698
27645
27653
27611
27602
27543
27555
27522
27542
27535
27460
27449
27448
27440
27396
27385
27335
27348
27344
27288
27265
27273
27214
27213
27180
27163
27151
27114
27112
27116
27055
27051
27002
27013
26993
26961
26941
26911
26910
26902
26862
26827
26848
26811
26799
26801
26767
26754
26718
26710
26735
26698
26673
26617
26602
26587
26563
26536
26517
26461
26408
26370
26361
26267
26243
26220
26193
26173
26151
26138
26117
26107
26117
26150
26136
26119
26127
26181
26155
26214
26207
26232
26248
26245
26300
26319
26367
26403
26470
26489
26547
26635
26664
26762
26844
26921
26977
27078
27189
27298
27403
27520
27619
27737
27793
27878
27956
27958
28029
28075
28079
28092
28064
28057
28075
28061
28035
28031
28022
27990
27965
27957
27934
27904
27896
27887
27849
27820
27815
27817
27796
27767
27753
27737
27705
27677
27657
27651
27626
27618
27580
27598
27550
27541
27522
27495
27503
27450
27452
27425
27422
27397
27392
27361
27315
27340
27289
27275
27261
27241
27230
27169
27149
27183
27121
27097
27099
27062
27029
27026
26992
26968
26951
26899
26896
26841
26827
26823
26793
26779
26744
26767
26713
26698
26699
26647
26637
26604
26614
26557
26557
26515
26524
26504
26509
26464
26443
26429
26412
26378
26368
26346
26318
26287
26234
26218
26163
26130
26060
26041
26003
25953
25905
25921
25871
25858
25853
25843
25859
25875
25909
25905
25878
25912
25904
25936
25918
25978
25966
26018
26055
26052
26094
26147
26182
26238
26276
26330
26373
26473
26568
26633
26699
26841
26913
26977
27148
27180
27293
27431
27525
27655
27753
27767
27844
27873
27948
27969
27978
27981
27963
27991
27999
27969
27973
27926
27866
27875
27897
27858
27820
27818
27796
27796
27803
27805
27776
27741
27690
27743
27715
27662
27718
27624
27633
27608
27569
27587
27543
27550
27526
27536
27495
27504
27469
27460
27451
27433
27418
27400
27375
27354
27350
27300
27322
27302
27277
27280
27283
27239
27227
27237
27189
27125
27117
27097
27070
27065
27040
27037
27006
27013
26978
26951
26932
26901
26883
26878
26833
26845
26803
26824
26744
26742
26743
26705
26718
26698
26685
26654
26648
26650
26623
26603
26578
26521
26527
26468
26486
26428
26409
26350
26315
26260
26247
26215
26154
26108
26099
26072
26007
26015
25969
26031
26004
26028
26018
26047
26053
26060
26051
26079
26089
26130
26170
26173
26209
26246
26256
26322
26332
26407
26431
26450
26568
26618
26662
26798
26850
26929
27002
27111
27233
27340
27428
27544
27646
27748
27850
27929
27985
28072
28090
28138
28139
28135
28170
28168
28153
28126
28114
28109
28110
28096
28090
28059
28061
28008
28030
28009
27972
27943
27947
27955
27908
27895
27897
27879
27863
27849
27825
27786
27803
27787
27753
27752
27765
27724
27678
27684
27690
27659
27644
27631
27611
27597
27563
27553
27543
27527
27486
27482
27475
27424
27423
27393
27403
27359
27343
27317
27282
27264
27227
27253
27243
27179
27177
27103
27096
27108
27143
27115
27069
27036
27022
26999
26964
26942
26955
26942
26911
26899
26880
26838
26863
26842
26782
26767
26799
26725
26757
26739
26697
26714
26665
26658
26619
26584
26536
26519
26479
26450
26388
26373
26317
26279
26261
26212
26198
26201
26199
26174
26200
26224
26228
26222
26232
26233
26264
26258
26279
26335
26313
26354
26353
26375
26447
26470
26491
26559
26581
26668
26727
26800
26827
26929
27014
27115
27177
27278
27392
27452
27562
27654
27788
27874
27949
28018
28060
28114
28107
28165
28152
28175
28210
28179
28155
28182
28151
28137
28119
28106
28111
28055
28042
28027
28043
27989
27985
27971
27991
27953
27930
27950
27909
27871
27869
27863
27872
27833
27824
27822
27754
27764
27744
27729
27723
27696
27690
27661
27686
27675
27631
27612
27586
27571
27540
27550
27556
27504
27518
27462
27498
27447
27449
27414
27392
27364
27337
27321
27305
27301
27290
27236
27237
27222
27193
27192
27134
27120
27115
27117
27068
27040
27022
27029
26989
27003
26984
26987
26948
26937
26913
26900
26884
26852
26846
26825
26815
26763
26741
26716
26701
26677
26641
26625
26546
26517
26467
26468
26445
26410
26383
26358
26358
26345
26391
26342
26356
26372
26354
26370
26389
26372
26393
26428
26460
26490
26515
26517
26551
26600
26632
26682
26721
26742
26789
26899
26972
27053
27125
27210
27304
27389
27454
27582
27656
27787
27854
27961
27995
28042
28054
28140
28143
28168
28158
28160
28136
28107
28126
28102
28078
28083
28045
28064
28014
28011
27990
27965
27953
27955
27865
27922
27898
27887
27870
27826
27819
27808
27787
27795
27769
27736
27729
27710
27683
27650
27638
27636
27605
27607
27596
27552
27560
27549
27546
27496
27494
27472
27441
27482
27451
27398
27375
27398
27351
27312
27296
27262
27265
27249
27229
27187
27159
27137
27131
27081
27066
27077
27048
26995
26995
26961
26930
26963
26897
26887
26874
26835
26814
26818
26816
26787
26765
26769
26772
26753
26730
26690
26684
26648
26648
26609
26597
26580
26555
26517
26452
26433
26376
26341
26290
26235
26234
26220
26188
26146
26146
26135
26141
26128
26184
26146
26162
26171
26189
26162
26178
26218
26224
26258
26264
26284
26316
26359
26371
26444
26466
26530
26614
26625
26732
26760
26873
26959
27037
27105
27215
27330
27427
27516
27650
27705
27754
27833
27890
27929
27946
27942
27970
27955
27963
27971
27945
27920
27916
27870
27861
27829
27840
27833
27751
27782
27775
27727
27711
27695
27690
27661
27638
27632
27612
27584
27582
27555
27576
27527
27495
27497
27448
27442
27407
27409
27383
27362
27352
27318
27304
27308
27279
27266
27246
27259
27244
27211
27165
27179
27132
27131
27096
27085
27063
27044
26998
27016
26997
26980
26944
26903
26901
26890
26866
26807
26843
26790
26772
26736
26724
26679
26641
26673
26643
26618
26604
26593
26554
26522
26508
26482
26445
26431
26464
26442
26390
26373
26373
26362
26312
26329
26296
26245
26256
26219
26181
26156
26125
26048
26019
25953
25908
25858
25849
25827
25801
25779
25760
25760
25752
25740
25761
25775
25765
25773
25780
25819
25812
25848
25838
25881
25881
25928
25927
25962
26025
26016
26093
26149
26209
26238
26312
26404
26473
26534
26646
26752
26843
26960
27042
27193
27259
27362
27446
27525
27579
27649
27679
27737
27738
27731
27765
27708
27718
27740
27679
27688
27634
27664
27627
27640
27601
27556
27575
27522
27524
27493
27507
27486
27463
27460
27457
27408
27389
27367
27365
27330
27332
27332
27281
27264
27272
27251
27204
27216
27208
27215
27182
27132
27125
27120
27070
27079
27047
27031
27018
27016
26987
26959
26949
26902
26915
26868
26848
26814
26818
26779
26766
26725
26730
26695
26704
26659
26620
26617
26601
26572
26552
26529
26516
26484
26485
26461
26476
26392
26361
26368
26347
26324
26325
26268
26317
26222
26245
26216
26211
26174
26174
26115
26109
26051
26037
25997
25941
25869
25861
25813
25765
25723
25708
25679
25628
25637
25648
25601
25591
25612
25601
25619
25655
25631
25650
25663
25682
25686
25705
25735
25782
25797
25838
25854
25896
25916
25983
26040
26101
26152
26219
26280
26379
26456
26516
26625
26710
26807
26925
27045
27135
27212
27309
27411
27492
27560
27597
27640
27673
27688
27709
27659
27688
27687
27659
27604
27632
27623
27601
27601
27580
27535
27541
27515
27527
27491
27472
27462
27433
27446
27410
27408
27373
27357
27336
27333
27313
27298
27261
27280
27247
27226
27207
27199
27204
27168
27149
27140
27105
27103
27103
27056
27053
27031
27037
26979
26955
26980
26968
26900
26924
26887
26821
26850
26856
26785
26757
26783
26739
26724
26713
26666
26659
26661
26635
26614
26597
26576
26561
26529
26517
26514
26480
26452
26445
26425
26436
26399
26369
26359
26349
26331
26279
26283
26252
26234
26245
26206
26164
26164
26109
26091
26017
25989
25952
25899
25844
25851
25790
25773
25731
25752
25697
25707
25699
25696
25738
25743
25759
25743
25790
25768
25781
25815
25840
25860
25903
25890
25927
25966
25989
26031
26092
26122
26181
26279
26291
26364
26475
26565
26632
26693
26828
26908
27036
27135
27212
27343
27396
27481
27578
27649
27720
27740
27784
27823
27810
27814
27819
27814
27792
27815
27761
27750
27759
27723
27697
27717
27689
27674
27642
27615
27631
27628
27581
27566
27534
27523
27524
27487
27498
27485
27476
27450
27406
27410
27403
27354
27387
27324
27320
27324
27299
27273
27261
27267
27232
27245
27222
27208
27169
27166
27149
27110
27042
27066
27041
27040
27026
27011
26984
26959
26921
26899
26856
26863
26837
26856
26803
26812
26783
26754
26736
26706
26671
26655
26651
26610
26593
26584
26567
26564
26568
26521
26496
26473
26476
26474
26469
26472
26418
26384
26373
26358
26305
26307
26271
26219
26209
26180
26142
26098
26056
26029
25975
25927
25931
25903
25906
25896
25873
25908
25944
25920
25920
25930
25960
25961
25965
25973
26033
26039
26040
26104
26112
26156
26220
26230
26262
26317
26365
26433
26490
26558
26628
26687
26795
26896
27009
27123
27194
27286
27400
27469
27581
27664
27715
27760
27768
27843
27875
27872
27867
27862
27830
27812
27825
27815
27780
27780
27773
27732
27724
27720
27701
27690
27675
27634
27637
27645
27621
27620
27614
27586
27577
27511
27533
27506
27483
27487
27496
27401
27425
27427
27395
27385
27387
27368
27331
27331
27295
27291
27279
27270
27258
27249
27222
27181
27155
27141
27113
27089
27123
27085
27050
27037
27014
26993
27000
26929
26943
26959
26905
26873
26863
26825
26812
26786
26787
26781
26749
26732
26742
26675
26657
26670
26650
26596
26618
26639
26604
26564
26589
26569
26526
26517
26509
26483
26426
26406
26379
26347
26295
26285
26236
26183
26151
26135
26113
26088
26067
26064
26053
26067
26033
26057
26045
26081
26072
26111
26101
26095
26115
26155
26198
26196
26245
26284
26312
26353
26424
26445
26489
26529
26640
26681
26776
26892
26942
26992
27110
27233
27312
27441
27504
27619
27685
27715
27788
27816
27878
27910
27877
27920
27906
27893
27896
27890
27867
27857
27834
27838
27776
27798
27727
27754
27723
27730
27717
27698
27655
27628
27604
27608
27617
27662
27628
27573
27566
27507
27470
27501
27506
27456
27468
27440
27423
27426
27385
27386
27350
27365
27322
27320
27259
27283
27245
27230
27206
27192
27180
27157
27149
27120
27079
27091
27053
27036
26983
26996
26971
26929
26925
26892
26885
26825
26829
26817
26805
26757
26755
26727
26707
26698
26653
26636
26628
26607
26620
26606
26533
26582
26568
26541
26531
26487
26469
26432
26445
26430
26383
26331
26300
26256
26273
26196
26181
26149
26124
26085
26033
25999
25949
25949
25949
25925
25925
25942
25940
25935
25946
25946
25977
25972
25991
26017
26048
26047
26060
26085
26139
26142
26169
26248
26281
26318
26360
26467
26499
26561
26657
26731
26819
26905
26975
27068
27197
27308
27390
27517
27549
27664
27755
27781
27800
27856
27868
27871
27879
27878
27885
27861
27842
27833
27780
27789
27752
27764
27747
27719
27730
27693
27678
27637
27627
27597
27576
27571
27551
27537
27528
27534
27507
27465
27442
27437
27438
27415
27379
27368
27374
27333
27337
27315
27335
27293
27263
27233
27236
27204
27198
27195
27161
27121
27128
27131
27093
27059
27031
27048
26999
27033
26981
26937
26930
26904
26888
26857
26816
26839
26784
26783
26731
26719
26709
26708
26638
26677
26648
26604
26593
26561
26552
26525
26504
26521
26490
26452
26401
26389
26418
26368
26376
26375
26331
26318
26292
26251
26234
26206
26173
26159
26101
26063
26028
25971
25943
25899
25861
25837
25846
25837
25802
25810
25827
25839
25839
25870
25846
25876
25912
25872
25974
25985
25965
25990
26024
26023
26065
26137
26136
26198
26291
26340
26340
26470
26500
26603
26661
26752
26851
26939
27040
27125
27262
27359
27413
27538
27648
27712
27781
27783
27862
27840
27907
27900
27880
27879
27857
27884
27853
27857
27829
27810
27805
27793
27767
27773
27718
27748
27714
27696
27692
27665
27655
27642
27618
27587
27583
27595
27538
27536
27542
27496
27501
27471
27452
27438
27407
27409
27421
27394
27358
27358
27339
27306
27264
27238
27243
27210
27220
27164
27164
27150
27129
27112
27094
27099
27058
27010
27005
26986
26952
26964
26932
26891
26903
26862
26832
26833
26784
26771
26721
26707
26712
26700
26659
26685
26649
26635
26585
26550
26550
26523
26509
26497
26500
26445
26444
26441
26416
26397
26374
26362
26324
26280
26270
26245
26214
26161
26157
26085
26043
26014
25966
25955
25911
25883
25872
25857
25858
25842
25840
25857
25860
25845
25874
25894
25908
25922
25929
25942
26011
26027
26047
26062
26108
26134
26146
26223
26293
26358
26365
26433
26513
26552
26662
26743
26801
26922
27037
27098
27245
27336
27475
27550
27641
27703
27788
27827
27921
27927
28004
28018
28013
28015
27987
28014
27960
27957
27935
27953
27926
27910
27909
27874
27880
27833
27811
27820
27772
27788
27789
27790
27733
27719
27734
27715
27689
27702
27672
27637
27632
27636
27609
27584
27591
27570
27526
27517
27538
27467
27508
27495
27448
27399
27422
27407
27401
27356
27333
27318
27326
27280
27265
27232
27225
27221
27200
27155
27170
27121
27115
27078
27086
27042
26999
27003
26998
26949
26928
26929
26899
26878
26841
26830
26828
26824
26795
26800
26763
26761
26737
26717
26701
26642
26648
26637
26609
26626
26597
26615
26544
26536
26511
26453
26462
26439
26407
26354
26312
26266
26189
26202
26178
26169
26174
26125
26086
26087
26106
26097
26088
26118
26088
26130
26142
26160
26180
26170
26222
26222
26234
26299
26310
26339
26394
26403
26463
26517
26587
26626
26701
26806
26843
26929
26978
27088
27202
27320
27391
27509
27599
27703
27781
27871
27944
27991
28040
28076
28101
28114
28095
28127
28112
28067
28079
28083
28068
28041
28041
28005
27976
27987
27975
27955
27924
27916
27906
27901
27882
27873
27853
27820
27822
27812
27786
27765
27753
27738
27754
27737
27712
27709
27672
27656
27648
27643
27636
27613
27568
27582
27603
27553
27546
27521
27486
27479
27472
27442
27421
27372
27399
27351
27337
27317
27321
27234
27245
27224
27199
27203
27163
27164
27166
27125
27076
27077
27059
27014
27025
27004
26960
26950
26951
26938
26914
26900
26886
26846
26861
26823
26800
26816
26789
26764
26762
26733
26732
26703
26673
26659
26603
26647
26557
26530
26517
26472
26410
26404
26378
26311
26305
26256
26284
26287
26255
26258
26251
26272
26266
26287
26270
26315
26272
26334
26333
26342
26379
26410
26429
26462
26485
26565
26591
26627
26706
26747
26828
26900
26944
27063
27105
27196
27311
27428
27501
27580
27701
27772
27850
27912
27974
28014
28054
28048
28074
28081
28054
28051
28021
28020
27970
27983
27963
27924
27916
27933
27903
27895
27851
27836
27836
27818
27787
27814
27777
27750
27743
27707
27666
27658
27642
27679
27623
27580
27595
27604
27565
27534
27538
27504
27499
27469
27487
27472
27449
27457
27428
27400
27375
27357
27352
27306
27304
27303
27257
27254
27210
27187
27204
27145
27153
27167
27080
27069
27050
27022
27010
26959
26980
26938
26919
26904
26887
26839
26830
26807
26764
26764
26740
26744
26717
26679
26703
26677
26654
26635
26626
26619
26608
26585
26576
26541
26530
26481
26459
26434
26373
26359
26319
26295
26248
26234
26186
26176
26130
26075
26028
26023
26037
26009
26018
26009
26044
26041
26056
26053
26059
26068
26079
26098
26090
26112
26150
26178
26220
26225
26282
26304
26376
26426
26484
26567
26608
26674
26777
26829
26929
26981
27101
27209
27309
27415
27508
27579
27700
27730
27812
27857
27929
27966
27966
27974
27973
27997
27965
27955
27940
27908
27934
27922
27914
27884
27839
27830
27833
27791
27787
27774
27812
27760
27741
27737
27671
27660
27710
27673
27646
27612
27604
27613
27551
27570
27555
27515
27508
27456
27482
27475
27427
27422
27387
27373
27382
27334
27319
27293
27267
27242
27240
27228
27211
27243
27156
27170
27146
27119
27088
27090
27083
27047
27032
27015
26987
26950
26929
26912
26902
26853
26860
26856
26823
26770
26776
26764
26734
26728
26696
26663
26647
26638
26574
26592
26569
26561
26560
26531
26506
26501
26509
26484
26455
26417
26416
26391
26357
26317
26292
26274
26240
26164
26159
26109
26072
26017
26014
25980
25981
25923
25897
25918
25924
25908
25859
25935
25938
25918
25934
25977
25966
25987
25968
26009
26030
26035
26079
26148
26144
26199
26270
26272
26345
26389
26477
26517
26576
26683
26771
26830
26909
27014
27124
27209
27299
27420
27494
27648
27698
27757
27809
27909
27897
27931
27980
27971
27967
27972
27962
27926
27944
27907
27894
27869
27863
27870
27793
27821
27816
27777
27755
27763
27725
27710
27702
27692
27717
27654
27668
27643
27640
27578
27591
27567
27525
27515
27503
27514
27512
27462
27481
27458
27410
27428
27407
27392
27372
27340
27348
27325
27301
27287
27236
27235
27227
27192
27190
27171
27152
27115
27111
27081
27074
27062
27005
27014
26946
26945
26931
26911
26889
26864
26875
26830
26787
26762
26753
26753
26745
26723
26690
26663
26649
26639
26627
26603
26580
26560
26570
26590
26533
26531
26485
26518
26490
26456
26436
26359
26387
26311
26309
26250
26222
26177
26149
26072
26075
26046
26009
26025
25993
25982
25943
25965
25969
26000
25991
26030
26044
26080
26062
26088
26101
26108
26158
26159
26226
26233
26269
26294
26368
26406
26438
26527
26572
26658
26657
26789
26870
26951
27069
27112
27271
27380
27456
27549
27627
27768
27836
27900
27979
28022
28073
28089
28096
28118
28112
28125
28129
28113
28081
28065
28028
28037
28021
28004
27941
27954
27957
27930
27903
27903
27895
27853
27874
27837
27830
27806
27794
27781
27743
27733
27770
27708
27701
27700
27643
27644
27639
27613
27608
27615
27577
27575
27526
27527
27514
27521
27469
27440
27432
27467
27401
27397
27399
27368
27342
27320
27297
27276
27228
27223
27207
27188
27178
27155
27126
27112
27123
27059
27054
27039
27005
26976
26930
26938
26927
26882
26914
26849
26836
26820
26828
26791
26750
26748
26751
26719
26697
26679
26685
26644
26658
26644
26615
26593
26559
26528
26520
26472
26476
26472
26427
26378
26294
26274
26225
26203
26176
26140
26116
26102
26107
26111
26116
26109
26113
26112
26124
26131
26103
26166
26181
26202
26207
26238
26229
26268
26337
26324
26372
26426
26427
26513
26532
26638
26692
26732
26790
26897
27004
27078
27159
27265
27376
27477
27569
27658
27756
27798
27927
27984
27993
28035
28035
28058
28063
28070
28057
28054
28008
28051
27994
27986
27997
27904
27941
27902
27918
27876
27882
27887
27866
27850
27821
27790
27839
27816
27771
27768
27770
27757
27727
27717
27682
27676
27677
27628
27612
27610
27588
27577
27553
27546
27504
27529
27517
27505
27494
27465
27468
27417
27422
27375
27380
27355
27325
27305
27312
27257
27286
27226
27221
27197
27186
27159
27161
27092
27111
27097
27085
27045
27005
27014
26979
26923
26950
26916
26867
26881
26861
26833
26838
26819
26782
26776
26750
26719
26743
26720
26706
26707
26685
26676
26682
26650
26609
26567
26566
26549
26508
26455
26455
26402
26393
26320
26301
26278
26228
26220
26184
26183
26158
26188
26194
26199
26181
26201
26179
26216
26244
26235
26253
26249
26278
26332
26333
26377
26401
26466
26471
26525
26572
26636
26688
26739
26828
26890
26954
27074
27152
27237
27335
27423
27519
27611
27720
27766
27835
27896
27908
27968
27969
27973
27966
27941
27941
27928
27914
27941
27893
27911
27900
27839
27839
27823
27795
27747
27775
27737
27728
27709
27684
27669
27689
27633
27620
27589
27597
27567
27539
27555
27539
27526
27490
27480
27470
27445
27431
27399
27402
27406
27351
27369
27342
27293
27317
27257
27262
27219
27246
27165
27156
27158
27135
27121
27099
27072
27046
27019
27019
27011
26988
26960
26948
26892
26904
26856
26854
26820
26814
26772
26792
26752
26749
26702
26666
26662
26658
26631
26623
26606
26600
26576
26512
26531
26534
26483
26463
26478
26432
26428
26420
26376
26332
26321
26274
26226
26196
26181
26123
26085
26061
26029
25987
25932
25957
25939
25971
25968
25954
25953
25953
25951
25977
25987
26015
26003
26034
26047
26060
26079
26141
26136
26184
26204
26267
26259
26349
26377
26429
26495
26552
26654
26715
26797
26905
27006
27100
27179
27325
27402
27506
27587
27659
27759
27828
27816
27881
27884
27915
27886
27937
27894
27893
27854
27844
27841
27835
27837
27818
27793
27746
27754
27721
27734
27694
27705
27681
27654
27615
27648
27616
27606
27595
27578
27526
27534
27514
27550
27459
27475
27453
27419
27432
27427
27425
27371
27392
27358
27358
27324
27319
27310
27267
27283
27222
27227
27201
27180
27199
27145
27164
27102
27093
27058
27054
27021
27004
26983
26961
26943
26912
26922
26886
26855
26872
26840
26788
26766
26755
26779
26718
26696
26683
26631
26594
26619
26588
26574
26551
26504
26501
26499
26512
26457
26437
26428
26400
26369
26374
26345
26352
26328
26282
26270
26266
26202
26175
26155
26109
26087
25982
26001
25922
25920
25866
25855
25843
25818
25841
25775
25782
25791
25799
25797
25786
25836
25813
25822
25849
25880
25904
25920
25908
25944
25983
26019
26036
26086
26145
26154
26222
26305
26361
26418
26485
26616
26685
26779
26887
26976
27076
27165
27288
27363
27491
27549
27639
27712
27751
27802
27801
27846
27856
27861
27843
27855
27827
27813
27818
27793
27785
27776
27763
27758
27745
27731
27712
27680
27684
27671
27623
27616
27619
27586
27597
27587
27570
27495
27472
27499
27499
27476
27437
27441
27425
27401
27418
27369
27350
27300
27340
27317
27359
27258
27268
27269
27214
27186
27214
27183
27156
27134
27153
27125
27093
27049
27060
27016
27007
26992
26959
26939
26931
26890
26856
26849
26817
26819
26783
26763
26763
26690
26705
26700
26675
26649
26651
26630
26588
26570
26534
26552
26550
26430
26490
26431
26447
26421
26381
26444
26370
26325
26378
26329
26327
26297
26261
26241
26151
26162
26127
26097
26060
26049
25968
25960
25937
25878
25850
25828
25810
25785
25789
25789
25799
25790
25806
25782
25818
25791
25822
25829
25856
25867
25900
25917
25910
25933
26007
26016
26065
26100
26143
26182
26224
26311
26369
26412
26504
26580
26646
26730
26880
26921
27064
27182
27286
27382
27482
27599
27700
27756
27799
27827
27909
27910
27914
27933
27922
27958
27906
27928
27910
27888
27880
27868
27839
27843
27825
27787
27766
27738
27720
27726
27730
27676
27679
27650
27645
27628
27658
27605
27594
27563
27571
27533
27530
27509
27508
27477
27458
27471
27426
27403
27386
27403
27420
27374
27351
27337
27305
27287
27287
27240
27226
27192
27207
27169
27177
27137
27168
27141
27114
27064
27041
27039
27005
27015
26972
26992
26950
26946
26892
26889
26849
26815
26836
26774
26762
26751
26753
26736
26690
26691
26643
26643
26605
26631
26588
26548
26561
26589
26505
26524
26506
26475
26472
26430
26454
26397
26434
26379
26347
26301
26323
26273
26211
26174
26150
26113
26061
26049
25978
25975
25969
25938
25943
25959
25941
25933
25960
25989
25945
26013
26009
26009
26030
26032
26103
26103
26141
26140
26154
26216
26290
26295
26345
26367
26457
26506
26569
26682
26757
26826
26871
26972
27105
27201
27297
27426
27540
27637
27733
27784
27860
27940
27985
28038
28084
28063
28090
28102
28089
28067
28073
28041
28033
28015
28017
28022
27989
27925
27916
27902
27907
27909
27892
27880
27843
27811
27799
27786
27768
27751
27724
27738
27743
27684
27693
27662
27663
27622
27631
27623
27599
27608
27588
27543
27550
27544
27509
27501
27492
27465
27449
27449
27418
27419
27394
27365
27341
27314
27292
27287
27289
27229
27234
27215
27217
27146
27147
27134
27142
27099
27081
27047
27040
26995
27003
26981
26951
26928
26908
26922
26881
26880
26857
26818
26809
26774
26806
26775
26766
26732
26745
26698
26710
26680
26647
26644
26632
26616
26614
26576
26563
26544
26504
26478
26425
26425
26364
26322
26335
26285
26243
26241
26210
26198
26200
26192
26198
26185
26182
26190
26200
26251
26248
26244
26288
26269
26283
26317
26346
26353
26390
26441
26482
26507
26561
26618
26650
26747
26823
26876
26974
27034
27134
27233
27360
27430
27508
27646
27734
27795
27878
27965
28036
28096
28119
28159
28169
28158
28171
28171
28162
28149
28152
28148
28124
28113
28068
28089
28091
28081
28006
28017
27999
28011
27984
27995
27974
27959
27924
27911
27930
27924
27881
27834
27828
27856
27800
27807
27789
27763
27741
27749
27743
27726
27717
27707
27663
27674
27641
27619
27629
27589
27584
27545
27586
27523
27499
27474
27484
27446
27443
27439
27410
27373
27358
27380
27337
27317
27293
27264
27260
27191
27205
27206
27177
27151
27119
27091
27077
27084
27059
27047
27026
27021
26999
26960
26955
26939
26938
26889
26913
26911
26877
26839
26830
26861
26814
26831
26804
26785
26729
26754
26711
26660
26642
26621
26584
26532
26496
26481
26413
26388
26394
26358
26387
26345
26389
26360
26374
26376
26404
26369
26431
26411
26416
26427
26464
26479
26463
26535
26558
26594
26628
26648
26712
26790
26837
26923
26980
27039
27155
27216
27326
27453
27530
27605
27695
27780
27853
27959
27971
28053
28090
28124
28129
28160
28173
28166
28110
28121
28084
28091
28046
28047
28043
28066
28032
27987
27980
27971
27976
27917
27913
27924
27913
27867
27835
27869
27860
27819
27829
27779
27789
27759
27751
27771
27719
27700
27682
27657
27678
27668
27628
27632
27613
27620
27547
27552
27551
27529
27528
27486
27479
27496
27427
27429
27410
27427
27329
27372
27348
27303
27310
27291
27281
27232
27207
27184
27162
27154
27155
27111
27070
27107
27076
27058
27026
27006
26997
26970
26930
26949
26903
26925
26907
26900
26878
26833
26841
26804
26789
26779
26777
26763
26737
26726
26699
26679
26675
26602
26608
26565
26532
26532
26475
26442
26394
26387
26342
26330
26297
26270
26292
26241
26241
26268
26246
26270
26288
26294
26271
26334
26320
26305
26334
26350
26402
26393
26457
26476
26493
26524
26599
26649
26710
26737
26824
26886
27008
27070
27133
27241
27322
27468
27549
27639
27751
27830
27924
28003
28067
28131
28168
28170
28208
28176
28222
28209
28197
28219
28189
28157
28155
28153
28109
28113
28104
28069
28044
28033
28037
28057
27995
27986
27957
27956
27954
27921
27899
27887
27902
27868
27862
27810
27822
27805
27794
27757
27771
27735
27693
27706
27704
27700
27683
27640
27625
27608
27600
27620
27580
27570
27570
27526
27533
27487
27475
27458
27488
27422
27407
27428
27374
27366
27345
27308
27312
27287
27273
27277
27237
27231
27183
27171
27145
27111
27087
27092
27071
27052
27037
26977
27004
26940
26953
26964
26928
26895
26872
26859
26832
26825
26824
26792
26771
26801
26742
26723
26726
26713
26686
26668
26663
26656
26615
26591
26547
26521
26466
26459
26401
26365
26329
26304
26276
26268
26251
26244
26250
26239
26224
26260
26259
26248
26274
26263
26273
26274
26321
26335
26333
26370
26392
26416
26470
26482
26558
26553
26646
26683
26780
26779
26923
26990
27057
27180
27237
27315
27458
27572
27652
27739
27865
27971
28055
28089
28168
28197
28235
28256
28275
28267
28280
28263
28266
28277
28261
28241
28199
28185
28189
28143
28146
28143
28111
28121
28073
28053
28072
28050
28021
28008
28008
27999
27948
27961
27930
27921
27922
27900
27917
27883
27867
27857
27820
27825
27807
27794
27797
27754
27767
27737
27693
27677
27682
27666
27644
27634
27608
27600
27572
27560
27546
27508
27500
27458
27458
27421
27419
27378
27389
27361
27342
27321
27303
27295
27254
27238
27179
27180
27184
27156
27113
27119
27103
27070
27039
27037
26988
27000
26964
26949
26911
26927
26890
26876
26870
26853
26865
26823
26806
26754
26754
26777
26734
26748
26718
26691
26651
26671
26623
26593
26537
26508
26465
26438
26431
26361
26321
26305
26213
26255
26219
26191
26177
26192
26181
26168
26166
26192
26221
26232
26215
26233
26249
26292
26245
26295
26328
26353
26417
26434
26462
26514
26547
26583
26665
26710
26801
26854
26934
27012
27121
27223
27298
27424
27517
27611
27699
27840
27892
28005
28042
28148
28180
28194
28218
28305
28293
28254
28260
28268
28221
28226
28212
28211
28212
28158
28167
28174
28158
28117
28069
28080
28061
28042
28034
28026
27989
28001
27972
27964
27927
27930
27891
27873
27877
27878
27845
27835
27826
27813
27813
27759
27736
27707
27711
27712
27695
27673
27641
27588
27620
27588
27560
27547
27537
27503
27498
27509
27455
27441
27439
27371
27396
27390
27356
27328
27293
27275
27254
27253
27190
27191
27198
27148
27135
27111
27068
27050
27045
27018
26996
26956
26983
26945
26903
26864
26881
26867
26853
26854
26801
26791
26798
26763
26734
26717
26746
26686
26662
26664
26643
26648
26593
26592
26519
26521
26446
26468
26382
26342
26295
26261
26234
26198
26205
26162
26147
26134
26109
26103
26097
26130
26115
26142
26142
26172
26168
26174
26187
26234
26226
26278
26272
26298
26352
26384
26414
26455
26546
26550
26606
26704
26739
26816
26950
27032
27097
27225
27313
27417
27519
27612
27751
27838
27902
27988
28098
28113
28166
28202
28225
28220
28230
28217
28219
28177
28178
28191
28144
28113
28156
28134
28058
28059
28063
28054
28041
28024
27998
28009
27995
28012
27963
27943
27907
27912
27904
27877
27837
27862
27812
27813
27777
27788
27751
27746
27771
27739
27705
27642
27682
27643
27652
27619
27618
27605
27574
27550
27519
27523
27508
27474
27465
27445
27426
27386
27371
27377
27341
27355
27315
27267
27247
27214
27225
27187
27141
27158
27116
27101
27080
27037
27039
27033
26993
26987
26943
26948
26917
26877
26898
26846
26840
26777
26804
26774
26784
26769
26729
26733
26708
26691
26642
26640
26649
26604
26601
26564
26547
26528
26473
26481
26390
26371
26339
26318
26218
26192
26159
26142
26109
26108
26096
26097
26085
26081
26104
26106
26110
26087
26133
26158
26122
26169
26149
26191
26196
26251
26291
26340
26330
26367
26412
26448
26526
26573
26646
26694
26760
26815
26946
27018
27134
27230
27329
27483
27568
27666
27723
27846
27929
27998
28060
28106
28106
28173
28189
28211
28211
28161
28218
28185
28157
28100
28099
28121
28069
28073
28066
28041
28040
28058
27978
27974
27974
27957
27934
27923
27908
27902
27857
27883
27844
27834
27817
27781
27770
27766
27771
27739
27748
27722
27680
27700
27667
27676
27635
27606
27613
27573
27560
27557
27539
27487
27498
27477
27461
27478
27402
27386
27365
27342
27340
27331
27275
27261
27248
27211
27218
27155
27181
27171
27128
27072
27076
27078
27015
27003
26965
26944
26914
26931
26942
26889
26881
26852
26834
26852
26781
26799
26785
26748
26729
26723
26684
26692
26669
26650
26612
26611
26599
26579
26538
26487
26474
26454
26390
26327
26335
26258
26229
26212
26171
26150
26097
26112
26115
26103
26098
26080
26099
26117
26098
26118
26137
26155
26157
26189
26192
26194
26215
26246
26306
26298
26332
26382
26397
26458
26534
26590
26673
26719
26815
26879
26958
27052
27188
27269
27378
27465
27589
27676
27774
27832
27879
27967
27992
27998
28032
28023
28057
28076
28084
28043
28047
28023
28013
27968
27960
27963
27919
27936
27892
27889
27855
27847
27854
27830
27792
27793
27746
27744
27757
27713
27719
27672
27666
27643
27611
27621
27585
27583
27558
27562
27542
27507
27498
27489
27468
27444
27442
27414
27416
27402
27382
27354
27312
27302
27308
27261
27238
27235
27212
27201
27191
27123
27113
27079
27096
27063
27041
27052
26995
26971
26953
26927
26920
26870
26859
26861
26806
26811
26791
26773
26748
26727
26678
26703
26671
26664
26660
26616
26625
26593
26579
26597
26562
26515
26543
26499
26469
26438
26423
26376
26363
26325
26270
26217
26164
26160
26104
26117
26067
26030
26006
26004
26000
25973
25991
25972
25999
26011
26020
26041
26034
26043
26050
26077
26095
26112
26095
26162
26178
26222
26269
26281
26315
26374
26455
26526
26561
26653
26738
26803
26909
26990
27134
27232
27322
27428
27504
27619
27683
27742
27810
27842
27841
27881
27864
27900
27875
27874
27865
27845
27818
27797
27821
27760
27750
27735
27745
27712
27715
27675
27646
27660
27621
27649
27590
27593
27543
27539
27548
27489
27501
27504
27462
27449
27401
27430
27406
27395
27368
27297
27346
27314
27269
27251
27246
27220
27233
27173
27180
27184
27172
27136
27117
27076
27071
27037
27003
26999
26963
26981
26961
26895
26895
26869
26824
26813
26791
26763
26725
26731
26732
26697
26656
26637
26613
26597
26583
26544
26533
26515
26489
26439
26450
26421
26406
26405
26384
26354
26337
26329
26327
26291
26273
26230
26231
26226
26159
26155
26109
26063
26008
25994
25945
25915
25813
25800
25790
25741
25737
25719
25674
25696
25700
25679
25694
25668
25666
25692
25713
25712
25704
25755
25738
25767
25771
25797
25816
25855
25887
25895
25963
25997
26080
26116
26166
26245
26313
26410
26504
26600
26661
26825
26916
27038
27096
27220
27294
27393
27524
27491
27570
27595
27602
27624
27638
27622
27602
27572
27559
27578
27544
27535
27504
27499
27457
27464
27422
27424
27417
27398
27397
27349
27333
27316
27259
27268
27275
27245
27253
27213
27219
27157
27170
27156
27137
27124
27095
27077
27078
27060
27048
27023
26999
26982
26953
26968
26924
26884
26882
26877
26871
26837
26825
26809
26761
26756
26730
26696
26691
26661
26646
26619
26598
26582
26546
26542
26509
26521
26457
26447
26427
26370
26350
26345
26342
26286
26277
26241
26228
26212
26227
26175
26153
26159
26136
26126
26082
26063
26030
26019
26016
25962
25966
25931
25918
25906
25867
25816
25800
25776
25716
25672
25620
25593
25551
25485
25492
25438
25448
25425
25413
25413
25412
25418
25437
25402
25444
25450
25422
25482
25467
25480
25520
25526
25555
25582
25610
25633
25666
25737
25776
25860
25918
25994
26048
26143
26235
26313
26420
26513
26607
26691
26831
26925
27004
27145
27214
27295
27363
27358
27445
27479
27489
27499
27515
27514
27494
27483
27442
27450
27449
27455
27446
27425
27422
27392
27356
27383
27347
27357
27290
27298
27281
27276
27263
27233
27229
27224
27220
27202
27193
27174
27179
27142
27134
27157
27136
27111
27113
27094
27067
27074
27063
27080
27007
27037
26989
26986
26974
26980
26955
26895
26910
26908
26865
26848
26816
26846
26793
26772
26764
26742
26721
26674
26667
26646
26612
26605
26593
26567
26541
26543
26511
26525
26502
26452
26439
26425
26445
26401
26350
26333
26351
26340
26312
26293
26273
26252
26255
26259
26248
26254
26221
26216
26180
26174
26151
26094
26061
26057
26012
25967
25932
25898
25868
25859
25816
25787
25784
25756
25803
25742
25793
25770
25761
25793
25798
25833
25833
25846
25833
25910
25930
25949
25963
26025
26047
26064
26120
26156
26213
26248
26333
26385
26419
26486
26614
26671
26766
26839
26958
27062
27181
27266
27382
27480
27564
27665
27717
27771
27830
27868
27907
27873
27904
27879
27859
27883
27847
27820
27840
27793
27799
27779
27763
27716
27737
27726
27692
27648
27647
27656
27624
27605
27570
27580
27560
27541
27538
27509
27478
27441
27433
27414
27378
27399
27395
27370
27371
27363
27348
27342
27306
27293
27240
27277
27250
27262
27210
27270
27241
27217
27149
27201
27145
27174
27138
27123
27090
27078
27046
27056
27048
27016
27014
26994
27002
26963
26963
26943
26923
26901
26889
26877
26859
26833
26857
26819
26809
26829
26797
26758
26748
26740
26739
26753
26716
26716
26719
26718
26695
26685
26688
26628
26656
26624
26636
26597
26588
26584
26518
26529
26503
26496
26427
26424
26379
26385
26314
26284
26295
26290
26305
26272
26301
26286
26337
26301
26382
26356
26413
26430
26451
26474
26470
26554
26585
26629
26675
26700
26745
26796
26873
26898
26960
27039
27140
27243
27352
27404
27503
27610
27721
27824
27902
28010
28085
28190
28253
28368
28411
28474
28484
28518
28572
28600
28603
28607
28590
28594
28592
28568
28607
28601
28589
28561
28539
28529
28541
28531
28534
28550
28495
28496
28490
28484
28470
28471
28477
28466
28458
28453
28452
28422
28420
28406
28396
28388
28411
28399
28384
28373
28356
28365
28323
28359
28334
28331
28347
28322
28333
28310
28302
28269
28266
28282
28268
28209
28229
28212
28223
28211
28206
28175
28198
28140
28168
28127
28117
28125
28131
28130
28105
28084
28046
28081
28042
28037
28019
27988
27992
27981
27977
27933
27993
27901
27941
27922
27903
27894
27837
27887
27879
27833
27815
27816
27780
27757
27762
27744
27713
27677
27637
27619
27573
27523
27488
27477
27421
27439
27424
27413
27369
27386
27342
27377
27365
27346
27357
27344
27321
27349
27380
27372
27375
27384
27415
27419
27432
27434
27483
27516
27551
27597
27623
27702
27740
27791
27882
27938
28032
28094
28162
28211
28269
28355
28391
28451
28495
28542
28532
28542
28519
28546
28492
28513
28526
28493
28480
28464
28429
28376
28367
28352
28374
28324
28294
28319
28315
28268
28220
28233
28185
28168
28167
28155
28147
28090
28101
28082
28069
28066
28038
28055
27956
27951
27946
27975
27957
27901
27908
27906
27863
27866
27853
27822
27794
27772
27776
27724
27750
27694
27690
27654
27624
27652
27628
27560
27554
27526
27526
27503
27445
27449
27405
27404
27385
27343
27305
27291
27306
27285
27273
27202
27226
27189
27151
27145
27143
27101
27065
27101
27051
27031
27006
26999
26964
26953
26929
26934
26896
26890
26880
26868
26852
26826
26778
26748
26713
26723
26683
26634
26588
26617
26589
26541
26472
26465
26454
26470
26440
26434
26452
26452
26436
26476
26446
26443
26493
26516
26537
26587
26598
26624
26646
26713
26742
26758
26802
26822
26910
26960
27008
27056
27142
27216
27298
27392
27464
27543
27626
27748
27834
27903
27961
28040
28097
28156
28201
28252
28271
28269
28287
28285
28268
28280
28274
28273
28226
28219
28190
28172
28186
28188
28158
28129
28098
28098
28091
28070
28073
28042
27996
28021
27959
27947
27907
27960
27885
27908
27893
27881
27850
27863
27829
27823
27807
27768
27744
27752
27741
27696
27695
27695
27672
27665
27631
27647
27611
27603
27543
27528
27519
27499
27486
27466
27449
27445
27410
27400
27350
27345
27311
27331
27248
27271
27257
27221
27203
27186
27169
27152
27097
27088
27103
27068
27035
27064
27008
26990
26959
26969
26922
26906
26898
26872
26862
26849
26831
26847
26813
26823
26814
26750
26760
26708
26710
26706
26699
26664
26648
26616
26591
26535
26500
26466
26455
26386
26385
26317
26351
26320
26306
26324
26285
26286
26322
26303
26342
26361
26345
26394
26357
26430
26439
26454
26484
26519
26565
26576
26626
26681
26708
26759
26811
26909
26923
26984
27049
27148
27255
27336
27418
27497
27576
27697
27763
27858
27931
27964
28051
28080
28100
28123
28159
28170
28190
28194
28137
28150
28118
28124
28128
28090
28090
28070
28065
28016
28000
28028
27970
28003
27959
27917
27955
27909
27903
27891
27879
27842
27818
27814
27814
27824
27763
27769
27740
27750
27701
27697
27674
27674
27672
27642
27624
27630
27603
27589
27541
27516
27513
27533
27524
27478
27485
27417
27446
27409
27410
27398
27353
27338
27313
27297
27292
27293
27265
27230
27235
27166
27140
27139
27141
27128
27113
27111
27053
27018
27006
27002
26964
26948
26950
26935
26890
26912
26883
26855
26847
26827
26818
26775
26747
26795
26773
26751
26730
26694
26709
26681
26651
26631
26567
26564
26524
26476
26499
26441
26372
26371
26330
26311
26273
26215
26216
26250
26244
26222
26224
26245
26245
26260
26311
26322
26295
26319
26353
26369
26373
26423
26443
26485
26539
26572
26623
26672
26676
26753
26814
26868
26936
27001
27116
27212
27240
27361
27475
27536
27572
27727
27811
27849
27933
28001
28037
28082
28092
28097
28117
28138
28112
28109
28100
28070
28058
28063
28037
28011
28013
27996
27982
27951
27944
27929
27924
27883
27880
27865
27829
27832
27840
27795
27796
27778
27773
27774
27736
27731
27690
27694
27687
27673
27628
27626
27623
27594
27566
27557
27580
27536
27496
27532
27515
27469
27438
27418
27451
27395
27393
27361
27323
27296
27313
27288
27306
27240
27250
27236
27197
27174
27141
27125
27101
27092
27098
27060
27033
26989
27002
26984
26961
26907
26895
26884
26891
26849
26839
26805
26805
26773
26756
26748
26729
26692
26670
26670
26673
26631
26620
26622
26592
26600
26573
26537
26514
26475
26499
26439
26394
26340
26361
26305
26290
26230
26231
26173
26153
26157
26149
26156
26148
26149
26151
26171
26173
26174
26204
26249
26288
26277
26324
26343
26327
26372
26383
26447
26478
26569
26577
26646
26682
26753
26810
26890
26965
27035
27148
27233
27327
27388
27502
27614
27717
27742
27831
27908
27991
28045
28073
28065
28121
28138
28141
28107
28123
28105
28116
28116
28129
28076
28064
27995
27995
27975
27954
27972
27942
27915
27924
27923
27892
27856
27844
27850
27817
27824
27809
27813
27788
27763
27736
27707
27710
27715
27697
27674
27638
27677
27616
27587
27591
27597
27539
27561
27506
27520
27520
27479
27441
27428
27395
27367
27362
27354
27329
27312
27306
27279
27229
27187
27188
27203
27185
27117
27121
27110
27033
27056
27055
27019
27000
26981
26988
26936
26927
26944
26929
26897
26853
26831
26836
26800
26792
26755
26791
26757
26737
26699
26689
26650
26685
26648
26641
26606
26558
26530
26499
26494
26436
26396
26383
26333
26330
26300
26255
26217
26237
26242
26222
26228
26235
26262
26258
26306
26311
26357
26346
26380
26404
26403
26442
26470
26536
26611
26647
26670
26664
26721
26775
26860
26905
26966
27055
27125
27197
27284
27404
27477
27563
27653
27739
27856
27919
28009
28073
28135
28202
28253
28289
28274
28286
28302
28302
28268
28241
28247
28250
28251
28215
28201
28174
28159
28171
28139
28131
28117
28106
28074
28075
28062
28054
28019
27988
27999
27974
27964
27954
27924
27905
27902
27868
27870
27860
27831
27820
27809
27828
27787
27791
27768
27746
27741
27712
27704
27661
27666
27627
27639
27585
27581
27558
27566
27511
27520
27501
27468
27442
27441
27413
27393
27387
27367
27347
27289
27288
27272
27219
27228
27232
27203
27160
27164
27149
27149
27117
27095
27081
27078
27078
27056
27045
26996
26978
26960
26978
26904
26930
26911
26875
26865
26843
26831
26756
26754
26714
26684
26632
26633
26569
26559
26540
26534
26549
