28586
29895
30145
28719
28804
30559
30366
28381
28510
30132
29607
28261
29513
31469
30624
29184
30591
32120
30996
30571
32594
33385
32163
32305
33658
33380
32495
33247
34161
33448
32422
32488
32715
32194
32294
33508
33564
32162
32065
33123
32594
31509
32551
33567
32174
31444
33056
33343
31255
30591
32404
33156
31861
31532
32434
32107
31417
32314
33081
31875
30847
31918
32740
31674
31216
32196
32222
31367
31958
33108
32193
30736
31730
32995
31717
30615
31907
32629
31280
31031
32760
32872
31166
31418
32949
32064
30296
31069
32478
31784
31281
32477
32290
30199
30021
31780
31464
29418
29586
31056
30392
29422
30814
31643
29724
28709
30538
31021
28745
28419
30737
30974
29209
29528
31038
30067
28235
28969
29969
28574
28114
30317
31248
29770
29667
31357
31163
29635
30626
32460
31347
29876
31572
33479
32514
31565
32927
33509
32016
31768
33104
32649
30988
31761
33839
33177
31230
31893
33293
32270
31330
32661
33011
30955
30669
33080
33460
31300
31292
33228
32722
30818
31329
32072
30384
29911
32243
32971
31192
30879
32359
32233
30925
31496
32448
31008
29749
30979
31862
30748
30272
31473
31850
30807
30709
31564
31318
30627
31458
32446
31173
29699
30972
32132
30548
29787
31396
31494
29951
30530
32083
30942
29072
29824
31042
30087
29203
30294
30903
29521
28810
29732
29671
28664
29441
31148
30658
28752
28769
30257
30387
29728
30060
30093
28787
28090
29117
29791
29085
29080
30189
30150
29207
29729
30956
30305
29259
30791
32686
31861
30783
31775
32739
32638
33350
34411
33279
31674
33038
34494
32658
31498
33524
34235
32414
32499
34475
34134
32353
32851
34385
33680
31907
32129
33500
33158
32241
33170
33835
32312
31671
33187
33164
31106
31255
33418
33355
31760
32089
33092
32229
31227
32084
32570
31187
30849
32556
32929
31533
31814
33434
32642
30783
31806
33065
30989
29683
32087
33549
31759
31170
33169
33230
31122
31596
33301
31766
29985
31767
33225
31460
30423
32021
32523
31024
30809
31821
31008
29191
29779
31823
31565
30035
30630
31675
30405
29246
30164
30192
28404
28595
30903
31038
29179
29214
30733
30693
29811
30433
31109
29962
29405
31056
31944
30808
30735
32622
33190
31978
32159
33278
32689
32209
33952
35062
33523
32687
34466
35067
33113
32822
34560
34310
32983
34175
35690
33788
31445
32857
34841
33657
32516
33828
34236
32756
32960
34784
34362
32431
32725
34109
33484
32410
33234
33907
32672
32316
33974
34049
31865
31495
33355
33416
31513
31430
32867
32760
32207
33218
33658
32181
31539
32918
33262
31729
31590
33045
33005
32166
33045
34112
33073
31961
33022
33810
32278
31284
32408
32753
31404
31489
33272
32920
30691
30817
32095
30774
29405
31078
32278
30429
29498
31599
32308
30152
29659
31158
30350
28447
29455
31202
30367
29402
30212
30492
29725
29854
30702
30577
29480
29338
30595
31089
30558
31308
32633
31991
31165
32649
33442
31651
31405
33827
34519
33127
33417
35090
34829
33289
33427
34172
33251
32742
34357
35064
33100
32029
33838
34777
33293
33158
34497
33632
31906
32944
34722
33775
32166
32896
33773
32713
32186
33296
33376
32168
32549
34187
33843
32147
32181
33079
32472
31669
32375
32804
31623
31250
32704
33088
31820
31925
33297
32912
31529
32147
33288
32291
31436
32743
33159
31329
30944
32967
33129
30991
31065
32805
32066
30638
31850
32987
31240
29763
31079
31838
30137
29677
31402
31665
30443
30837
31857
30676
29108
30066
31182
29650
28115
29269
30689
30031
29501
30647
30712
29107
29292
31096
30854
29334
29966
31530
30970
30267
31901
32841
31213
30960
33074
32943
30640
31363
34171
34164
33099
34746
36230
34505
33084
34610
35174
33007
32612
34743
34807
33115
33731
35498
34683
32957
33786
34996
33731
32890
34384
34934
33425
33133
34554
34440
32902
33172
34213
33069
31736
33042
34574
33571
32397
33427
34113
32931
32569
33348
32583
31311
32552
34548
33919
32656
33646
34405
32902
32348
33996
34042
31869
31985
34522
34634
32467
32449
34024
33536
32155
32905
33783
32532
32042
33602
33728
31927
31659
32979
32596
30932
31168
32236
31431
30709
31924
32527
31239
30597
31595
31979
30992
30669
31422
31444
30671
31062
32216
31454
29928
31110
32771
31561
30633
32174
32538
31065
31459
33124
32489
31112
32290
34010
33348
32278
33139
34145
33793
34207
35842
35746
34049
34144
35632
35339
34065
34714
35852
35137
34767
36145
36195
34207
33780
35550
35764
33993
34087
35927
35733
34259
34726
35845
34756
33152
33869
35013
34101
33360
34554
35237
34141
33801
35044
35029
33521
33657
34785
34162
33410
34534
35234
34183
34071
35478
35056
33184
33899
35858
34742
32754
34029
35778
34360
33186
35149
36235
34129
32932
34301
34496
32896
33215
34945
34437
33136
34124
34949
33121
31958
33670
34239
32043
31656
33749
33756
32066
32537
33936
32940
31343
32230
33374
32022
30957
32425
33352
31926
31410
33093
33255
31531
32144
33980
32770
31000
32687
34774
33752
32635
34160
35310
34571
34924
36178
35182
33821
35686
38014
36921
35166
36073
37411
37074
36777
37319
36892
35373
35319
36845
37104
36045
36060
36703
36119
35283
35966
36775
36027
35589
36713
36751
34829
34408
36455
37066
35526
35515
36516
35535
34749
36302
37011
35262
34516
36055
36305
34473
34370
36032
35749
34172
34684
36047
35042
33429
34481
35960
34944
33836
34694
35184
34321
34496
35712
35121
33569
34243
35692
34876
33735
34843
35913
34894
34393
35503
35131
33123
33043
34592
34267
32751
33329
34561
33451
32330
33765
34609
32609
31297
32821
33549
31904
31609
33201
33238
32286
32875
33569
32539
31833
33090
33852
32450
31585
32866
33884
33396
33771
35417
35160
33659
34852
36486
34886
34066
36736
37774
35616
35563
38087
37998
35703
35974
37781
36884
34882
35922
38328
37974
36347
36652
37225
36254
36014
37243
37033
35170
35373
37653
37787
35857
35816
37158
36670
35649
36529
36707
34564
34145
36489
37041
35214
34908
36239
36022
34796
35271
35895
34412
33666
35563
36674
35230
34507
35992
36525
35089
34842
36072
35855
34555
34785
35683
34841
33862
35176
36212
34933
34569
36065
35798
34052
34552
36120
35084
33332
34209
35422
34173
32880
33720
34283
33023
32735
34232
34113
32313
32627
34213
33099
31099
32420
34406
33074
31589
32965
33724
32046
31553
33267
33383
31721
32237
34002
33329
32317
33828
34985
33603
32951
34783
35575
34143
34365
36521
36626
35075
35618
37370
36841
35488
36677
38132
36795
35389
36317
37066
36452
36799
37925
37103
35478
36109
37545
37004
36065
36917
37634
36346
35653
37168
37632
35713
34963
36414
36710
35315
35367
36539
36011
35121
36225
37147
35821
34595
35453
36028
34599
33838
35143
35650
34550
34749
36392
36213
34677
35108
35962
34277
33033
34922
36452
35113
34147
35403
35558
33890
34163
35629
34573
33104
34402
35551
34048
33118
34637
35177
33634
33356
34373
33523
31948
32827
34332
33315
32000
33015
33813
32559
32014
33152
33062
31575
32002
33782
33384
31873
32371
33427
32646
31770
32666
33019
31322
30816
32968
33923
32187
31573
33444
34162
33065
33489
34686
33808
33243
35294
36655
35282
34619
36409
37160
35655
35525
37044
36630
34880
35342
36971
36339
34854
35712
36821
35529
34522
35737
36299
35186
35579
37611
37155
34584
34676
36853
36640
34932
35108
35761
34905
34834
36183
35817
33855
33747
35270
35382
34317
34569
35385
34778
34302
35351
35676
34350
33777
34656
34565
33282
33578
35186
35098
33956
34481
35610
34777
33551
34351
34899
33435
33134
34715
34697
33381
34123
35736
34706
32648
33244
34596
33471
32074
32956
33717
32486
32038
33714
33986
32052
31765
33039
32302
30977
32350
33920
32512
31237
32690
33327
31427
30904
32658
32692
30969
31590
33431
32277
30297
31605
33458
32168
30740
32354
33554
31882
31486
34072
35145
33626
33555
35339
35397
34324
35460
36809
35216
33964
35846
37220
35745
34746
35985
36431
35054
34833
35881
35457
34347
35127
36440
35701
34612
35656
36530
35296
34725
35813
35611
34145
34380
35574
34887
33820
34916
36012
34934
34114
35050
35136
33646
33792
35667
35582
33857
34023
35214
34406
33199
34306
35216
33611
32859
34760
35552
33996
33559
34832
34546
33029
33594
34850
33782
32886
34415
35097
33230
32510
34403
34936
32932
32379
33640
33369
32522
33764
34798
32993
31280
32500
33627
32199
31219
32530
33179
31849
31494
32938
32911
31119
30984
32456
32458
31307
31463
32276
31783
31482
32798
32887
30738
30463
32741
32930
31006
31594
33632
33183
32422
34095
35153
33745
33123
34849
35697
34271
33830
35435
35926
34877
35182
36447
35671
34169
35126
36268
34834
34044
35632
36066
34704
34938
36430
35743
34016
34765
35797
33932
32511
34422
35859
34231
33120
34501
35005
33760
33951
35089
34031
32436
33594
35269
34142
32916
34472
35556
33829
32798
34131
34283
32390
32512
34888
35058
33180
33416
34970
34243
32858
34011
35084
33337
32238
33863
34478
32880
32577
34143
34271
32966
33219
33993
32664
31552
32993
34067
32663
31818
33210
33507
31765
31678
33005
32126
30556
31696
33186
31742
30095
31319
32295
30741
30223
31876
31821
29945
30067
31567
31038
29865
30865
32102
31289
30410
31149
31621
30905
31448
33415
33354
31329
31292
33300
33704
32494
32752
33918
33660
33424
34679
35088
33735
33383
35039
35890
34724
34012
34536
34231
33377
34017
35016
33926
32481
33533
34820
33677
32776
33838
34243
33377
33645
34620
33723
32126
32663
33506
32322
31815
33686
34439
32609
32155
34220
34104
31367
31397
33725
32958
30704
31786
33679
32545
31675
33558
34179
32071
31521
33226
32937
30685
30958
33165
32940
31428
32270
33609
32626
31766
33172
33594
31488
30873
32672
32709
30929
31227
32948
32387
30816
31674
32705
30787
29287
31027
32440
31160
30373
31596
31670
30167
30528
31836
30617
29025
30544
32508
31490
29983
30873
31603
30398
30088
31189
30834
29857
31141
32859
32070
31093
32362
33317
32374
32258
33723
33842
32502
33236
35630
35436
33292
33665
35788
35666
34459
35253
35836
34257
33979
35863
35846
33940
33982
35560
35338
34105
34703
35555
34237
33312
34760
35581
34163
33551
34915
35010
33229
33158
34702
34495
33368
34224
35493
34410
33089
34197
34949
33233
32429
33882
34103
32767
33383
35291
34594
32634
33410
35154
34309
33036
34125
34970
33495
32929
34648
35045
33435
33431
35043
34729
32826
32780
33973
33617
33069
34246
34899
33674
33151
34256
34164
32652
32993
34546
33762
32118
33056
34624
33409
31578
32378
33318
31889
31291
33027
33674
32585
32823
34134
33564
32091
32821
34185
33277
32101
33342
34912
34372
33855
35259
35821
34515
34799
36771
36716
35372
36308
38173
37724
36992
38526
39380
37657
37059
38810
38814
36664
36794
38795
38588
37378
38250
39315
38346
37328
37891
37913
36468
36411
38250
38607
37210
37172
38441
38134
36794
37173
37997
36882
36022
37219
37782
36384
36036
37752
38137
36666
36866
37959
36568
34903
36293
37849
36326
34724
36082
37358
36249
35705
36807
36550
34981
35465
37459
37271
35707
36050
36920
35903
35260
36589
36757
34673
34248
36187
36427
34762
34837
36233
35769
34273
34746
35933
35053
33947
34957
35541
33821
32890
34372
34834
33312
33393
34768
33933
32590
33899
35279
33715
32225
33684
34668
32905
32363
34226
34444
32844
33139
34713
34216
33027
34253
35547
34312
33729
35709
36611
35174
35168
37196
37284
35625
36245
38148
37426
35612
36302
37843
37374
36931
38175
38208
36276
36014
37660
37412
35548
35964
37718
37160
35854
36681
37637
36766
36129
36931
36805
35170
35156
37007
37029
35290
35607
37495
36838
34641
35070
36323
35023
34127
35733
36264
34718
34747
36495
36124
34164
34576
35909
34724
33553
35110
36194
34782
34149
35548
35708
34388
34761
35952
34875
33435
34955
36991
35775
33778
34502
35617
34693
34252
35573
35572
33471
33068
34946
34986
33064
33272
34992
34347
32734
33642
34683
33178
32592
34559
34990
33178
33102
34914
34792
32997
33283
34872
34230
32872
33860
34992
33411
32101
34029
35635
34453
34269
35836
35465
34275
35860
38016
37299
36306
38056
39369
37802
36912
38462
38978
37626
37879
39633
38959
36703
37014
38565
37769
36640
37859
38712
37415
37350
39158
38762
36307
36152
38112
38339
36911
36936
37784
37000
36404
38025
38708
36432
35197
37377
38689
36905
36150
37636
37647
36326
36779
37873
36933
35901
37145
37720
35736
35181
37188
37544
36015
36609
38664
38012
35765
36175
37645
36522
35122
36455
37804
36658
35701
36782
37059
35682
35704
36983
36438
34959
35350
36190
35087
34138
35228
35869
34877
34819
36004
35618
33787
33792
35317
35100
34061
35124
36345
34897
33420
34666
35356
33274
32590
35043
36131
34581
34400
36167
36108
34490
34942
36123
35117
34611
36468
37303
36074
36155
37912
38046
36825
37524
39000
38242
37152
38340
39431
38179
37417
39132
39832
38067
37664
39012
38382
36806
37910
39650
38565
37172
38273
39356
38465
37704
38211
38210
37182
37434
39105
38969
37053
37091
38886
38784
37244
37460
38319
37548
37245
38560
38432
36400
35873
37436
38030
37260
37514
38050
36971
36514
38251
38986
37081
36127
37964
38872
37262
36880
38214
37718
36052
36578
38022
37274
35895
36739
37876
36772
35373
35876
36691
36211
36247
37550
36833
34215
34497
36731
35791
33709
34798
36000
34473
34278
36634
36718
34188
33751
35310
34886
33223
34108
36073
35429
34137
35178
36179
35127
34665
36213
36724
35198
35265
37642
38495
37424
37780
39295
38770
37334
38284
39600
38399
37564
38956
39450
38361
38760
40334
39717
37685
37864
39196
38476
37174
38004
39102
37974
37092
38818
39649
37843
37608
39161
38024
35884
37203
39051
37473
36166
38056
39059
37196
36457
38018
38091
36140
36246
38441
38410
36581
36977
38596
38053
36949
37906
38299
36417
36167
38562
39090
37287
37258
38984
38826
37435
37979
38677
36977
36141
38077
38844
36982
36292
37899
38332
36810
36570
37828
37511
35815
35942
37578
37337
35997
37001
38377
37021
35831
36948
37148
35646
35858
37501
36893
35140
35852
37252
36261
35319
36674
37294
35869
36063
38116
37970
36190
36715
38701
38703
37427
37815
39051
38871
38811
40401
41056
39630
39363
41366
41965
40264
40058
41492
41083
39935
41181
42795
41491
39667
40738
42101
40990
40333
41401
41261
40229
41152
42594
41502
39710
40399
41510
40346
39239
40311
41118
40014
39576
40962
41091
39454
39463
40904
40359
38693
39379
41306
40887
39497
40276
41238
39946
38979
40000
40130
38569
38743
40644
40464
38985
39924
41420
39954
38469
40192
41052
38786
38369
40567
40441
38879
39891
41338
39804
38107
39484
40635
38511
36896
38409
39490
38262
37887
39324
39360
37861
38152
39239
37949
36364
37620
39226
38151
36956
38274
39137
37670
37143
38436
38053
35977
36150
38394
38521
37062
37850
39495
38861
38322
40003
40550
38747
38855
41289
41534
39922
40577
42492
42099
40819
41625
42333
40754
40190
42139
42689
40956
40645
42259
42398
40975
41178
42309
41283
39775
40810
42174
40756
39154
40356
41204
39673
39680
41494
40947
39354
40492
41936
40287
38477
39679
40775
39276
38359
39648
40026
38746
38994
40744
40290
38322
38783
40406
39542
37973
38783
39915
39001
38609
40181
40538
39054
39184
40708
40124
38371
38849
39851
38831
38585
40446
40657
38597
37971
39197
39010
37377
37567
39144
38674
37126
37877
39400
38096
36089
37229
38735
37066
35594
36847
37521
36394
36631
38352
38031
36098
36291
37578
36893
36070
37031
37292
36068
36310
38070
38095
36784
37179
38664
38571
37467
37849
39324
39356
38840
40191
41307
39958
39341
41045
41091
38837
38866
41004
41097
40058
40776
41760
41174
40400
40752
40972
40049
39642
40693
41218
40487
40320
40804
39937
38605
39344
40279
38598
37324
39532
41605
39857
37851
39277
40372
38544
38122
39788
39217
37588
38696
40244
39173
38362
40104
40853
39090
38719
40368
40031
37955
38315
40296
39551
37628
38749
40411
38818
37351
39038
39935
38006
37614
39511
39195
37130
37653
39486
38787
37363
38407
39178
37348
36830
39032
39378
37103
36402
37818
37951
36675
37018
38437
37877
36419
36876
37820
36713
35590
36953
38059
36760
36329
37846
38052
36995
37540
38700
37807
36447
37452
39003
38425
37381
38088
39140
38910
38955
40318
40593
39286
39445
41073
41095
40022
40689
42210
41902
41081
41847
42117
40589
40252
41680
41351
39441
39781
41400
40870
39941
40889
41137
39436
38894
40410
40519
38616
38498
40260
40173
38867
39499
40706
39640
38396
39772
40876
39206
38337
39922
40367
39071
39419
40944
39942
37624
38254
40205
39533
38200
39168
40061
38813
38180
39573
39776
38186
38298
39829
39116
37109
37776
40092
39867
38127
38483
39462
38473
37724
38725
38596
36811
36987
38714
37957
35930
36691
38561
37785
36142
36896
37882
36557
35759
37191
37657
36368
36401
37805
37468
36001
36566
37661
36369
35281
36899
38086
36646
35895
37680
38401
37016
37532
39615
39199
37699
38688
40040
38834
37896
39839
41180
39859
39538
41079
40824
39320
40320
42232
41038
38836
39513
41102
40691
40109
40800
40513
38876
39060
40813
40446
38681
39079
40510
39865
38523
39237
40227
39293
38852
40268
40498
38900
38725
40388
40552
38909
38662
39591
38941
38029
39230
40441
39187
37736
38641
39623
38492
37759
38892
39298
38153
38188
39506
38730
36641
37501
39547
38409
36542
37619
38890
37739
37184
38807
38800
36458
36176
37834
37205
35491
36277
37461
36359
35677
36775
36742
35476
35794
37065
36491
34625
34599
36222
36231
34969
35545
36751
35554
34006
34986
35711
34233
34146
36079
36037
34651
35739
37699
36626
34822
36317
38117
36728
36017
38316
39355
37777
37576
39324
39358
37791
38182
39771
39296
37970
38698
40072
39532
38667
39442
39522
37920
37970
39850
39617
37530
37552
39214
38933
37654
38237
39113
38170
37404
38283
38415
36691
36448
38795
39524
37429
36857
38553
38482
36820
37266
38401
37239
36460
38105
38771
37219
36781
38299
38601
37111
36873
37971
37686
36799
37592
38570
37607
36799
38183
38927
37381
36967
38305
37958
36493
37157
38561
37521
35953
37074
38437
37221
36172
37162
37352
36014
36142
37678
37414
35836
35855
36757
36292
35390
35878
36720
36207
35818
36917
37143
35566
35390
37088
37050
35309
35654
37464
37444
36858
37823
38225
36889
36592
38320
38987
37920
38193
39529
39205
38713
40099
41030
39842
39255
40704
41100
39398
39196
40892
40913
39521
39966
41387
40599
38874
39485
40810
39869
38487
39306
40636
40219
39642
40412
40249
38692
38899
40402
39556
37577
38521
40997
40655
38888
39476
40528
39254
38328
39543
39647
37840
37949
39805
39474
38137
39388
40905
39337
37773
39254
39915
37630
37210
39688
40145
38577
38833
39990
39086
37801
38861
39977
38420
37008
38450
40055
39330
38581
39472
39386
37798
37970
39069
37831
36440
37832
38988
37290
36141
37917
38885
37174
36443
37571
37178
35673
36447
38264
37596
36158
37100
38360
37511
36818
37904
38311
37043
37090
38866
38866
37249
37695
39582
39503
38548
39642
40808
39803
39547
41300
41497
39738
39638
41305
41317
39861
40259
41772
41225
40019
40819
41628
40037
38666
40069
41233
39931
39366
40511
40170
38589
38928
40311
39696
38424
39305
40129
38729
38157
39627
39671
38123
38534
40178
39370
37314
37469
38745
38540
37827
38307
38715
37585
36949
38300
38813
37142
36629
38150
38325
37061
37459
38411
37581
37214
38397
38188
36537
36353
37543
37560
36231
35926
37104
37449
36610
36805
37730
36714
35045
35853
36688
34835
34021
35964
36535
34883
34577
35721
35409
34200
34657
35583
34841
34026
34690
35026
34083
34069
35549
35723
34433
34580
35611
34637
32947
34023
36586
36544
35181
36360
37895
36481
35489
37317
37735
35697
36228
39107
39203
37367
37686
38953
38346
37239
37826
38513
37417
36547
37520
38121
37313
37323
38566
38534
37454
37725
37862
36069
35570
37606
38191
36341
35812
37390
37829
36793
36928
37328
35957
35113
36534
37251
35801
35421
37235
37564
35708
35445
36819
36342
34779
35263
36468
35720
34921
36054
36738
35484
34627
35358
35813
35166
35273
36325
35964
34623
35089
36401
35696
34351
35063
35841
34534
33962
35571
35840
33865
33319
34781
34641
33070
33694
35121
33858
32425
33698
34646
33077
32185
33826
34761
33276
32477
33617
34027
33159
33454
34570
33631
31913
33097
35192
34494
33333
34478
35403
34539
34682
36392
36344
34826
35552
37662
37358
35693
36164
37816
37909
37747
38850
38826
36962
36621
38180
38071
36403
36743
38245
37727
36860
37951
38390
36605
35866
37512
37849
35975
35923
37733
37274
35467
36151
37889
37153
35666
36611
37712
36151
34876
36229
37141
35887
35666
37454
37398
35333
35686
37357
36078
34269
35613
37098
35959
35292
36767
36969
35280
35366
36935
36261
34319
34765
36431
36127
35360
36356
36935
35674
35138
35929
35325
33623
34094
35845
35466
34248
34974
35851
34808
33909
34633
34503
32839
32991
34997
34944
33143
33211
34648
34225
32675
32880
33625
32621
31970
33350
34301
33540
33256
34315
34758
34203
34510
35311
34823
34044
35039
36571
36115
35106
36346
37849
37107
36465
37500
37750
36796
37252
38620
37906
36227
36707
37960
37343
36530
37462
38049
36791
36335
37734
37875
36232
36101
37433
37140
35989
36684
37380
36054
35658
37299
37483
35872
35631
36748
36550
35301
35458
36390
35782
34932
36088
37341
36077
34557
35580
36467
35066
34671
36151
36099
34844
35347
36412
35539
34504
35640
36805
35883
34906
35529
35957
35054
34764
35749
35422
33988
34749
36393
35311
33715
34718
35485
33982
33721
35433
35049
32811
32908
34541
33836
32096
33032
34667
33528
32316
33927
34965
32963
31484
32975
34185
33105
32772
34154
34127
32822
33445
35154
34521
32924
33851
35258
34178
33536
35388
36308
34965
34920
36854
36917
35202
35817
37487
36542
35550
37242
38084
36194
35431
37022
37183
35604
35859
37307
36479
34629
35231
36906
36338
35207
36183
36868
35469
35192
36782
36266
33823
34125
36404
36280
35023
35752
36575
35553
34901
35968
36169
34471
34098
35979
36609
35294
35254
36622
36119
34310
34731
36207
35578
34735
35822
36396
35117
34774
36181
36188
34583
34829
36134
35165
33756
34980
36379
35107
33870
35157
35871
34259
33737
35041
34649
32906
33505
35340
34445
32513
33513
35423
34651
33198
33718
34092
32807
32776
34570
34415
32249
32179
34235
34581
32971
32877
34340
34083
32827
33828
35349
34253
33429
35747
36983
34954
34612
36799
36981
35891
36789
37967
37241
36500
37275
37701
36723
36376
37278
37528
36969
37307
38052
37175
35722
36225
37213
36467
35926
37078
37521
36234
35850
37073
37034
35683
35982
37141
36164
34460
35124
36670
36143
35449
36967
37674
35629
34793
36493
36345
34019
34290
36508
36153
34741
35856
37174
35943
34851
36122
36745
35133
34743
36365
36408
35046
35645
37198
36369
34898
35956
36766
34747
33916
36007
36504
34466
34333
36423
36410
34610
35048
36113
34359
32860
34574
35833
34360
33655
35029
35052
33511
33736
34994
34126
32619
33663
35457
34691
33172
33620
34157
33419
33849
35528
35108
33061
33586
36038
36067
34517
35110
36491
35896
35564
37528
38272
36339
36129
38253
38383
36997
37591
38970
38374
37282
37986
38670
37259
36187
37574
38743
37391
36273
37606
38331
36874
36701
38145
37698
36187
36971
38586
37835
36434
37189
37850
36462
35981
37509
37646
35949
35964
37609
37186
35410
35948
37523
36823
35529
36316
37135
35954
35430
36941
37370
35789
35203
36237
36450
35581
35745
36529
36002
35503
36832
37821
36628
35591
36529
37052
35756
35240
36235
36162
35225
35793
36738
35449
33896
35072
36240
34744
33962
35346
35570
34572
35121
36030
34807
33465
34528
35431
34019
33225
34522
34901
33689
33886
35406
35068
33550
33911
35044
34268
33035
33983
35696
35462
34853
36071
36652
34959
34487
36561
37338
36010
36448
38436
38151
36723
37587
39081
38386
37355
38321
39040
37587
36885
38592
39381
38019
37836
39263
38626
36664
37425
38790
37105
35952
37975
39010
37428
37178
38853
38535
36546
36981
38485
37155
35379
36898
38880
37728
36186
37333
38269
37022
36713
37831
37085
35462
36532
38484
37535
35777
36486
37466
36599
36357
37448
36808
34858
35575
37897
37592
35999
36489
37347
36349
35717
37179
37851
35990
35031
36705
37415
35758
35114
36455
36553
35173
35427
36379
35114
33909
35428
36592
34708
33158
34735
35976
34609
34085
35239
34878
33746
34768
36109
34883
33437
34641
35850
34847
34451
35773
35827
34562
35242
37103
36375
34665
36119
38400
37418
35969
37380
38533
37344
37440
39401
39057
36822
37010
39088
39282
37911
38040
39041
38489
37820
38898
39373
37805
37100
38436
38515
36826
37031
38593
37901
36662
37955
39283
37825
36318
37434
38308
36739
35960
37478
38039
36766
36767
38167
37612
35844
36605
38046
36674
35322
36741
37546
35928
35651
37726
37847
35698
35743
37506
36771
34957
36102
38184
37295
35741
36702
37667
36529
35909
36798
36363
34529
35039
37507
37230
34765
35110
37219
36345
34393
35458
36398
34439
33980
36165
36124
34071
34294
35862
35299
33969
34647
35234
33568
32816
34653
35425
33809
33416
35143
35282
33437
33502
35211
34985
33718
34365
35536
34878
34307
35837
36981
36185
36084
37377
37265
35770
36132
38174
38319
37034
37664
38981
38118
37118
38139
38512
36917
36818
38722
38580
36538
36804
38786
38510
36833
37225
38132
36878
36098
37705
38320
36618
36020
37574
37968
36454
36168
37125
36555
35526
36377
37371
36382
35448
36579
37421
36229
35580
36483
36536
35637
36110
37255
36434
35052
36106
37307
35948
35114
36703
37150
35426
35298
37079
36697
34558
34819
36504
35954
34780
35714
36365
34857
34493
36315
36293
34123
34220
36323
35932
33612
33713
35222
34495
33370
34529
35350
33919
33169
34466
34612
32951
32992
34482
34058
33015
34063
35173
34088
33081
33964
34157
32588
32605
34636
35049
33876
34627
36600
35944
33936
34820
36708
35808
34776
36630
38205
37120
36544
38104
38535
37135
37141
38304
37527
35915
36670
38390
37873
36880
38024
38739
37026
36208
37803
38195
36386
36181
37801
37579
36267
37133
38522
37447
35940
36823
37624
35784
34542
36380
37773
36448
35550
36886
37566
36546
36422
36892
35786
35068
36651
37659
36165
35355
36993
37456
35759
35972
37482
36526
35411
36733
37125
35514
35445
36872
36779
35839
36005
36430
35902
35059
35382
36670
36454
34920
35199
36506
35698
34346
34981
35413
34055
33918
35726
35825
34009
33956
35389
34950
33353
33633
34462
33459
32979
34720
35299
33397
32859
34819
35228
33559
33819
35245
34328
33404
35207
36485
35050
34395
36392
37487
36097
35723
37270
37585
36618
37301
38778
37776
35914
36933
38539
37383
36356
37760
38231
36555
36502
38479
38168
35885
36189
38007
37076
35341
36449
37892
36895
36314
37542
37460
35978
36278
37617
36935
35395
36051
37371
36616
35904
37218
37564
35541
34787
36590
37030
35309
35459
37202
36663
35290
36322
37531
36054
34376
35226
36225
35259
34961
36481
36809
35369
35474
37299
37080
35055
35254
36628
35543
34027
35175
36414
35239
34538
36113
36383
34341
34137
35903
35352
33209
33664
35472
34824
33624
34934
35922
34177
33222
34726
34729
32447
32408
34751
35133
33840
33967
34642
33947
33107
33735
34473
33729
33252
34646
35661
34824
34719
36374
36613
35287
35885
37158
36092
35605
37776
38852
37369
36824
38247
38741
37727
37592
38124
37347
36393
37495
39008
38032
36493
37655
38970
37697
37018
38375
38171
36374
36798
38562
37845
36180
36977
38163
36981
35854
36703
36956
35788
36340
38282
37760
35637
35805
37346
37082
36058
36684
37230
35999
35585
36939
37048
35664
35551
36682
36617
35419
35365
36298
36120
35318
35631
36153
35317
34681
35896
36596
35041
34064
35052
35435
34616
35018
36266
35298
33284
33974
35315
33916
32867
34519
35160
33606
33525
35008
34615
33154
33577
34472
33424
32272
33277
34410
33215
32064
33354
34133
32504
32066
33895
33929
31989
32367
34342
34144
33379
34650
35475
34236
33908
35572
35838
34174
34432
36487
36613
35782
36918
38140
36884
35549
36651
37485
35734
34604
36240
37380
36045
35393
36888
37025
35294
35686
37252
36097
34522
35779
36808
35280
34666
36539
37051
35275
34966
36220
35519
33684
34424
36552
36128
34548
35285
36344
35152
34503
35890
35728
33524
33746
36119
35839
33750
34293
36132
35426
33786
34475
35397
34051
33363
35105
35744
34076
33620
35023
34873
33517
34238
35184
33569
32822
34848
35486
33578
33044
34464
34428
32880
32879
33888
33359
32526
33626
34570
32742
30998
32634
34245
32761
31803
33085
32895
31205
31702
33246
32484
31301
32320
33312
32335
31566
32673
33797
33225
32819
33970
34236
32896
33214
35144
35007
33808
35019
36233
34855
34596
36781
37117
35268
35130
36786
37072
35865
35731
36611
36414
35718
36181
36670
35707
35066
36197
36569
35040
34802
36240
36158
35013
35627
36733
35615
34173
35276
36491
35196
34098
35143
35599
34376
34304
35760
35540
33881
34124
35550
35069
33803
34511
35817
35203
34364
35211
35502
34080
33693
34826
34519
32956
33484
35311
34884
33542
34566
35903
34632
33294
34259
34343
32269
32335
34812
34685
32296
32413
34308
33620
31511
31968
33126
31598
30290
31992
33346
31943
30850
31820
31988
30698
30967
32036
30822
29337
30804
32723
31813
30346
31030
31516
30272
30199
31801
31742
30234
30898
33197
33326
31930
32318
33479
32993
32461
33450
33959
33336
34046
35638
35195
33827
34371
35482
34879
34052
34744
34977
33616
33495
35344
35909
34612
34095
34726
34581
33819
34096
34623
33924
33485
34472
34869
33527
32811
33911
34156
32883
33089
34217
33332
32272
33717
35051
33727
32366
33276
34127
33331
32954
33761
33684
32430
32494
33972
33500
31427
31888
34035
33829
32675
33370
33602
32037
32115
33961
33422
31217
31703
33776
33286
31404
31789
32901
32026
31599
33275
33589
31429
30583
32012
32007
30109
30190
32113
32017
30525
30825
31747
30684
29486
30531
31304
29877
29322
30620
30638
29472
30210
31928
31340
29838
30688
31779
30372
29403
31020
32049
31173
31542
33435
33251
31572
32249
33963
33112
31889
33576
35344
34179
33122
34318
34668
33239
33324
35005
34809
32986
33294
35253
35068
33636
34372
35474
33868
32311
33787
34826
33049
32428
34226
34548
33324
33592
34374
33251
32122
33423
34574
32947
31534
32849
34146
33357
32774
33637
33602
32412
32818
34006
33058
31662
32825
34469
33500
32122
33344
34658
33613
32819
33545
33054
31398
31785
33621
33462
32114
32469
33157
32065
31345
32587
33087
31517
30972
32323
32311
30759
30940
32458
32206
30859
31092
31664
30625
30302
32016
32363
30323
29885
32032
32554
30835
30899
32172
30975
29404
30907
32636
31291
29922
31496
32674
31396
31527
33633
33547
31876
32589
34405
33804
32425
33460
35096
34807
34390
35346
35678
34700
34829
36283
36136
34600
34773
36113
35877
34975
35636
36462
35416
34678
36072
36440
34307
33753
35833
36116
34198
34371
35961
35372
34481
35850
36545
34739
33859
35427
35799
34019
33932
35575
35340
34223
34970
35826
34772
34052
35276
35684
33946
33395
35049
35613
34440
34467
35812
35664
34445
34889
35744
34482
33077
34051
35217
34214
33763
35994
36801
34215
33190
35030
34997
33252
33959
35586
34553
33190
34111
34654
33319
32888
34009
33859
32354
32624
34166
33479
31690
32412
33940
32897
31563
32823
33508
31593
31197
33364
33833
32477
32686
33920
33679
33043
33958
34569
33092
32313
34244
35856
34876
34279
36115
37039
35657
35583
36770
35939
34815
36225
37606
36767
36297
37419
37346
35860
36009
37327
36727
35172
35819
37449
36767
35265
36009
37193
36246
35140
35870
36494
35646
35563
36801
36544
34879
34990
36454
36194
34801
35001
35717
34896
34534
36000
36476
35032
34687
36108
36147
34593
34733
36008
35338
34210
35151
36138
35016
33958
34940
35754
34845
34450
35169
35046
34552
35291
35839
34557
33454
34503
35488
34492
33562
34162
34473
33628
33634
34875
34639
32983
33064
34318
33625
32058
32503
33511
32423
31511
33323
34590
32890
32052
33700
33722
31755
32090
33790
33142
32293
33801
34593
33057
32539
34118
34238
32362
32565
34968
35434
34270
34839
36141
35305
34141
35559
37144
36067
35119
36542
37493
36388
36111
37459
37075
35183
35734
37189
35790
34461
36298
37487
35634
34810
36707
37039
34909
34537
35929
35328
33880
35050
36828
35851
34658
35940
36565
34774
34290
35953
35638
33386
33913
36480
36229
34327
34897
36267
35269
34055
35139
35733
33977
33555
35792
36454
34541
33953
35384
35511
34372
34837
35613
34176
33268
35193
36438
34633
33350
34812
35451
33901
33984
35599
34905
33251
34019
35108
33758
32390
33364
34285
33449
32982
33645
33428
32362
32619
33695
33095
31829
32532
33837
33299
32297
32655
32927
31991
32041
33769
34170
32817
32984
34537
34192
32802
33637
35025
34187
33688
35526
36547
35455
35392
37195
37621
35998
35569
36718
36682
36004
36968
37915
36401
35119
36824
37812
35639
34864
36931
37390
35946
36050
36892
36032
35280
36628
37468
36126
35480
36727
37014
35690
35658
37036
36568
34889
35534
37140
36245
34746
35579
36402
34995
34457
36322
36736
34668
34300
36310
36593
34662
34309
35600
35550
35012
35952
36293
34774
34472
36379
36589
34498
34377
35897
35168
33902
35203
36461
35020
33565
34522
35420
34109
33115
34291
35146
34023
33458
34624
34442
32582
32850
34430
33459
31788
32830
34297
33524
32847
33979
34160
32581
32371
33601
33179
31804
32447
33933
33501
32662
33552
34510
34225
34255
35021
34793
33560
33861
35803
36240
35138
35793
37636
37415
36410
37422
37940
35933
35317
37561
38233
36420
36139
37802
37748
36085
36123
36907
35792
35065
36670
37348
35402
34516
36476
37516
36005
35497
36631
36266
34929
35437
36601
35890
34792
35523
36208
35217
34735
35820
36207
35187
34971
35793
35167
33804
34674
36141
35175
34092
35157
35447
33921
34338
36514
36008
33609
33752
35759
35950
34709
34794
35404
34445
33830
35447
36192
34075
32874
34734
35618
33953
33731
35059
34204
32689
33755
34973
33459
31990
33429
34970
33896
32796
33492
33653
32509
32473
33677
33511
32423
33046
33861
32626
31949
33501
34185
33027
33145
34680
34340
32771
33363
35048
34695
33616
34590
36075
35530
34977
36462
37123
35358
34723
36654
37532
36160
36119
37930
37856
36125
36460
37832
36869
35589
36852
37378
35217
34818
37084
37388
35943
36542
37862
36578
34824
35904
37166
35775
35002
36607
36897
35003
34797
36688
36757
35001
35202
36544
35783
34611
35512
36223
35036
34717
36389
36641
34879
34696
35916
35128
33476
34415
36291
35657
34528
35727
36561
34965
34340
36045
36171
33946
33834
36113
36201
34208
34158
35538
35152
33868
34159
34537
33340
33117
34910
35340
33668
33284
34779
35044
33888
33983
34445
33005
32070
33873
35122
33223
31666
33162
34151
32746
32755
34329
33607
31970
32948
34408
33475
32494
33553
34047
32916
33074
34656
34552
33390
34553
36861
36414
34703
35668
37584
36958
35682
36551
37462
36276
35712
37336
37846
36177
35832
37369
37440
36031
36314
37561
37049
36333
37348
37765
36295
35615
36809
37056
35628
35501
36869
37026
36407
36657
36460
34891
34340
35858
36434
35120
35215
36745
36326
34878
35799
37442
36085
33799
34721
36513
35440
34123
35345
36265
35011
34499
35828
35916
34364
34301
35850
36214
35219
35029
35519
34791
34043
35285
36047
34264
33323
34881
35104
33144
33021
34573
34177
33056
33992
34769
33372
32693
34297
34577
32400
31987
33911
33951
32406
33007
34578
33593
31916
32865
33740
31825
31070
33680
35035
33056
32195
33906
33678
31459
32342
34677
33367
31480
33391
35342
34101
33442
35300
35867
34592
35238
36833
35584
33886
35761
38185
37224
35681
36378
37108
36567
36404
36884
36569
35384
35224
36339
36299
35002
35251
36645
36250
34954
35490
36172
34790
34115
35914
36796
35342
34753
35982
35942
34434
34699
35988
35025
33539
34617
36023
34843
33604
34961
35881
34285
33650
34869
34485
32956
33742
35547
34821
33375
34714
36238
34911
33850
34937
34877
33333
33735
35271
34476
32939
33818
35094
34158
33269
34477
35320
34028
33295
34363
34284
32598
32528
33964
33768
32504
32947
33720
32710
32264
33617
33692
31979
31786
33476
33770
32284
32101
33259
33023
32127
32926
33967
32942
31911
33198
34003
32235
31449
33318
34367
33541
33897
35497
35055
33490
34614
36591
35853
34969
36495
37338
36115
36268
38199
37999
36012
36295
37964
37292
35716
36517
37826
36790
35796
36971
37354
35732
35617
37430
37260
35209
35611
37926
37744
36008
36560
37832
36716
35404
36423
36925
35371
35441
37515
37471
35883
36484
37981
37021
35545
36620
37412
35314
34249
36257
37080
35293
35058
37253
37654
35786
35721
37088
36426
35149
36156
37306
36090
35118
36678
37806
36809
36520
37215
36062
34406
35601
37389
35712
33132
33938
35875
35398
34467
35151
35181
33728
33846
35503
35140
33407
33790
35199
34577
33315
34014
34742
33482
32936
34455
34777
33198
33077
34704
34694
33348
33959
35144
33960
33085
34958
36252
34850
34098
35865
36899
35801
35698
36963
36824
36074
37294
38765
37642
36096
37261
38700
37736
36928
37876
37942
36736
37069
38494
37956
36446
36909
38093
37507
36442
36878
37518
36701
36194
37287
37458
35991
36104
37694
37170
35649
36818
38353
36982
35955
37475
37793
35827
35385
37089
37243
35541
35550
36961
36544
35473
36298
37102
35719
34560
35781
36725
35374
34566
35853
36479
35431
35516
36933
36115
33836
34581
36446
35151
33747
35405
36368
34835
34680
36372
35923
33874
34079
35386
34424
32943
33964
35214
33743
32481
34186
35241
33258
32293
34122
34585
32705
32641
34384
34123
32825
33515
34436
33383
32598
33706
34006
32702
33089
34911
34560
33292
34560
36580
36021
34807
35799
36555
35147
35025
37103
37498
36080
36547
38356
37997
36551
37305
38338
36753
35345
36872
38257
36899
35945
37647
38385
36459
35749
37183
37111
35521
35552
36460
35823
35410
36964
37831
36561
35844
36677
36614
35265
35582
37506
37322
35301
35434
37210
37033
35904
36576
36807
34933
34752
37116
37424
35303
35006
36666
36642
35169
35422
36484
35651
34767
35965
36690
35148
34464
36207
36556
34410
34202
36176
36128
34839
35648
36637
35015
33605
35271
36796
35447
34184
34987
35213
33884
33750
35185
35183
33976
34419
35427
34494
33494
34491
35043
33542
33100
34812
35088
33373
33358
35214
35422
33959
34148
35660
35577
35012
36357
37365
35890
35113
37208
38381
36955
36878
38555
38489
37795
38905
39477
37734
36759
38312
39054
37373
36783
38329
38646
37384
37798
39521
38942
36920
37311
38524
37216
35935
37385
38586
37509
37148
38582
38290
36118
36153
37992
37674
36142
36706
37833
36885
36013
37040
37484
36402
36253
37157
36696
35286
35653
36982
36468
35447
36419
37426
36294
35307
36427
36984
35402
34977
36978
37919
36817
36497
37285
36744
35555
36193
36980
35734
35173
36758
37186
35517
35155
36636
36501
34800
35123
36436
35221
33373
34281
35833
35076
34221
35550
36187
34520
33881
35088
34740
32938
33379
35534
35372
33666
34082
35222
34289
33638
35126
35564
33990
34337
36714
36953
35580
36219
37725
37235
36490
37799
38563
37081
36915
39102
39647
38037
37815
39355
39817
38944
38842
39089
38078
37342
38358
38985
37646
36854
38420
39576
38616
38189
38877
38359
37421
38283
39201
37735
36243
37652
39289
38286
37162
37970
38407
37474
37609
38923
38307
36483
37167
39029
38346
36860
37618
38494
37366
36980
38456
38534
36962
37152
38701
38338
36934
37607
38854
38013
37320
38585
38848
37057
36532
38138
38481
37004
37037
38356
37835
36651
37410
38264
37013
36080
37456
37988
35917
35012
36495
36775
35484
35874
37380
36555
34549
35085
36517
35583
34445
35504
36313
35404
35415
36861
36426
34372
34529
36256
35898
34477
35259
36920
36565
36095
37683
38407
36764
36609
38887
39293
37467
37887
40051
39659
38169
39376
41007
39881
38782
40124
40340
38174
38266
40761
40662
38714
39164
40642
39785
38577
39797
40590
38611
37735
39920
41001
39294
38660
40234
40204
38270
38426
39877
39065
37925
39298
40542
39488
38879
40027
39983
38495
38744
40148
39365
37469
38130
40180
39598
37913
39066
40719
39252
37734
39237
40254
38355
37567
39633
40251
38474
38488
40237
39852
38416
39217
39711
37555
36905
39239
39725
37581
37144
38726
38709
37418
37862
38518
36913
36045
37879
38736
36975
36183
37718
38222
36787
36637
37793
37230
35752
36379
37995
37547
36213
36863
37925
37198
36612
37473
37744
37101
37800
39392
39069
37781
38574
40367
40450
39828
40534
41304
40353
39705
41094
41707
40168
39943
41656
41588
40219
41211
42534
40959
39829
41596
42429
40724
39918
41123
41384
40154
40328
41740
41462
40433
41268
42210
40521
38651
39900
41607
40605
39613
40665
41077
39999
40162
41438
40625
38665
39433
41292
40469
39058
39985
40832
39705
39596
41556
41504
38996
38893
41200
41114
39171
39561
41140
40476
39603
41067
41841
39924
38843
40337
40970
39331
38889
40473
40598
39132
39212
40142
39286
38125
39069
39887
38563
38008
39484
39567
37826
37869
39450
38753
36996
38027
39043
36663
35363
37675
38786
37181
36959
38558
38499
37164
37575
38298
36791
35546
37087
38634
37742
37175
38993
40031
38840
38638
39830
39407
38269
39582
41708
41209
39869
40536
41208
40160
39868
41089
40822
38879
39101
41437
41481
39375
39270
40542
39833
38859
40369
41204
39253
38748
40783
40859
39014
39242
40813
40230
38618
39024
39657
37993
36946
38715
39851
38267
37464
39261
39956
38302
38144
39492
38788
37386
38479
39893
38714
37365
38430
39275
38077
37643
38928
39051
37693
37660
38801
38379
37316
38194
39316
38420
37633
38591
38861
37462
37430
39047
38602
36503
36950
38835
37861
35875
36832
37868
36152
35604
37484
37475
35686
35831
37145
36675
35386
35868
37020
36387
35428
36419
37379
35882
34589
36304
37757
36143
34999
36378
37168
36507
37122
38525
37610
36034
37607
39599
38218
36979
38939
40359
39278
39244
40963
40805
39101
39488
41083
40606
39218
39612
40444
39711
39402
40731
40835
39072
38767
40165
40037
38580
38930
40158
39299
38242
39627
40549
38692
37778
39862
40347
37733
37213
39378
39431
38052
38912
40317
39341
38016
38760
39301
37854
37379
39143
39787
38213
37774
39237
39101
37361
37899
39584
38542
36784
37713
39122
38498
37968
38936
38926
37507
37488
38829
38668
37122
37097
38536
38409
37390
38385
39252
37282
36141
38085
38474
35849
35426
37678
37550
35488
35786
37346
36796
35594
36464
37309
35837
34831
36098
36614
35388
35382
36891
36830
35523
36097
37298
36325
35548
37111
37975
36456
35937
37932
38828
37520
37585
38861
38201
37267
38758
40184
39254
38531
39762
40400
39500
39500
40545
40257
39001
39261
40513
40143
39124
39960
41010
40081
39256
40096
40319
39233
39686
41423
40847
38655
38603
39867
39320
38203
39102
40008
39011
38867
40383
40172
38264
38046
39357
39280
38259
38887
40028
39177
38143
39075
39788
38410
37489
38826
39523
38163
37986
39462
39394
38229
38884
40172
39208
37649
38537
39876
38920
37812
38723
39543
38727
38472
39732
39768
38138
37839
38874
38455
37037
37253
38431
38009
37189
38182
38793
37225
36587
38119
38194
36210
36045
37528
37101
35905
36823
37731
36362
35528
36971
37168
35400
35984
38291
37782
36212
37401
39054
38195
37344
38848
39787
38227
37571
39357
40349
39506
39627
40907
40441
38994
39802
41001
39677
38804
40723
41769
40060
39460
41330
41455
39265
39215
40992
40397
38676
39390
40549
39474
38925
40497
40823
39132
38779
39815
39206
37636
38453
40401
39749
38149
39109
40390
39002
37807
39317
39882
37809
37532
39642
39472
37499
37853
39438
38695
37150
38084
39457
38179
36844
38190
39622
38815
38087
39115
39450
38139
37894
38717
38214
37465
38463
39331
38218
37380
38532
39053
37727
37346
38389
38098
36786
37354
38897
38002
36096
36835
38311
37264
36151
37321
37706
35866
35553
37389
37429
35787
36039
37497
37131
35898
36408
37287
36479
36140
37688
38171
36709
36741
38883
39297
37834
38332
39798
38994
38343
40052
41014
39858
39528
40827
41204
40279
40353
41245
40822
39763
40496
42048
41326
39693
40742
42235
40723
39176
40371
41240
40073
39870
41280
41006
39350
39829
41489
41002
39671
40133
40817
40030
40009
41337
40900
38913
39112
41029
40861
39042
39097
40308
39951
39436
40354
40521
39190
38800
39852
39874
38572
38508
39573
39328
38583
39443
40413
39364
38386
39663
40343
38539
37891
39546
39905
38730
39152
40541
39943
38531
39159
40002
38576
37311
38491
39609
38593
37926
39221
39468
37886
37948
39259
38211
36449
37537
39243
38487
37708
38718
38842
37432
37210
38345
38370
37122
37224
38820
38977
38020
39084
40820
39868
38493
39987
41118
39496
39481
42300
42975
41182
41582
43797
43441
41599
42435
43872
42322
41018
42564
43211
41389
41128
43320
43630
41622
41693
43354
42529
40658
41465
42951
41681
40075
41175
41743
39764
39434
41394
40990
38976
39790
41616
40613
39208
40159
40946
40052
39695
40184
39388
37896
38675
40773
40382
38497
38951
40461
39685
38353
39188
39663
38049
38092
40511
40517
37858
37471
39738
40165
38535
38700
39922
38977
37856
39112
40146
38832
37747
38647
39105
38003
37847
38801
38454
37411
37884
38704
37737
36798
38119
38970
37270
36206
37142
37116
36126
36984
38470
37558
36120
36974
38014
37027
36234
37356
38130
37079
36809
38395
38727
37251
37413
39367
39643
38308
38791
40633
40747
40113
40968
41550
40369
39859
41425
42210
40872
40503
42018
42336
41223
41433
42476
41717
40684
42118
43170
41206
40064
41535
41811
40329
40490
41896
41415
40018
40695
41870
40926
39877
40883
41762
40703
39944
40855
40810
39319
39548
41252
41072
39569
39704
40656
40098
39718
41201
41725
39998
39483
40938
40631
38503
38863
41258
41226
39639
40319
41702
40699
39458
40634
41404
39612
38886
40809
41258
39388
39485
41616
41019
38381
38653
40106
38534
37087
38680
39513
37940
37788
39631
39405
37258
37524
39205
38199
36293
37070
38533
37920
37132
37908
38096
37047
37187
38283
37834
36642
37151
38282
37775
37190
38300
38981
38133
38295
39880
39926
38375
38847
41254
41656
40247
40557
42024
41877
41249
42231
42561
40568
39722
41535
42226
40724
40457
41963
41953
40458
40721
41840
40853
39780
41154
42456
41427
40506
41514
41850
40322
39922
41016
40735
39578
40177
41366
40501
39271
40421
41553
40237
39289
40320
40507
39328
39608
41029
40586
39163
39567
40583
40083
39557
40272
40366
39276
39576
41198
40915
39207
39393
40742
40271
38914
39467
40564
39559
38396
39420
40243
38972
38153
39361
39851
38499
38189
39215
38808
37707
38265
38983
37758
36781
38171
38948
37019
35928
37282
37794
36675
36633
37519
36780
35332
35939
37140
36457
35744
36964
37857
36602
35905
37567
38161
36568
36829
38760
38270
37099
38679
40024
38849
38874
40751
40488
38699
39194
40910
40610
39366
40017
41198
40346
39423
40636
41470
40080
39036
39806
39785
38266
38334
39961
39735
38352
39061
40534
39488
37886
38959
39844
37901
37036
38774
38910
37110
37399
39184
38519
36599
37404
39129
37950
36039
37039
38840
38151
37057
38190
38830
37252
36844
38404
38233
36335
36642
38754
38559
36894
37518
38748
37609
36848
38331
38293
36027
36161
38447
38322
36693
37024
37816
36763
35752
36558
36906
35403
34868
36259
36601
35521
35595
36644
36165
34546
34364
35178
34840
34326
35171
36001
35594
35357
36154
36304
35258
35167
36326
36370
35101
35304
37181
37311
36029
37203
39079
38157
37585
39525
39909
38116
38453
40476
40194
38840
39688
40990
40161
39055
39610
40122
39441
39698
41085
40587
38708
39107
40743
39916
38342
39437
40447
38766
38209
40242
40664
38947
38553
39538
39361
38340
38664
39608
38895
37692
38448
39764
38948
37745
38767
39392
37634
37049
38481
38480
37551
38313
39142
38131
37390
38352
38737
37663
37479
38849
39378
38143
37556
38665
38711
37188
37348
39102
39075
37637
37649
38432
37776
37342
38773
38981
36617
35951
38111
38403
36134
35763
37005
36311
35397
36816
37701
36096
35191
36581
36881
35052
34758
36227
35989
34922
35898
37298
36622
35752
36931
37958
36858
36250
37739
38685
37940
38273
40215
40199
38339
38881
40740
40103
39212
40717
41476
40016
39883
41664
41627
39999
40377
41828
40996
39327
40171
41947
41211
39819
40879
42037
40897
40243
41328
40889
38787
39109
41274
40913
39158
39904
41350
40320
39180
40390
40655
38360
37955
40359
40759
38906
38931
40314
39446
37802
38966
40514
39024
37610
38817
39448
38072
37804
39304
39433
38080
38302
39318
38431
37346
38503
39764
38857
37928
38848
39236
38094
38007
38817
37832
36422
37592
39321
38224
36448
37096
38074
37091
36274
37158
37519
36161
35648
36905
37164
35971
35970
36875
36354
35458
36148
36380
34930
35119
37438
37666
35636
35423
37145
37202
35838
36384
37916
37480
36901
38513
39807
38689
38025
39879
41153
40061
39677
40742
40495
39522
40605
42268
41350
39757
40857
42162
40661
39310
40436
41048
39731
39502
40905
40545
38781
39253
40687
39648
38310
39580
40609
39101
38387
39885
40129
38605
38472
39495
38989
37735
38322
39479
38871
38326
39396
39440
37678
37496
39478
39647
37521
37379
39268
39108
37651
38373
39665
38284
36742
38383
39845
38034
36885
38424
38781
37276
37562
39246
38630
36715
37192
38429
37294
36157
37478
38339
36774
36089
37853
38156
35912
35272
36636
36227
34653
35214
36563
36043
35673
37029
37223
35370
34806
36104
36004
34287
34524
36699
37148
36007
36195
37155
36869
36372
37232
37787
36710
36459
38274
39292
38460
38521
40043
40186
39219
39941
40665
39038
38423
40655
41777
40288
39645
40707
40452
39042
39523
40450
38987
37754
39256
40370
39003
38151
39322
39641
38392
38203
39010
38436
37175
37818
39464
38987
37394
37781
38795
38080
37643
38818
38825
37135
37318
39215
38887
36963
37115
38497
38164
37125
37739
38522
37632
37226
38495
38682
37231
37139
38685
38759
37409
37646
38578
37456
36381
37869
39084
37464
36167
37729
38601
36673
35915
37470
37554
36108
36387
37541
36658
35167
35826
36741
35663
34805
35713
36097
35201
35464
36887
36436
34624
34842
36394
36103
34746
35099
36346
36005
35355
36488
37356
36350
36132
37547
37725
36931
37970
39133
38196
38047
39779
39997
38719
39085
40495
40029
38526
39036
40587
40080
38712
39303
40476
39684
38727
39955
40788
39139
38285
39730
40292
39236
39342
40447
39705
38102
38807
39939
38486
37057
38284
39524
38868
38722
39932
39674
37972
37932
38983
38397
37444
38389
39255
37988
37342
39083
39804
37987
37152
38465
38648
37078
37182
39038
39173
37960
38318
39308
38644
37638
38242
38738
37474
36794
38054
38508
37367
37575
39142
38475
36391
37022
38517
36908
35200
36752
38301
37180
36180
37016
37067
35790
36047
37031
36045
35160
36629
37455
35623
34562
36271
37319
36200
35875
36655
35874
34575
35889
38154
37600
36280
37962
39858
38568
37544
39423
40300
38516
38476
40783
40915
39250
39929
41709
40969
39549
40578
41402
39572
38806
40905
41564
39677
39513
41568
41530
39604
40045
41520
40236
38831
40222
41203
39708
38959
40394
40814
39441
39510
40671
39784
38194
38869
40135
39410
38313
38952
39737
39202
38718
39075
38948
37925
37811
39091
39263
38176
38699
40044
39201
37765
38501
39460
38595
38382
39811
39638
37595
37401
39132
39276
37917
38150
39195
38382
37433
38487
38919
37072
36205
37930
38624
36909
36498
37968
37824
36551
37054
37981
36785
35488
36563
37384
35853
35345
37298
37878
36040
35810
37832
37698
35462
35929
37924
37207
36285
38172
39345
37946
37832
39858
40026
38317
38656
40691
40872
39622
39979
41443
41419
40956
41908
42105
40284
39703
41339
41600
39963
40070
41596
41141
39855
40461
41294
40510
39942
40748
40662
39160
39365
41389
41541
39867
39675
40614
39863
38641
39680
40616
38857
37859
39805
40998
39683
39159
40500
40497
38858
38945
40059
39057
37633
38765
40314
39434
38328
39424
40135
38910
38766
40200
39832
37962
38352
40424
40115
38304
38815
40158
39253
38306
39133
38706
36608
36992
39323
38969
36933
37309
38725
38009
36863
37677
38035
36281
35717
37283
37437
36073
36294
37631
37321
36193
36789
37728
36677
35668
36659
37472
36619
36398
37874
38332
37165
37348
38517
38009
37406
39095
40651
39641
38812
40558
41776
40524
40036
41449
41634
40365
40772
42336
41633
39835
40481
42029
41401
40402
41212
41588
40165
39997
41838
42017
40110
39718
41120
41266
39971
39797
40530
40224
39840
40517
40459
39162
38910
40179
40478
39348
39284
40233
39764
38755
39473
40382
39048
37623
38885
40148
38826
37930
38951
39107
38331
39237
40754
39929
38339
39017
39663
37978
37326
39244
39815
38170
38168
39897
39508
37774
38363
39679
38441
36989
38232
39382
37874
36904
38329
38555
36491
35917
37507
37622
35756
35605
37511
37888
36758
37029
37730
36568
35604
37117
38168
36478
35505
37116
37802
36525
36595
38190
37959
36858
38311
39794
38111
37207
39528
40804
39533
39600
41458
41325
39670
40421
42097
40947
39302
40569
42204
41374
40451
41381
41580
40262
40333
41548
40919
39531
40382
41879
40933
39521
40367
41140
40004
39676
40833
40263
38331
39024
41244
40777
39201
40086
41320
40077
38762
39799
40413
38610
37845
39747
40660
39320
38715
39707
39937
39038
39117
39828
39012
37922
39097
40854
40060
38523
39387
40300
38934
38394
39490
39064
37943
38934
40066
38765
37458
38540
39329
37967
37216
38212
38232
36923
37273
39098
38713
36573
36534
37833
37252
36260
37290
38049
36482
35550
36949
37547
36281
36034
36999
36602
35507
36264
37338
36400
35854
37461
38119
36568
36076
37714
38238
37088
37600
39464
39428
38715
39952
41245
40260
39155
40240
41351
40513
40077
41315
41636
40139
39770
41408
41877
40773
41132
41637
39587
38078
39587
40639
39626
39800
41460
41016
39145
39628
41147
40213
38728
39741
40978
39893
39202
40649
41064
39432
39011
40221
40012
38460
38622
39935
39665
39004
39868
40277
38997
38470
39806
40313
38967
38647
39961
40002
38868
39288
40502
39665
38232
39193
40188
38543
37638
39415
40297
39074
38786
39831
39491
37976
37957
38719
37915
36736
37429
38638
38072
37298
38354
38756
37085
36713
38199
37870
36158
36799
38673
38045
36631
37723
38873
37452
36567
38050
38357
36561
36781
39054
39014
37340
38066
40018
39807
38842
39786
40601
39503
39523
41572
41898
40280
40520
42534
42586
41012
41312
42513
41640
40752
42216
43164
41373
40081
41565
42490
41196
41088
42225
41310
39831
40880
42284
41358
40356
41361
41867
40565
40061
40890
40618
39585
40334
41906
41240
39574
39907
40782
39977
39456
40667
41036
39419
39140
41125
41423
39394
39199
41037
40913
39093
39095
39925
39297
39469
41280
41172
39032
38777
40527
40561
38860
38989
40538
40167
39003
39955
41150
39678
38013
39180
40164
38539
37969
39572
39523
37866
38024
39168
38396
37109
37864
38643
37409
36690
38096
38948
37948
37724
39085
39046
37441
37512
38913
38660
37583
38242
39358
38624
38040
39640
40727
39643
39325
40653
40604
39298
40180
42224
41801
40566
41618
42721
41450
40498
42028
42956
41524
41009
42184
42011
41058
41853
43098
42456
41103
41172
41719
40962
40183
41048
42091
41505
40915
41846
41950
40567
40921
42143
40634
38600
39696
41506
40919
40110
41100
41277
39755
39733
41236
40793
38969
39395
41228
40748
39283
40269
41588
40354
39347
40544
40584
38573
38885
41725
42122
39942
39431
40398
39875
38884
39781
40478
38915
38214
40096
40743
38773
38013
39530
39596
37881
38208
39829
38903
37225
38269
39722
38423
36937
38160
39223
37944
37516
38662
38188
36791
37442
38670
37830
36770
37745
38402
37261
37195
38849
39109
38001
38527
40049
39720
38879
40031
41345
40768
40245
41430
42286
41219
40897
42866
43468
41249
40607
42648
42972
41383
41931
43309
42153
41092
42409
42778
41013
40548
42253
42836
41425
41009
42024
41821
40926
41737
42809
41573
40382
42017
43052
41028
40267
42083
42121
40374
40680
42073
41268
39951
41119
42408
41182
40145
41462
42362
41112
40687
42368
42492
40466
40438
42137
41506
39790
40663
42184
41183
40290
41845
42408
40452
39912
41379
40801
38759
39523
41344
40289
39078
40545
41086
38909
38110
40036
40298
37996
37863
40137
40001
37971
38411
40115
39032
37133
38212
39319
37444
36783
39247
40123
38322
38158
39890
39644
38096
38932
40379
39114
37875
39680
41324
40077
39404
41572
42482
40656
40631
42750
42319
40153
41056
43672
43392
41882
42760
43770
42421
41607
42952
43117
41138
40939
42910
42992
41405
41724
43125
42603
41245
41739
42596
41363
40237
41501
42518
41353
40602
41695
41900
40605
40788
41920
41038
39905
41099
42100
40546
39465
41223
42305
40648
40006
41255
40888
39476
40287
41923
41257
39942
40775
41690
40590
39861
40687
40651
39597
40054
41376
40656
39233
40079
41230
39976
38738
39772
40467
39130
38705
40067
39910
38215
38477
40057
39501
37773
38136
39215
38475
38051
39394
39530
37887
37838
39547
39298
37226
37364
39168
38755
37352
38220
39439
38084
36832
38690
40314
38888
38079
39572
39897
38754
39372
41165
41065
40048
40941
42257
41482
40329
41012
41915
41292
41134
42828
43432
41887
41638
43180
43078
41462
41608
42919
42253
41078
42383
43606
41973
40767
42119
42398
40515
40440
42114
41730
40402
41182
42158
41123
40418
41762
42220
40280
39479
41063
41390
39930
40159
41812
41284
39731
40767
41812
39558
38175
40634
42403
40867
39938
41339
41395
39638
39956
41311
40180
39027
40491
41213
39586
39331
41151
41080
39167
39235
40571
39689
37930
38836
40789
39886
37953
38718
39909
38571
37648
38956
38917
36924
37157
39118
38709
37178
37694
38730
38273
37604
37945
37947
36782
36544
38188
39046
37957
37449
38524
38782
38080
38936
40191
39265
38397
39765
40839
39987
39749
41350
42069
41006
40889
41796
41443
40806
41795
42599
41334
40360
41691
42478
41015
40401
41719
41887
40473
40603
42157
41610
39787
40497
42196
41231
39659
40401
41055
39783
39682
41410
41093
38862
38882
40708
40559
39153
39788
40968
39854
38958
40586
41360
39444
38624
40525
41044
38904
38241
39509
39171
38163
39227
40325
38970
37660
38784
39632
38452
38273
39517
38997
37573
38572
40403
39490
37555
38095
39135
37937
37059
38551
39389
37836
37099
38550
38582
36563
36504
38341
38086
36333
36641
37949
37210
36292
37554
38014
35893
35123
37089
37479
35400
35390
37648
37826
36349
36700
37847
37353
36812
38139
39017
37773
37309
38952
39782
39181
39594
40793
40410
39438
40377
41381
39959
38833
40264
41334
40135
39621
41158
41314
39487
39610
41017
39923
38313
39447
40710
39599
38908
40299
40615
39077
39020
40290
39604
38047
38982
40829
40139
38664
39291
40160
39341
38832
39775
39924
38411
38075
39720
40016
38356
38108
39334
38959
37679
38280
39121
37994
37497
38946
39112
37632
37990
39930
39566
37536
37872
39232
38021
36686
38105
39258
37810
36843
38211
38681
36963
36545
37846
37626
36373
36790
37762
37084
36214
36993
37654
36793
36156
36695
36836
36063
36233
37553
37230
35503
35822
37225
36493
35696
37166
37720
36013
36149
38431
38414
36586
37057
38893
38652
37552
38650
40131
39154
38351
40309
41762
40250
38924
40243
41402
40286
39667
41064
41525
40210
40186
41548
40916
39415
40824
42512
40913
39709
41093
41349
40058
40351
41202
39953
38596
39834
41175
40079
39065
40066
40578
39312
39049
40745
41153
39679
39518
40513
39812
38448
39108
40394
39909
39499
40784
41084
39360
38799
40092
40088
38545
38865
40728
40409
38811
39619
41188
40097
38737
40183
41071
38922
37924
39729
40164
38780
39190
40702
39786
37954
38718
39677
37863
36829
38676
39475
37966
37719
39231
39257
37831
37956
38932
38093
36776
37635
39083
38294
37170
38517
39544
38113
37804
39357
38822
37142
38360
40577
40192
39411
40536
41318
40733
40794
41718
41613
40454
40694
42458
42673
41291
41611
43196
42772
41339
41990
42915
41590
40788
42318
42951
41552
41044
42175
42365
41264
41308
42183
41574
40653
41474
42283
41091
40132
41527
42522
41097
40274
41254
41260
40135
40430
41493
40680
39354
40404
41597
40422
39740
40984
41025
39786
40500
42135
41219
39516
40387
41697
40601
39510
40709
41655
40522
39982
40988
40700
39160
39422
41093
41149
39569
38982
39551
39456
39323
40265
40357
38580
37680
39092
39879
38660
38182
38893
38508
38008
39185
39960
38464
37232
38412
39295
37865
37040
38208
38731
38107
38748
40078
39092
37130
38020
39930
39264
38298
39740
40879
39719
39317
41099
41478
39921
40370
42184
41521
40350
42034
43433
41654
40646
42576
43322
41605
41303
43002
43036
41013
40745
42609
42890
41621
41995
42976
41790
40458
41587
42319
40636
40123
41753
41700
40204
40881
42701
42025
40203
40698
41586
40073
39187
40961
41947
40695
40359
41703
41677
40074
39972
40952
40235
38955
39971
41624
40517
38859
40373
41700
39636
38614
40413
40209
38202
39176
41504
40818
39331
40167
40802
39412
38711
39775
39940
38579
38590
40045
39781
38354
38839
39997
39048
37806
38788
39510
38043
37608
39241
39316
37597
37465
38772
38541
37291
37702
38621
37790
37250
38666
39315
37819
37384
39222
39584
37734
37946
39955
39581
38124
39325
41112
40054
38713
40460
42408
41499
40432
41465
42236
41505
41670
43075
42721
41103
41693
43306
42545
41096
41749
42455
41300
40929
42253
42123
40406
40240
41230
40703
39648
40584
41663
40321
39192
40706
41730
40093
38930
40203
40889
39652
39446
40460
40020
39291
40360
41012
39331
38140
39458
40091
38384
38040
39878
40079
38487
38514
39783
39273
37927
38640
39829
38913
37859
38752
39565
38757
38387
39374
39228
37710
37624
38692
38147
36623
36900
38238
37753
36690
37780
38648
36822
35725
37167
37215
35280
35628
37471
36859
35593
36460
36993
35633
35160
36604
36882
35151
34908
36803
37198
35820
35977
37492
37220
35904
36628
37892
36965
36211
37696
38728
37919
38091
39936
40140
38648
39212
40858
39784
37905
39002
40937
40237
39031
40089
40675
39003
38519
39993
39712
37916
38335
39987
39178
37495
38269
39531
38709
37969
38792
38602
36851
37003
38999
38775
36747
36913
38679
38597
37292
37560
38276
37256
36594
38074
38778
37247
36761
38387
38466
36715
36932
38025
36684
35689
37539
38628
37105
36481
38072
38506
36822
36364
37664
37745
36573
36770
37852
37224
35845
36389
37328
36454
35844
37048
37556
36124
35490
36651
36452
34661
34891
36394
35764
34844
35813
35577
33563
34166
36738
36480
34522
34744
35791
35099
34247
35226
36132
35193
34710
36061
36647
35768
36204
38066
38003
36162
36298
38054
38129
37603
38851
39887
38670
37820
39481
40644
39155
38159
39351
39934
39042
39411
40953
40252
38280
39103
40522
38762
37405
39478
40768
39192
38595
39848
39551
38055
38428
39697
39147
37879
38412
39669
39056
37987
38830
39485
38117
37509
38858
39026
37500
37868
39773
39131
37073
37979
40229
39561
37766
38426
39095
37403
36953
38996
39281
37492
37674
39374
38645
36621
37328
38947
37822
36622
38166
39191
37466
36459
37995
38544
37081
37283
38743
37740
35898
36812
38285
37013
35529
36834
37951
36530
35764
36896
36710
35218
35676
37239
36679
35372
36096
37186
36585
36027
36775
36882
35556
35388
36998
37527
36653
36962
38311
38469
37784
38158
38737
38004
37783
39391
40133
38695
38060
39643
40378
39210
39220
40546
40305
39389
40082
40806
39610
38425
39264
40168
39394
38900
39525
39384
38607
39283
40553
39628
37803
38505
39936
38908
37695
38651
39332
38377
38304
39545
39178
37685
38283
39659
38695
37390
38429
39378
38153
37727
39356
39513
37729
37773
39373
38857
37265
38091
39356
38195
37497
38963
39029
37098
36984
38906
38970
37077
37096
38720
38254
36620
37025
38256
37606
36497
37172
37753
36483
35858
36980
37113
35758
35840
37444
37259
35468
35605
36956
36299
34973
35814
37111
36316
35544
36970
37465
35486
35040
36765
36442
34598
35308
37357
37294
36839
38157
38808
37604
37410
38839
38931
37500
37989
40340
40817
39584
39802
40728
39993
39252
40381
40653
38853
38775
40871
40980
39229
39111
40371
40498
39835
39954
39884
38682
38493
40097
40609
38927
38108
39489
39933
38437
38274
39471
38908
37524
38234
39539
38591
37237
38361
39730
38963
38393
39152
38832
37662
38314
39731
38947
37447
37985
38920
38216
37662
38535
38831
37773
37880
39341
38900
36865
37063
38936
38674
37058
37486
38556
37675
36978
37861
37728
36449
36774
38209
37812
36230
36458
37502
36491
35179
36362
37691
36162
34572
36108
37497
35977
35211
36650
36675
35260
35803
37309
36418
34774
35880
37651
36890
35796
36760
37559
36682
36555
37952
37979
36858
37961
40016
39277
37557
38422
39966
39435
39150
40689
41120
39708
39581
40920
40723
39231
39573
41112
40781
39792
40787
41755
40392
39191
40209
40549
38869
38649
40306
40233
38981
39632
40878
39918
38534
39413
40311
38984
38377
39983
40466
38881
38697
40487
40558
38711
38709
39947
39159
37956
39101
40256
38898
37910
39651
40457
38553
38085
39618
39009
37263
38279
40019
39229
38490
39688
39814
38127
37757
38931
38692
36928
36917
38792
38877
37249
37607
39062
38051
36470
37497
38023
35937
35577
37764
37857
36247
36807
38387
37761
36246
36680
37652
36694
35641
36600
37448
36265
35538
37123
38070
36975
36950
37933
37100
36213
37825
39355
38597
38000
39140
39799
39198
39305
40352
40522
39789
40263
41937
41873
40218
40378
41863
41495
40252
40696
41426
40513
40018
41202
41371
40020
40263
41773
41159
39370
39831
40935
40034
39755
41541
41664
39410
38909
40889
41277
39401
39192
40823
40601
39121
39614
40787
39630
38269
39783
41179
39627
38587
39647
39596
38552
39494
41020
39966
38175
38968
40355
39554
38651
39486
39916
39067
39251
40532
40066
38427
38749
40075
39488
38216
38744
39651
38838
38155
39081
39187
37720
37608
39029
38785
36983
37065
38695
38675
37846
38637
39236
37852
37200
38786
38982
36661
36280
38493
38819
37316
37711
39254
38728
37412
38306
39512
38296
37410
39420
41284
40436
39787
41341
41741
40046
40386
42397
42070
41047
42469
43623
42102
41176
42747
43212
41493
41336
42839
42229
40243
40709
42582
42231
41179
42325
43163
41544
40871
42407
42205
40113
40652
42896
42337
40538
41035
42020
41221
40363
40941
41081
39802
39562
41089
41615
40639
40489
41326
41172
40407
40880
41460
40605
40406
41853
42188
40546
39827
41002
41349
40301
40595
41849
41231
39728
40217
41477
40595
39248
40536
42053
40911
39824
40734
40863
39446
39495
40979
40480
38723
39255
40745
39999
38793
39452
39731
38319
38329
40162
39922
37799
37920
39733
39399
37803
38384
39657
38962
38555
39919
40089
38617
38706
40291
40049
38642
39598
41457
40902
40312
42218
43499
41915
40726
42215
43429
42620
42539
43690
43634
43063
43987
44660
43085
41695
42945
44333
43490
42599
43517
44234
43208
42644
43795
43634
41540
41359
43031
42688
41194
41959
43452
42788
42167
43568
43887
41883
41217
42478
41997
40190
40937
42766
41961
40811
42171
43154
41694
40634
41660
42104
40804
40560
41841
41844
40905
41411
42406
41681
40593
41263
41877
40677
40128
41329
41468
39980
39990
41748
41628
39758
40001
41167
39798
38349
39666
40717
39380
38739
40166
40429
38963
38884
39797
38941
37733
38683
39787
38879
38338
39489
39699
38481
38371
39296
38908
37467
37784
39717
39938
38474
38544
39779
39575
39230
40842
41726
40231
39980
41822
42232
41474
42209
43480
43279
42687
43312
43858
42756
41808
42892
44068
43067
42013
43261
44103
42664
42180
43252
42704
41318
42057
43339
42346
41046
42121
43146
42130
41806
42890
42395
40887
41673
43495
42832
41225
41737
42733
42071
41467
42208
42323
40935
40849
42750
42904
40776
40576
42507
42380
40498
40913
42532
41731
40437
41492
42434
41308
40664
41840
42089
40703
40749
42115
41595
40209
40978
42297
41231
39825
40899
41831
40406
39894
41204
40795
39039
39603
41290
40213
38029
38729
40055
38596
37406
39242
40555
39006
38234
39965
40046
37633
37370
39264
38972
37512
38378
39609
38730
38585
40349
40381
38596
39048
41020
40408
38613
39871
42070
41380
40548
42223
43060
41466
40941
42740
43374
41724
41339
43095
43641
42517
42259
42709
41926
41027
42036
43037
41946
41204
42368
42908
41894
41862
43145
42787
40945
41028
42241
41358
39893
40826
42321
41569
40549
41698
42405
41041
40728
41820
40943
39183
40333
42575
41762
39912
40719
41986
40995
40215
41249
41202
39310
39202
41134
41288
39872
40130
41173
40486
39626
40670
41224
39676
39319
41199
41527
39712
39243
40490
40464
39263
39427
39899
38733
38247
39651
39950
38387
38029
39424
39620
38238
38062
38963
38484
37256
37576
38491
37796
37158
38858
39942
38108
37107
38873
39521
37742
37406
39218
39076
36974
37154
39205
39498
38926
39971
40806
39628
39309
41157
41673
40278
40792
42861
42377
40373
40973
42385
41369
40809
42701
43321
41391
40409
41586
42143
41076
40777
41779
41911
41233
41385
41693
40797
40121
41206
41982
40838
40182
41043
41109
40126
40415
41558
40870
39421
40333
41636
40258
38883
40256
41402
39982
39294
41137
41206
38611
38691
41161
40486
38341
39543
41238
39806
38937
40640
40762
38669
38605
40430
40192
38491
39050
40600
39809
38759
39991
40583
38784
38019
39549
39496
37313
37560
40028
39846
37758
38013
39452
38568
37160
38288
39246
37392
36332
38052
38777
37232
36964
38576
38601
37068
37353
38418
37292
36082
37560
39190
38357
37677
39241
39848
38395
38683
40500
39755
38015
39464
41917
41652
41002
42228
42597
41148
40958
42375
42323
40670
40748
42471
42315
40759
41116
42283
41437
40418
41519
41835
39806
39609
42206
42922
41152
40765
41982
41803
40597
40887
41499
40373
39837
41558
42427
40700
39696
41176
41663
39900
39564
40792
40177
38910
40158
41811
40557
38746
39749
41154
40319
39635
40357
39924
38431
39008
40933
40475
38688
39292
40891
40302
39232
39974
40505
39487
39617
41195
40730
38598
38658
40344
40070
38467
38703
39704
38866
38142
39500
40007
38130
37409
39215
39608
37736
37719
39371
38962
38001
39284
40166
38244
36755
38258
39480
38136
37436
38598
38623
37467
38085
39815
39573
38412
39396
40856
40192
39575
40863
41553
40468
40553
42672
43376
42151
42264
43262
42206
40730
41776
43223
42271
41369
42592
42986
41303
40920
42473
42529
40915
40972
42161
41674
41138
42543
43074
41168
40203
41815
42400
40397
39809
42037
42968
41491
41165
42356
41739
40188
41182
42384
40510
39194
41001
42147
41066
40985
42346
42048
40379
40549
41674
40893
39675
40494
41614
40841
39916
40641
41102
40342
40396
41149
40425
39209
40012
41449
40495
38864
39679
40832
39796
39235
40588
40459
38339
38318
40213
40086
38703
38963
39433
38360
37837
39215
39712
38007
37413
39021
39373
37864
37606
38899
39004
38054
38568
39597
38699
37769
39191
40615
39541
38524
40102
41419
40413
40174
41451
41302
40406
41531
43074
42207
40879
41972
43338
42652
42041
42685
42313
40856
41167
42981
42992
41732
42193
43048
41829
40787
42059
42846
41134
40222
41808
42233
40588
40841
42788
42194
40241
40877
41659
39942
39795
42324
42367
39673
39191
41282
41943
40589
40290
41327
41311
40721
41272
41603
40202
39333
40804
41684
40088
39259
40450
40585
39342
39798
41449
40749
38822
39744
41651
40544
38831
39959
41327
40153
39181
40479
40728
38830
38618
40131
39598
38159
39068
40111
38653
37856
39486
39640
37315
36860
39081
39677
37675
37158
38845
38944
37509
37979
39310
38417
37221
38557
39559
37862
37090
38836
39463
38483
38986
40417
39821
38536
39672
41170
40116
39250
40702
41594
40706
40885
42553
42527
40883
41085
42429
41912
41056
42171
43148
42226
41753
42900
42737
40634
40013
41433
41868
41005
41165
42109
41757
40846
41008
41235
40812
41065
41846
41363
40034
40339
41789
41394
39886
40418
41851
41250
40164
40868
40847
38991
39228
41663
41658
39672
39739
41144
40660
39306
39934
41098
40098
38851
39792
40896
40009
39189
40228
40721
39492
39346
40373
39819
38710
39649
40802
39378
37621
38693
40282
39613
38694
38943
38431
37295
37996
39571
38879
37337
38184
39504
38419
37285
38343
38858
37252
36930
38860
39137
37313
37255
38933
38801
37274
37749
39323
38923
38094
39244
40139
39124
38965
40829
41206
39266
39091
41108
41513
40659
41413
42479
41469
40494
41944
43063
41637
40882
42214
42392
40950
41175
42771
42083
40026
40682
42463
41559
40092
41030
41872
40623
40474
42762
43083
40474
39913
41699
41259
39547
40472
41984
40877
39982
41405
41794
40083
39723
40957
40480
38776
39509
41592
41003
39335
40377
41778
40184
38706
40402
41366
39172
38433
40643
41207
39768
40187
41742
40912
39234
40138
41306
39705
38521
40038
40801
39285
38837
40176
39837
38052
38594
40003
38753
37490
39073
40148
38558
37880
39644
40038
38156
37679
38769
38302
37109
37860
39093
38688
38544
39645
39565
38150
37976
39103
39342
38468
38745
40352
40499
39286
39942
41981
42080
40994
41732
42733
41473
40631
42365
43322
41755
41182
43098
43835
42283
42063
43339
42740
41285
41889
42791
41460
40474
42280
43378
41673
41175
42599
42114
40599
41394
42701
41798
40870
41969
42415
41083
41037
42227
41377
39740
40855
42786
41797
40058
40846
41982
40989
39961
40786
41551
40685
40299
41513
41852
40664
40436
41363
41307
40557
41200
42265
41471
40427
41405
42221
40798
39695
40950
41764
40600
40289
41192
40781
40120
41126
41701
40194
39386
40952
41515
39602
38969
40237
40043
39109
40419
41997
40524
38392
39163
40253
38876
38167
39974
40767
39320
39061
40511
40184
38375
38662
40454
40618
39795
40289
41133
40537
40282
41734
42303
41036
40927
42479
42704
41585
42204
43799
43141
41878
43297
45006
43738
42165
43208
43825
42254
42154
43832
43640
42775
44098
45181
43419
41740
42861
43796
42178
41253
42616
42986
41540
41649
43499
43258
41292
41735
43209
42000
40609
42029
43111
41614
40988
42832
43299
41429
41073
42436
41958
40251
40748
42436
41989
40745
41399
42235
41475
41171
42217
42176
40642
40641
42248
42163
40728
41037
42253
41707
40591
41216
41811
40625
40126
41191
41028
39659
39619
40642
40573
39574
39766
41058
40698
38547
38058
39783
40032
38778
39454
40466
39254
38954
40315
39683
38170
39227
40716
39645
38314
39248
40338
39909
39774
40576
40396
39322
39983
42087
41923
40017
40724
43099
42945
41734
42787
43944
42788
42218
43715
44019
42521
42452
43868
43824
42539
42752
43868
43656
43247
43798
43434
41989
41966
43510
43832
42578
42444
43431
43154
42437
43223
44023
42953
41987
43180
44110
42816
42076
43146
43259
41898
41854
43222
43119
42069
43016
44138
42653
41472
43003
43940
42404
41736
43259
43466
41789
41721
43031
42602
41483
42350
43377
42005
40832
42190
42935
41297
40705
42180
42170
40344
40544
42319
41671
39812
40518
41944
40816
39405
40454
41028
39130
38570
40549
40928
39343
39462
40836
40009
38162
38883
40346
39130
37789
39208
40537
39344
38513
39941
40474
39101
39284
40532
39652
38780
40683
42192
40870
40254
42361
43265
41570
41323
43134
43097
41405
41871
43861
43668
42383
43092
43957
42736
42029
43188
43132
41434
41682
43256
42340
40498
41425
43193
42653
41604
42333
42543
40777
40407
42433
42940
41317
41123
42486
42110
40503
40874
41830
40478
39404
41149
42379
40576
39343
41164
42219
40542
40064
41407
40969
39738
41027
42573
40853
38772
40132
41644
40054
38969
40616
41322
39953
39990
41497
40959
39319
39952
41131
39940
38726
39876
40684
39287
38847
40391
40204
38150
38369
40311
39754
37784
38476
39971
38812
37635
38800
39305
37953
37589
38907
39258
37999
37594
38406
38128
37097
37592
38751
38125
37151
38414
39601
38249
37416
38944
39903
39344
39676
40770
40189
38855
39695
41413
41142
40255
41096
42158
41518
41119
42594
43055
41293
40893
42498
42463
40815
40902
42264
42088
41486
42382
42681
41194
40846
42346
42375
40542
40423
41927
41601
40302
41049
42166
41137
40224
41381
41496
39464
39472
41798
41916
40202
40321
41338
40502
39415
40495
41401
39659
38299
39919
41380
40053
39097
40673
40982
38877
