30429
30306
30243
30126
30071
29997
29939
29911
29869
29838
29797
29775
29740
29697
29711
29715
29681
29668
29604
29655
29632
29623
29605
29610
29615
29600
29592
29614
29653
29678
29678
29723
29791
29818
29869
29934
29939
29974
30049
30086
30145
30185
30178
30223
30276
30255
30276
30252
30312
30301
30323
30335
30312
30338
30412
30352
30371
30402
30332
30405
30393
30403
30434
30427
30451
30446
30492
30491
30506
30532
30563
30579
30606
30634
30676
30703
30730
30776
30779
30833
30850
30868
30882
30901
30931
30947
30951
30987
31021
31018
31025
31050
31073
31102
31111
31142
31169
31184
31233
31246
31269
31299
31311
31338
31353
31355
31385
31393
31431
31451
31448
31492
31504
31549
31563
31587
31603
31594
31595
31502
31467
31376
31231
31122
30970
30879
30729
30606
30499
30381
30288
30194
30065
29981
29927
29842
29750
29722
29683
29652
29626
29588
29586
29558
29553
29527
29494
29501
29469
29469
29453
29444
29465
29431
29442
29445
29420
29456
29476
29507
29510
29542
29604
29626
29665
29717
29738
29794
29886
29913
29951
30031
30022
30063
30107
30153
30144
30183
30209
30187
30167
30228
30212
30217
30216
30236
30237
30247
30268
30313
30293
30325
30357
30349
30356
30402
30406
30437
30446
30455
30513
30490
30523
30563
30572
30594
30597
30607
30614
30627
30643
30669
30713
30749
30747
30768
30784
30808
30843
30856
30863
30899
30917
30956
30972
30983
30973
31000
31060
31056
31049
31049
31089
31103
31116
31161
31168
31195
31250
31254
31320
31338
31342
31386
31395
31399
31439
31498
31502
31538
31574
31586
31571
31545
31501
31422
31302
31211
31059
30931
30791
30650
30570
30422
30313
30225
30138
30045
29950
29872
29813
29765
29732
29699
29671
29636
29646
29623
29621
29620
29582
29595
29581
29582
29551
29533
29587
29559
29571
29530
29559
29594
29612
29607
29641
29660
29721
29722
29783
29819
29917
29922
29995
30017
30073
30117
30172
30202
30205
30267
30309
30308
30336
30339
30341
30378
30422
30429
30419
30429
30447
30464
30477
30502
30519
30511
30532
30564
30564
30578
30602
30631
30653
30627
30721
30694
30753
30762
30804
30854
30879
30898
30948
30960
31003
30986
31042
31087
31080
31112
31130
31150
31196
31236
31271
31297
31302
31359
31358
31386
31442
31463
31463
31467
31484
31508
31510
31519
31560
31588
31639
31596
31606
31655
31695
31731
31742
31751
31807
31844
31879
31858
31887
31916
31932
31973
31979
31994
32032
32040
32031
31988
31898
31822
31722
31558
31404
31207
31098
30966
30832
30690
30603
30492
30398
30298
30280
30205
30144
30088
30022
30014
29967
29949
29923
29908
29895
29932
29901
29894
29906
29890
29879
29875
29920
29933
29919
29948
29940
29929
29954
30026
30026
30064
30095
30153
30203
30281
30273
30363
30400
30473
30505
30563
30631
30644
30695
30713
30710
30731
30761
30786
30766
30811
30821
30815
30837
30827
30833
30842
30866
30866
30877
30885
30946
30935
30943
30965
30993
31008
31038
31039
31095
31109
31132
31177
31209
31234
31262
31296
31312
31332
31379
31397
31396
31453
31450
31520
31549
31551
31558
31607
31651
31680
31690
31727
31744
31766
31795
31796
31833
31855
31863
31906
31921
31932
31983
31976
32062
32016
32046
32069
32088
32112
32136
32158
32221
32221
32207
32273
32276
32310
32300
32332
32329
32359
32333
32338
32230
32178
32036
31916
31767
31587
31406
31267
31117
31012
30885
30817
30735
30635
30584
30506
30428
30412
30363
30320
30296
30271
30244
30265
30220
30239
30216
30244
30154
30212
30228
30195
30223
30213
30209
30236
30259
30247
30288
30337
30328
30384
30405
30453
30479
30561
30619
30656
30741
30749
30806
30850
30903
30905
30936
30958
30962
30966
30964
30976
30995
30976
30994
30994
30990
31018
31039
31007
30999
31054
31036
31049
31069
31069
31129
31124
31167
31161
31199
31213
31222
31233
31285
31298
31325
31318
31375
31400
31391
31441
31474
31526
31552
31576
31549
31590
31644
31676
31656
31736
31764
31785
31804
31813
31840
31867
31875
31928
31918
31918
31958
31967
32007
32006
32021
32040
32061
32096
32122
32169
32189
32196
32221
32265
32293
32309
32294
32362
32398
32433
32422
32464
32469
32484
32466
32430
32381
32318
32189
32024
31909
31717
31525
31373
31269
31146
31005
30936
30829
30765
30692
30632
30586
30513
30471
30457
30430
30395
30378
30360
30350
30347
30318
30305
30312
30284
30315
30292
30292
30308
30300
30326
30309
30320
30337
30390
30392
30445
30498
30521
30635
30615
30678
30717
30775
30806
30868
30879
30953
30968
31000
31039
31038
31062
31087
31127
31123
31117
31134
31111
31169
31167
31155
31188
31189
31183
31200
31206
31244
31247
31273
31307
31316
31326
31354
31350
31396
31437
31438
31440
31477
31478
31532
31529
31554
31573
31624
31642
31684
31720
31742
31813
31825
31829
31878
31926
31949
31945
31958
32032
32024
32040
32053
32068
32112
32113
32164
32141
32174
32186
32260
32269
32262
32270
32305
32357
32375
32395
32424
32448
32414
32480
32495
32516
32573
32572
32606
32618
32643
32688
32682
32713
32744
32724
32703
32668
32597
32514
32372
32205
32050
31859
31715
31529
31378
31287
31154
31072
30994
30917
30849
30764
30757
30695
30631
30624
30607
30572
30552
30558
30546
30535
30504
30479
30489
30472
30499
30480
30478
30505
30465
30487
30522
30462
30535
30540
30564
30619
30626
30713
30740
30822
30881
30905
30969
31004
31058
31112
31132
31189
31210
31235
31250
31270
31267
31309
31314
31338
31339
31329
31338
31337
31403
31360
31411
31378
31419
31432
31470
31446
31464
31507
31500
31514
31540
31563
31563
31609
31670
31682
31707
31715
31769
31798
31822
31834
31852
31897
31936
31986
32012
31992
32031
32055
32116
32102
32150
32178
32208
32233
32241
32270
32334
32341
32345
32372
32406
32437
32438
32476
32468
32515
32520
32556
32558
32578
32576
32594
32638
32651
32644
32702
32716
32756
32777
32803
32851
32901
32904
32931
32952
32963
32998
33053
33034
33034
33027
33036
32964
32898
32784
32626
32454
32285
32134
31948
31764
31606
31489
31342
31274
31198
31132
31091
31029
30996
30971
30946
30915
30900
30900
30868
30855
30830
30808
30792
30798
30781
30788
30779
30770
30768
30787
30803
30782
30811
30833
30855
30896
30908
30972
31022
31031
31105
31158
31209
31278
31295
31319
31354
31433
31500
31511
31552
31596
31619
31623
31652
31661
31659
31655
31684
31677
31684
31678
31707
31745
31741
31766
31764
31773
31762
31825
31827
31807
31843
31871
31888
31882
31928
31958
31961
31998
31979
32031
32057
32093
32109
32144
32138
32199
32219
32218
32255
32293
32312
32330
32362
32366
32426
32455
32470
32503
32498
32553
32565
32582
32615
32633
32676
32676
32681
32727
32728
32762
32816
32806
32835
32865
32884
32907
32916
32958
32986
33024
32999
33037
33052
33098
33087
33129
33145
33193
33203
33230
33223
33226
33267
33203
33119
33048
32901
32744
32568
32395
32226
32069
31880
31728
31612
31491
31410
31313
31282
31231
31175
31149
31094
31111
31083
31069
31045
31070
31032
31030
31051
31026
31048
30990
31016
31015
30995
31018
31055
31030
31109
31120
31163
31170
31211
31277
31269
31360
31400
31421
31486
31547
31548
31635
31642
31688
31751
31757
31762
31770
31802
31791
31812
31853
31829
31828
31869
31855
31852
31856
31866
31852
31923
31914
31944
31979
31976
32027
32015
32057
32064
32091
32061
32096
32088
32134
32138
32148
32171
32156
32195
32249
32268
32315
32315
32369
32362
32411
32429
32458
32502
32503
32524
32572
32580
32611
32602
32617
32667
32679
32699
32705
32692
32754
32769
32740
32779
32804
32839
32841
32869
32901
32935
32924
32955
32978
33030
33057
33079
33134
33129
33162
33181
33229
33209
33192
33210
33132
33074
32948
32838
32652
32504
32316
32141
31950
31832
31698
31570
31456
31414
31354
31258
31245
31216
31177
31140
31131
31093
31090
31083
31071
31073
31046
31084
31010
31021
31028
31045
31053
31060
31023
31043
31053
31071
31120
31125
31160
31173
31224
31270
31308
31360
31422
31459
31524
31564
31573
31640
31639
31683
31723
31746
31738
31777
31787
31770
31798
31805
31819
31829
31849
31857
31870
31898
31888
31940
31958
31924
31943
31956
31980
31991
31987
31998
32021
32044
32072
32101
32116
32169
32199
32214
32218
32249
32293
32326
32326
32380
32416
32422
32453
32453
32507
32496
32531
32534
32552
32556
32600
32610
32633
32660
32644
32715
32720
32742
32775
32792
32810
32828
32842
32898
32908
32934
32931
32938
32955
33002
32998
33032
33066
33049
33114
33159
33176
33214
33251
33254
33273
33258
33239
33177
33080
33004
32822
32662
32494
32268
32077
31921
31804
31690
31585
31489
31409
31361
31290
31236
31205
31163
31145
31075
31068
31048
31030
31017
31000
30969
30990
30978
30972
30922
30953
30961
30943
30955
30973
30954
30972
30996
31011
31048
31065
31087
31149
31191
31253
31277
31349
31381
31405
31451
31515
31567
31588
31611
31644
31667
31687
31700
31730
31757
31713
31746
31782
31797
31816
31822
31829
31839
31861
31892
31878
31891
31902
31906
31934
31948
31975
31986
32022
32020
32051
32050
32075
32117
32113
32151
32185
32166
32223
32227
32279
32277
32322
32393
32374
32446
32441
32473
32504
32545
32567
32568
32587
32642
32646
32639
32679
32730
32744
32725
32764
32817
32822
32847
32898
32923
32971
32975
32978
33040
33086
33102
33134
33155
33164
33209
33217
33265
33275
33322
33350
33386
33386
33368
33367
33362
33241
33187
33030
32862
32716
32497
32339
32161
31931
31827
31699
31588
31503
31428
31359
31294
31263
31233
31216
31202
31152
31113
31121
31131
31135
31112
31100
31130
31107
31101
31107
31102
31134
31135
31130
31147
31158
31187
31200
31254
31282
31324
31371
31414
31477
31553
31597
31679
31746
31789
31837
31902
31904
31971
31987
32008
32020
32039
32068
32089
32090
32118
32097
32137
32140
32176
32168
32192
32224
32268
32256
32293
32293
32319
32331
32333
32360
32345
32387
32416
32417
32456
32504
32537
32546
32615
32649
32707
32733
32748
32778
32803
32838
32870
32882
32903
32927
32933
32949
32995
33006
33047
33064
33091
33114
33164
33209
33217
33224
33267
33267
33283
33296
33369
33384
33421
33459
33460
33497
33522
33559
33591
33627
33670
33691
33736
33764
33784
33825
33867
33868
33878
33876
33844
33775
33663
33559
33430
33248
33048
32882
32748
32551
32415
32293
32143
32062
31987
31918
31854
31847
31766
31736
31715
31724
31690
31724
31699
31699
31675
31705
31682
31683
31688
31699
31717
31726
31725
31711
31759
31744
31787
31828
31844
31899
31919
32029
32043
32119
32165
32242
32299
32343
32408
32434
32517
32512
32540
32556
32574
32594
32585
32597
32616
32604
32604
32638
32607
32644
32626
32641
32670
32664
32678
32665
32669
32673
32708
32738
32773
32787
32799
32782
32824
32815
32881
32855
32869
32905
32911
32943
32960
32968
32980
33028
33043
33066
33064
33088
33121
33137
33167
33151
33167
33197
33186
33206
33212
33234
33225
33240
33261
33261
33271
33281
33320
33333
33355
33354
33391
33418
33434
33458
33476
33478
33472
33526
33539
33540
33540
33573
33569
33575
33537
33509
33452
33325
33191
33043
32860
32688
32469
32264
32107
31938
31798
31675
31587
31514
31427
31388
31329
31291
31277
31238
31205
31191
31169
31171
31145
31104
31112
31080
31070
31058
31075
31101
31090
31101
31076
31109
31130
31148
31171
31206
31249
31276
31313
31326
31380
31414
31484
31530
31595
31592
31665
31707
31742
31749
31781
31800
31816
31828
31817
31827
31812
31827
31833
31822
31858
31824
31862
31870
31891
31908
31905
31913
31930
31982
31995
32000
31985
32016
32027
32061
32087
32127
32105
32123
32134
32174
32190
32222
32235
32281
32291
32287
32363
32396
32404
32426
32447
32466
32512
32504
32505
32519
32546
32603
32619
32697
32677
32729
32732
32753
32763
32798
32821
32834
32880
32868
32895
32907
32947
32971
32991
33017
33033
33086
33104
33155
33176
33231
33232
33268
33286
33327
33348
33324
33333
33286
33194
33092
32919
32734
32609
32368
32186
32018
31855
31725
31604
31539
31460
31415
31335
31264
31242
31218
31194
31172
31139
31162
31125
31117
31080
31067
31048
31067
31089
31071
31075
31021
31058
31070
31069
31062
31093
31110
31137
31174
31208
31271
31289
31319
31368
31408
31445
31516
31567
31589
31612
31686
31699
31745
31742
31777
31827
31834
31873
31898
31907
31914
31932
31892
31916
31947
31951
31949
31957
31982
31977
31991
31995
32011
32031
32062
32096
32143
32184
32174
32198
32214
32230
32275
32296
32320
32360
32371
32390
32409
32442
32470
32508
32532
32572
32590
32620
32619
32636
32642
32680
32693
32704
32740
32735
32783
32758
32783
32813
32840
32860
32867
32886
32929
32941
32974
33014
33050
33086
33117
33149
33173
33208
33286
33262
33309
33348
33363
33377
33404
33433
33388
33377
33287
33199
33059
32868
32706
32538
32314
32156
31969
31838
31693
31628
31533
31494
31402
31348
31324
31287
31241
31190
31154
31183
31156
31148
31136
31129
31128
31151
31147
31123
31124
31121
31176
31135
31129
31167
31200
31181
31235
31225
31295
31347
31379
31434
31535
31560
31615
31691
31714
31752
31806
31843
31845
31907
31868
31950
31906
31963
31927
31956
31996
32013
31982
31988
32018
32011
32040
32030
32046
32087
32082
32075
32100
32120
32165
32152
32205
32196
32222
32220
32250
32255
32291
32309
32387
32384
32438
32458
32511
32551
32608
32612
32659
32670
32726
32722
32754
32738
32748
32805
32799
32825
32837
32885
32911
32911
32952
32972
33024
33065
33089
33108
33142
33169
33218
33234
33264
33289
33325
33338
33368
33406
33419
33441
33450
33462
33485
33451
33462
33407
33308
33178
33056
32872
32691
32512
32342
32157
31992
31853
31731
31644
31556
31488
31429
31323
31312
31290
31238
31212
31211
31210
31168
31179
31199
31179
31178
31159
31154
31182
31194
31208
31189
31227
31217
31217
31260
31269
31325
31370
31395
31467
31515
31559
31628
31682
31738
31764
31807
31873
31887
31904
31912
31952
31960
31948
31945
31961
31958
31963
31993
31974
31992
32016
31992
32031
32025
32051
32065
32045
32079
32094
32121
32113
32112
32144
32147
32163
32180
32157
32190
32191
32179
32228
32242
32247
32289
32286
32312
32311
32333
32378
32369
32387
32410
32400
32401
32436
32458
32451
32467
32505
32483
32524
32576
32554
32564
32586
32592
32611
32645
32681
32687
32686
32703
32736
32748
32772
32819
32849
32833
32877
32890
32885
32862
32848
32843
32756
32650
32496
32396
32224
32025
31879
31712
31585
31421
31305
31229
31145
31032
30966
30881
30872
30812
30777
30740
30696
30688
30690
30711
30683
30676
30658
30641
30625
30640
30606
30610
30610
30630
30605
30593
30583
30598
30608
30663
30671
30706
30752
30768
30821
30890
30885
30965
30990
30998
31044
31089
31103
31114
31115
31125
31166
31163
31165
31178
31186
31130
31155
31141
31139
31131
31126
31103
31112
31146
31151
31167
31167
31177
31195
31227
31238
31253
31251
31289
31268
31289
31346
31340
31344
31354
31373
31410
31404
31414
31458
31486
31540
31552
31537
31571
31602
31641
31628
31671
31671
31683
31697
31725
31733
31761
31768
31826
31826
31850
31867
31885
31928
31926
31944
31956
31999
32001
32031
32025
32038
32061
32083
32084
32121
32085
32056
32016
31886
31795
31657
31496
31350
31199
31088
30967
30843
30756
30684
30575
30525
30463
30392
30366
30275
30226
30206
30174
30156
30106
30119
30151
30077
30098
30067
30053
30071
30055
30054
30045
30061
30034
30026
30047
30043
30078
30060
30086
30142
30158
30206
30254
30267
30316
30379
30417
30446
30486
30507
30537
30527
30602
30620
30580
30602
30629
30622
30644
30597
30618
30679
30661
30664
30682
30682
30709
30722
30728
30737
30757
30769
30791
30811
30842
30816
30843
30871
30909
30924
30962
30961
30996
30996
31056
31083
31096
31147
31193
31162
31184
31223
31274
31280
31282
31322
31336
31358
31388
31414
31467
31457
31493
31516
31512
31556
31553
31553
31580
31586
31603
31652
31667
31675
31692
31743
31752
31797
31839
31881
31905
31883
31931
31942
31945
31927
31894
31837
31792
31667
31496
31350
31186
31030
30910
30764
30651
30572
30436
30352
30247
30213
30133
30034
30005
29940
29893
29839
29819
29808
29760
29763
29717
29736
29706
29698
29678
29659
29647
29646
29636
29614
29640
29636
29649
29658
29674
29718
29708
29747
29806
29809
29885
29944
30003
30077
30088
30156
30219
30276
30310
30337
30403
30446
30480
30502
30476
30500
30506
30532
30530
30530
30512
30514
30490
30522
30514
30536
30533
30572
30595
30602
30629
30658
30678
30676
30730
30744
30761
30769
30808
30833
30853
30896
30886
30915
30968
30988
31038
31064
31075
31108
31137
31141
31167
31170
31221
31241
31251
31268
31311
31291
31336
31359
31388
31421
31447
31520
31521
31519
31557
31572
31604
31645
31660
31681
31692
31766
31762
31764
31802
31802
31817
31829
31769
31735
31653
31579
31458
31289
31113
30939
30810
30672
30545
30464
30381
30285
30209
30161
30081
30032
29985
29934
29902
29860
29837
29812
29785
29793
29772
29779
29766
29749
29789
29789
29797
29776
29799
29804
29799
29817
29807
29815
29885
29907
29915
29975
30020
30068
30119
30182
30212
30268
30327
30378
30409
30426
30455
30461
30481
30503
30493
30509
30499
30506
30517
30510
30504
30509
30520
30538
30549
30575
30562
30583
30584
30634
30645
30643
30663
30692
30703
30710
30736
30762
30767
30780
30794
30836
30836
30866
30860
30874
30952
30925
30994
30982
31047
31069
31069
31101
31101
31117
31142
31182
31178
31185
31232
31220
31218
31279
31269
31312
31296
31355
31361
31389
31400
31435
31454
31487
31471
31510
31542
31568
31597
31553
31557
31501
31446
31345
31227
31078
30904
30762
30649
30532
30419
30297
30241
30129
30060
29980
29903
29850
29788
29737
29693
29656
29616
29550
29551
29545
29508
29484
29476
29448
29417
29409
29398
29381
29351
29318
29331
29352
29368
29332
29371
29377
29387
29414
29462
29524
29557
29576
29651
29677
29753
29784
29836
29849
29873
29889
29918
29912
29915
29952
29947
29958
29962
29983
29992
30002
29971
29986
29998
30000
29995
30052
30094
30087
30106
30126
30176
30163
30167
30228
30209
30290
30280
30309
30313
30339
30396
30357
30382
30439
30482
30460
30523
30534
30570
30564
30584
30647
30695
30699
30741
30752
30772
30833
30868
30868
30911
30906
30941
30973
30984
31007
31024
31065
31081
31108
31135
31155
31193
31205
31259
31300
31300
31344
31363
31380
31351
31324
31282
31237
31151
30987
30880
30694
30584
30441
30299
30225
30103
29981
29888
29780
29682
29622
29579
29465
29422
29397
29317
29301
29237
29192
29172
29186
29120
29145
29102
29056
29063
29092
29050
29049
29018
29023
28994
28983
29012
28982
29003
29028
29065
29082
29138
29210
29245
29274
29334
29407
29461
29487
29527
29573
29594
29672
29669
29669
29707
29704
29784
29749
29764
29768
29803
29773
29831
29789
29804
29801
29840
29850
29857
29865
29903
29893
29950
29937
29945
29991
30007
29991
30024
30094
30109
30109
30134
30136
30189
30233
30262
30286
30310
30328
30383
30386
30416
30465
30458
30476
30524
30564
30561
30572
30607
30599
30592
30621
30685
30676
30727
30762
30772
30783
30837
30872
30867
30887
30935
30949
30972
31027
31063
31090
31153
31191
31193
31218
31259
31285
31278
31290
31235
31223
31126
31013
30870
30720
30615
30453
30335
30205
30085
29980
29874
29801
29692
29657
29571
29496
29426
29361
29344
29272
29265
29246
29208
29210
29153
29183
29136
29127
29093
29093
29069
29090
29022
29023
29035
29060
29045
29055
29089
29088
29097
29129
29213
29286
29304
29373
29403
29480
29524
29563
29626
29651
29680
29762
29754
29785
29812
29846
29859
29856
29919
29912
29933
29970
29941
29955
29981
29979
30011
30024
30043
30054
30063
30058
30081
30128
30139
30155
30172
30163
30207
30238
30264
30258
30273
30306
30349
30372
30376
30426
30451
30473
30512
30522
30548
30621
30610
30676
30682
30759
30781
30815
30839
30870
30904
30951
30953
30968
30970
31007
31019
31047
31075
31071
31119
31138
31166
31193
31223
31275
31316
31334
31363
31382
31436
31429
31453
31474
31518
31489
31498
31446
31354
31284
31153
30989
30812
30637
30519
30381
30282
30122
30030
29951
29878
29813
29716
29684
29623
29597
29535
29498
29493
29489
29453
29453
29464
29421
29453
29455
29448
29459
29484
29505
29506
29524
29511
29538
29532
29557
29575
29597
29647
29689
29713
29793
29848
29937
29978
30033
30117
30155
30200
30246
30291
30299
30339
30354
30363
30376
30375
30386
30380
30373
30371
30392
30412
30434
30417
30424
30453
30478
30487
30532
30531
30567
30605
30605
30629
30641
30660
30711
30756
30772
30806
30830
30833
30859
30893
30958
30957
30975
31060
31067
31101
31139
31200
31234
31212
31264
31272
31286
31287
31273
31319
31338
31312
31368
31358
31417
31406
31397
31458
31487
31517
31518
31544
31556
31600
31662
31646
31691
31709
31753
31795
31802
31827
31860
31894
31886
31894
31838
31761
31673
31504
31374
31211
30993
30809
30659
30556
30403
30315
30224
30104
30022
29961
29903
29847
29802
29788
29729
29740
29687
29652
29668
29655
29644
29642
29609
29658
29639
29629
29644
29598
29641
29633
29659
29636
29660
29685
29702
29740
29775
29832
29875
29948
29993
30052
30121
30159
30201
30239
30266
30290
30343
30343
30355
30412
30404
30458
30448
30469
30491
30481
30493
30491
30507
30553
30550
30552
30571
30579
30606
30620
30627
30654
30674
30703
30713
30722
30720
30740
30781
30790
30863
30881
30906
30939
30945
31001
31054
31093
31120
31153
31204
31236
31220
31246
31268
31266
31294
31331
31290
31312
31335
31346
31366
31352
31405
31412
31436
31437
31493
31469
31483
31468
31535
31561
31604
31621
31668
31703
31720
31771
31800
31842
31865
31896
31906
31889
31887
31839
31722
31612
31470
31348
31155
30987
30833
30722
30619
30505
30410
30330
30286
30178
30146
30054
30021
29977
29907
29881
29889
29853
29842
29822
29804
29801
29769
29768
29739
29739
29703
29695
29688
29706
29697
29736
29736
29737
29761
29772
29816
29883
29922
29982
30044
30111
30146
30180
30256
30271
30308
30389
30393
30423
30452
30467
30478
30511
30528
30561
30562
30603
30656
30647
30659
30629
30673
30702
30678
30684
30724
30706
30729
30751
30733
30751
30781
30771
30825
30848
30899
30912
30923
30974
31022
31049
31084
31129
31163
31210
31220
31254
31294
31304
31299
31342
31362
31377
31411
31426
31445
31481
31508
31550
31574
31616
31633
31659
31672
31688
31724
31767
31794
31779
31802
31844
31850
31874
31897
31922
31915
31975
32010
32029
32057
32067
32145
32154
32192
32223
32235
32228
32228
32205
32120
32021
31875
31695
31513
31301
31106
30943
30796
30660
30540
30432
30341
30244
30208
30135
30075
30014
29994
29980
29950
29924
29892
29882
29852
29878
29895
29870
29852
29841
29855
29858
29850
29819
29862
29830
29874
29891
29929
29945
29980
30017
30055
30107
30198
30202
30271
30308
30365
30400
30466
30479
30539
30576
30623
30682
30676
30719
30724
30736
30763
30760
30825
30821
30814
30838
30865
30864
30865
30881
30863
30916
30909
30922
30917
30948
30965
31013
31038
31068
31099
31147
31227
31277
31370
31390
31440
31506
31572
31626
31690
31744
31753
31825
31840
31831
31887
31889
31909
31899
31949
31969
31996
32060
32059
32073
32110
32143
32150
32205
32208
32265
32254
32293
32285
32327
32304
32287
32307
32284
32302
32291
32327
32287
32277
32275
32298
32303
32309
32377
32398
32361
32284
32231
32129
32032
31809
31649
31427
31232
30979
30761
30603
30425
30277
30127
29972
29816
29708
29587
29524
29467
29402
29379
29305
29237
29197
29153
29110
29063
29048
29027
28948
29018
29032
29062
29040
29075
29085
29117
29082
29136
29097
29096
29150
29128
29110
29134
29115
29111
29110
29130
29171
29216
29265
29305
29318
29354
29328
29361
29327
29316
29308
29382
29461
29568
29652
29739
29793
29813
29883
29889
29947
29991
30045
30052
30070
30119
30170
30162
30190
30211
30230
30272
30306
30318
30340
30326
30351
30377
30361
30365
30385
30381
30400
30407
30446
30450
30460
30517
30555
30581
30576
30595
30618
30696
30690
30714
30703
30706
30697
30717
30700
30646
30664
30715
30711
30734
30732
30757
30809
30818
30857
30870
30907
30916
30942
30958
30993
31032
31033
31044
31068
31093
31087
31041
30999
30868
30762
30636
30521
30381
30281
30169
30077
29985
29907
29838
29795
29730
29657
29610
29583
29547
29496
29470
29472
29457
29451
29443
29404
29407
29401
29384
29361
29371
29339
29349
29311
29318
29304
29313
29335
29318
29376
29397
29460
29514
29587
29637
29713
29788
29848
29951
29976
30048
30116
30122
30182
30207
30236
30269
30290
30314
30331
30336
30334
30377
30402
30374
30424
30423
30440
30452
30475
30495
30479
30503
30538
30536
30595
30570
30623
30629
30620
30661
30699
30725
30721
30744
30762
30803
30792
30826
30854
30857
30848
30880
30909
30960
30989
31019
31066
31106
31178
31212
31250
31284
31307
31376
31403
31426
31457
31491
31489
31573
31613
31660
31705
31756
31798
31857
31896
31891
31928
31951
31985
31999
32002
31996
31986
31951
31865
31697
31551
31345
31206
30969
30756
30640
30472
30360
30275
30148
30065
30016
29963
29867
29847
29829
29722
29721
29701
29716
29694
29670
29646
29666
29660
29695
29686
29704
29689
29679
29649
29667
29685
29683
29688
29698
29712
29696
29710
29774
29737
29777
29802
29859
29889
29901
29966
29977
30053
30069
30123
30144
30136
30175
30193
30176
30197
30177
30135
30123
30097
30103
30070
30088
30081
30137
30168
30178
30241
30290
30372
30419
30510
30619
30650
30705
30760
30796
30822
30877
30893
30919
30944
30970
31000
30991
31008
31046
31073
31121
31145
31190
31239
31283
31294
31346
31356
31389
31386
31395
31389
31415
31455
31480
31479
31569
31642
31672
31759
31796
31907
31954
31996
32059
32108
32129
32196
32218
32291
32334
32322
32345
32380
32363
32333
32266
32157
31984
31819
31576
31377
31130
30913
30765
30568
30462
30387
30281
30238
30171
30107
30071
30017
29984
30006
29971
29960
29988
29959
29985
29961
29968
29938
29984
29966
29984
29924
29916
29898
29927
29951
29938
29955
29983
30021
30061
30116
30185
30237
30317
30413
30455
30555
30630
30690
30759
30799
30863
30891
30940
30946
30983
30991
30988
30998
31045
30997
30999
31027
31051
31023
31001
31005
31056
31008
31057
31046
31100
31076
31126
31109
31174
31177
31207
31253
31299
31313
31345
31398
31411
31428
31437
31462
31440
31473
31498
31480
31482
31538
31545
31544
31566
31635
31631
31671
31694
31748
31771
31803
31832
31857
31878
31875
31888
31884
31888
31927
31944
31955
32004
32006
32072
32104
32121
32159
32213
32237
32281
32324
32350
32334
32332
32334
32267
32178
32078
31936
31770
31605
31458
31276
31138
31063
30916
30841
30811
30705
30677
30615
30524
30475
30467
30426
30387
30397
30388
30331
30316
30325
30313
30292
30288
30286
30277
30285
30265
30250
30266
30246
30221
30208
30201
30193
30226
30240
30226
30317
30338
30406
30403
30459
30502
30553
30612
30614
30667
30709
30709
30715
30715
30748
30727
30750
30759
30780
30779
30786
30812
30817
30812
30827
30860
30859
30864
30926
30894
30954
31002
31001
31022
31040
31040
31085
31108
31100
31111
31162
31159
31166
31237
31248
31302
31276
31328
31371
31395
31414
31425
31448
31492
31477
31526
31536
31571
31565
31623
31638
31661
31700
31711
31744
31786
31829
31844
31916
31950
31951
31965
32008
32007
32073
32074
32112
32178
32180
32218
32251
32256
32311
32324
32390
32418
32401
32377
32356
32268
32156
31994
31857
31697
31555
31393
31257
31133
31030
30965
30900
30823
30777
30714
30712
30671
30633
30610
30636
30619
30641
30657
30684
30681
30715
30741
30745
30706
30749
30760
30756
30800
30769
30769
30831
30840
30888
30926
30946
30977
31028
31058
31104
31171
31146
31178
31190
31188
31207
31206
31195
31218
31178
31188
31190
31197
31139
31129
31170
31152
31130
31107
31139
31136
31154
31157
31163
31152
31172
31222
31230
31219
31256
31263
31280
31337
31313
31329
31350
31369
31413
31390
31427
31447
31479
31512
31518
31546
31608
31627
31676
31676
31749
31738
31745
31830
31771
31790
31862
31906
31947
31932
31966
32009
32044
32076
32067
32065
32082
32100
32136
32174
32208
32260
32267
32368
32402
32445
32481
32509
32538
32525
32610
32630
32634
32627
32672
32669
32615
32544
32412
32205
32007
31818
31597
31365
31118
30948
30840
30716
30631
30503
30455
30381
30295
30264
30243
30185
30172
30160
30162
30132
30138
30131
30162
30147
30189
30171
30182
30199
30205
30237
30197
30265
30271
30276
30293
30363
30380
30423
30454
30520
30555
30614
30655
30716
30713
30731
30736
30799
30806
30779
30805
30836
30827
30844
30865
30855
30846
30849
30865
30858
30837
30870
30886
30897
30884
30886
30924
30926
30906
30926
30941
30956
30968
30980
31009
30999
31029
31039
31057
31065
31116
31128
31132
31172
31196
31207
31222
31234
31278
31268
31312
31289
31330
31354
31396
31402
31425
31463
31462
31512
31518
31523
31518
31535
31515
31538
31583
31597
31563
31598
31625
31685
31721
31751
31793
31821
31844
31873
31891
31918
31932
31939
31979
31996
31984
31945
31899
31813
31723
31573
31425
31235
31050
30863
30675
30558
30424
30344
30228
30164
30107
30057
30027
29991
29939
29915
29901
29907
29890
29848
29880
29860
29912
29901
29891
29893
29882
29898
29910
29948
29998
30007
30067
30126
30173
30225
30255
30303
30368
30411
30456
30519
30544
30625
30679
30693
30745
30803
30863
30899
30932
30994
31015
31028
31060
31095
31118
31115
31123
31124
31128
31116
31140
31189
31181
31210
31259
31249
31283
31267
31307
31341
31352
31367
31400
31446
31473
31489
31551
31550
31563
31594
31615
31610
31652
31668
31697
31730
31712
31746
31764
31779
31794
31813
31833
31853
31869
31911
31941
31953
31993
32012
32024
32041
32081
32101
32099
32097
32117
32140
32141
32162
32194
32196
32190
32215
32288
32300
32315
32362
32430
32480
32537
32552
32590
32601
32571
32565
32479
32348
32250
32048
31892
31726
31542
31393
31247
31126
31048
30941
30874
30821
30791
30789
30735
30739
30755
30756
30785
30803
30852
30895
30891
30968
30989
31011
31064
31106
31145
31199
31240
31287
31305
31347
31395
31502
31546
31591
31636
31690
31754
31775
31815
31865
31920
31959
31993
32035
32062
32095
32150
32189
32187
32210
32203
32178
32188
32150
32147
32085
32051
32030
31995
31974
31952
31905
31901
31932
31902
31951
31935
31949
31995
32016
32013
32032
32044
32098
32080
32110
32143
32153
32158
32197
32211
32254
32253
32314
32363
32418
32453
32491
32526
32568
32618
32670
32688
32695
32760
32807
32795
32827
32809
32800
32833
32823
32821
32858
32858
32847
32891
32875
32906
32890
32915
32950
32933
32923
32967
32967
32979
33014
33037
33048
33031
33009
32945
32849
32708
32557
32343
32091
31943
31741
31559
31418
31293
31174
31110
31037
30971
30947
30970
30941
30930
30935
30948
30933
30952
30989
30967
31007
31021
31022
31027
31069
31090
31100
31116
31142
31172
31223
31265
31351
31354
31387
31460
31517
31566
31617
31678
31708
31768
31821
31837
31877
31880
31917
31902
31891
31886
31909
31893
31874
31888
31892
31867
31882
31902
31912
31943
31927
31945
31936
31945
31972
31973
31974
32009
31996
31983
32001
32004
32011
32047
32021
32067
32064
32066
32084
32108
32121
32176
32186
32198
32226
32243
32283
32298
32341
32340
32348
32369
32365
32382
32402
32422
32428
32475
32481
32521
32541
32567
32576
32588
32643
32653
32687
32683
32693
32740
32781
32782
32815
32823
32848
32833
32833
32874
32854
32837
32803
32707
32637
32473
32264
32035
31861
31651
31442
31296
31122
30960
30862
30811
30740
30669
30618
30616
30579
30552
30556
30519
30531
30509
30549
30512
30546
30521
30560
30561
30574
30577
30577
30594
30618
30652
30681
30728
30760
30838
30874
30920
30947
31018
31077
31133
31140
31209
31276
31288
31337
31344
31400
31429
31450
31486
31512
31502
31499
31521
31494
31486
31474
31489
31505
31505
31496
31497
31509
31533
31534
31579
31589
31620
31632
31640
31683
31703
31692
31737
31761
31787
31805
31844
31828
31871
31888
31863
31891
31881
31943
31916
31936
31932
31968
31973
32010
32016
32002
32068
32086
32066
32086
32138
32147
32202
32216
32277
32286
32311
32366
32351
32413
32393
32420
32474
32427
32424
32439
32435
32416
32362
32270
32157
32001
31825
31618
31435
31273
31063
30930
30799
30717
30633
30557
30498
30453
30429
30354
30304
30311
30288
30271
30270
30250
30234
30242
30200
30206
30207
30188
30192
30183
30162
30159
30147
30176
30205
30221
30242
30264
30336
30396
30398
30452
30485
30516
30561
30584
30616
30661
30716
30743
30775
30815
30853
30885
30908
30941
30951
30956
30959
30973
30979
30962
30965
30953
30966
30977
30956
30990
30993
30984
31024
30997
31015
31062
31115
31142
31195
31200
31246
31252
31280
31318
31317
31313
31346
31357
31362
31355
31367
31362
31385
31366
31390
31415
31470
31483
31534
31567
31598
31632
31645
31724
31696
31729
31764
31782
31816
31822
31854
31887
31903
31953
31975
31994
32008
32071
32093
32095
32103
32116
32088
32029
31875
31775
31602
31412
31206
31026
30886
30743
30648
30527
30468
30397
30344
30313
30238
30188
30147
30120
30072
30055
30022
29996
29972
29954
29969
29945
29927
29909
29939
29882
29910
29914
29919
29896
29913
29905
29904
29951
29970
29980
30008
30018
30069
30111
30131
30175
30218
30269
30292
30322
30374
30390
30413
30427
30445
30479
30489
30527
30539
30538
30525
30525
30565
30518
30521
30530
30535
30536
30517
30552
30541
30564
30594
30613
30638
30629
30664
30678
30706
30707
30748
30775
30763
30778
30832
30817
30850
30852
30880
30932
30920
30932
30992
30980
31005
31047
31084
31106
31139
31182
31221
31218
31265
31265
31321
31328
31322
31364
31360
31401
31418
31446
31495
31488
31512
31540
31566
31593
31649
31640
31622
31684
31667
31618
31561
31479
31299
31163
30945
30790
30659
30486
30357
30249
30133
30017
29969
29853
29763
29702
29669
29606
29555
29544
29485
29495
29471
29463
29448
29451
29454
29405
29401
29412
29373
29409
29356
29377
29357
29373
29395
29395
29390
29439
29434
29485
29502
29550
29618
29645
29702
29738
29770
29808
29865
29920
29930
29974
29988
30020
30025
30091
30106
30089
30092
30142
30105
30124
30124
30152
30148
30159
30149
30179
30133
30132
30181
30167
30208
30194
30221
30247
30264
30317
30359
30380
30434
30422
30495
30506
30515
30565
30583
30596
30606
30650
30680
30683
30715
30758
30771
30783
30818
30857
30855
30877
30947
30945
30951
30948
31006
31003
31007
31051
31100
31108
31112
31148
31186
31219
31248
31301
31313
31337
31380
31402
31434
31487
31484
31508
31499
31516
31431
31384
31312
31184
31029
30863
30661
30532
30403
30303
30151
30063
29983
29872
29770
29706
29666
29617
29553
29517
29487
29426
29391
29374
29361
29384
29347
29362
29368
29351
29335
29400
29372
29339
29344
29323
29336
29340
29349
29343
29378
29407
29462
29480
29514
29612
29668
29730
29774
29852
29927
29942
30008
30044
30072
30074
30116
30150
30144
30177
30176
30209
30194
30183
30224
30230
30234
30250
30264
30271
30263
30262
30316
30313
30332
30314
30329
30371
30359
30380
30432
30477
30437
30492
30512
30547
30567
30595
30654
30683
30704
30773
30761
30803
30821
30876
30883
30918
30932
30942
30976
30961
30985
31012
31031
31065
31101
31087
31129
31134
31165
31167
31197
31190
31213
31213
31231
31272
31296
31301
31333
31358
31403
31436
31475
31472
31496
31553
31545
31552
31576
31604
31649
31660
31675
31664
31632
31555
31437
31296
31165
30933
30752
30553
30406
30260
30167
30033
29948
29852
29806
29768
29723
29668
29623
29574
29544
29526
29539
29507
29509
29486
29489
29505
29457
29502
29526
29499
29524
29538
29539
29566
29543
29595
29619
29626
29620
29657
29720
29756
29776
29875
29887
29936
29983
30028
30094
30144
30169
30235
30288
30311
30334
30336
30324
30368
30343
30370
30345
30328
30347
30342
30332
30347
30363
30380
30341
30387
30396
30400
30467
30506
30509
30531
30537
30551
30592
30614
30641
30647
30663
30670
30701
30744
30755
30801
30838
30877
30929
30952
31006
31061
31082
31083
31120
31105
31118
31144
31166
31160
31163
31156
31189
31210
31226
31231
31308
31319
31332
31361
31387
31437
31448
31480
31502
31536
31569
31591
31610
31665
31661
31681
31703
31688
31722
31726
31741
31753
31719
31630
31526
31392
31253
31032
30815
30629
30475
30355
30244
30097
30048
29967
29882
29821
29798
29757
29706
29654
29650
29633
29664
29609
29614
29667
29664
29681
29681
29674
29666
29711
29709
29708
29712
29740
29773
29785
29861
29856
29889
29953
30009
30028
30087
30136
30171
30225
30256
30316
30351
30381
30438
30407
30448
30479
30500
30495
30490
30476
30474
30466
30488
30494
30476
30484
30478
30489
30507
30486
30517
30532
30558
30577
30573
30620
30678
30659
30698
30729
30759
30776
30829
30885
30866
30908
30942
30980
30991
31037
31065
31085
31122
31186
31198
31214
31281
31324
31323
31345
31373
31399
31407
31435
31450
31449
31455
31490
31493
31520
31492
31513
31559
31561
31575
31597
31646
31648
31677
31699
31765
31764
31797
31814
31850
31834
31832
31858
31854
31868
31875
31878
31855
31832
31777
31674
31532
31355
31191
30976
30790
30618
30451
30348
30210
30108
30041
29965
29860
29804
29775
29743
29706
29714
29695
29698
29653
29662
29682
29651
29647
29652
29667
29656
29650
29651
29622
29640
29688
29677
29704
29722
29737
29782
29822
29835
29919
29915
30006
30042
30127
30166
30215
30292
30294
30348
30384
30402
30452
30460
30443
30486
30493
30510
30491
30513
30525
30508
30559
30566
30551
30572
30592
30570
30601
30615
30614
30626
30631
30635
30672
30720
30710
30729
30771
30766
30775
30838
30855
30886
30916
30933
30961
30964
31015
31066
31087
31144
31165
31196
31201
31227
31260
31298
31329
31355
31405
31442
31420
31456
31487
31481
31476
31452
31472
31489
31476
31478
31475
31486
31478
31547
31572
31623
31640
31689
31723
31757
31774
31808
31837
31834
31894
31880
31891
31924
31915
31949
31947
31957
31948
31914
31855
31781
31656
31446
31273
31106
30861
30701
30517
30388
30292
30162
30068
30010
29949
29886
29824
29768
29751
29734
29697
29695
29670
29641
29683
29652
29619
29611
29630
29626
29583
29592
29648
29650
29633
29630
29676
29690
29691
29728
29749
29814
29834
29877
29919
29971
30018
30045
30084
30145
30191
30208
30272
30312
30350
30375
30412
30443
30426
30469
30478
30504
30500
30514
30522
30554
30562
30568
30585
30597
30619
30609
30649
30663
30679
30690
30723
30717
30769
30753
30766
30796
30828
30850
30935
30966
31009
31027
31080
31102
31135
31162
31205
31242
31242
31267
31295
31341
31376
31424
31447
31494
31545
31552
31645
31642
31677
31701
31680
31744
31742
31764
31761
31806
31838
31863
31906
31928
32001
32051
32095
32131
32169
32245
32272
32286
32283
32363
32383
32413
32461
32524
32568
32615
32670
32674
32739
32755
32773
32789
32749
32676
32562
32414
32178
31958
31769
31545
31338
31197
30977
30844
30728
30650
30582
30565
30538
30491
30402
30390
30352
30377
30330
30346
30314
30314
30309
30274
30276
30268
30279
30275
30256
30295
30270
30282
30301
30342
30341
30358
30358
30431
30453
30536
30576
30655
30759
30802
30869
30930
31038
31073
31146
31196
31231
31232
31278
31300
31346
31350
31345
31409
31418
31417
31442
31463
31477
31517
31543
31560
31620
31662
31693
31721
31715
31742
31763
31785
31834
31821
31868
31941
31962
31998
32030
32031
32124
32156
32230
32234
32320
32355
32375
32426
32455
32490
32515
32547
32589
32618
32655
32635
32662
32678
32703
32731
32744
32763
32804
32830
32901
32905
32955
32955
33007
33045
33061
33068
33089
33107
33141
33135
33193
33162
33169
33207
33254
33222
33242
33280
33291
33355
33362
33399
33388
33357
33369
33314
33236
33117
32967
32812
32621
32436
32294
32140
31956
31832
31724
31629
31551
31484
31485
31453
31427
31427
31373
31368
31347
31398
31400
31428
31442
31398
31447
31422
31414
31417
31410
31393
31413
31432
31419
31433
31454
31448
31464
31480
31537
31613
31633
31701
31701
31738
31805
31867
31904
31949
31984
32077
32121
32134
32167
32182
32170
32154
32111
32093
32060
32017
31977
31932
31911
31903
31954
31966
31962
32002
32034
32074
32074
32114
32159
32173
32189
32221
32266
32243
32263
32317
32345
32361
32383
32403
32429
32437
32431
32453
32477
32486
32504
32502
32488
32486
32510
32511
32489
32471
32510
32500
32519
32517
32535
32566
32550
32555
32603
32600
32583
32632
32640
32647
32673
32683
32687
32676
32694
32703
32737
32747
32679
32722
32699
32664
32604
32510
32372
32224
32023
31849
31674
31516
31370
31210
31055
30949
30855
30772
30734
30716
30700
30653
30619
30661
30602
30636
30613
30607
30603
30600
30588
30621
30609
30609
30640
30653
30623
30662
30686
30715
30718
30788
30820
30894
30919
30966
31040
31100
31174
31244
31282
31340
31356
31392
31439
31458
31420
31453
31454
31435
31440
31431
31424
31425
31443
31438
31417
31466
31486
31499
31516
31494
31481
31478
31506
31495
31492
31478
31473
31482
31484
31432
31474
31460
31498
31453
31474
31529
31534
31549
31590
31652
31690
31706
31772
31840
31875
31946
32004
32075
32086
32090
32147
32134
32200
32206
32229
32282
32285
32273
32314
32325
32325
32365
32410
32444
32435
32527
32584
32662
32739
32799
32820
32850
32886
32937
32953
32931
32964
32989
32994
32987
32999
32943
32836
32721
32557
32337
32126
31866
31709
31540
31364
31204
31126
31025
30957
30991
30948
30913
30906
30921
30911
30905
30912
30901
30893
30879
30875
30863
30828
30811
30853
30826
30822
30831
30843
30855
30882
30856
30891
30884
30926
30973
30959
31016
31016
31087
31141
31173
31266
31301
31350
31416
31470
31527
31569
31625
31661
31705
31721
31712
31771
31723
31742
31734
31694
31709
31685
31686
31689
31691
31691
31737
31778
31792
31776
31832
31855
31885
31944
31954
31988
31986
31987
32063
32119
32125
32169
32235
32259
32292
32337
32377
32401
32446
32481
32490
32543
32545
32541
32524
32529
32554
32526
32505
32460
32471
32494
32504
32478
32525
32523
32567
32590
32636
32691
32709
32736
32780
32796
32844
32867
32900
32894
32955
32979
32990
32982
32998
33016
33001
32968
32923
32835
32727
32543
32387
32177
32034
31830
31692
31530
31378
31254
31164
31080
31011
30980
30928
30886
30866
30848
30852
30820
30802
30835
30824
30797
30829
30835
30859
30822
30866
30835
30869
30843
30870
30871
30868
30863
30892
30906
30943
30988
31057
31097
31149
31248
31277
31350
31440
31532
31570
31661
31723
31836
31900
31910
31977
32026
32045
32094
32115
32121
32176
32182
32187
32165
32136
32157
32205
32216
32194
32171
32228
32262
32231
32229
32251
32242
32285
32283
32274
32271
32267
32243
32270
32299
32285
32318
32305
32351
32384
32437
32469
32484
32515
32514
32503
32542
32543
32543
32581
32567
32616
32642
32642
32653
32691
32761
32778
32806
32808
32831
32889
32880
32879
32897
32923
32939
32952
32939
32933
32955
32979
32983
33023
33025
33065
33060
33056
33086
33112
33066
33024
32991
32903
32767
32620
32431
32219
31997
31828
31664
31539
31408
31298
31194
31122
31050
31005
30953
30916
30908
30888
30871
30862
30873
30873
30850
30859
30842
30832
30829
30841
30783
30764
30767
30725
30739
30733
30756
30769
30805
30839
30888
30962
30981
31049
31132
31176
31222
31204
31280
31315
31349
31404
31455
31500
31533
31580
31630
31664
31696
31697
31724
31752
31741
31770
31762
31782
31786
31801
31821
31842
31867
31878
31914
31897
31931
31969
31928
31962
31929
31963
31995
31950
31966
31996
32019
32037
32102
32092
32100
32175
32184
32212
32272
32302
32317
32404
32398
32478
32479
32526
32573
32591
32618
32669
32684
32706
32760
32781
32814
32848
32853
32891
32919
32892
32912
32949
32970
32944
32963
32961
33008
33015
33001
33035
33064
33062
33107
33116
33167
33201
33205
33230
33243
33232
33214
33213
33156
33074
32993
32882
32720
32521
32359
32196
32052
31958
31839
31724
31672
31641
31646
31657
31619
31654
31689
31732
31763
31782
31849
31855
31910
31966
31992
32050
32073
32106
32127
32164
32238
32306
32257
32363
32434
32484
32561
32603
32673
32738
32790
32836
32882
32910
32911
32972
32971
32968
32974
33002
33007
33015
33016
33056
33062
33058
33087
33113
33092
33129
33098
33129
33149
33125
33137
33153
33132
33148
33132
33144
33180
33210
33243
33252
33311
33345
33408
33410
33426
33445
33504
33521
33541
33544
33586
33556
33593
33616
33646
33610
33657
33686
33691
33693
33705
33686
33607
33586
33579
33613
33609
33632
33640
33648
33660
33668
33668
33621
33663
33680
33662
33644
33642
33671
33688
33720
33758
33768
33824
33805
33883
33856
33890
33937
33979
33977
33974
34007
34013
34015
33999
34006
33986
33917
33862
33774
33692
33582
33482
33352
33243
33127
33065
33005
33010
32947
32961
32975
32965
32947
33004
33017
33078
33096
33140
33205
33212
33279
33325
33365
33403
33380
33407
33412
33463
33425
33455
33478
33505
33540
33546
33557
33557
33653
33654
33651
33690
33730
33698
33731
33711
33689
33705
33706
33713
33699
33690
33722
33739
33699
33722
33734
33744
33758
33782
33796
33776
33775
33789
33767
33802
33821
33780
33788
33795
33823
33831
33845
33846
33820
33814
33878
33828
33821
33858
33887
33867
33862
33879
33918
33915
33950
33943
33937
33962
33957
33968
33965
33967
33969
33965
33963
33946
33959
33955
33945
33943
33980
33977
33975
33964
33995
33987
33988
34024
33994
34022
34022
34017
34034
34028
34044
34031
34057
34041
34036
34040
34040
34039
34036
34034
34033
34013
33999
33968
33911
33859
33768
33710
33567
33483
33364
33247
33139
33028
32968
32844
32783
32710
32633
32589
32542
32556
32529
32474
32485
32491
32508
32490
32486
32509
32504
32549
32543
32580
32586
32631
32654
32679
32710
32764
32793
32855
32896
32944
33026
33046
33076
33145
33182
33213
33227
33260
33289
33279
33297
33312
33329
33332
33350
33319
33343
33329
33351
33339
33344
33363
33363
33342
33322
33371
33364
33377
33369
33363
33407
33377
33381
33394
33418
33418
33435
33472
33442
33473
33487
33540
33521
33547
33512
33561
33530
33565
33556
33568
33602
33561
33593
33601
33599
33600
33611
33639
33672
33622
33666
33685
33692
33710
33706
33735
33730
33758
33763
33758
33786
33821
33856
33839
33879
33920
33907
33918
33940
33951
33967
33946
33989
33971
33967
33957
33973
33980
33955
33913
33906
33819
33742
33662
33598
33429
33291
33155
33018
32874
32743
32605
32512
32388
32283
32251
32194
32143
32135
32175
32178
32160
32182
32204
32179
32197
32238
32252
32274
32261
32286
32313
32320
32337
32359
32384
32420
32474
32544
32605
32650
32768
32809
32911
32932
33013
33044
33091
33141
33153
33164
33170
33197
33214
33260
33248
33242
33252
33303
33298
33322
33335
33339
33363
33425
33404
33435
33434
33425
33408
33426
33469
33461
33446
33442
33482
33526
33492
33534
33543
33551
33561
33581
33603
33612
33644
33677
33686
33698
33693
33706
33737
33754
33783
33801
33780
33771
33777
33810
33761
33742
33789
33756
33750
33749
33753
33759
33778
33791
33786
33791
33821
33834
33816
33821
33867
33861
33858
33876
33872
33917
33893
33913
33894
33938
33890
33884
33883
33817
33755
33656
33543
33420
33317
33170
33062
32952
32821
32736
32631
32557
32464
32418
32430
32429
32419
32416
32428
32418
32425
32447
32445
32442
32456
32475
32471
32471
32458
32492
32484
32494
32540
32540
32579
32581
32604
32669
32678
32737
32802
32835
32911
33002
33042
33105
33146
33186
33239
33268
33279
33313
33324
33327
33354
33371
33358
33385
33408
33381
33376
33372
33394
33390
33388
33425
33420
33408
33406
33439
33458
33464
33501
33506
33527
33566
33589
33607
33608
33621
33596
33625
33603
33627
33635
33653
33623
33631
33633
33619
33626
33631
33644
33654
33651
33666
33665
33695
33722
33696
33695
33700
33722
33731
33749
33759
33770
33761
33780
33762
33713
33785
33753
33734
33738
33754
33760
33791
33814
33842
33855
33846
33847
33843
33822
33763
33682
33598
33440
33307
33188
33019
32846
32677
32551
32427
32300
32219
32144
32107
32071
32061
32050
32025
32056
32031
32024
32036
32068
32082
32042
32083
32113
32115
32124
32108
32111
32159
32135
32135
32166
32205
32210
32218
32287
32344
32410
32454
32536
32632
32712
32769
32842
32916
32958
33001
33046
33071
33107
33133
33110
33094
33120
33110
33072
33068
33097
33096
33079
33082
33102
33104
33104
33111
33145
33113
33113
33164
33227
33202
33240
33265
33326
33359
33388
33445
33468
33570
33536
33576
33569
33577
33574
33598
33593
33596
33594
33627
33636
33602
33608
33569
33556
33544
33544
33522
33509
33492
33496
33450
33433
33443
33443
33454
33455
33414
33420
33399
33356
33396
33380
33411
33415
33441
33479
33530
33608
33623
33647
33654
33650
33663
33615
33552
33479
33355
33211
32979
32812
32606
32373
32182
32039
31902
31844
31741
31709
31694
31658
31666
31632
31633
31691
31690
31764
31747
31778
31787
31772
31749
31705
31726
31738
31687
31733
31752
31779
31787
31824
31840
31841
31881
31921
31970
32054
32128
32221
32312
32408
32521
32603
32691
32748
32824
32889
32931
32989
33013
33012
33019
33029
33018
32995
32970
32940
32911
32868
32821
32835
32787
32769
32748
32774
32763
32755
32796
32793
32766
32797
32822
32795
32819
32782
32786
32810
32787
32785
32785
32802
32800
32837
32863
32871
32884
32969
33035
33071
33084
33143
33185
33191
33213
33225
33233
33237
33284
33269
33259
33296
33298
33305
33325
33384
33420
33474
33504
33544
33577
33644
33641
33686
33708
33724
33723
33775
33802
33826
33845
33816
33837
33839
33814
33820
33759
33646
33552
33404
33281
33110
32926
32760
32541
32365
32180
32041
31939
31842
31813
31789
31781
31822
31871
31942
31991
32024
32053
32129
32154
32205
32247
32265
32279
32322
32337
32343
32350
32376
32414
32373
32426
32455
32468
32544
32642
32712
32810
32962
33061
33177
33301
33389
33446
33577
33644
33706
33734
33826
33757
33778
33826
33766
33765
33723
33698
33633
33613
33597
33537
33508
33466
33435
33439
33410
33403
33387
33427
33405
33417
33428
33506
33496
33567
33629
33675
33743
33828
33874
33917
33977
33998
33958
33943
33961
33955
33916
33918
33903
33901
33879
33853
33816
33847
33811
33850
33843
33863
33850
33917
33930
33974
33993
34037
34069
34072
34080
34123
34120
34111
34099
34101
34105
34099
34120
34110
34122
34139
34177
34225
34197
34212
34270
34275
34274
34211
34186
34089
34001
33937
33857
33715
33644
33536
33434
33341
33306
33270
33259
33193
33168
33233
33264
33302
33333
33358
33377
33424
33479
33463
33480
33468
33493
33491
33452
33463
33485
33503
33537
33578
33614
33604
33621
33616
33658
33688
33756
33811
33867
33918
33962
34004
34079
34087
34105
34152
34157
34146
34165
34105
34087
34063
34038
34015
33997
33979
33971
33904
33900
33913
33925
33910
33904
33897
33926
33906
33890
33913
33931
33899
33917
33903
33909
33909
33909
33934
33917
33896
33930
33924
33971
33945
34010
34003
34074
34098
34160
34165
34222
34250
34284
34315
34303
34344
34345
34305
34270
34300
34250
34210
34167
34126
34119
34034
34031
34000
33986
33965
33941
33926
33877
33833
33803
33779
33792
33776
33803
33787
33834
33884
33904
33946
33990
34051
34091
34137
34144
34131
34147
34121
34079
34012
33911
33830
33726
33611
33474
33378
33260
33184
33031
32915
32890
32807
32739
32703
32660
32625
32596
32618
32595
32602
32600
32610
32610
32595
32560
32553
32583
32570
32567
32564
32558
32583
32612
32638
32649
32684
32721
32733
32760
32764
32792
32811
32839
32846
32830
32839
32866
32908
32927
32927
32954
32976
32967
32997
32974
33037
33003
33032
33021
33012
32997
32995
32992
32986
33004
32972
33036
33071
33079
33088
33154
33164
33220
33229
33255
33234
33268
33292
33279
33307
33305
33308
33304
33322
33318
33337
33345
33342
33362
33366
33381
33349
33378
33384
33404
33416
33393
33390
33374
33411
33406
33410
33404
33380
33389
33416
33396
33403
33405
33374
33402
33365
33329
33314
33295
33283
33307
33330
33310
33376
33414
33391
33428
33460
33449
33513
33514
33507
33565
33545
33550
33558
33562
33583
33562
33557
33503
33466
33371
33271
33138
32991
32839
32668
32494
32355
32200
32051
31947
31849
31767
31704
31664
31611
31593
31609
31596
31614
31612
31622
31643
31666
31682
31687
31715
31747
31739
31766
31794
31827
31842
31875
31896
31921
31930
31989
32031
32045
32122
32177
32192
32232
32299
32319
32346
32362
32382
32420
32456
32434
32491
32498
32514
32510
32563
32554
32529
32502
32529
32497
32488
32535
32523
32508
32512
32522
32540
32533
32551
32568
32585
32625
32670
32682
32725
32761
32795
32813
32867
32901
32928
32988
32996
33015
33053
33055
33091
33105
33162
33147
33198
33222
33259
33260
33307
33328
33346
33344
33367
33404
33392
33416
33406
33436
33442
33432
33467
33475
33501
33489
33505
33496
33495
33500
33520
33542
33533
33517
33530
33532
33535
33545
33520
33572
33581
33568
33574
33623
33615
33656
33682
33630
33658
33665
33628
33558
33500
33404
33313
33147
32989
32857
32630
32450
32298
32158
32022
31924
31856
31773
31737
31710
31695
31650
31640
31645
31632
31636
31606
31632
31659
31651
31646
31651
31675
31685
31664
31736
31720
31753
31758
31863
31866
31935
31946
32023
32083
32129
32188
32219
32234
32260
32312
32369
32404
32424
32463
32474
32524
32537
32557
32518
32521
32514
32523
32510
32531
32527
32516
32515
32535
32580
32557
32588
32623
32621
32637
32644
32665
32690
32669
32696
32702
32736
32741
32755
32788
32793
32807
32831
32878
32893
32930
32958
32980
32997
33035
33059
33072
33096
33100
33137
33154
33138
33191
33199
33197
33201
33196
33219
33217
33240
33275
33290
33294
33324
33284
33308
33281
33359
33338
33379
33416
33391
33422
33425
33439
33477
33480
33505
33562
33573
33583
33580
33629
33632
33668
33631
33646
33672
33652
33655
33665
33684
33690
33704
33682
33601
33603
33497
33443
33332
33174
33059
32897
32767
32596
32481
32362
32273
32146
32086
32061
31987
31980
31926
31913
31948
32013
32034
32043
32055
32098
32121
32150
32168
32212
32253
32282
32299
32324
32345
32417
32439
32494
32553
32557
32647
32700
32726
32795
32862
32891
32909
32968
33001
32999
33021
33007
33023
33023
33027
33037
33010
33023
33013
32989
32997
33011
32992
33007
32983
32960
32986
32991
32985
33000
33036
33050
33046
33088
33081
33109
33116
33139
33131
33160
33202
33205
33238
33244
33243
33291
33288
33279
33292
33327
33372
33391
33413
33425
33444
33424
33447
33447
33461
33454
33468
33470
33464
33445
33460
33471
33464
33480
33479
33498
33487
33469
33495
33484
33481
33499
33504
33483
33502
33517
33512
33523
33506
33502
33564
33590
33572
33605
33613
33625
33637
33626
33587
33613
33628
33616
33542
33468
33436
33318
33185
33040
32908
32784
32654
32505
32382
32303
32189
32134
32079
32071
32028
32065
32040
31993
31991
32029
32031
32036
32057
32075
32081
32128
32116
32152
32169
32229
32230
32249
32291
32307
32322
32367
32386
32436
32522
32524
32582
32635
32634
32688
32741
32738
32767
32757
32766
32804
32797
32810
32808
32787
32788
32792
32794
32786
32788
32803
32846
32833
32816
32853
32877
32933
32919
32941
32945
32984
33003
33039
33028
33015
33048
33076
33093
33093
33139
33138
33134
33132
33178
33195
33197
33218
33230
33254
33290
33284
33271
33309
33309
33294
33324
33334
33309
33337
33353
33307
33319
33315
33354
33333
33326
33332
33331
33350
33312
33331
33343
33361
33342
33375
33388
33420
33409
33419
33429
33436
33463
33451
33489
33487
33478
33513
33512
33538
33541
33587
33546
33593
33575
33539
33510
33442
33385
33270
33160
33019
32892
32735
32592
32456
32306
32198
32118
32037
31990
31941
31939
31916
31925
31933
31918
31927
31933
31948
31978
31969
31980
32012
32011
31997
32001
32029
32022
32045
32067
32093
32132
32138
32194
32226
32278
32345
32371
32416
32471
32542
32559
32601
32646
32707
32734
32715
32751
32780
32795
32816
32793
32822
32800
32836
32849
32843
32814
32863
32866
32886
32859
32868
32886
32877
32894
32879
32932
32929
32936
32909
32959
32961
32938
32981
32998
33014
33043
33031
33059
33080
33127
33146
33151
33190
33218
33203
33212
33228
33259
33225
33264
33275
33278
33273
33305
33317
33326
33361
33389
33372
33418
33396
33433
33411
33439
33435
33450
33454
33477
33468
33463
33467
33496
33494
33481
33490
33488
33507
33486
33508
33502
33506
33517
33507
33521
33510
33482
33487
33444
33376
33310
33214
33098
32977
32810
32688
32523
32360
32215
32090
32010
31894
31824
31753
31720
31679
31672
31642
31656
31689
31715
31688
31727
31747
31784
31777
31777
31811
31805
31825
31824
31833
31853
31878
31936
31910
31984
31970
32069
32109
32179
32240
32275
32349
32392
32425
32491
32548
32552
32618
32622
32644
32674
32686
32701
32718
32744
32739
32734
32727
32737
32750
32767
32721
32766
32773
32765
32789
32779
32814
32797
32828
32820
32837
32855
32876
32884
32892
32910
32942
32965
32977
32991
32974
33029
33047
33076
33094
33102
33112
33150
33163
33167
33169
33174
33176
33235
33226
33223
33252
33247
33269
33295
33293
33323
33291
33336
33354
33349
33353
33381
33402
33418
33430
33433
33449
33465
33464
33479
33466
33456
33462
33450
33454
33466
33476
33434
33442
33434
33373
33293
33261
33138
33016
32891
32779
32653
32508
32362
32219
32109
32020
31938
31897
31832
31771
31765
31732
31753
31757
31763
31773
31794
31834
31835
31849
31915
31913
31908
31948
31891
31929
31939
31948
31958
32015
32039
32070
32120
32181
32251
32316
32382
32412
32468
32503
32577
32575
32599
32608
32622
32620
32649
32654
32641
32656
32643
32634
32636
32638
32614
32625
32656
32654
32662
32670
32681
32674
32709
32700
32736
32720
32747
32766
32776
32779
32771
32828
32815
32849
32870
32894
32927
32953
32970
32991
33026
33040
33084
33108
33098
33122
33134
33150
33160
33171
33166
33149
33172
33205
33235
33217
33263
33273
33283
33263
33305
33335
33344
33355
33370
33379
33381
33364
33385
33399
33381
33394
33407
33432
33416
33390
33430
33437
33407
33331
33253
33179
33082
32927
32798
32634
32479
32280
32127
32009
31916
31811
31724
31603
31568
31550
31504
31473
31462
31460
31430
31442
31436
31412
31406
31398
31456
31412
31426
31456
31446
31453
31458
31478
31498
31511
31559
31565
31602
31665
31678
31750
31762
31818
31875
31924
31972
31990
32038
32069
32109
32120
32145
32188
32187
32215
32230
32245
32244
32226
32268
32234
32262
32244
32241
32223
32241
32240
32295
32302
32292
32299
32310
32295
32357
32399
32385
32375
32435
32462
32489
32493
32491
32520
32564
32571
32565
32612
32597
32620
32646
32659
32627
32665
32681
32698
32707
32702
32751
32736
32773
32779
32749
32813
32806
32806
32840
32856
32867
32889
32891
32904
32936
32925
32939
32973
32966
32976
32948
32979
32994
32980
32956
32940
32892
32837
32714
32570
32471
32312
32095
31921
31741
31608
31466
31378
31261
31163
31091
31054
30986
30958
30866
30871
30828
30833
30788
30772
30784
30779
30812
30766
30788
30813
30811
30823
30813
30777
30843
30860
30830
30849
30886
30875
30909
30946
31009
31043
31084
31142
31197
31243
31293
31354
31419
31489
31517
31554
31598
31613
31655
31657
31681
31702
31723
31726
31737
31734
31734
31737
31727
31752
31753
31746
31750
31815
31825
31831
31853
31864
31873
31904
31927
31966
31994
32002
32031
32068
32085
32151
32158
32200
32224
32263
32260
32269
32319
32356
32361
32347
32416
32443
32450
32445
32506
32508
32568
32565
32605
32658
32641
32660
32676
32686
32694
32698
32698
32734
32724
32692
32738
32754
32775
32784
32814
32835
32888
32898
32891
32922
32892
32936
32947
32960
32945
32949
32963
32897
32870
32793
32710
32565
32417
32248
32084
31891
31693
31539
31423
31307
31158
31050
31015
30903
30857
30838
30807
30796
30787
30783
30796
30760
30782
30820
30787
30798
30803
30800
30800
30819
30801
30803
30798
30828
30790
30844
30882
30894
30934
30945
31024
31092
31135
31220
31249
31316
31373
31438
31513
31572
31624
31610
31684
31696
31714
31766
31755
31782
31802
31833
31820
31844
31854
31862
31897
31939
31965
31979
32020
32069
32115
32163
32166
32244
32342
32383
32512
32634
32761
32837
32950
33024
33107
33215
33277
33376
33440
33506
33542
33615
33659
33693
33732
33797
33873
33854
33901
33936
33946
33988
34013
34020
34052
34073
34069
34086
34070
34081
34064
34041
34048
34024
34029
33961
33983
34006
33998
33986
33987
33988
33996
33965
33961
33973
33957
33974
33964
33970
33963
33962
33953
33964
33959
33933
33908
33955
33902
33897
33900
33899
33871
33816
33769
33744
33634
33563
33395
33273
33145
32986
32827
32650
32451
32311
32180
32066
31951
31878
31776
31710
31623
31549
31514
31471
31423
31373
31314
31297
31237
31219
31155
31122
31097
31082
31116
31117
31111
31143
31100
31136
31108
31120
31147
31144
31113
31131
31136
31158
31173
31193
31228
31259
31274
31277
31309
31313
31279
31223
31231
31200
31144
31135
31104
31037
30969
30921
30904
30855
30792
30791
30781
30736
30746
30734
30730
30736
30735
30785
30753
30744
30777
30741
30747
30776
30791
30764
30752
30751
30770
30802
30794
30828
30851
30893
30886
30884
30895
30928
30906
30899
30935
30911
30948
30973
30961
31016
31029
31038
31052
31048
31104
31083
31097
31131
31135
31162
31200
31202
31257
31248
31269
31283
31319
31330
31348
31381
31439
31475
31495
31515
31558
31574
31609
31640
31677
31667
31750
31753
31779
31814
31841
31874
31890
31902
31898
31913
31931
31926
31916
31903
31857
31754
31652
31482
31303
31136
31007
30819
30669
30533
30426
30327
30194
30140
30086
30028
30002
30005
29942
29922
29897
29908
29932
29913
29928
29971
29958
29981
29974
29984
29993
29964
30016
30015
30007
30055
30034
30059
30084
30095
30144
30169
30212
30251
30287
30370
30404
30431
30518
30604
30636
30696
30717
30745
30786
30830
30872
30879
30907
30939
30954
30952
30967
30985
30968
30983
31003
31034
31066
31074
31100
31132
31170
31189
31238
31279
31278
31301
31326
31323
31343
31394
31404
31418
31403
31384
31422
31437
31460
31489
31509
31547
31553
31569
31642
31622
31659
31700
31719
31698
31722
31735
31749
31790
31796
31775
31808
31865
31878
31887
31916
31909
31940
31931
31928
31994
31998
32021
32030
32084
32084
32085
32146
32141
32198
32191
32235
32246
32273
32264
32295
32286
32299
32324
32287
32273
32253
32224
32140
32040
31934
31797
31616
31412
31274
31145
30992
30847
30725
30655
30568
30508
30431
30429
30418
30361
30368
30353
30366
30377
30360
30354
30362
30352
30377
30414
30381
30447
30436
30460
30499
30512
30559
30585
30629
30635
30671
30732
30797
30843
30883
30897
30973
30988
31045
31084
31141
31181
31191
31231
31299
31312
31313
31353
31347
31305
31324
31340
31337
31332
31300
31311
31317
31275
31307
31323
31333
31347
31400
31397
31405
31410
31460
31503
31454
31478
31528
31545
31562
31555
31599
31602
31631
31649
31708
31748
31728
31773
31841
31859
31884
31896
31922
31948
31957
32022
32028
32048
32073
32091
32106
32158
32177
32191
32210
32244
32276
32286
32306
32287
32336
32369
32370
32381
32417
32406
32467
32485
32544
32503
32573
32576
32600
32642
32673
32713
32734
32717
32760
32769
32752
32778
32792
32801
32839
32819
32824
32742
32636
32511
32423
32256
32070
31835
31673
31513
31324
31216
31109
31042
30968
30881
30830
30818
30790
30752
30752
30725
30715
30711
30705
30724
30722
30714
30747
30750
30778
30814
30831
30853
30871
30903
30951
30984
30981
31004
31030
31088
31127
31170
31210
31271
31344
31358
31436
31519
31573
31637
31689
31755
31809
31832
31870
31925
31966
31961
31978
31986
32030
32020
32044
32041
32044
32040
32066
32080
32087
32093
32120
32122
32147
32171
32211
32195
32260
32300
32341
32355
32386
32427
32457
32490
32488
32510
32546
32555
32561
32580
32590
32596
32619
32598
32628
32672
32691
32708
32705
32721
32763
32744
32753
32780
32762
32774
32780
32818
32800
32821
32810
32807
32837
32791
32808
32822
32832
32820
32823
32808
32824
32816
32820
32859
32867
32859
32869
32878
32899
32911
32904
32932
32954
32981
32984
32975
33003
33002
33006
33041
33014
33044
33053
33046
33033
32990
32996
32922
32804
32735
32603
32411
32292
32082
31899
31729
31589
31412
31297
31230
31125
31088
30991
30961
30920
30926
30857
30869
30871
30854
30855
30873
30866
30880
30887
30889
30888
30876
30871
30868
30867
30864
30858
30867
30842
30859
30862
30871
30869
30900
30934
30969
31001
31060
31096
31131
31174
31255
31265
31281
31322
31342
31366
31354
31390
31373
31393
31376
31390
31392
31420
31434
31424
31468
31439
31488
31493
31495
31499
31515
31571
31599
31625
31684
31708
31750
31778
31845
31898
31950
32017
32093
32156
32217
32264
32319
32347
32376
32407
32454
32460
32446
32483
32497
32508
32549
32532
32549
32581
32592
32618
32602
32624
32650
32654
32653
32647
32679
32670
32669
32656
32669
32644
32651
32695
32684
32688
32708
32721
32715
32759
32739
32719
32774
32770
32806
32835
32809
32807
32802
32830
32825
32809
32782
32744
32668
32568
32452
32318
32131
31969
31764
31594
31468
31323
31216
31157
31061
31035
31035
30984
30966
30953
30957
30919
30927
30958
30975
30956
30985
30981
31010
31004
31019
31067
31053
31081
31087
31126
31151
31181
31225
31316
31348
31413
31463
31565
31584
31604
31716
31775
31802
31871
31939
31997
32014
32063
32101
32101
32176
32165
32186
32185
32234
32220
32245
32243
32259
32307
32298
32310
32301
32349
32370
32386
32435
32435
32452
32474
32527
32535
32561
32602
32634
32664
32686
32724
32748
32796
32783
32834
32838
32818
32859
32849
32907
32872
32905
32914
32891
32921
32957
32952
32938
32895
32945
32940
32979
32968
32956
32970
32960
32937
32979
32970
32971
32993
33003
33027
33063
33064
33103
33119
33138
33136
33182
33169
33197
33227
33217
33228
33289
33288
33249
33250
33293
33263
33203
33127
33044
32966
32830
32707
32584
32415
32257
32116
31964
31882
31803
31735
31669
31594
31578
31561
31522
31520
31522
31519
31501
31533
31515
31512
31521
31547
31543
31560
31577
31578
31600
31606
31629
31624
31653
31679
31730
31746
31793
31830
31877
31933
31962
31996
32056
32092
32130
32137
32161
32204
32229
32255
32284
32305
32307
32319
32331
32358
32308
32343
32325
32320
32325
32341
32311
32330
32350
32344
32329
32315
32318
32361
32370
32359
32389
32379
32400
32417
32390
32413
32426
32468
32443
32464
32481
32516
32525
32522
32535
32522
32609
32619
32598
32639
32628
32657
32643
32660
32667
32655
32698
32693
32697
32712
32724
32768
32748
32758
32762
32800
32770
32822
32823
32847
32855
32858
32897
32911
32900
32908
32959
32935
32962
32981
32988
32999
33006
33010
32974
33013
32941
32888
32807
32699
32580
32468
32324
32115
31972
31852
31713
31600
31530
31458
31422
31327
31285
31293
31261
31275
31250
31259
31261
31248
31260
31265
31279
31286
31324
31344
31334
31366
31358
31381
31383
31379
31430
31410
31451
31455
31498
31537
31564
31617
31674
31728
31807
31847
31913
31966
31988
32071
32096
32118
32156
32165
32198
32212
32247
32202
32214
32218
32238
32226
32257
32244
32214
32252
32224
32247
32206
32214
32207
32236
32243
32254
32261
32241
32282
32274
32296
32308
32312
32332
32349
32386
32355
32381
32427
32453
32478
32527
32542
32596
32615
32631
32676
32693
32729
32716
32700
32723
32712
32693
32708
32699
32715
32729
32748
32768
32803
32804
32813
32831
32835
32862
32871
32895
32931
32896
32953
32976
32987
32977
33005
33044
33042
33050
33032
33078
33109
33111
33102
33113
33111
33062
32998
32931
32793
32664
32540
32351
32100
31933
31784
31603
31508
31406
31325
31262
31207
31151
31120
31093
31030
31061
31014
31007
31001
30987
30995
31009
30963
30996
30968
30989
30958
31006
30986
30999
31016
31032
31032
31038
31063
31074
31102
31166
31172
31219
31265
31341
31401
31461
31485
31543
31602
31648
31671
31750
31739
31785
31801
31845
31879
31872
31874
31892
31889
31881
31871
31901
31901
31920
31937
31965
31973
31980
32012
32012
32030
32066
32090
32068
32097
32166
32158
32157
32176
32201
32240
32254
32298
32333
32376
32393
32443
32458
32495
32509
32520
32519
32578
32612
32615
32634
32641
32667
32669
32718
32730
32752
32784
32777
32800
32799
32840
32848
32848
32898
32871
32904
32903
32930
32897
32933
32934
32963
32957
32982
32978
33025
33027
32975
33051
33049
33025
33041
33055
33053
33043
33012
32953
32876
32781
32711
32532
32390
32209
32055
31886
31737
31592
31484
31402
31304
31246
31203
31170
31148
31133
31124
31117
31150
31133
31137
31162
31194
31195
31196
31207
31221
31227
31246
31213
31230
31261
31245
31265
31295
31353
31388
31422
31481
31585
31615
31669
31776
31796
31855
31885
31971
32002
32036
32088
32122
32156
32221
32227
32223
32198
32231
32241
32277
32261
32306
32268
32294
32302
32317
32345
32355
32361
32399
32430
32466
32467
32477
32494
32519
32542
32556
32590
32585
32634
32647
32659
32684
32701
32741
32771
32822
32853
32902
32897
32933
32973
32979
32973
32986
32999
32992
32990
33003
32976
32982
32966
33006
33026
33014
33056
33081
33065
33102
33125
33129
33137
33149
33169
33164
33171
33170
33198
33231
33230
33238
33248
33266
33305
33284
33330
33324
33312
33283
33212
33160
33062
33001
32836
32723
32556
32420
32301
32102
32007
31867
31789
31750
31718
31648
31625
31614
31611
31608
31579
31568
31611
31602
31600
31657
31631
31634
31673
31705
31681
31712
31738
31730
31784
31761
31812
31904
31925
31980
31992
32079
32104
32147
32238
32279
32311
32387
32429
32477
32533
32573
32624
32632
32646
32707
32698
32735
32749
32783
32794
32777
32783
32787
32786
32787
32784
32792
32791
32791
32835
32843
32866
32861
32881
32910
32951
32930
32992
32998
33000
33031
33031
33042
33071
33064
33093
33088
33113
33137
33147
33141
33159
33200
33219
33205
33201
33249
33253
33232
33256
33273
33272
33271
33295
33295
33266
33277
33295
33296
33267
33291
33308
33318
33305
33347
33338
33361
33377
33402
33415
33423
33405
33423
33424
33424
33432
33430
33443
33423
33380
33348
33270
33210
33106
32968
32861
32737
32593
32452
32296
32171
32017
31945
31897
31802
31753
31705
31640
31654
31668
31624
31657
31669
31670
31689
31726
31731
31710
31726
31737
31754
31739
31743
31744
31751
31767
31759
31793
31840
31855
31882
31939
32001
32083
32113
32165
32229
32288
32339
32386
32403
32423
32493
32523
32550
32557
32577
32638
32584
32625
32629
32651
32607
32651
32641
32679
32643
32684
32686
32674
32703
32720
32713
32735
32746
32774
32791
32784
32826
32875
32872
32844
32884
32907
32956
32928
32967
32968
32994
33003
33054
33059
33068
33112
33118
33150
33142
33149
33189
33192
33181
33195
33220
33218
33231
33240
33269
33284
33258
33299
33296
33321
33326
33342
33343
33355
33408
33410
33390
33420
33421
33457
33443
33467
33508
33504
33523
33501
33537
33513
33546
33536
33529
33499
33491
33463
33391
33319
33244
33129
32969
32820
32683
32557
32375
32214
32115
31958
31845
31790
31703
31657
31624
31582
31585
31588
31533
31522
31545
31528
31559
31548
31552
31586
31572
31585
31606
31573
31586
31633
31645
31630
31631
31712
31739
31806
31791
31853
31898
31951
32019
32036
32093
32150
32205
32256
32264
32344
32392
32403
32445
32479
32480
32489
32535
32503
32526
32515
32513
32546
32530
32513
32538
32526
32552
32538
32594
32558
32614
32656
32672
32696
32652
32681
32707
32738
32737
32763
32797
32807
32795
32814
32845
32848
32880
32898
32909
32947
32937
32988
33008
33004
33037
33078
33086
33103
33126
33168
33123
33142
33150
33188
33168
33182
33173
33196
33207
33248
33251
33234
33245
33283
33281
33276
33302
33310
33342
33355
33375
33398
33381
33372
33449
33415
33454
33423
33486
33485
33495
33511
33548
33572
33556
33567
33545
33529
33504
33482
33411
33325
33195
33105
32968
32838
32690
32558
32461
32296
32189
32095
32022
31956
31923
31916
31901
31847
31844
31842
31818
31852
31832
31871
31827
31859
31870
31855
31883
31901
31922
31934
31912
31973
32005
32017
32060
32092
32134
32147
32226
32247
32314
32359
32455
32495
32529
32557
32616
32649
32670
32721
32760
32758
32785
32802
32841
32832
32836
32841
32845
32837
32865
32869
32868
32870
32879
32881
32900
32915
32920
32935
32993
32976
33012
33017
33084
33081
33120
33157
33164
33203
33203
33232
33249
33234
33253
33282
33279
33318
33315
33346
33347
33376
33391
33400
33409
33441
33423
33445
33451
33498
33472
33476
33480
33511
33493
33505
33499
33500
33518
33519
33514
33536
33535
33538
33565
33577
33570
33575
33619
33600
33616
33642
33648
33678
33691
33683
33704
33696
33672
33653
33611
33591
33568
33496
33440
33332
33274
33151
33044
32943
32855
32737
32600
32509
32426
32356
32261
32257
32194
32165
32114
32156
32145
32128
32112
32185
32187
32208
32190
32207
32238
32229
32266
32274
32290
32291
32343
32368
32374
32414
32457
32498
32541
32609
32657
32720
32749
32808
32827
32881
32894
32927
32928
32937
32929
32984
32957
33001
32967
33003
33005
33000
33037
33033
33044
33042
33066
33067
33075
33080
33103
33138
33145
33158
33140
33193
33211
33256
33244
33283
33308
33306
33329
33326
33345
33372
33391
33399
33439
33461
33424
33439
33485
33486
33502
33514
33525
33516
33536
33548
33545
33565
33569
33555
33581
33546
33568
33586
33577
33598
33587
33600
33606
33621
33605
33656
33689
33666
33670
33711
33701
33711
33711
33730
33744
33746
33741
33786
33781
33782
33780
33762
33784
33801
33781
33771
33716
33673
33609
33518
33403
33307
33184
33068
32932
32834
32729
32621
32508
32472
32381
32291
32281
32221
32222
32199
32198
32241
32245
32244
32267
32245
32268
32293
32303
32308
32307
32317
32321
32321
32318
32347
32390
32408
32426
32482
32533
32578
32646
32704
32733
32793
32818
32899
32914
32919
32975
32987
32992
33020
33042
33087
33087
33074
33127
33114
33106
33099
33115
33137
33125
33135
33143
33147
33164
33183
33203
33189
33201
33272
33270
33258
33295
33317
33320
33306
33335
33361
33332
33365
33368
33374
33386
33410
33414
33419
33435
33475
33458
33496
33480
33507
33526
33493
33489
33507
33501
33516
33522
33553
33522
33560
33579
33608
33567
33597
33617
33648
33647
33643
33674
33653
33693
33704
33685
33712
33691
33720
33740
33716
33712
33748
33762
33781
33797
33801
33805
33820
33812
33814
33771
33720
33626
33583
33470
33365
33242
33123
33047
32890
32783
32676
32555
32460
32361
32307
32225
32168
32145
32115
32078
32056
32038
32030
32048
32056
32064
32064
32046
32072
32115
32102
32113
32185
32148
32166
32148
32176
32210
32239
32262
32308
32351
32406
32459
32488
32526
32578
32626
32684
32680
32746
32802
32820
32839
32852
32883
32889
32912
32884
32912
32932
32926
32961
32977
32903
32943
32955
32984
32957
32983
33004
33006
33023
33060
33066
33036
33086
33155
33152
33152
33152
33238
33190
33207
33248
33221
33240
33212
33232
33270
33288
33300
33304
33357
33341
33387
33394
33403
33381
33403
33405
33405
33440
33463
33452
33483
33449
33484
33492
33509
33525
33520
33532
33543
33541
33537
33552
33554
33585
33566
33593
33590
33613
33619
33626
33629
33644
33651
33645
33688
33683
33668
33663
33711
33685
33700
33672
33677
33674
33618
33598
33503
33444
33305
33180
33043
32900
32751
32596
32459
32309
32161
32057
31975
31916
31795
31799
31713
31703
31680
31672
31653
31651
31717
31647
31697
31692
31709
31680
31706
31724
31729
31746
31722
31752
31771
31787
31768
31842
