35013
35060
35074
35058
35119
35149
35136
35178
35177
35226
35231
35280
35292
35321
35294
35350
35348
35394
35423
35445
35453
35509
35513
35491
35511
35517
35521
35558
35525
35540
35534
35557
35549
35541
35573
35536
35570
35558
35566
35586
35585
35586
35561
35580
35627
35591
35619
35667
35653
35655
35665
35690
35731
35734
35740
35779
35793
35827
35813
35836
35853
35838
35858
35848
35858
35861
35868
35845
35853
35850
35863
35852
35847
35859
35865
35872
35846
35831
35833
35818
35811
35732
35725
35630
35596
35547
35486
35447
35381
35364
35296
35266
35212
35184
35167
35133
35124
35107
35115
35110
35099
35098
35099
35110
35123
35129
35144
35153
35155
35143
35177
35181
35173
35204
35240
35271
35304
35338
35373
35361
35444
35461
35497
35542
35569
35643
35666
35704
35746
35751
35775
35843
35828
35881
35909
35901
35916
35925
35945
35941
35951
35976
36000
35994
36001
36015
36054
36047
36035
36064
36106
36072
36147
36106
36131
36120
36134
36163
36135
36162
36176
36172
36203
36185
36171
36187
36195
36203
36185
36167
36161
36172
36171
36207
36146
36206
36196
36228
36234
36220
36238
36257
36287
36263
36264
36282
36288
36286
36292
36301
36321
36347
36330
36336
36310
36336
36349
36329
36322
36337
36300
36252
36234
36195
36136
36095
36023
35942
35866
35843
35779
35718
35668
35587
35584
35508
35470
35468
35412
35388
35387
35356
35360
35334
35377
35355
35343
35355
35323
35296
35301
35296
35318
35329
35316
35313
35300
35313
35331
35318
35345
35356
35376
35391
35413
35471
35474
35497
35569
35567
35619
35648
35658
35704
35708
35732
35743
35745
35786
35809
35836
35817
35802
35815
35872
35863
35851
35852
35866
35887
35879
35908
35909
35913
35938
35933
35964
36005
35975
36007
35987
36005
36034
36042
36047
36076
36055
36077
36106
36109
36099
36128
36127
36132
36167
36162
36187
36185
36187
36200
36192
36222
36227
36238
36277
36281
36285
36293
36288
36306
36337
36348
36359
36394
36410
36404
36388
36412
36445
36465
36463
36455
36463
36471
36494
36461
36437
36399
36336
36267
36238
36176
36112
36050
36015
35929
35896
35843
35795
35766
35710
35703
35666
35658
35624
35568
35555
35580
35536
35534
35555
35520
35558
35556
35528
35555
35504
35559
35511
35557
35536
35569
35546
35568
35578
35609
35637
35641
35673
35690
35700
35726
35767
35781
35817
35840
35869
35902
35941
35947
35963
35971
35997
36016
36029
36047
36073
36044
36068
36090
36113
36089
36116
36145
36122
36142
36170
36138
36161
36183
36175
36207
36231
36253
36210
36256
36275
36290
36299
36309
36361
36373
36397
36394
36427
36457
36469
36465
36472
36478
36518
36541
36534
36582
36553
36574
36580
36621
36620
36643
36681
36670
36718
36682
36734
36735
36751
36782
36786
36793
36821
36845
36837
36836
36884
36866
36893
36903
36895
36864
36886
36874
36842
36835
36777
36719
36637
36550
36513
36436
36349
36293
36249
36167
36122
36089
36025
35985
35963
35921
35914
35885
35871
35883
35873
35864
35877
35845
35841
35868
35808
35879
35827
35828
35857
35852
35851
35858
35857
35839
35864
35879
35877
35913
35896
35904
35918
35936
35940
35961
35942
35960
35973
35993
35972
35977
36000
35998
35982
36005
36026
36005
36036
36017
36018
36000
36014
36002
35992
36033
36048
36034
36060
36078
36096
36103
36111
36174
36158
36159
36212
36232
36238
36237
36303
36322
36317
36332
36363
36375
36416
36393
36436
36425
36442
36464
36468
36449
36460
36490
36506
36513
36529
36518
36542
36548
36573
36580
36620
36634
36631
36650
36675
36702
36723
36728
36747
36765
36774
36739
36771
36789
36792
36800
36779
36795
36755
36700
36678
36632
36557
36472
36450
36365
36332
36269
36215
36152
36151
36089
36047
36050
35997
35958
35974
36001
35967
35963
35973
35951
35954
35953
35941
35956
35987
35939
35968
35980
36018
36007
36041
36050
36044
36109
36094
36128
36171
36148
36209
36218
36244
36254
36300
36307
36322
36324
36366
36353
36386
36393
36420
36415
36437
36434
36452
36427
36440
36450
36462
36464
36480
36469
36486
36496
36466
36498
36472
36478
36517
36474
36527
36523
36561
36556
36590
36544
36581
36571
36626
36650
36630
36638
36679
36672
36703
36704
36720
36742
36736
36776
36756
36764
36778
36762
36768
36777
36770
36792
36827
36806
36774
36815
36814
36836
36836
36828
36849
36834
36876
36862
36878
36879
36847
36875
36883
36865
36883
36910
36869
36858
36834
36793
36745
36713
36625
36577
36518
36472
36375
36303
36271
36204
36171
36127
36065
36019
36016
35961
35928
35912
35891
35866
35860
35850
35812
35796
35800
35783
35763
35794
35750
35751
35796
35766
35771
35762
35755
35763
35785
35772
35800
35813
35840
35823
35841
35866
35848
35927
35916
35926
35937
35983
35986
35988
35988
36041
35992
36048
36063
36064
36111
36074
36113
36126
36116
36131
36135
36139
36162
36164
36161
36173
36171
36164
36214
36214
36212
36226
36219
36267
36248
36242
36279
36301
36318
36309
36318
36305
36326
36334
36380
36356
36398
36387
36372
36363
36419
36431
36424
36441
36453
36431
36448
36507
36509
36495
36500
36539
36530
36534
36575
36588
36586
36622
36619
36650
36656
36647
36649
36676
36643
36629
36663
36618
36618
36545
36480
36447
36372
36305
36234
36222
36106
36105
36011
35970
35949
35908
35880
35854
35813
35775
35789
35749
35759
35715
35724
35750
35773
35718
35740
35724
35703
35724
35711
35709
35767
35749
35753
35730
35749
35755
35783
35778
35804
35849
35840
35868
35883
35917
35903
35952
35979
35957
35984
36008
35991
36046
36051
36055
36057
36091
36051
36080
36065
36121
36121
36128
36088
36103
36084
36095
36146
36113
36134
36119
36172
36154
36143
36189
36178
36199
36208
36259
36245
36236
36260
36273
36247
36253
36277
36276
36300
36304
36309
36345
36370
36365
36356
36348
36348
36343
36374
36374
36365
36380
36394
36377
36407
36424
36449
36463
36438
36481
36460
36448
36482
36480
36477
36473
36445
36433
36421
36405
36371
36335
36240
36194
36146
36080
36026
35974
35920
35866
35836
35784
35777
35723
35675
35654
35666
35640
35610
35614
35606
35575
35590
35599
35596
35592
35609
35587
35563
35602
35599
35615
35637
35594
35644
35634
35650
35686
35700
35692
35725
35725
35743
35780
35800
35805
35823
35806
35835
35846
35817
35827
35875
35854
35859
35880
35854
35858
35881
35861
35869
35840
35845
35866
35855
35864
35862
35851
35886
35886
35845
35875
35894
35896
35903
35910
35952
35956
35981
35945
35962
36023
35995
36010
36012
36055
36065
36104
36085
36088
36107
36123
36119
36130
36161
36169
36175
36178
36176
36181
36220
36224
36232
36246
36258
36274
36264
36286
36264
36277
36308
36285
36262
36299
36238
36238
36208
36178
36158
36096
36037
35964
35893
35870
35809
35774
35721
35659
35641
35595
35542
35522
35514
35490
35472
35465
35441
35426
35415
35437
35435
35419
35431
35398
35419
35399
35421
35445
35413
35455
35420
35423
35449
35447
35491
35488
35519
35523
35515
35567
35582
35559
35626
35643
35641
35674
35657
35686
35725
35699
35708
35759
35768
35751
35751
35768
35759
35783
35793
35772
35815
35786
35804
35778
35816
35801
35838
35843
35851
35821
35830
35861
35842
35832
35870
35910
35879
35929
35910
35947
35951
35947
35973
36020
35990
36035
36038
36076
36057
36091
36086
36086
36131
36105
36124
36147
36171
36188
36183
36219
36236
36213
36250
36289
36286
36312
36329
36323
36352
36358
36345
36370
36386
36369
36360
36349
36323
36281
36231
36201
36105
36103
36054
35947
35892
35851
35786
35735
35709
35666
35633
35611
35559
35568
35549
35563
35518
35509
35508
35526
35508
35527
35495
35518
35526
35538
35557
35539
35543
35556
35595
35586
35606
35611
35607
35651
35631
35684
35708
35676
35726
35769
35762
35784
35793
35786
35825
35843
35876
35855
35921
35886
35899
35867
35899
35892
35893
35894
35909
35920
35932
35880
35907
35916
35900
35912
35938
35952
35953
35963
35975
35980
36014
36026
36005
36009
36030
36048
36053
36059
36059
36068
36109
36098
36120
36166
36141
36155
36172
36166
36216
36203
36232
36225
36246
36227
36283
36285
36268
36288
36310
36315
36327
36354
36351
36357
36388
36393
36361
36358
36358
36365
36330
36309
36311
36233
36211
36166
36075
36043
35970
35917
35869
35815
35742
35690
35675
35631
35607
35553
35509
35500
35499
35491
35490
35410
35423
35415
35420
35424
35424
35405
35385
35390
35405
35421
35392
35426
35423
35437
35430
35459
35468
35452
35484
35501
35544
35549
35578
35569
35580
35640
35648
35639
35667
35677
35645
35655
35652
35667
35668
35654
35642
35678
35679
35686
35664
35657
35693
35688
35701
35715
35703
35736
35707
35728
35758
35732
35719
35733
35763
35742
35765
35799
35742
35782
35805
35786
35807
35843
35809
35825
35863
35839
35837
35850
35859
35886
35861
35894
35899
35921
35944
35956
35955
35990
35980
35985
36008
36001
36033
36022
36041
36019
36037
36029
36016
35994
35988
35972
35944
35907
35857
35779
35760
35681
35679
35570
35506
35467
35434
35391
35358
35286
35236
35217
35185
35154
35138
35140
35097
35109
35097
35085
35085
35088
35092
35114
35066
35099
35062
35112
35075
35068
35094
35111
35106
35140
35139
35149
35160
35178
35209
35228
35243
35268
35301
35308
35341
35339
35343
35338
35346
35373
35375
35374
35389
35365
35393
35362
35393
35403
35376
35406
35358
35414
35405
35415
35412
35410
35429
35441
35413
35444
35439
35433
35437
35469
35473
35447
35490
35484
35493
35479
35527
35535
35527
35539
35553
35570
35563
35591
35623
35588
35608
35660
35611
35644
35674
35676
35688
35672
35654
35702
35717
35725
35715
35704
35736
35715
35726
35736
35760
35739
35719
35714
35754
35717
35710
35650
35587
35532
35489
35430
35366
35304
35280
35225
35168
35110
35066
35003
34971
34935
34855
34848
34810
34798
34778
34756
34721
34725
34696
34697
34688
34673
34669
34652
34681
34653
34661
34642
34651
34662
34632
34673
34671
34683
34725
34722
34711
34801
34771
34812
34822
34850
34862
34865
34890
34911
34915
34905
34964
34980
34990
35001
34999
35018
35016
35048
35033
35032
35050
35053
35050
35083
35041
35039
35033
35022
35032
35022
35040
35026
35041
35028
35058
35050
35049
35047
35054
35076
35085
35042
35082
35101
35083
35106
35105
35127
35117
35164
35201
35188
35204
35235
35244
35247
35268
35306
35336
35338
35388
35363
35402
35394
35459
35456
35470
35478
35510
35536
35506
35552
35497
35538
35559
35520
35494
35490
35465
35422
35372
35322
35274
35248
35167
35092
35057
35020
34923
34909
34875
34836
34757
34711
34731
34654
34619
34604
34556
34580
34556
34564
34569
34538
34610
34656
34628
34657
34685
34709
34723
34749
34722
34749
34735
34754
34791
34776
34825
34814
34815
34826
34835
34833
34891
34892
34918
34919
34933
34910
34953
34976
34964
34988
34982
34982
34979
34940
34957
34953
34943
34928
34947
34945
34956
34966
34964
34977
34939
34990
34944
34997
35030
35045
35049
35037
35075
35043
35084
35072
35082
35119
35082
35138
35129
35168
35174
35181
35203
35207
35212
35255
35237
35284
35294
35334
35371
35405
35427
35461
35466
35519
35528
35584
35576
35596
35634
35662
35660
35664
35703
35718
35736
35736
35778
35790
35826
35805
35833
35803
35826
35816
35803
35747
35741
35697
35631
35558
35511
35444
35417
35332
35285
35259
35180
35158
35119
35058
35062
35021
34994
34987
34958
34937
34921
34918
34894
34904
34907
34845
34894
34851
34855
34886
34883
34842
34897
34903
34893
34902
34917
34911
34964
34961
34957
34985
34996
35007
35021
35040
35059
35067
35083
35083
35084
35136
35128
35135
35138
35150
35170
35151
35161
35170
35208
35182
35200
35185
35175
35190
35229
35203
35211
35228
35227
35228
35209
35235
35243
35255
35255
35252
35272
35264
35275
35273
35288
35285
35299
35320
35341
35354
35380
35362
35363
35361
35395
35431
35419
35427
35436
35453
35459
35462
35482
35476
35493
35488
35478
35518
35558
35532
35561
35555
35566
35587
35608
35623
35614
35597
35620
35636
35642
35645
35657
35656
35696
35646
35680
35674
35660
35632
35639
35612
35577
35517
35440
35393
35331
35293
35250
35175
35147
35089
35016
34969
34941
34942
34851
34832
34842
34787
34786
34735
34721
34739
34706
34686
34669
34663
34689
34638
34658
34656
34658
34664
34675
34690
34688
34699
34711
34738
34757
34781
34775
34828
34855
34859
34903
34932
34974
34982
34997
35010
35068
35079
35053
35073
35071
35111
35119
35095
35106
35121
35130
35097
35127
35136
35102
35122
35115
35095
35117
35122
35149
35166
35160
35202
35216
35219
35227
35224
35266
35279
35271
35270
35297
35317
35299
35311
35333
35355
35348
35320
35372
35388
35366
35367
35404
35376
35390
35402
35416
35423
35420
35458
35479
35456
35474
35495
35496
35531
35523
35524
35543
35536
35560
35571
35577
35591
35602
35612
35613
35606
35623
35624
35604
35599
35608
35546
35491
35447
35384
35356
35306
35245
35180
35125
35071
35016
34982
34901
34885
34849
34824
34803
34751
34771
34778
34695
34749
34736
34745
34725
34735
34729
34758
34760
34753
34789
34797
34823
34829
34866
34869
34901
34945
34950
34983
34996
35043
35041
35039
35095
35084
35105
35140
35174
35180
35204
35215
35203
35249
35247
35254
35281
35286
35286
35325
35287
35289
35297
35308
35301
35311
35339
35331
35374
35363
35363
35367
35392
35411
35414
35420
35454
35450
35434
35472
35502
35472
35484
35511
35530
35543
35528
35554
35590
35586
35559
35577
35588
35576
35613
35609
35636
35660
35596
35631
35658
35658
35629
35659
35631
35639
35648
35670
35667
35672
35714
35690
35704
35723
35700
35743
35738
35722
35751
35739
35756
35750
35733
35719
35693
35647
35594
35525
35502
35386
35313
35285
35210
35167
35092
35057
35039
34962
34927
34889
34844
34816
34788
34769
34733
34731
34706
34696
34690
34664
34649
34632
34665
34638
34646
34654
34630
34660
34668
34672
34681
34718
34678
34713
34749
34752
34788
34831
34831
34876
34864
34889
34898
34932
34923
34941
34963
34991
34986
35002
35033
35004
34986
35017
35003
35010
35006
34989
34998
34992
34990
34982
34973
34971
34956
34963
34987
34972
34987
34992
35000
34976
34977
34990
34965
34984
34984
35006
34983
35025
35030
35042
35069
35059
35094
35084
35104
35088
35090
35109
35125
35134
35145
35128
35152
35132
35159
35146
35176
35168
35148
35188
35200
35205
35220
35224
35257
35216
35245
35228
35243
35263
35279
35288
35267
35269
35295
35285
35287
35290
35291
35244
35221
35195
35156
35084
35037
35011
34949
34865
34831
34781
34729
34692
34660
34607
34561
34545
34520
34480
34463
34464
34423
34408
34398
34401
34403
34392
34394
34399
34409
34378
34392
34395
34418
34417
34437
34458
34455
34454
34505
34493
34528
34526
34539
34613
34624
34630
34635
34672
34688
34683
34713
34741
34748
34760
34796
34808
34827
34875
34867
34870
34863
34902
34932
34903
34920
34935
34924
34940
34936
34948
34957
34957
34923
34937
34943
34957
34969
34991
34976
34995
35012
34997
35003
35022
35050
35001
35037
35029
35040
35060
35064
35070
35064
35106
35090
35119
35108
35121
35119
35123
35160
35170
35168
35201
35197
35205
35180
35218
35248
35254
35285
35290
35304
35318
35343
35348
35364
35401
35421
35384
35440
35405
35396
35444
35423
35390
35340
35302
35264
35194
35138
35119
35055
35016
34986
34920
34852
34800
34781
34761
34696
34673
34622
34611
34554
34576
34531
34530
34485
34495
34460
34442
34468
34467
34427
34460
34471
34492
34453
34467
34465
34469
34470
34477
34490
34537
34561
34544
34574
34602
34627
34625
34688
34675
34674
34715
34758
34740
34784
34784
34835
34835
34824
34847
34849
34840
34847
34861
34891
34880
34885
34877
34903
34888
34904
34929
34914
34894
34939
34963
34963
34979
34984
35003
35014
35000
35015
35008
35037
35031
35007
35016
35020
35035
35025
34993
35015
35040
35045
35066
35065
35063
35110
35117
35105
35117
35158
35156
35185
35144
35186
35200
35185
35159
35198
35207
35218
35239
35267
35286
35290
35299
35313
35331
35357
35348
35373
35361
35357
35344
35338
35295
35254
35242
35151
35124
35063
35016
34946
34862
34839
34794
34751
34663
34639
34575
34547
34487
34493
34451
34406
34396
34368
34379
34352
34287
34322
34306
34341
34316
34332
34328
34325
34325
34356
34324
34383
34379
34416
34385
34436
34410
34457
34455
34449
34498
34491
34534
34525
34588
34606
34637
34646
34681
34698
34732
34732
34779
34781
34792
34803
34849
34855
34811
34854
34855
34855
34842
34824
34878
34878
34874
34866
34887
34871
34902
34905
34902
34956
34928
34948
34963
34952
34998
35016
34998
34997
35015
35007
35002
35010
35031
35042
35034
35039
35055
35060
35085
35069
35100
35089
35071
35096
35097
35099
35132
35105
35122
35135
35130
35129
35143
35156
35154
35179
35168
35170
35159
35143
35179
35154
35127
35158
35151
35100
35075
35083
35047
34974
34943
34872
34825
34811
34730
34678
34620
34555
34511
34438
34399
34350
34295
34288
34264
34246
34211
34188
34206
34169
34197
34189
34179
34177
34197
34187
34204
34174
34209
34192
34201
34221
34242
34284
34258
34258
34295
34334
34347
34348
34353
34374
34391
34409
34452
34447
34483
34493
34501
34508
34522
34533
34559
34553
34547
34541
34556
34580
34550
34569
34552
34587
34573
34569
34581
34610
34623
34602
34645
34640
34649
34669
34681
34673
34654
34709
34723
34748
34726
34731
34726
34757
34755
34762
34780
34781
34808
34791
34818
34843
34839
34872
34895
34887
34880
34896
34904
34921
34932
34953
34961
34945
34958
34968
34996
34974
35007
35019
34985
35007
35040
34997
35038
35049
34982
35006
34984
34944
34908
34897
34844
34765
34734
34694
34632
34571
34510
34407
34389
34330
34282
34266
34244
34182
34169
34130
34128
34075
34066
34068
34078
34029
34062
34028
34041
34031
34001
34021
34016
34021
34021
34024
34013
34011
34036
34031
34055
34080
34092
34103
34102
34145
34186
34185
34184
34210
34255
34226
34283
34282
34275
34321
34297
34321
34323
34363
34359
34382
34361
34373
34404
34385
34418
34398
34389
34413
34404
34380
34404
34399
34391
34393
34412
34392
34405
34425
34402
34428
34432
34450
34460
34477
34510
34503
34542
34554
34568
34634
34636
34658
34678
34686
34689
34701
34745
34795
34749
34801
34781
34829
34876
34860
34900
34924
34940
34955
34992
35014
35062
35075
35090
35123
35121
35123
35167
35168
35183
35175
35161
35176
35174
35135
35125
35104
35044
35016
34944
34872
34843
34788
34754
34698
34664
34604
34572
34519
34501
34452
34449
34402
34412
34360
34334
34303
34298
34289
34295
34253
34278
34255
34250
34265
34236
34261
34232
34263
34267
34238
34288
34301
34335
34341
34320
34399
34395
34429
34459
34459
34476
34517
34528
34535
34589
34624
34610
34657
34653
34656
34678
34722
34710
34728
34757
34767
34774
34785
34808
34810
34806
34821
34848
34862
34851
34870
34842
34878
34910
34907
34911
34897
34890
34927
34918
34912
34908
34895
34919
34922
34926
34895
34906
34916
34931
34936
34948
34934
34950
34922
34958
34931
34946
34949
34964
34948
34976
34994
35007
35000
35001
35024
35026
35006
35026
35041
35039
35075
35067
35087
35109
35105
35135
35143
35151
35132
35143
35137
35150
35127
35111
35107
35067
35018
34969
34910
34852
34810
34751
34746
34621
34615
34567
34479
34497
34432
34391
34367
34350
34322
34318
34299
34261
34273
34225
34268
34247
34247
34269
34240
34277
34253
34276
34286
34271
34309
34291
34314
34360
34341
34389
34402
34457
34484
34544
34562
34612
34637
34669
34723
34741
34736
34788
34830
34823
34864
34874
34852
34881
34852
34860
34866
34884
34853
34852
34839
34860
34868
34889
34894
34860
34880
34882
34878
34886
34898
34911
34887
34916
34926
34899
34912
34924
34958
34936
34946
34950
34931
34981
34967
34983
34994
35004
35004
34999
35016
35045
35044
35063
35105
35068
35110
35104
35112
35113
35146
35146
35185
35179
35211
35230
35235
35268
35265
35261
35301
35320
35361
35391
35369
35403
35350
35359
35392
35350
35367
35372
35353
35347
35312
35264
35220
35185
35145
35089
34992
34953
34883
34834
34794
34730
34672
34630
34547
34543
34474
34428
34397
34383
34355
34345
34314
34271
34247
34237
34200
34195
34216
34199
34180
34233
34205
34201
34173
34165
34181
34218
34220
34206
34232
34221
34228
34251
34288
34284
34319
34362
34346
34342
34398
34421
34441
34456
34483
34490
34498
34483
34518
34520
34544
34505
34566
34551
34553
34586
34570
34604
34605
34591
34609
34636
34648
34658
34671
34701
34687
34726
34702
34721
34730
34718
34739
34746
34777
34759
34801
34803
34827
34826
34848
34868
34876
34887
34902
34925
34948
34935
34964
34978
34975
34973
34976
34982
34998
34987
34997
34992
35020
35006
35012
35035
35027
35031
35040
35081
35087
35076
35080
35085
35106
35107
35109
35114
35091
35029
35026
35004
34964
34899
34873
34827
34706
34677
34640
34555
34493
34477
34383
34359
34353
34279
34234
34189
34205
34175
34129
34095
34106
34096
34084
34068
34061
34072
34048
34053
34085
34064
34062
34097
34079
34104
34101
34116
34093
34125
34130
34161
34175
34164
34181
34222
34250
34272
34283
34283
34318
34324
34330
34321
34358
34359
34344
34376
34374
34388
34392
34397
34415
34409
34396
34397
34385
34402
34406
34372
34363
34355
34364
34356
34343
34329
34308
34308
34315
34325
34306
34312
34352
34303
34347
34353
34318
34335
34365
34342
34351
34386
34436
34438
34429
34485
34488
34532
34552
34556
34599
34620
34668
34647
34687
34712
34729
34749
34774
34820
34814
34856
34850
34882
34906
34946
34954
34983
35010
35038
35028
35069
35075
35091
35073
35154
35156
35120
35137
35099
35077
35073
35010
34968
34931
34892
34836
34769
34691
34650
34561
34538
34476
34437
34382
34332
34299
34275
34241
34243
34256
34276
34254
34244
34254
34292
34271
34288
34305
34334
34314
34306
34341
34332
34346
34336
34353
34384
34405
34369
34419
34470
34470
34486
34538
34554
34541
34602
34655
34673
34690
34730
34751
34742
34759
34766
34820
34816
34851
34837
34856
34833
34870
34877
34883
34873
34900
34912
34898
34894
34900
34922
34912
34913
34939
34924
34920
34972
34957
34957
34950
34957
34981
34977
34989
34977
34992
34994
35002
35015
34999
34990
35028
35039
35036
35035
35050
35041
35053
35060
35083
35073
35087
35089
35077
35090
35099
35139
35137
35129
35112
35135
35134
35145
35135
35165
35191
35203
35208
35195
35239
35231
35242
35268
35251
35277
35290
35284
35296
35272
35261
35233
35234
35206
35179
35112
35064
35005
34959
34874
34871
34791
34758
34701
34658
34620
34546
34524
34478
34419
34425
34382
34397
34384
34364
34306
34340
34313
34265
34273
34273
34255
34260
34253
34262
34256
34268
34281
34276
34282
34267
34296
34288
34290
34328
34355
34324
34363
34402
34404
34430
34458
34459
34471
34523
34514
34551
34547
34559
34560
34587
34600
34591
34619
34642
34626
34659
34657
34651
34663
34666
34656
34650
34702
34702
34709
34697
34699
34720
34720
34711
34710
34719
34754
34716
34746
34757
34735
34769
34755
34758
34795
34770
34802
34815
34826
34836
34851
34868
34858
34871
34908
34880
34899
34919
34912
34925
34932
34939
34943
34939
34965
34973
34956
34999
35000
35002
35030
35044
35041
35032
35056
35072
35078
35107
35098
35121
35134
35147
35168
35147
35164
35166
35148
35164
35138
35109
35093
35072
35031
34999
34915
34874
34829
34778
34724
34682
34627
34574
34529
34496
34451
34413
34415
34358
34347
34314
34316
34313
34303
34328
34266
34289
34293
34287
34271
34266
34283
34315
34292
34307
34306
34347
34323
34370
34417
34436
34454
34478
34494
34526
34591
34581
34636
34664
34677
34730
34751
34751
34807
34780
34803
34823
34806
34834
34814
34839
34883
34862
34883
34897
34926
34918
34916
34973
35002
35001
35026
35044
35025
35044
35066
35063
35085
35112
35078
35096
35088
35075
35075
35086
35085
35097
35106
35065
35086
35088
35074
35097
35095
35103
35104
35117
35135
35123
35162
35150
35148
35193
35167
35166
35181
35201
35182
35185
35204
35185
35217
35222
35228
35267
35256
35276
35279
35288
35258
35282
35335
35332
35338
35349
35358
35341
35362
35388
35367
35402
35397
35422
35403
35404
35405
35412
35378
35321
35291
35229
35176
35127
35075
35025
34977
34938
34851
34809
34755
34717
34682
34635
34597
34603
34546
34520
34529
34521
34498
34513
34465
34499
34459
34475
34463
34479
34508
34515
34524
34537
34559
34560
34600
34599
34633
34669
34668
34698
34730
34733
34737
34760
34814
34792
34811
34800
34832
34848
34839
34837
34885
34870
34922
34871
34868
34874
34860
34850
34855
34885
34856
34853
34869
34851
34880
34869
34823
34865
34883
34879
34898
34874
34889
34912
34902
34930
34920
34948
34931
34973
34966
35000
34993
35002
35035
35029
35025
35062
35053
35043
35064
35029
35058
35048
35051
35076
35050
35036
35068
35060
35046
35053
35074
35052
35096
35087
35100
35146
35115
35117
35156
35157
35166
35171
35175
35201
35212
35220
35200
35216
35222
35200
35217
35162
35129
35123
35064
35002
34971
34911
34831
34807
34749
34719
34647
34607
34577
34550
34506
34475
34451
34431
34425
34423
34400
34425
34385
34415
34413
34397
34398
34445
34452
34433
34452
34461
34453
34442
34499
34481
34516
34541
34536
34559
34577
34616
34626
34662
34639
34692
34707
34727
34744
34751
34790
34793
34812
34828
34816
34853
34852
34852
34852
34861
34864
34906
34864
34879
34896
34895
34928
34959
34939
34937
34945
34935
34934
34956
34929
34971
34975
34992
34984
34987
34967
35016
35017
35004
35043
35018
35019
35033
35012
35037
35011
35016
35029
35034
35020
35022
35032
35053
35054
35060
35035
35062
35066
35057
35054
35024
35021
35044
35040
35083
35054
35047
35046
35053
35077
35073
35073
35081
35100
35127
35102
35119
35098
35108
35106
35086
35043
35029
35018
34975
34910
34856
34813
34749
34693
34662
34581
34534
34496
34468
34383
34360
34310
34240
34243
34187
34169
34147
34113
34086
34077
34064
34063
34026
34022
34051
34019
33995
34011
34009
34000
34029
34018
34028
34044
34060
34052
34064
34098
34103
34130
34139
34116
34148
34156
34171
34186
34198
34220
34245
34249
34278
34264
34273
34302
34283
34313
34324
34313
34341
34333
34351
34355
34369
34387
34350
34413
34381
34403
34410
34404
34425
34431
34444
34436
34466
34455
34491
34489
34506
34511
34498
34485
34507
34528
34490
34540
34539
34550
34541
34543
34545
34581
34616
34633
34618
34639
34626
34603
34615
34624
34635
34658
34641
34666
34675
34683
34701
34733
34730
34742
34732
34742
34756
34727
34768
34740
34774
34798
34798
34786
34824
34839
34817
34791
34840
34823
34808
34788
34770
34738
34668
34611
34576
34506
34423
34380
34309
34230
34208
34151
34135
34059
33973
33955
33945
33901
33848
33857
33819
33791
33780
33755
33754
33747
33741
33744
33717
33712
33737
33720
33705
33753
33746
33737
33762
33783
33778
33799
33828
33824
33856
33859
33888
33885
33924
33931
33948
33960
33959
33968
34007
33997
34018
33995
34038
34015
34046
34050
34080
34054
34075
34114
34111
34112
34139
34132
34149
34142
34160
34134
34164
34171
34193
34191
34181
34187
34194
34218
34220
34244
34208
34221
34243
34242
34288
34275
34271
34291
34321
34282
34325
34331
34338
34340
34365
34355
34382
34417
34428
34420
34419
34429
34469
34439
34473
34484
34468
34494
34507
34541
34519
34527
34534
34539
34587
34589
34595
34621
34624
34631
34632
34680
34656
34644
34684
34666
34633
34658
34628
34617
34598
34526
34491
34404
34386
34330
34255
34196
34145
34091
34036
33984
33929
33871
33838
33819
33738
33747
33685
33676
33666
33621
33635
33627
33598
33604
33597
33594
33588
33596
33584
33597
33586
33605
33605
33632
33639
33634
33640
33677
33667
33688
33697
33718
33734
33722
33765
33743
33763
33786
33780
33829
33833
33884
33865
33875
33886
33876
33921
33912
33918
33915
33920
33933
33940
33943
33960
33981
33978
33977
33982
33967
34013
34001
33998
33985
34005
34040
34025
34051
34059
34073
34083
34090
34110
34103
34120
34142
34122
34133
34164
34163
34165
34205
34213
34241
34243
34239
34261
34281
34285
34320
34297
34305
34334
34328
34339
34322
34383
34347
34354
34398
34390
34406
34408
34392
34420
34421
34446
34431
34468
34463
34500
34477
34501
34486
34514
34505
34516
34531
34511
34519
34503
34523
34477
34430
34370
34347
34302
34215
34188
34094
34058
33998
33941
33868
33856
33782
33757
33726
33666
33642
33593
33589
33532
33545
33503
33514
33509
33485
33476
33452
33491
33472
33504
33464
33496
33479
33487
33456
33486
33541
33503
33536
33546
33556
33600
33584
33573
33611
33592
33626
33672
33648
33656
33685
33710
33701
33721
33737
33765
33756
33775
33821
33802
33818
33802
33841
33833
33807
33824
33810
33817
33846
33842
33817
33844
33857
33851
33854
33876
33889
33888
33914
33919
33902
33921
33942
33937
33945
33966
33965
33982
33994
34013
34013
34052
34045
34041
34075
34068
34109
34090
34119
34141
34145
34160
34173
34162
34186
34232
34242
34229
34252
34241
34266
34262
34265
34275
34277
34258
34304
34281
34305
34318
34323
34323
34369
34360
34375
34378
34420
34400
34397
34384
34400
34387
34401
34380
34356
34315
34271
34244
34223
34152
34089
34072
33992
33953
33917
33815
33767
33701
33644
33607
33554
33554
33466
33484
33474
33441
33421
33414
33425
33378
33398
33380
33389
33393
33367
33355
33348
33368
33383
33385
33376
33377
33428
33422
33438
33442
33476
33492
33500
33532
33550
33534
33561
33599
33599
33621
33615
33648
33659
33679
33687
33708
33733
33727
33733
33752
33766
33776
33746
33781
33805
33803
33761
33799
33792
33822
33830
33821
33847
33840
33877
33866
33883
33906
33876
33890
33939
33913
33910
33967
33961
33963
33987
33987
34018
34039
34070
34080
34126
34144
34147
34140
34162
34210
34236
34194
34250
34267
34288
34264
34318
34339
34340
34382
34397
34413
34415
34472
34484
34465
34492
34516
34536
34527
34557
34564
34588
34589
34586
34627
34649
34667
34659
34699
34675
34678
34709
34701
34697
34679
34652
34644
34624
34558
34519
34506
34452
34404
34362
34246
34219
34185
34127
34074
34036
34003
33973
33940
33919
33928
33859
33870
33855
33826
33832
33812
33825
33806
33793
33823
33826
33802
33801
33817
33807
33813
33822
33826
33857
33867
33865
33889
33895
33905
33966
33963
33961
34009
34030
34045
34026
34053
34053
34057
34080
34082
34093
34125
34166
34150
34132
34156
34165
34144
34177
34154
34155
34177
34158
34171
34146
34165
34153
34165
34155
34146
34167
34184
34161
34164
34162
34177
34195
34189
34176
34189
34190
34235
34258
34259
34253
34282
34279
34258
34315
34299
34311
34326
34342
34328
34353
34364
34340
34379
34386
34402
34410
34428
34426
34437
34455
34464
34444
34474
34444
34458
34457
34506
34504
34499
34529
34547
34515
34574
34567
34555
34571
34642
34618
34602
34559
34569
34564
34566
34544
34500
34451
34415
34374
34318
34224
34210
34154
34069
34039
33954
33957
33904
33868
33818
33810
33788
33767
33746
33747
33708
33710
33726
33703
33700
33725
33685
33679
33713
33707
33698
33708
33736
33722
33748
33761
33781
33779
33798
33812
33829
33838
33849
33909
33893
33914
33933
33948
33939
33962
33956
33973
33941
33995
34006
33977
33988
34001
34008
34004
34024
34015
34036
34032
34085
34038
34059
34057
34068
34057
34081
34073
34083
34052
34097
34106
34119
34109
34133
34133
34114
34125
34142
34172
34138
34177
34146
34217
34206
34209
34241
34281
34247
34285
34240
34286
34280
34295
34287
34300
34307
34335
34335
34356
34344
34367
34374
34392
34389
34385
34409
34428
34439
34445
34443
34474
34490
34467
34477
34514
34485
34504
34534
34521
34524
34506
34499
34496
34491
34467
34469
34446
34399
34326
34291
34261
34181
34127
34081
34007
33950
33880
33819
33793
33742
33686
33676
33647
33590
33567
33539
33545
33528
33530
33532
33511
33490
33521
33525
33502
33489
33519
33503
33480
33490
33506
33520
33515
33529
33554
33560
33564
33595
33601
33617
33640
33662
33662
33672
33712
33710
33747
33734
33778
33773
33777
33785
33823
33833
33842
33839
33825
33850
33844
33837
33846
33880
33856
33866
33882
33882
33869
33919
33892
33885
33881
33887
33887
33910
33924
33925
33904
33937
33931
33932
34000
33958
33984
34001
34012
34028
34061
34065
34076
34057
34105
34100
34088
34100
34131
34136
34149
34184
34171
34204
34156
34226
34195
34238
34258
34223
34266
34256
34265
34313
34297
34302
34298
34303
34340
34334
34317
34363
34367
34361
34367
34383
34385
34388
34391
34381
34378
34340
34322
34289
34243
34188
34153
34131
34041
34013
33905
33897
33828
33751
33709
33647
33596
33549
33503
33489
33443
33415
33397
33385
33355
33325
33338
33335
33316
33328
33349
33299
33299
33324
33306
33301
33324
33294
33336
33347
33327
33291
33313
33364
33383
33358
33395
33412
33419
33416
33426
33460
33470
33504
33497
33542
33556
33557
33584
33565
33592
33580
33570
33620
33621
33614
33611
33654
33615
33638
33659
33616
33670
33660
33637
33637
33629
33646
33658
33673
33688
33676
33668
33676
33673
33708
33689
33712
33716
33725
33728
33755
33779
33774
33784
33811
33798
33808
33831
33826
33842
33857
33889
33866
33875
33912
33921
33932
33941
33938
33954
33982
33980
33988
34022
34031
34033
34015
34025
34050
34054
34069
34092
34103
34112
34130
34146
34107
34184
34168
34156
34174
34192
34166
34165
34183
34153
34128
34144
34108
34073
33993
33986
33927
33849
33792
33736
33676
33647
33587
33505
33476
33383
33346
33316
33283
33227
33207
33202
33178
33170
33163
33134
33132
33149
33156
33169
33113
33142
33150
33139
33136
33125
33112
33116
33158
33156
33173
33196
33225
33249
33251
33258
33266
33273
33314
33346
33344
33342
33371
33372
33405
33397
33398
33432
33411
33443
33459
33463
33495
33460
33474
33477
33518
33507
33515
33491
33522
33509
33541
33546
33548
33580
33572
33568
33582
33636
33616
33668
33644
33667
33667
33652
33668
33689
33720
33692
33728
33718
33735
33742
33735
33781
33772
33793
33837
33829
33860
33870
33863
33891
33916
33871
33913
33930
33930
33932
33963
33974
33957
33997
34003
34002
34040
34041
34060
34050
34037
34069
34074
34098
34087
34128
34109
34128
34095
34126
34125
34130
34144
34143
34116
34152
34163
34125
34088
34046
34027
33983
33937
33909
33825
33758
33684
33630
33569
33534
33472
33410
33367
33322
33296
33233
33222
33184
33151
33150
33141
33125
33130
33097
33118
33101
33099
33101
33110
33114
33133
33105
33106
33113
33115
33131
33130
33177
33154
33161
33177
33199
33211
33240
33254
33284
33303
33294
33343
33319
33350
33377
33374
33383
33414
33439
33422
33438
33435
33445
33449
33468
33463
33463
33456
33456
33481
33478
33478
33474
33504
33501
33531
33519
33501
33521
33546
33552
33543
33562
33581
33582
33581
33590
33601
33611
33619
33628
33640
33677
33684
33663
33678
33680
33708
33658
33714
33736
33708
33743
33721
33719
33731
33735
33727
33730
33736
33776
33770
33755
33776
33786
33787
33813
33806
33782
33823
33826
33841
33880
33857
33908
33915
33902
33951
33950
33975
34046
34023
34005
34037
34053
34051
34039
34054
34037
34026
33982
33977
33947
33910
33886
33822
33738
33737
33674
33592
33562
33502
33427
33401
33345
33294
33266
33188
33198
33183
33150
33132
33163
33141
33176
33167
33163
33195
33211
33177
33195
33209
33199
33192
33213
33201
33230
33230
33222
33242
33262
33265
33310
33303
33309
33370
33382
33391
33381
33396
33404
33411
33446
33443
33457
33437
33477
33459
33467
33468
33474
33456
33482
33450
33513
33472
33487
33478
33491
33492
33508
33495
33500
33478
33515
33523
33536
33534
33561
33541
33527
33545
33553
33561
33561
33558
33590
33594
33616
33618
33602
33599
33625
33658
33643
33638
33658
33692
33721
33716
33689
33737
33737
33768
33789
33780
33781
33785
33775
33783
33807
33814
33826
33804
33830
33844
33838
33854
33867
33868
33847
33888
33904
33896
33940
33910
33932
33932
33948
33950
33989
33969
33970
33964
33963
33972
33969
33955
33920
33912
33877
33817
33809
33733
33676
33617
33552
33504
33458
33393
33320
33261
33233
33201
33153
33131
33063
33062
33058
33033
33043
33051
33042
33036
33005
33059
33032
33035
33024
33029
33024
33062
33071
33078
33073
33098
33109
33123
33133
33153
33178
33181
33192
33212
33241
33240
33257
33303
33307
33352
33341
33361
33373
33389
33403
33381
33438
33450
33431
33466
33478
33470
33490
33517
33508
33504
33507
33515
33530
33533
33546
33563
33574
33574
33595
33629
33592
33625
33640
33631
33670
33664
33672
33660
33690
33706
33716
33730
33731
33758
33777
33813
33826
33828
33866
33883
33905
33943
33938
33990
33956
33989
34018
34040
34047
34081
34122
34081
34137
34145
34148
34187
34229
34212
34239
34232
34298
34278
34299
34327
34322
34354
34408
34371
34408
34432
34437
34464
34506
34475
34493
34502
34490
34502
34503
34490
34451
34447
34436
34428
34379
34349
34273
34246
34191
34131
34085
34017
33990
33897
33898
33849
33801
33797
33747
33740
33706
33665
33665
33669
33614
33611
33584
33604
33617
33574
33574
33588
33578
33616
33593
33605
33609
33610
33618
33646
33663
33703
33695
33702
33745
33770
33805
33818
33821
33818
33859
33894
33895
33928
33920
33961
33975
33969
33976
33998
34014
34064
34048
34059
34087
34090
34112
34102
34126
34142
34167
34161
34150
34175
34196
34218
34227
34242
34198
34250
34279
34281
34319
34311
34348
34341
34370
34386
34397
34395
34446
34442
34474
34484
34497
34511
34504
34494
34508
34526
34542
34551
34587
34567
34625
34612
34596
34611
34626
34652
34652
34644
34683
34657
34684
34673
34674
34693
34704
34705
34709
34727
34711
34715
34725
34744
34711
34757
34746
34733
34742
34713
34718
34705
34688
34680
34614
34598
34557
34480
34405
34347
34273
34246
34165
34124
34057
34000
33957
33929
33872
33855
33796
33781
33738
33732
33705
33704
33701
33676
33678
33651
33664
33661
33648
33666
33661
33682
33681
33677
33724
33722
33725
33761
33763
33761
33788
33786
33833
33836
33819
33834
33868
33856
33867
33920
33932
33920
33921
33905
33953
33942
33963
33958
33953
33969
33959
33982
33973
33995
34027
34004
34037
34010
34055
34043
34069
34036
34042
34100
34071
34076
34113
34083
34101
34082
34124
34104
34155
34132
34151
34153
34164
34183
34197
34181
34204
34231
34237
34238
34282
34318
34314
34315
34340
34361
34367
34349
34367
34360
34371
34374
34383
34380
34379
34399
34419
34407
34431
34427
34425
34413
34452
34476
34487
34476
34470
34481
34474
34472
34467
34439
34448
34403
34397
34373
34314
34301
34257
34185
34105
34085
33993
33895
33857
33824
33736
33709
33644
33622
33548
33511
33465
33438
33416
33391
33374
33381
33331
33350
33348
33351
33331
33334
33360
33344
33343
33347
33344
33345
33382
33385
33365
33392
33406
33365
33420
33404
33432
33455
33484
33494
33500
33515
33543
33524
33591
33581
33595
33613
33644
33612
33635
33650
33618
33690
33685
33667
33673
33660
33682
33680
33670
33673
33691
33671
33711
33708
33734
33718
33755
33738
33763
33755
33768
33798
33805
33794
33813
33827
33876
33851
33855
33899
33921
33897
33898
33915
33942
33922
33923
33933
33952
33951
33905
33934
33927
33930
33923
33923
33937
33922
33928
33911
33893
33913
33885
33918
33908
33890
33905
33900
33918
33928
33938
33904
33956
33956
33957
33974
33982
34002
34011
34003
33995
34001
33974
33923
33921
33840
33824
33768
33712
33673
33619
33571
33553
33482
33502
33411
33373
33354
33332
33292
33270
33264
33224
33258
33233
33251
33231
33270
33240
33259
33248
33266
33258
33269
33260
33310
33274
33290
33307
33338
33316
33328
33353
33362
33379
33430
33456
33478
33511
33509
33540
33557
33584
33623
33642
33640
33684
33715
33741
33722
33752
33758
33769
33794
33809
33807
33809
33824
33839
33824
33851
33845
33848
33839
33865
33866
33870
33882
33884
33876
33907
33944
33914
33944
33926
33925
33942
33940
33944
33948
33936
33951
33932
33954
33983
33986
33976
33961
33995
33994
34004
34004
34003
34001
34024
34025
34030
34041
34065
34019
34029
34058
34064
34045
34041
34042
34042
34051
34015
34053
34030
34041
34080
34092
34058
34068
34090
34060
34069
34067
34030
34044
34067
34011
34006
33983
33920
33888
33843
33795
33756
33680
33604
33548
33500
33434
33361
33349
33287
33236
33208
33157
33130
33075
33074
33050
33024
33023
33020
32997
32985
32982
32985
32937
32966
32951
32970
33009
32983
32985
32972
33009
33010
33029
33031
33035
33049
33050
33050
33064
33097
33096
33077
33089
33105
33095
33129
33129
33151
33123
33145
33127
33149
33158
33171
33161
33173
33169
33143
33173
33166
33151
33163
33155
33145
33142
33168
33198
33184
33186
33183
33194
33196
33202
33184
33196
33206
33221
33240
33247
33275
33254
33271
33284
33304
33317
33313
33332
33334
33366
33365
33378
33387
33386
33403
33426
33444
33450
33445
33482
33464
33485
33493
33491
33489
33514
33514
33519
33530
33534
33539
33544
33563
33578
33576
33601
33602
33624
33604
33571
33590
33611
33590
33598
33562
33528
33514
33463
33426
33407
33323
33281
33244
33157
33139
33075
33033
32989
32937
32910
32869
32827
32818
32810
32798
32768
32791
32785
32778
32774
32770
32776
32777
32791
32809
32781
32799
32790
32826
32814
32827
32826
32870
32869
32918
32935
32881
32919
32972
32977
33001
33027
33045
33088
33101
33135
33169
33153
33169
33197
33211
33216
33241
33253
33235
33263
33278
33278
33282
33274
33324
33282
33307
33317
33342
33312
33321
33318
33334
33305
33318
33324
33302
33289
33303
33295
33306
33292
33283
33310
33310
33326
33353
33362
33338
33377
33393
33410
33442
33451
33493
33547
33515
33559
33601
33610
33634
33643
33681
33704
33727
33755
33809
33806
33808
33864
33834
33889
33934
33917
33966
33998
34022
34078
34055
34105
34112
34134
34162
34177
34202
34200
34226
34183
34185
34173
34151
34097
34064
34041
34000
33908
33897
33829
33787
33780
33718
33687
33688
33638
33577
33575
33527
33529
33525
33524
33487
33474
33473
33463
33475
33439
33468
33499
33476
33484
33531
33476
33508
33505
33517
33564
33546
33570
33587
33584
33598
33598
33597
33610
33634
33636
33634
33670
33697
33705
33706
33728
33750
33748
33744
33750
33769
33767
33774
33794
33785
33791
33777
33730
33753
33743
33727
33714
33732
33724
33722
33716
33778
33754
33744
33798
33784
33812
33820
33838
33859
33878
33892
33926
33891
33906
33926
33923
33901
33910
33920
33950
33956
33981
34026
34001
34010
34051
34065
34101
34129
34125
34134
34164
34155
34180
34192
34168
34193
34202
34214
34200
34228
34208
34205
34204
34249
34219
34240
34242
34228
34247
34215
34172
34185
34150
34113
34019
33980
33932
33858
33765
33708
33653
33614
33548
33533
33444
33432
33412
33371
33362
33344
33319
33344
33325
33314
33297
33286
33310
33315
33324
33332
33312
33304
33332
33342
33361
33370
33374
33393
33435
33421
33433
33472
33478
33505
33527
33540
33550
33551
33603
33571
33605
33613
33615
33671
33633
33627
33651
33640
33655
33675
33662
33634
33648
33679
33644
33660
33646
33644
33663
33663
33644
33672
33676
33655
33672
33685
33704
33673
33699
33712
33732
33722
33750
33757
33769
33770
33797
33803
33786
33853
33885
33869
33863
33896
33924
33906
33926
33931
33919
33945
33932
33939
33958
33942
33974
33992
33982
33983
33959
34002
34005
34021
33998
34049
34027
34069
34030
34054
34058
34060
34021
34004
33950
33944
33914
33839
33776
33776
33668
33607
33564
33484
33402
33350
33301
33271
33171
33140
33115
33056
33051
33047
33018
32997
33001
32999
32992
32978
32963
32975
32973
32993
32964
32986
33003
32995
32996
32988
33007
33011
33006
33046
33052
33067
33080
33082
33121
33094
33140
33169
33175
33213
33220
33228
33244
33237
33243
33251
33289
33269
33289
33281
33320
33313
33307
33351
33345
33330
33340
33334
33345
33350
33351
33398
33367
33394
33397
33425
33396
33403
33422
33408
33409
33418
33433
33428
33432
33430
33427
33436
33476
33456
33466
33492
33472
33486
33510
33519
33562
33589
33582
33589
33633
33617
33591
33613
33612
33625
33582
33585
33589
33631
33646
33637
33654
33668
33671
33694
33683
33704
33723
33725
33728
33735
33745
33760
33685
33677
33638
33634
33553
33499
33420
33392
33325
33246
33189
33109
33078
33018
32958
32919
32883
32805
32825
32768
32735
32720
32712
32688
32695
32699
32697
32689
32697
32670
32671
32687
32685
32699
32692
32698
32700
32693
32718
32711
32757
32727
32775
32772
32784
32791
32806
32821
32845
32866
32863
32889
32900
32919
32963
32926
32943
32985
32986
32993
32978
32998
33020
33032
33066
33079
33032
33079
33052
33041
33074
33070
33074
33092
33064
33072
33087
33069
33105
33117
33072
33123
33130
33137
33166
33132
33161
33148
33180
33170
33194
33207
33190
33234
33253
33219
33263
33293
33280
33292
33311
33309
33314
33344
33320
33361
33375
33384
33370
33412
33426
33416
33438
33421
33435
33459
33481
33480
33521
33493
33513
33527
33546
33521
33515
33531
33554
33537
33533
33524
33490
33481
33460
33377
33326
33289
33220
33173
33097
33027
32987
32937
32854
32812
32734
32699
32635
32600
32580
32569
32541
32506
32521
32541
32526
32517
32529
32496
32520
32539
32530
32539
32509
32513
32517
32534
32531
32518
32534
32535
32530
32565
32589
32577
32602
32636
32642
32709
32701
32703
32742
32757
32737
32779
32798
32784
32813
32828
32823
32853
32896
32836
32894
32882
32879
32875
32893
32913
32894
32906
32885
32926
32907
32921
32920
32903
32945
32935
32926
32961
32960
32950
32948
32957
32962
32966
32966
32985
32984
32996
33005
33007
33002
33028
33052
33073
33072
33129
33124
33081
33125
33169
33170
33158
33155
33191
33171
33197
33227
33203
33231
33241
33230
33259
33240
33273
33291
33271
33296
33318
33343
33332
33328
33336
33357
33332
33368
33376
33375
33368
33382
33326
33335
33309
33245
33215
33170
33121
33069
32998
32953
32864
32821
32781
32722
32672
32647
32584
32572
32530
32496
32476
32457
32474
32480
32464
32429
32459
32446
32443
32424
32408
32415
32405
32391
32392
32391
32390
32393
32400
32405
32378
32374
32419
32411
32404
32404
32459
32459
32484
32481
32502
32546
32550
32598
32607
32609
32631
32654
32659
32674
32701
32693
32695
32737
32732
32759
32764
32800
32794
32798
32818
32815
32837
32812
32795
32852
32860
32839
32852
32873
32865
32830
32878
32890
32905
32899
32909
32914
32929
32960
32972
32984
32961
33000
32969
32989
33018
32997
32985
32986
32998
33024
33036
33043
33062
33095
33145
33128
33126
33152
33195
33208
33232
33261
33249
33278
33294
33276
33345
33330
33310
33356
33395
33409
33410
33441
33453
33471
33461
33483
33465
33495
33489
33500
33502
33489
33452
33436
33387
33333
33307
33260
33180
33114
33063
33028
32979
32884
32803
32771
32744
32694
32627
32622
32609
32586
32566
32603
32560
32551
32558
32579
32610
32593
32624
32586
32628
32634
32620
32638
32653
32663
32687
32707
32707
32763
32755
32765
32832
32865
32894
32906
32954
32973
33001
33028
33048
33052
33087
33100
33100
33135
33160
33175
33178
33195
33219
33256
33258
33276
33296
33290
33339
33335
33289
33314
33338
33359
33361
33367
33351
33378
33392
33372
33337
33378
33386
33387
33386
33338
33390
33407
33400
33402
33430
33436
33465
33453
33448
33506
33471
33486
33475
33500
33500
33531
33526
33518
33543
33530
33544
33556
33561
33543
33580
33541
33566
33543
33572
33540
33522
33554
33548
33547
33542
33563
33554
33526
33540
33558
33555
33551
33564
33565
33544
33549
33513
33514
33493
33452
33444
33370
33338
33261
33200
33114
33086
32973
32911
32842
32804
32716
32641
32573
32503
32461
32443
32352
32317
32291
32273
32224
32215
32225
32177
32199
32210
32183
32191
32200
32185
32200
32154
32206
32221
32175
32185
32198
32217
32242
32256
32259
32240
32304
32319
32353
32353
32376
32402
32401
32432
32470
32486
32506
32562
32590
32616
32639
32655
32688
32684
32700
32720
32729
32722
32725
32737
32744
32726
32739
32752
32757
32743
32728
32753
32750
32753
32762
32805
32784
32783
32829
32806
32844
32804
32841
32849
32857
32853
32874
32863
32864
32877
32898
32915
32901
32904
32920
32924
32941
32958
32946
32948
32961
32973
33015
33054
33012
33062
33098
33072
33109
33149
33149
33175
33166
33232
33230
33229
33283
33310
33294
33343
33364
33331
33367
33344
33317
33331
33287
33230
33229
33177
33088
33050
32994
32931
32845
32789
32742
32672
32601
32576
32525
32471
32428
32354
32340
32294
32314
32256
32270
32261
32239
32252
32251
32233
32254
32242
32282
32220
32243
32259
32245
32232
32268
32251
32263
32264
32272
32300
32310
32327
32336
32358
32387
32427
32412
32451
32508
32498
32539
32578
32578
32595
32580
32598
32618
32623
32619
32622
32624
32624
32636
32652
32645
32618
32621
32634
32644
32640
32648
32679
32657
32627
32644
32665
32664
32661
32664
32676
32688
32703
32717
32735
32735
32763
32788
32790
32794
32796
32795
32857
32830
32842
32865
32892
32882
32911
32919
32904
32951
32977
32960
32982
32997
32977
32970
33024
33018
33045
33064
33043
33044
33063
33039
33060
33096
33086
33083
33106
33109
33098
33111
33087
33129
33137
33120
33132
33128
33095
33098
33077
33031
33023
32950
32899
32855
32780
32754
32656
32574
32504
32460
32429
32341
32287
32260
32200
32192
32172
32131
32120
32136
32133
32129
32112
32099
32123
32134
32117
32116
32113
32109
32120
32123
32137
32161
32141
32145
32143
32170
32170
32191
32203
32220
32212
32231
32257
32266
32280
32282
32272
32306
32334
32348
32360
32334
32367
32355
32358
32398
32371
32361
32389
32371
32405
32413
32435
32437
32433
32464
32438
32475
32483
32478
32460
32443
32494
32522
32518
32550
32520
32562
32553
32554
32604
32642
32632
32683
32677
32716
32737
32725
32754
32759
32795
32821
32838
32823
32820
32863
32861
32874
32897
32868
32898
32932
32940
32951
32978
32997
33043
33053
33060
33051
33080
33073
33117
33102
33138
33131
33147
33199
33223
33275
33234
33270
33258
33312
33279
33289
33296
33289
33252
33239
33167
33171
33106
33089
33025
32974
32940
32902
32856
32794
32766
32738
32670
32649
32605
32621
32595
32597
32586
32606
32604
32612
32609
32649
32672
32653
32682
32717
32732
32707
32739
32755
32772
32738
32764
32767
32782
32805
32829
32848
32861
32894
32941
32943
32984
33021
33017
33045
33072
33071
33097
33129
33119
33137
33152
33126
33158
33158
33141
33167
33177
33186
33176
33221
33214
33219
33226
33225
33230
33231
33269
33270
33246
33296
33280
33306
33340
33334
33319
33335
33305
33332
33364
33363
33392
33375
33401
33433
33421
33414
33445
33439
33459
33470
33513
33499
33515
33505
33515
33530
33552
33561
33585
33578
33603
33620
33621
33620
33684
33637
33656
33646
33668
33653
33685
33663
33680
33722
33704
33744
33727
33714
33763
33788
33762
33778
33775
33745
33740
33745
33700
33697
33663
33636
33577
33544
33477
33418
33336
33309
33223
33175
33132
33087
33015
32996
32966
32911
32884
32871
32865
32841
32841
32814
32837
32817
32835
32873
32833
32856
32856
32859
32845
32878
32848
32888
32886
32907
32930
32923
32945
32979
32990
33013
33010
33040
33070
33088
33097
33145
33140
33132
33160
33156
33171
33183
33195
33200
33205
33199
33213
33216
33215
33201
33215
33249
33251
33254
33241
33273
33279
33301
33292
33329
33319
33305
33338
33345
33338
33359
33372
33364
33368
33383
33358
33369
33372
33424
33413
33423
33446
33482
33486
33471
33531
33530
33535
33555
33609
33579
33606
33616
33605
33611
33625
33642
33683
33695
33673
33708
33701
33727
33716
33727
33741
33763
33757
33768
33761
33778
33789
33789
33795
33817
33808
33816
33824
33773
33786
33780
33763
33747
33726
33666
33594
33599
33557
33483
33433
33399
33347
33319
33302
33246
33225
33163
33155
33142
33065
33061
33087
33075
33089
33056
33075
33048
33057
33052
33052
33084
33084
33083
33128
33129
33098
33126
33186
33160
33159
33191
33200
33225
33275
33297
33310
33344
33380
33410
33403
33416
33453
33483
33503
33475
33516
33507
33533
33521
33518
33537
33529
33534
33515
33537
33526
33518
33536
33509
33518
33557
33542
33560
33540
33574
33606
33591
33618
33643
33650
33640
33650
33677
33682
33689
33680
33695
33680
33677
33686
33671
33669
33696
33704
33731
33703
33700
33708
33715
33738
33694
33714
33740
33751
33727
33754
33767
33739
33768
33769
33753
33758
33788
33789
33806
33814
33826
33812
33859
33868
33853
33876
33841
33858
33877
33867
33885
33858
33811
33800
33776
33746
33713
33654
33612
33546
33498
33474
33372
33350
33319
33250
33175
33179
33092
33082
33061
33028
33047
33012
32993
32957
32972
32969
32956
32971
32968
32973
33026
33007
33001
33032
33010
33016
33056
33050
33061
33082
33132
33155
33197
33214
33216
33246
33255
33308
33328
33373
33356
33359
33364
33410
33375
33417
33417
33430
33451
33458
33477
33509
33468
33492
33495
33517
33536
33512
33519
33552
33553
33532
33543
33546
33544
33560
33545
33566
33548
33561
33609
33582
33556
33618
33598
33608
33647
33641
33627
33665
33652
33662
33675
33694
33698
33695
33697
33692
33700
33697
33699
33760
33701
33730
33756
33763
33768
33729
33776
33797
33788
33789
33817
33819
33830
33819
33820
33838
33855
33859
33843
33842
33847
33800
33806
33712
33745
33673
33615
33573
33539
33461
33407
33358
33304
33249
33218
33151
33118
33100
33053
33037
32976
32985
32980
32966
32947
32917
32911
32945
32941
32934
32931
32962
32968
32950
32945
32969
32989
32994
33012
33043
33034
33072
33065
33090
33104
33114
33127
33147
33142
33175
33209
33231
33232
33210
33254
33276
33263
33285
33274
33276
33318
33303
33284
33326
33289
33333
33322
33300
33323
33336
33357
33349
33362
33345
33381
33378
33375
33422
33415
33399
33445
33428
33422
33442
33420
33426
33438
33422
33443
33473
33450
33478
33492
33501
33508
33506
33538
33553
33537
33544
33556
33579
33560
33558
33558
33600
33627
33594
33616
33616
33627
33634
33642
33657
33676
33676
33645
33691
33655
33667
33688
33675
33622
33615
33576
33549
33504
33447
33409
33338
33297
33225
33180
33098
33044
32980
32933
32878
32839
32775
32747
32676
32701
32675
32637
32649
32668
32645
32635
32670
32657
32631
32627
32649
32646
32627
32617
32645
32633
32629
32631
32658
32679
32670
32707
32691
32715
32727
32762
32751
32797
32778
32800
32815
32855
32860
32887
32869
32891
32909
32902
32901
32949
32937
32931
32931
32952
32932
32937
32962
32944
32968
32958
32981
32957
33015
33004
32983
32972
33019
33009
33009
32981
32991
33017
33035
33039
33070
33056
33047
33080
33067
33091
33094
33094
33123
33126
33124
33152
33165
33192
33197
33201
33212
33211
33235
33232
33271
33282
33294
33269
33290
33313
33307
33350
33333
33339
33342
33346
33347
33360
33347
33363
33352
33342
33343
33337
33287
33288
33251
33208
33159
33073
33026
32978
32923
32861
32814
32746
32682
32625
32545
32506
32473
32448
32386
32345
32365
32326
32316
32327
32340
32294
32300
32314
32306
32312
32267
32319
32317
32290
32320
32290
32285
32310
32326
32311
32327
32342
32354
32376
32380
32389
32415
32438
32441
32445
32476
32517
32512
32528
32582
32571
32568
32608
32614
32576
32610
32611
32635
32633
32608
32634
32641
32606
32614
32588
32605
32614
32630
32623
32619
32660
32652
32657
32648
32641
32669
32669
32675
32705
32696
32685
32673
32703
32691
32724
32726
32740
32750
32751
32779
32785
32806
32817
32827
32867
32892
32889
32902
32900
32932
32932
32964
32922
32954
32963
32980
33017
33016
32999
33040
33038
33049
33054
33082
33095
33099
33130
33093
33128
33102
33111
33082
33057
33050
33021
32970
32954
32921
32844
32796
32741
32698
32568
32520
32482
32418
32344
32278
32221
32189
32179
32117
32090
32080
32067
32073
32047
32069
32034
32036
32035
32050
32022
32034
32031
32033
32045
32042
32036
32017
32028
32055
32071
32058
32041
32100
32108
32116
32143
32161
32188
32196
32230
32256
32245
32249
32268
32325
32316
32312
32326
32354
32336
32333
32347
32357
32369
32357
32344
32378
32362
32372
32370
32362
32372
32356
32388
32414
32407
32393
32413
32377
32418
32414
32405
32455
32441
32419
32459
32472
32484
32463
32477
32508
32506
32517
32517
32563
32578
32574
32597
32607
32604
32656
32632
32663
32683
32680
32688
32694
32721
32713
32736
32756
32756
32734
32752
32756
32806
32784
32817
32817
32847
32863
32836
32850
32857
32855
32888
32905
32908
32904
32872
32847
32837
32802
32785
32722
32666
32617
32556
32524
32453
32379
32302
32237
32183
32127
32089
32041
31993
31996
31972
31991
31933
31935
31959
31949
31895
31909
31914
31904
31904
31902
31895
31896
31905
31884
31913
31882
31910
31932
31943
31911
31936
31956
31965
31997
32013
31992
32051
32078
32081
32110
32118
32159
32177
32169
32203
32228
32247
32260
32282
32284
32298
32301
32321
32349
32320
32338
32333
32365
32377
32385
32388
32400
32414
32442
32462
32460
32473
32497
32516
32504
32542
32553
32545
32580
32599
32596
32630
32640
32669
32679
32689
32701
32705
32758
32767
32776
32822
32831
32850
32882
32895
32882
32924
32929
32958
32952
32966
33007
33014
33018
33063
33077
33132
33158
33150
33162
33195
33185
33232
33270
33223
33288
33288
33317
33329
33312
33354
33336
33341
33380
33377
33366
33400
33406
33417
33386
33418
33385
33360
33326
33304
33253
33197
33183
33107
33043
33021
32909
32877
32828
32788
32735
32659
32626
32577
32560
32508
32490
32437
32468
32443
32435
32420
32431
32440
32445
32450
32460
32428
32451
32425
32456
32476
32476
32486
32485
32490
32521
32533
32532
32529
32581
32590
32606
32638
32671
32675
32695
32724
32720
32750
32757
32770
32804
32829
32805
32842
32836
32863
32862
32854
32844
32869
32863
32872
32869
32893
32860
32878
32863
32882
32918
32864
32888
32882
32879
32899
32894
32903
32916
32907
32921
32931
32930
32958
32964
32942
32973
33008
32990
33016
33003
33025
33042
33054
33027
33063
33085
33096
33079
33109
33129
33121
33132
33157
33176
33157
33184
33204
33198
33198
33220
33199
33216
33259
33248
33264
33260
33282
33293
33259
33301
33300
33309
33310
33273
33269
33266
33222
33216
33157
33139
33099
33030
32971
32942
32829
32778
32751
32662
32620
32564
32500
32473
32408
32407
32367
32344
32328
32351
32380
32334
32343
32353
32331
32329
32349
32323
32359
32387
32357
32378
32388
32372
32415
32414
32436
32435
32435
32493
32528
32517
32503
32538
32569
32561
32541
32572
32625
32592
32668
32662
32676
32685
32687
32696
32678
32715
32716
32737
32697
32736
32711
32711
32737
32721
32693
32710
32740
32743
32710
32744
32767
32748
32752
32771
32758
32758
32771
32786
32762
32799
32763
32779
32810
32809
32853
32862
32868
32886
32899
32899
32937
32910
32928
32947
32964
32949
32975
32986
33020
33002
32997
33026
33035
33057
33061
33057
33039
33088
33101
33096
33127
33089
33123
33130
33144
33146
33153
33150
33181
33167
33194
33197
33197
33204
33203
33206
33203
33173
33136
33072
33045
33028
32961
32928
32831
32796
32741
32614
32570
32466
32420
32378
32331
32274
32259
32229
32196
32177
32168
32137
32146
32169
32145
32152
32162
32134
32109
32153
32126
32148
32121
32138
32135
32142
32164
32202
32187
32208
32219
32239
32249
32274
32276
32299
32326
32359
32342
32358
32360
32401
32419
32420
32414
32474
32473
32488
32493
32513
32518
32527
32505
32532
32534
32543
32509
32511
32516
32532
32496
32524
32563
32546
32545
32556
32536
32555
32581
32603
32597
32612
32635
32628
32612
32650
32676
32666
32640
32640
32707
32687
32715
32707
32724
32732
32728
32728
32799
32740
32796
32796
32819
32823
32831
32811
32816
32837
32859
32876
32902
32903
32921
32916
32895
32944
32983
32947
32964
32982
32989
32994
32982
33005
33011
33042
33023
33065
33043
33046
33024
33042
33030
33047
33017
33010
32982
32959
32908
32851
32804
32764
32694
32619
32597
32546
32437
32371
32348
32267
32205
32193
32128
32080
32070
32075
32033
32046
32029
32006
31993
31999
32006
31998
32001
32001
32022
31992
32027
32023
32006
32013
32034
31997
32021
32011
32025
32033
32066
32080
32121
32112
32145
32159
32157
32194
32198
32204
32228
32225
32271
32293
32293
32282
32297
32307
32334
32322
32336
32341
32330
32341
32335
32311
32311
32326
32348
32374
32371
32366
32358
32378
32391
32371
32378
32387
32390
32391
32404
32421
32424
32395
32439
32439
32464
32463
32470
32483
32495
32512
32538
32547
32556
32563
32565
32567
32571
32574
32593
32626
32622
32639
32626
32640
32673
32660
32695
32689
32695
32730
32724
32704
32744
32753
32749
32743
32781
32756
32788
32789
32771
32797
32816
32831
32840
32833
32847
32867
32851
32853
32842
32824
32827
32769
32741
32696
32646
32615
32551
32475
32427
32342
32315
32235
32181
32137
32064
31998
31979
31975
31921
31906
31898
31880
31866
31863
31843
31870
31856
31881
31850
31875
31842
31852
31860
31888
31844
31845
31859
31870
31893
31904
31886
31902
31917
31910
31944
31966
31981
31974
32012
32015
32051
32094
32089
32109
32135
32160
32160
32183
32164
32199
32188
32193
32221
32210
32207
32212
32197
32217
32229
32213
32200
32216
32254
32233
32271
32242
32245
32283
32265
32289
32273
32285
32315
32306
32329
32295
32328
32347
32338
32359
32376
32376
32389
32361
32419
32451
32445
32461
32450
32460
32510
32528
32510
32542
32553
32577
32547
32593
32614
32588
32633
32613
32619
32677
32642
32658
32677
32714
32725
32736
32713
32746
32733
32758
32751
32782
32771
32832
32797
32824
32794
32815
32857
32827
32828
32845
32818
32812
32782
32746
32739
32670
32638
32564
32539
32442
32402
32336
32286
32233
32150
32088
32040
31995
31943
31902
31898
31901
31854
31870
31875
31849
31858
31840
31817
31829
31843
31848
31862
31849
31868
31840
31836
31870
31895
31910
31924
31891
31938
31917
31958
31964
31983
32014
32045
32039
32082
32073
32099
32113
32136
32117
32170
32192
32225
32228
32238
32267
32282
32274
32276
32292
32284
32287
32309
32323
32339
32321
32324
32327
32348
32367
32347
32353
32374
32386
32412
32411
32442
32441
32445
32449
32498
32487
32519
32500
32544
32569
32581
32597
32655
32657
32697
32685
32749
32759
32757
32805
32813
32820
32829
32858
32884
32893
32929
32912
32939
32971
32967
32987
33018
33015
33015
33016
33058
33061
33108
33098
33142
33138
33147
33166
33208
33221
33217
33234
33234
33265
33293
33300
33315
33305
33307
33334
33303
33322
33316
33259
33241
33186
33199
33110
33063
33026
32989
32898
32856
32777
32743
32684
32633
32590
32525
32529
32463
32453
32417
32415
32394
32395
32368
32375
32364
32391
32390
32382
32383
32402
32415
32456
32431
32445
32469
32477
32498
32483
32535
32541
32568
32573
32631
32640
32666
32645
32686
32733
32738
32773
32799
32830
32836
32843
32869
32870
32868
32887
32867
32882
32923
32906
32916
32925
32916
32917
32945
32972
32979
32999
32981
33002
32988
32999
33009
32994
32974
32994
32987
33017
33038
33022
33020
33026
33035
33036
33054
33086
33104
33084
33123
33123
33109
33128
33147
33159
33151
33169
33180
33212
33204
33200
33201
33213
33213
33229
33233
33256
33262
33284
33268
33283
33284
33279
33333
33334
33354
33351
33330
33337
33349
33368
33349
33356
33353
33308
33320
33331
33307
33308
33291
33251
33223
33163
33107
33060
33001
32943
32852
32809
32736
32698
32636
32592
32534
32467
32465
32392
32419
32373
32389
32393
32371
32377
32375
32365
32376
32364
32379
32387
32380
32411
32407
32383
32419
32409
32418
32450
32443
32474
32490
32529
32515
32568
32599
32580
32614
32633
32648
32684
32678
32712
32698
32735
32720
32707
32763
32736
32761
32760
32754
32730
32757
32741
32732
32742
32762
32753
32756
32765
32774
32769
32763
32788
32777
32778
32803
32815
32775
32791
32761
32812
32831
32830
32822
32828
32859
32866
32888
32887
32891
32914
32930
32941
32959
32945
32952
32975
32964
32965
33006
32996
33040
33047
33028
33050
33070
33050
33102
33099
33118
33109
33127
33142
33137
33136
33180
33161
33167
33179
33178
33195
33172
33185
33196
33209
33202
33199
33181
33171
33167
33128
33067
33032
32979
32927
32871
32833
32758
32709
32601
32567
32493
32453
32399
32334
32315
32218
32210
32181
32152
32123
32151
32123
32101
32130
32140
32129
32124
32130
32116
32176
32114
32146
32132
32131
32127
32135
32149
32155
32143
32188
32196
32225
32230
32253
32277
32285
32299
32309
32374
32362
32356
32406
32403
32404
32425
32448
32400
32462
32475
32495
32481
32506
32482
32508
32483
32462
32482
32475
32511
32500
32504
32489
32514
32505
32510
32541
32549
32528
32557
32581
32569
32574
32576
32583
32601
32563
32628
32611
32611
32616
32646
32657
32663
32654
32713
32703
32730
32744
32758
32752
32793
32775
32791
32806
32817
32812
32834
32830
32841
32851
32844
32830
32858
32885
32877
32891
32916
32908
32929
32943
32938
32949
32939
32954
32971
32945
32979
32941
32943
32948
32932
32937
32901
32897
32842
32785
32743
32671
32646
32548
32502
32431
32351
32304
32232
32179
32082
32061
32022
31970
31954
31945
31933
31915
31897
31919
31901
31913
31916
31910
31890
31944
31920
31949
31927
31927
31916
31954
31943
31958
31930
31980
31982
31990
31991
32011
32003
32039
32079
32092
32097
32121
32106
32157
32148
32198
32216
32210
32225
32229
32236
32249
32263
32282
32256
32260
32266
32263
32277
32259
32263
32285
32287
32306
32290
32294
32265
32317
32309
32324
32340
32336
32354
32360
32358
32393
32409
32391
32379
32425
32417
32434
32448
32453
32454
32470
32508
32492
32509
32520
32526
32525
32555
32557
32589
32606
32592
32618
32591
32644
32656
32631
32648
32663
32680
32700
32676
32684
32698
32689
32721
32731
32711
32738
32766
32767
32761
32789
32763
32774
32785
32796
32797
32784
32795
32757
32753
32750
32723
32669
32617
32545
32480
32426
32381
32306
32227
32160
32106
32043
32000
31952
31876
31870
31833
31814
31807
31776
31760
31770
31758
31761
31748
31759
31761
31763
31739
31757
31775
31740
31760
31782
31766
31738
31763
31773
31803
31818
31835
31860
31856
31892
31886
31917
31939
31952
31995
31959
31997
32028
32045
32059
32069
32088
32085
32071
32115
32117
32099
32103
32117
32125
32112
32099
32084
32129
32137
32150
32132
32147
32140
32189
32170
32166
32195
32158
32216
32210
32190
32234
32207
32224
32238
32250
32273
32259
32260
32254
32270
32279
32323
32311
32335
32328
32380
32361
32387
32416
32401
32415
32422
32438
32456
32457
32463
32456
32487
32487
32500
32519
32501
32539
32521
32541
32574
32556
32591
32576
32607
32618
32632
32648
32625
32668
32655
32704
32682
32688
32707
32683
32692
32702
32671
32646
32630
32602
32575
32524
32519
32454
32352
32321
32241
32194
32144
32081
32021
31951
31913
31900
31806
31818
31794
31771
31777
31785
31789
31769
31792
31805
31806
31821
31799
31791
31834
31829
31842
31838
31857
31866
31875
31891
31893
31942
31922
31951
31963
31966
32003
32020
32019
32034
32058
32045
32059
32084
32115
32089
32157
32136
32130
32155
32168
32184
32199
32186
32214
32183
32216
32241
32232
32214
32235
32241
32267
32297
32261
32324
32320
32378
32343
32402
32385
32430
32441
32446
32476
32480
32487
32476
32509
32511
32506
32494
32539
32555
32596
32582
32608
32640
32662
32689
32694
32715
32724
32753
32758
32809
32812
32837
32831
32850
32844
32856
32887
32887
32899
32911
32932
32980
32963
32994
33038
33042
33082
33072
33081
33109
33109
33118
33120
33155
33125
33151
33161
33158
33156
33130
33116
33133
33072
33021
32969
32938
32858
32815
32723
32665
32598
32529
32496
32429
32387
32359
32322
32274
32251
32251
32213
32204
32232
32224
32230
32247
32239
32258
32255
32263
32249
32259
32267
32263
32287
32260
32332
32317
32349
32367
32364
32380
32401
32451
32424
32452
32484
32485
32515
32522
32563
32558
32568
32576
32598
32591
32615
32628
32602
32621
32642
32615
32644
32602
32628
32638
32621
32629
32588
32617
32609
32585
32594
32588
32594
32610
32579
32585
32579
32582
32599
32583
32609
32621
32610
32617
32644
32653
32632
32658
32668
32680
32669
32711
32706
32712
32715
32736
32732
32743
32749
32750
32795
32771
32783
32805
32812
32853
32836
32836
32850
32850
32860
32880
32877
32912
32916
32900
32934
32967
32970
32973
33002
32972
32953
32972
32972
32921
32938
32901
32842
32819
32777
32708
32682
32614
32560
32512
32425
32401
32305
32262
32194
32157
32098
32081
32023
32014
32001
31975
31990
31972
31995
31989
31993
31981
31986
31978
31985
31981
31967
31980
32000
32024
32020
32010
32033
32046
32096
32095
32122
32123
32139
32150
32194
32191
32177
32232
32237
32230
32230
32250
32259
32277
32296
32289
32296
32317
32325
32335
32336
32338
32339
32308
32308
32340
32329
32344
32324
32370
32357
32336
32385
32327
32356
32362
32377
32371
32382
32407
32369
32366
32377
32397
32434
32415
32429
32440
32461
32448
32473
32491
32489
32490
32489
32537
32546
32578
32551
32565
32580
32600
32604
32609
32614
32633
32639
32627
32626
32667
32663
32659
32655
32704
32733
32751
32757
32749
32742
32754
32768
32785
32795
32753
32761
32778
32781
32785
32764
32751
32704
32678
32633
32584
32545
32517
32440
32411
32324
32248
32193
32131
32049
31979
31937
31929
31878
31867
31832
31788
31769
31778
31763
31740
31790
31746
31753
31741
31748
31746
31740
31721
31741
31744
31761
31773
31756
31737
31764
31758
31767
31788
31818
31836
31842
31851
31856
31909
31894
31910
31934
31963
31977
31991
32018
32002
31993
32003
32013
32033
32034
32052
32077
32065
32104
32083
32107
32091
32088
32088
32094
32134
32138
32122
32132
32164
32129
32155
32171
32156
32177
32189
32198
32177
32202
32199
32202
32214
32208
32215
32195
32245
32246
32248
32251
32272
32313
32336
32375
32367
32387
32380
32410
32422
32415
32472
32466
32506
32523
32510
32474
32470
32471
32507
32544
32537
32533
32528
32550
32565
32577
32597
32573
32613
32632
32671
32680
32660
32648
32642
32655
32662
32667
32634
32617
32582
32558
32530
32490
32439
32365
32305
32223
32189
32133
32042
31984
31951
31865
31835
31768
31729
31703
31683
31657
31659
31647
31614
31653
31627
31636
31635
31633
31615
31623
31619
31636
31590
31614
31615
31627
31645
31648
31633
31690
31683
31683
31669
31740
31749
31762
31805
31821
31806
31836
31830
31861
31863
31860
31885
31915
31937
31923
31962
31944
31963
31959
31990
31959
31967
32003
32011
31989
31991
31999
32006
32007
31990
32021
32001
32019
32039
32056
32031
32061
32079
32076
32077
32080
32096
32117
32098
32099
32086
32126
32136
32131
32154
32167
32206
32208
32221
32243
32247
32260
32286
32302
32274
32313
32332
32331
32318
32371
32336
32379
32394
32370
32360
32416
32399
32413
32422
32440
32460
32470
32491
32481
32507
32495
32494
32519
32528
32545
32549
32545
32550
32573
32544
32552
32532
32528
32551
32502
32478
32416
32398
32294
32258
32203
32138
32065
31995
31930
31875
31817
31745
31722
31684
31633
31608
31612
31591
31577
31572
31594
31572
31617
31580
31604
31614
31638
31653
31637
31612
31636
31637
31672
31684
31680
31692
31736
31768
31751
31761
31785
31794
31817
31856
31892
31907
31903
31941
31982
32003
32029
32060
32064
32090
32114
32111
32134
32160
32157
32173
32202
32189
32216
32200
32235
32222
32253
32245
32212
32252
32257
32285
32258
32271
32281
32293
32287
32322
32338
32361
32371
32376
32367
32392
32378
32420
32419
32441
32448
32469
32500
32502
32509
32527
32553
32550
32587
32599
32607
32590
32615
32627
32651
32666
32691
32668
32709
32736
32743
32766
32772
32788
32800
32813
32817
32869
32876
32861
32889
32893
32925
32886
32925
32944
32985
32984
32995
33014
33026
33033
33027
32963
33002
32983
32911
32895
32832
32772
32746
32677
32603
32541
32472
32411
32377
32294
32260
32226
32200
32163
32144
32098
32097
32076
32087
32076
32076
32075
32094
32077
32060
32049
32078
32048
32083
32076
32096
32107
32100
32101
32148
32160
32144
32179
32224
32248
32261
32267
32283
32331
32360
32344
32365
32376
32380
32388
32389
32430
32404
32425
32411
32425
32423
32404
32402
32419
32411
32391
32400
32402
32407
32415
32389
32410
32442
32397
32426
32440
32428
32437
32443
32424
32423
32422
32444
32458
32432
32455
32451
32469
32424
32469
32457
32480
32520
32495
32520
32551
32525
32563
32556
32598
32621
32622
32671
32665
32684
32714
32676
32702
32703
32710
32717
32750
32777
32752
32761
32752
32772
32781
32798
32819
32818
32805
32783
32827
32813
32800
32788
32776
32774
32750
32715
32640
32618
32535
32481
32397
32337
32273
32207
32118
32066
32033
31970
31945
31898
31882
31841
31815
31824
31811
31798
31814
31816
31803
31809
31831
31803
31827
31824
31840
31811
31804
31815
31843
31833
31837
31839
31861
31871
31878
31915
31924
31934
31990
31994
31992
32018
32058
32065
32071
32086
32107
32136
32124
32134
32142
32130
32147
32158
32156
32167
32182
32173
32154
32184
32184
32187
32201
32224
32198
32189
32229
32219
32205
32222
32235
32225
32237
32226
32250
32235
32273
32260
32280
32295
32311
32320
32332
32333
32366
32374
32378
32380
32402
32403
32410
32419
32436
32416
32480
32479
32486
32504
32505
32512
32564
32560
32584
32588
32589
32575
32589
32607
32611
32594
32633
32615
32660
32651
32679
32678
32682
32703
32688
32657
32701
32678
32679
32634
32638
32567
32569
32502
32441
32391
32319
32247
32177
32095
32014
31966
31923
31824
31767
31731
31718
31698
31640
31607
31609
31616
31551
31569
31557
31581
31562
31561
31576
31562
31566
31549
31548
31539
31580
31574
31549
31551
31574
31608
31612
31604
31635
31660
31659
31673
31674
31719
31727
31744
31771
31796
31798
31837
31817
31854
31886
31878
31875
31899
31892
31921
31897
31935
31934
31918
31932
31941
31903
31918
31923
31911
31893
31919
31940
31941
31948
31917
31950
31968
31985
32013
31987
31966
31999
32019
32022
32039
32051
32068
32081
32083
32115
32141
32133
32125
32175
32207
32200
32218
32249
32239
32234
32255
32271
32285
32316
32300
32306
32343
32344
32365
32340
32312
32368
32375
32370
32363
32390
32393
32405
32401
32460
32458
32443
32456
32462
32481
32513
32489
32489
32506
32501
32493
32453
32460
32388
32341
32289
32222
32174
32102
32027
31961
31909
31839
31750
31718
31651
31596
31561
31528
31514
31467
31441
31420
31445
31446
31433
31433
31443
31424
31434
31421
31422
31425
31434
31415
31447
31402
31417
31450
31421
31433
31437
31453
31465
31492
31525
31530
31575
31580
31588
31614
31645
31612
31667
31688
31675
31690
31700
31719
31716
31742
31750
31753
31748
31771
31778
31755
31751
31758
31777
31765
31781
31756
31769
31769
31779
31776
31758
31774
31764
31797
31830
31795
31817
31806
31839
31855
31840
31839
31823
31870
31870
31884
31868
31922
31910
31937
31938
31955
31935
31974
31988
31979
31981
31984
31997
32043
32060
32031
32073
32083
32078
32122
32126
32119
32139
32140
32195
32170
32198
32178
32202
32214
32232
32230
32227
32249
32266
32270
32273
32264
32299
32347
32311
32329
32310
32332
32320
32324
32337
32311
32290
32254
32210
32188
32156
32088
32028
31981
31912
31871
31807
31725
31665
31573
31560
31492
31448
31440
31400
31362
31345
31332
31324
31340
31332
31312
31322
31355
31336
31332
31315
31334
31337
31323
31322
31363
31319
31350
31367
31331
31349
31365
31396
31405
31418
31453
31498
31482
31508
31513
31563
31532
31563
31563
31599
31589
31600
31620
31614
31635
31632
31657
31643
31675
31669
31671
31666
31684
31689
31681
31671
31683
31623
31708
31708
31678
31700
31685
31678
31715
31728
31725
31720
31729
31747
31759
31785
31756
31794
31795
31822
31806
31835
31837
31854
31875
31843
31895
31943
31960
31961
32023
31987
32030
32050
32095
32062
32121
32129
32139
32150
32193
32205
32211
32230
32241
32272
32297
