43373
43306
43232
43148
43066
42998
42939
42878
42817
42762
42706
42644
42579
42522
42476
42448
42437
42433
42426
42413
42393
42366
42337
42307
42275
42243
42203
42161
42118
42067
42019
41982
41944
41907
41889
41900
41938
42003
42112
42285
42531
42855
43258
43739
44295
44912
45568
46228
46863
47466
48019
48507
48922
49262
49523
49699
49775
49765
49715
49654
49583
49497
49399
49294
49180
49045
48895
48759
48641
48528
48428
48347
48274
48206
48139
48056
47960
47874
47798
47710
47605
47487
47357
47211
47049
46871
46673
46459
46235
46010
45800
45619
45473
45361
45273
45207
45161
45119
45079
45053
45045
45049
45062
45077
45094
45114
45113
45077
45020
44959
44896
44826
44762
44716
44663
44590
44507
44413
44295
44156
44008
43855
43695
43533
43385
43258
43135
43008
42894
42812
42756
42717
42694
42671
42641
42617
42589
42549
42506
42462
42415
42374
42340
42312
42289
42267
42237
42186
42106
42010
41920
41845
41780
41719
41664
41621
41585
41540
41486
41432
41383
41340
41300
41253
41193
41130
41084
41055
41031
41018
41014
41007
41001
41016
41069
41167
41311
41501
41742
42036
42381
42775
43228
43741
44288
44841
45376
45881
46334
46707
47000
47212
47347
47421
47449
47431
47362
47252
47122
46986
46838
46672
46497
46330
46183
46049
45923
45812
45715
45617
45526
45454
45398
45346
45296
45253
45214
45162
45076
44957
44818
44667
44511
44358
44207
44074
43962
43860
43764
43675
43594
43529
43496
43486
43479
43478
43489
43500
43511
43529
43538
43520
43482
43442
43407
43364
43303
43228
43152
43088
43043
43004
42959
42910
42862
42816
42765
42712
42639
42541
42452
42385
42321
42263
42208
42138
42042
41936
41852
41799
41765
41738
41709
41677
41635
41585
41538
41495
41451
41401
41331
41250
41181
41133
41097
41051
40993
40935
40888
40848
40803
40761
40737
40723
40705
40692
40686
40672
40635
40573
40504
40453
40426
40425
40481
40602
40778
41010
41305
41663
42076
42541
43052
43586
44105
44579
44999
45360
45651
45870
46028
46129
46172
46159
46090
45968
45825
45688
45552
45413
45279
45153
45045
44963
44897
44840
44795
44773
44762
44738
44700
44660
44621
44578
44526
44461
44374
44264
44142
44031
43925
43802
43663
43516
43372
43235
43114
43030
42986
42964
42959
42978
43021
43072
43116
43150
43184
43212
43213
43193
43165
43140
43128
43118
43090
43042
42997
42970
42946
42904
42835
42750
42667
42584
42503
42440
42397
42361
42327
42289
42240
42178
42097
41996
41893
41805
41733
41666
41600
41540
41488
41431
41368
41307
41254
41221
41207
41190
41162
41138
41126
41119
41111
41094
41067
41039
41009
40971
40918
40869
40830
40780
40702
40614
40552
40528
40535
40552
40555
40552
40563
40600
40698
40883
41159
41514
41932
42393
42884
43406
43949
44476
44962
45408
45805
46135
46399
46606
46751
46835
46888
46927
46937
46901
46822
46717
46591
46445
46298
46166
46047
45937
45848
45787
45734
45676
45621
45568
45511
45456
45405
45345
45268
45180
45088
44996
44898
44785
44663
44554
44460
44361
44258
44164
44081
44008
43952
43909
43862
43802
43740
43690
43660
43655
43671
43697
43731
43753
43737
43684
43624
43579
43559
43553
43532
43477
43407
43340
43283
43233
43179
43113
43032
42947
42868
42789
42689
42575
42462
42361
42287
42236
42197
42150
42083
42009
41939
41876
41819
41755
41686
41616
41559
41520
41497
41481
41448
41397
41354
41311
41260
41221
41204
41202
41198
41166
41106
41045
41001
40970
40942
40908
40870
40833
40797
40768
40746
40728
40713
40697
40683
40691
40736
40837
41008
41252
41565
41943
42381
42864
43373
43901
44435
44951
45431
45858
46219
46517
46738
46882
46970
47017
47019
46972
46885
46774
46642
46493
46343
46202
46074
45966
45885
45828
45778
45736
45699
45671
45647
45611
45578
45552
45523
45477
45410
45317
45185
45026
44882
44769
44675
44580
44470
44358
44254
44146
44042
43951
43862
43781
43722
43701
43705
43704
43700
43702
43699
43695
43705
43724
43744
43760
43760
43744
43704
43635
43546
43438
43326
43232
43153
43079
43011
42941
42855
42748
42622
42478
42331
42207
42122
42069
42020
41959
41894
41828
41752
41677
41612
41563
41514
41448
41369
41284
41190
41092
41019
40975
40941
40907
40860
40809
40773
40740
40689
40627
40576
40541
40525
40523
40515
40488
40449
40405
40352
40289
40217
40140
40069
40006
39956
39930
39925
39918
39907
39910
39942
40015
40145
40342
40598
40916
41298
41726
42191
42684
43178
43655
44110
44529
44889
45176
45391
45534
45609
45617
45565
45466
45339
45201
45056
44928
44829
44734
44637
44563
44516
44477
44433
44385
44343
44310
44287
44269
44252
44229
44181
44100
43992
43867
43747
43646
43553
43461
43371
43276
43173
43066
42966
42884
42824
42785
42778
42792
42810
42841
42887
42925
42935
42925
42917
42914
42908
42891
42871
42850
42812
42755
42694
42635
42570
42499
42437
42389
42348
42302
42243
42178
42116
42056
41988
41901
41795
41678
41571
41484
41406
41345
41294
41235
41172
41125
41087
41040
40981
40924
40873
40824
40782
40767
40766
40752
40722
40684
40634
40564
40483
40404
40328
40262
40220
40193
40164
40130
40086
40038
39989
39931
39875
39839
39832
39853
39901
39983
40101
40269
40495
40769
41096
41474
41894
42342
42806
43273
43735
44168
44542
44849
45089
45252
45334
45344
45292
45204
45103
44991
44867
44750
44641
44527
44402
44287
44205
44146
44090
44023
43947
43881
43841
43833
43843
43852
43845
43800
43719
43632
43542
43438
43314
43186
43079
42991
42908
42829
42760
42702
42644
42592
42559
42545
42558
42592
42634
42674
42692
42680
42662
42654
42652
42648
42627
42580
42520
42472
42441
42405
42358
42302
42248
42212
42181
42141
42096
42050
42010
41977
41942
41890
41815
41729
41646
41568
41488
41402
41317
41239
41163
41084
41013
40966
40945
40939
40926
40890
40842
40803
40772
40746
40708
40653
40594
40524
40445
40372
40301
40235
40186
40156
40150
40161
40174
40178
40168
40156
40158
40184
40237
40329
40479
40696
40974
41308
41690
42117
42595
43117
43660
44186
44665
45084
45424
45672
45836
45934
45989
46020
46033
46018
45955
45858
45756
45655
45570
45497
45413
45321
45230
45142
45062
44997
44942
44906
44900
44912
44920
44908
44871
44809
44725
44626
44530
44436
44341
44245
44152
44068
43982
43882
43770
43661
43569
43500
43439
43376
43316
43273
43255
43258
43284
43339
43408
43469
43507
43519
43513
43495
43468
43437
43400
43350
43308
43266
43203
43132
43061
42992
42930
42869
42806
42736
42654
42565
42472
42390
42334
42300
42273
42233
42177
42115
42046
41972
41909
41855
41807
41765
41718
41657
41576
41483
41394
41320
41268
41233
41209
41191
41164
41119
41065
41005
40954
40920
40891
40856
40816
40768
40715
40670
40638
40624
40636
40667
40696
40722
40755
40807
40907
41078
41318
41622
41984
42396
42865
43391
43945
44498
45033
45536
45994
46396
46745
47036
47260
47415
47501
47526
47502
47430
47316
47180
47032
46874
46720
46574
46447
46350
46279
46224
46190
46167
46144
46128
46115
46088
46044
45981
45898
45798
45686
45572
45464
45360
45249
45131
45010
44889
44780
44683
44591
44507
44423
44340
44265
44208
44169
44139
44115
44100
44097
44102
44121
44146
44161
44164
44151
44124
44096
44063
44018
43973
43930
43881
43817
43739
43654
43568
43485
43397
43299
43193
43080
42967
42865
42777
42697
42621
42553
42487
42419
42359
42313
42270
42221
42168
42113
42059
42005
41960
41925
41886
41844
41805
41763
41715
41671
41637
41601
41546
41487
41435
41381
41330
41286
41252
41220
41181
41141
41096
41040
40976
40913
40859
40812
40767
40728
40692
40654
40620
40595
40587
40608
40674
40811
41040
41344
41685
42049
42442
42880
43358
43843
44308
44741
45128
45458
45715
45897
46032
46141
46210
46228
46205
46153
46080
45994
45902
45804
45704
45609
45530
45469
45414
45354
45300
45260
45225
45191
45161
45135
45108
45078
45036
44970
44885
44786
44683
44579
44460
44330
44206
44095
43987
43876
43776
43687
43602
43530
43490
43484
43492
43493
43485
43483
43485
43484
43481
43480
43477
43457
43417
43373
43321
43259
43196
43138
43067
42978
42898
42830
42759
42687
42627
42574
42506
42426
42344
42258
42166
42069
41978
41899
41831
41782
41748
41718
41692
41665
41629
41593
41569
41556
41538
41505
41456
41375
41263
41155
41087
41059
41049
41039
41019
40993
40969
40948
40925
40885
40833
40789
40761
40744
40723
40681
40619
40564
40524
40483
40438
40395
40355
40346
40408
40545
40736
40979
41290
41659
42062
42495
42957
43430
43883
44299
44672
44988
45238
45427
45550
45607
45613
45591
45549
45485
45401
45306
45207
45094
44969
44855
44759
44681
44617
44561
44515
44480
44437
44384
44331
44275
44207
44122
44032
43955
43892
43836
43779
43700
43582
43445
43321
43218
43142
43082
43027
42990
42973
42968
42973
42983
42990
42988
42983
42990
43020
43063
43099
43123
43136
43125
43099
43079
43071
43069
43060
43032
42985
42930
42876
42816
42750
42685
42611
42512
42388
42256
42134
42031
41941
41852
41778
41730
41707
41693
41672
41647
41612
41565
41512
41455
41395
41341
41300
41279
41277
41276
41260
41219
41154
41078
41003
40938
40890
40864
40860
40872
40879
40856
40810
40766
40723
40691
40681
40693
40717
40741
40778
40860
40991
41167
41410
41733
42116
42532
42986
43482
43990
44472
44907
45292
45621
45890
46105
46257
46338
46363
46343
46292
46213
46100
45965
45819
45658
45500
45377
45304
45271
45257
45250
45247
45239
45223
45210
45209
45213
45215
45201
45157
45087
45006
44915
44813
44692
44557
44423
44291
44164
44050
43949
43856
43781
43725
43676
43628
43588
43566
43557
43554
43561
43579
43596
43605
43611
43622
43643
43660
43659
43648
43636
43617
43580
43526
43466
43399
43322
43235
43145
43055
42965
42887
42824
42761
42696
42641
42593
42542
42480
42413
42354
42296
42229
42161
42092
42023
41970
41936
41911
41890
41859
41804
41721
41628
41556
41514
41493
41480
41460
41428
41394
41360
41310
41240
41178
41137
41110
41085
41051
41017
40987
40962
40932
40885
40827
40771
40736
40752
40834
40977
41182
41453
41779
42132
42508
42927
43390
43877
44358
44829
45273
45654
45967
46232
46463
46650
46771
46815
46802
46763
46702
46619
46533
46449
46353
46253
46163
46089
46031
45997
45986
45977
45970
45962
45939
45900
45851
45799
45732
45631
45507
45383
45276
45174
45062
44958
44855
44730
44587
44435
44293
44191
44138
44110
44081
44040
43999
43971
43964
43980
44013
44045
44070
44095
44117
44121
44100
44056
44002
43947
43897
43853
43805
43747
43672
43580
43487
43410
43338
43264
43204
43156
43106
43053
42983
42898
42820
42750
42674
42594
42514
42439
42365
42281
42202
42149
42106
42042
41965
41904
41862
41828
41787
41725
41650
41567
41484
41417
41354
41278
41195
41112
41042
41001
40990
40989
40963
40911
40846
40786
40755
40740
40726
40719
40714
40707
40687
40645
40591
40526
40460
40417
40402
40398
40398
40409
40452
40558
40744
41002
41320
41690
42104
42544
42996
43454
43915
44355
44760
45133
45465
45721
45880
45967
46020
46050
46044
45997
45922
45829
45728
45621
45501
45381
45272
45188
45134
45092
45051
45019
44987
44930
44850
44767
44697
44650
44625
44610
44590
44542
44447
44313
44163
44020
43893
43774
43657
43555
43471
43405
43355
43320
43289
43247
43200
43169
43166
43182
43217
43265
43303
43320
43324
43325
43326
43329
43341
43355
43355
43331
43274
43190
43089
42973
42858
42753
42647
42537
42427
42322
42235
42171
42126
42093
42061
42016
41959
41907
41878
41869
41867
41850
41800
41729
41664
41606
41542
41487
41442
41390
41340
41304
41265
41211
41154
41110
41073
41027
40973
40916
40854
40792
40743
40719
40709
40691
40666
40642
40618
40603
40600
40598
40592
40580
40564
40539
40510
40495
40519
40610
40777
41020
41333
41698
42103
42536
42974
43411
43839
44237
44588
44870
45087
45266
45420
45545
45635
45673
45641
45555
45444
45310
45155
44998
44866
44769
44691
44623
44560
44489
44420
44376
44359
44353
44351
44345
44316
44256
44178
44111
44055
43996
43924
43842
43745
43642
43555
43489
43423
43352
43287
43230
43174
43108
43042
43008
43016
43055
43116
43172
43213
43253
43291
43315
43331
43345
43348
43332
43305
43255
43165
43047
42918
42786
42660
42550
42470
42426
42403
42378
42343
42297
42244
42194
42142
42082
42026
41980
41940
41909
41879
41835
41773
41702
41635
41582
41541
41499
41446
41377
41293
41197
41109
41048
41008
40988
40990
41004
41010
40988
40944
40900
40864
40834
40792
40722
40644
40592
40560
40522
40479
40450
40443
40435
40404
40365
40339
40344
40379
40431
40508
40637
40823
41059
41358
41736
42185
42685
43220
43763
44285
44768
45196
45546
45813
46007
46137
46215
46252
46252
46215
46148
46062
45969
45883
45809
45740
45675
45607
45534
45461
45397
45355
45345
45361
45381
45376
45351
45323
45287
45223
45128
45029
44931
44824
44722
44636
44551
44461
44374
44291
44195
44094
44009
43947
43903
43868
43843
43836
43832
43819
43803
43789
43790
43807
43834
43857
43861
43835
43779
43712
43657
43613
43566
43516
43464
43411
43370
43336
43291
43238
43184
43124
43052
42975
42901
42838
42786
42725
42641
42553
42471
42398
42336
42267
42185
42112
42057
42011
41962
41910
41859
41800
41723
41632
41552
41499
41456
41414
41389
41383
41388
41394
41388
41363
41329
41298
41283
41280
41271
41240
41195
41139
41076
41018
40968
40919
40865
40809
40748
40696
40671
40661
40657
40685
40752
40857
41007
41197
41435
41736
42098
42527
43029
43583
44148
44695
45194
45626
45992
46303
46579
46813
46973
47044
47030
46946
46814
46659
46514
46385
46258
46147
46074
46033
45993
45944
45900
45873
45864
45865
45862
45829
45770
45718
45671
45609
45534
45451
45352
45223
45079
44952
44844
44738
44626
44509
44385
44252
44122
44016
43947
43915
43908
43911
43914
43904
43883
43864
43838
43800
43767
43757
43753
43737
43715
43679
43617
43545
43481
43433
43385
43331
43283
43246
43219
43187
43142
43090
43032
42954
42860
42776
42708
42644
42574
42497
42418
42338
42249
42156
42071
41996
41926
41861
41799
41745
41707
41677
41644
41600
41553
41517
41478
41423
41373
41340
41312
41280
41229
41163
41104
41064
41034
41007
40991
40978
40955
40926
40902
40876
40845
40811
40770
40716
40662
40619
40578
40546
40536
40540
40562
40619
40725
40889
41113
41400
41742
42119
42521
42953
43408
43875
44336
44754
45112
45406
45630
45778
45863
45908
45911
45875
45822
45755
45662
45548
45427
45323
45241
45164
45092
45023
44953
44890
44842
44803
44768
44748
44736
44716
44692
44673
44649
44606
44546
44474
44387
44277
44151
44036
43946
43869
43799
43736
43672
43604
43548
43508
43475
43457
43453
43449
43443
43435
43433
43442
43453
43472
43495
43509
43513
43502
43458
43395
43344
43312
43281
43236
43171
43084
42990
42905
42836
42784
42732
42658
42575
42498
42421
42341
42262
42195
42133
42063
41984
41905
41838
41794
41769
41749
41716
41663
41606
41574
41574
41577
41559
41524
41486
41456
41437
41424
41404
41362
41302
41242
41193
41151
41111
41071
41025
40976
40938
40917
40897
40865
40829
40807
40807
40823
40861
40946
41101
41327
41618
41952
42313
42706
43122
43544
43964
44370
44760
45121
45426
45658
45808
45876
45885
45856
45793
45696
45577
45455
45345
45244
45153
45073
44997
44914
44835
44760
44685
44621
44576
44544
44515
44471
44420
44383
44350
44304
44249
44192
44126
44052
43972
43892
43812
43723
43626
43543
43476
43422
43395
43395
43412
43438
43465
43499
43547
43592
43613
43610
43585
43546
43522
43511
43499
43479
43459
43452
43451
43432
43387
43319
43239
43161
43102
43056
43001
42930
42861
42791
42716
42650
42600
42549
42487
42421
42355
42286
42207
42129
42064
42005
41945
41886
41839
41796
41744
41685
41638
41607
41577
41543
41515
41504
41501
41491
41470
41440
41404
41366
41330
41296
41268
41255
41252
41255
41253
41246
41243
41239
41227
41232
41276
41363
41513
41738
42029
42375
42770
43208
43684
44192
44712
45216
45679
46085
46436
46737
46965
47128
47243
47302
47312
47283
47221
47138
47037
46927
46818
46714
46606
46491
46385
46288
46184
46088
46031
46002
45969
45930
45902
45883
45856
45808
45740
45659
45559
45444
45332
45222
45113
45017
44929
44837
44755
44684
44615
44558
44521
44502
44494
44476
44448
44430
44425
44426
44437
44462
44491
44510
44519
44527
44535
44530
44505
44464
44414
44358
44296
44232
44160
44076
43985
43898
43822
43755
43683
43605
43524
43447
43379
43315
43256
43207
43166
43122
43073
43021
42962
42901
42841
42777
42715
42662
42615
42561
42490
42415
42356
42313
42275
42245
42233
42225
42197
42160
42127
42102
42087
42084
42086
42083
42069
42039
41984
41922
41880
41850
41806
41739
41667
41623
41626
41681
41784
41939
42144
42387
42673
43016
43416
43860
44328
44826
45354
45880
46371
46821
47237
47609
47919
48142
48274
48344
48359
48312
48231
48145
48055
47958
47849
47737
47648
47585
47538
47499
47453
47396
47338
47281
47230
47200
47193
47192
47166
47091
46967
46818
46668
46525
46389
46255
46127
46011
45906
45813
45724
45631
45540
45458
45384
45308
45240
45196
45169
45154
45157
45163
45161
45149
45118
45070
45013
44960
44925
44900
44869
44832
44784
44721
44658
44602
44553
44505
44441
44363
44287
44211
44134
44069
44014
43958
43885
43791
43686
43573
43457
43362
43296
43242
43186
43142
43119
43098
43053
42972
42869
42773
42710
42687
42681
42666
42627
42576
42537
42515
42505
42507
42517
42512
42469
42400
42336
42286
42246
42198
42131
42065
42024
42008
41995
41967
41914
41837
41763
41703
41665
41667
41695
41735
41804
41915
42070
42275
42536
42855
43225
43641
44100
44581
45058
45527
45987
46423
46835
47233
47600
47916
48165
48329
48405
48424
48403
48348
48263
48145
48002
47856
47715
47580
47452
47350
47274
47207
47156
47119
47083
47046
47005
46956
46895
46815
46722
46620
46501
46364
46204
46030
45868
45732
45617
45507
45399
45307
45238
45181
45130
45085
45045
45013
44987
44975
44994
45031
45068
45103
45123
45107
45055
44974
44892
44826
44771
44736
44725
44712
44667
44600
44534
44475
44420
44368
44317
44252
44167
44078
43990
43903
43809
43713
43624
43536
43447
43373
43316
43260
43211
43180
43154
43126
43104
43078
43038
42994
42952
42919
42890
42843
42760
42665
42594
42546
42506
42475
42456
42436
42407
42378
42338
42277
42209
42146
42102
42078
42055
42039
42046
42076
42125
42192
42298
42450
42636
42857
43130
43468
43876
44357
44895
45455
46005
46513
46959
47341
47665
47916
48072
48147
48176
48173
48116
47995
47831
47646
47463
47287
47120
46968
46834
46720
46626
46552
46492
46448
46414
46384
46355
46311
46237
46126
45989
45856
45738
45626
45523
45424
45315
45202
45107
45029
44957
44900
44858
44819
44784
44772
44772
44775
44802
44859
44923
44987
45058
45128
45189
45240
45275
45292
45291
45270
45220
45145
45066
44988
44908
44828
44741
44651
44566
44491
44426
44363
44301
44240
44182
44134
44087
44028
43955
43869
43770
43662
43545
43434
43349
43282
43217
43162
43133
43117
43079
43013
42946
42889
42838
42796
42769
42750
42739
42719
42663
42589
42531
42480
42408
42325
42264
42225
42202
42196
42201
42214
42248
42324
42460
42661
42918
43249
43668
44163
44710
45278
45857
46448
47044
47631
48177
48651
49037
49332
49532
49635
49659
49638
49586
49503
49397
49273
49134
48980
48812
48654
48516
48383
48263
48168
48103
48058
48011
47960
47908
47841
47753
47649
47534
47415
47293
47174
47068
46971
46863
46737
46603
46477
46369
46276
46199
46141
46102
46082
46068
46041
46007
45977
45951
45937
45936
45937
45938
45945
45952
45950
45945
45932
45904
45868
45830
45793
45751
45698
45639
45572
45488
45384
45271
45171
45081
44991
44909
44833
44745
44641
44535
44444
44375
44324
44287
44250
44213
44175
44119
44040
43948
43855
43780
43740
43728
43716
43701
43689
43676
43658
43632
43599
43567
43529
43477
43410
43339
43280
43236
43193
43138
43071
43005
42955
42923
42911
42932
42992
43088
43213
43361
43545
43798
44132
44541
45030
45589
46201
46863
47543
48187
48770
49283
49719
50066
50332
50543
50710
50828
50881
50879
50844
50783
50694
50581
50442
50284
50119
49968
49856
49781
49718
49647
49581
49523
49473
49442
49420
49382
49316
49223
49108
48966
48796
48603
48381
48145
47915
47697
47502
47336
47194
47062
46929
46797
46680
46585
46499
46420
46372
46359
46361
46361
46362
46384
46422
46457
46486
46510
46514
46493
46465
46432
46372
46284
46190
46087
45964
45840
45734
45644
45565
45494
45416
45314
45203
45106
45023
44949
44881
44808
44717
44619
44537
44470
44400
44320
44250
44200
44166
44149
44141
44123
44095
44054
43995
43934
43876
43816
43771
43750
43730
43695
43650
43599
43543
43490
43441
43388
43325
43257
43189
43131
43076
43020
42968
42918
42873
42856
42896
43004
43166
43373
43629
43942
44322
44782
45323
45930
46582
47263
47948
48609
49226
49775
50227
50582
50856
51052
51169
51203
51178
51114
51008
50856
50662
50450
50250
50068
49913
49788
49687
49604
49532
49472
49409
49320
49207
49091
48984
48879
48774
48660
48522
48374
48228
48066
47875
47667
47469
47298
47154
47024
46908
46810
46725
46640
46553
46471
46401
46342
46294
46255
46224
46197
46166
46142
46138
46157
46188
46212
46220
46213
46194
46149
46084
46014
45933
45848
45764
45676
45593
45510
45410
45294
45172
45040
44909
44804
44727
44651
44563
44476
44411
44359
44310
44267
44226
44187
44148
44112
44080
44034
43975
43927
43886
43826
43747
43675
43623
43599
43584
43552
43508
43473
43459
43455
43433
43392
43350
43319
43313
43335
43381
43447
43534
43648
43794
43978
44229
44573
45015
45544
46144
46797
47478
48153
48784
49347
49825
50222
50562
50853
51074
51204
51249
51215
51114
50968
50782
50552
50301
50058
49832
49617
49409
49214
49040
48892
48767
48655
48537
48415
48294
48174
48055
47937
47807
47659
47508
47361
47205
47043
46890
46744
46596
46461
46342
46230
46135
46068
46018
45976
45946
45934
45935
45942
45954
45965
45969
45968
45946
45913
45901
45911
45914
45897
45877
45857
45816
45742
45642
45534
45429
45334
45254
45184
45118
45053
44987
44923
44856
44784
44712
44638
44557
44479
44411
44354
44312
44277
44229
44167
44108
44057
44020
44000
43991
43986
43970
43929
43868
43807
43742
43680
43633
43605
43596
43588
43568
43546
43516
43472
43431
43412
43416
43451
43525
43644
43816
44049
44366
44791
45325
45952
46646
47371
48106
48828
49508
50125
50664
51122
51508
51812
52013
52104
52099
52022
51885
51707
51510
51300
51087
50891
50713
50535
50360
50199
50043
49908
49816
49749
49674
49590
49509
49430
49349
49261
49146
48983
48791
48595
48394
48185
47973
47764
47573
47405
47261
47129
46985
46845
46735
46645
46578
46539
46521
46526
46545
46566
46582
46592
46600
46615
46626
46619
46600
46581
46553
46506
46444
46378
46301
46214
46129
46056
45989
45912
45820
45721
45623
45531
45444
45362
45291
45231
45168
45096
45019
44939
44861
44802
44769
44749
44727
44705
44678
44639
44598
44550
44486
44416
44356
44305
44256
44203
44147
44090
44036
43990
43949
43913
43876
43831
43785
43743
43702
43664
43617
43560
43515
43494
43502
43535
43589
43681
43819
43996
44223
44530
44948
45480
46110
46829
47612
48421
49225
49991
50693
51308
51814
52210
52510
52719
52837
52866
52828
52737
52604
52445
52270
52081
51893
51728
51589
51464
51342
51216
51098
50994
50899
50819
50750
50681
50599
50503
50386
50233
50042
49820
49575
49318
49058
48805
48563
48332
48118
47917
47713
47514
47341
47195
47071
46968
46887
46841
46824
46825
46843
46875
46907
46918
46915
46910
46903
46903
46903
46891
46859
46811
46750
46665
46572
46484
46398
46312
46233
46159
46074
45974
45872
45774
45677
45580
45485
45400
45321
45237
45148
45066
44998
44938
44872
44800
44728
44657
44586
44516
44451
44387
44313
44235
44168
44117
44085
44063
44044
44023
43995
43953
43894
43825
43757
43700
43647
43594
43545
43500
43453
43397
43334
43279
43236
43203
43186
43207
43265
43356
43491
43685
43955
44311
44762
45308
45932
46618
47339
48064
48766
49408
49977
50472
50875
51180
51386
51496
51528
51492
51396
51252
51062
50830
50573
50308
50045
49788
49557
49360
49181
49013
48861
48728
48606
48490
48386
48286
48184
48079
47968
47851
47723
47576
47413
47249
47082
46912
46764
46641
46525
46415
46317
46221
46134
46066
46014
45973
45947
45941
45950
45976
46009
46035
46047
46045
46035
46029
46017
45991
45957
45932
45920
45909
45883
45846
45795
45717
45612
45492
45372
45262
45171
45096
45026
44944
44852
44759
44671
44587
44499
44409
44324
44241
44159
44085
44020
43964
43929
43915
43903
43886
43874
43864
43842
43809
43774
43735
43686
43624
43566
43527
43501
43483
43466
43444
43411
43360
43296
43237
43202
43206
43263
43377
43548
43784
44094
44484
44954
45497
46108
46770
47450
48107
48716
49263
49734
50131
50457
50705
50872
50957
50961
50886
50738
50543
50318
50065
49796
49531
49281
49051
48846
48656
48471
48297
48146
48020
47908
47805
47704
47603
47500
47394
47301
47218
47125
47011
46879
46746
46628
46524
46428
46340
46261
46194
46140
46100
46070
46052
46044
46042
46035
46029
46030
46031
46025
46016
46010
46011
46016
46017
46011
45999
45984
45960
45920
45864
45795
45716
45631
45541
45447
45353
45268
45189
45116
45048
44978
44905
44835
44768
44695
44620
44542
44459
44376
44296
44214
44147
44105
44073
44037
44007
43994
43986
43965
43937
43908
43863
43804
43749
43698
43645
43593
43547
43514
43486
43457
43435
43408
43372
43347
43335
43321
43307
43309
43344
43426
43566
43774
44056
44433
44915
45496
46160
46882
47636
48380
49078
49712
50270
50740
51115
51396
51592
51713
51760
51741
51672
51563
51423
51250
51056
50857
50658
50455
50246
50044
49867
49716
49578
49455
49357
49286
49230
49166
49084
48984
48874
48763
48641
48495
48333
48168
48000
47834
47677
47527
47383
47240
47105
46989
46900
46842
46804
46778
46760
46745
46731
46724
46728
46743
46765
46783
46798
46813
46820
46808
46782
46761
46750
46731
46691
46632
46560
46484
46408
46325
46238
46149
46059
45971
45881
45785
45687
45589
45497
45421
45354
45286
45220
45162
45113
45075
45048
45027
45005
44965
44904
44842
44784
44740
44704
44653
44583
44516
44469
44437
44409
44387
44359
44316
44261
44196
44116
44029
43952
43890
43845
43811
43785
43766
43748
43725
43713
43714
43737
43802
43927
44119
44375
44718
45151
45661
46251
46912
47606
48300
48973
49609
50184
50680
51089
51403
51612
51722
51750
51714
51628
51492
51318
51131
50933
50718
50484
50240
50003
49784
49586
49415
49273
49158
49068
48987
48915
48840
48743
48640
48536
48418
48287
48146
48007
47870
47728
47585
47432
47267
47107
46968
46859
46780
46716
46661
46609
46557
46514
46496
46493
46492
46492
46488
46475
46454
46436
46420
46393
46356
46321
46282
46230
46166
46097
46029
45960
45888
45818
45739
45654
45573
45489
45395
45297
45203
45114
45023
44930
44844
44770
44708
44659
44602
44527
44457
44391
44299
44197
44120
44070
44034
43999
43955
43904
43852
43811
43780
43757
43744
43735
43714
43675
43625
43570
43517
43460
43397
43341
43295
43255
43221
43183
43145
43108
43068
43031
43008
43017
43075
43182
43332
43516
43741
44021
44368
44796
45297
45841
46406
46987
47563
48102
48579
48988
49322
49569
49725
49798
49798
49728
49592
49403
49182
48945
48703
48469
48259
48077
47914
47765
47635
47514
47397
47296
47218
47151
47086
47015
46934
46843
46747
46640
46522
46414
46320
46230
46129
46016
45904
45804
45707
45608
45521
45462
45433
45420
45424
45441
45461
45488
45517
45547
45590
45644
45692
45725
45738
45733
45703
45660
45621
45579
45532
45493
45459
45418
45370
45319
45258
45194
45139
45092
45043
44996
44953
44896
44817
44733
44643
44534
44409
44283
44164
44065
43988
43919
43848
43766
43678
43603
43542
43488
43450
43427
43408
43390
43378
43360
43327
43293
43261
43224
43199
43189
43181
43160
43125
43084
43054
43056
43103
43206
43371
43591
43864
44193
44587
45049
45568
46129
46724
47325
47905
48443
48925
49338
49661
49893
50048
50136
50157
50106
49997
49849
49659
49434
49192
48939
48681
48435
48216
48031
47881
47761
47659
47563
47466
47368
47270
47173
47083
47006
46937
46857
46765
46663
46550
46431
46318
46223
46144
46071
45999
45930
45870
45820
45776
45744
45731
45733
45751
45778
45804
45822
45828
45834
45837
45829
45811
45793
45769
45730
45680
45622
45553
45480
45410
45341
45277
45212
45144
45075
44998
44908
44809
44708
44610
44514
44417
44329
44252
44186
44131
44081
44025
43966
43906
43843
43780
43720
43662
43606
43554
43498
43438
43384
43337
43285
43238
43203
43169
43133
43101
43073
43050
43034
43023
43020
43018
43013
43012
43016
43027
43063
43150
43303
43535
43846
44238
44708
45255
45877
46561
47274
47977
48649
49264
49789
50217
50562
50831
51018
51127
51168
51144
51054
50903
50699
50460
50207
49954
49710
49481
49278
49105
48969
48860
48758
48667
48603
48556
48508
48450
48383
48301
48196
48074
47941
47795
47639
47478
47319
47165
47017
46881
46761
46654
46561
46482
46424
46384
46352
46325
46301
46278
46256
46248
46261
46283
46307
46323
46322
46305
46281
46254
46225
46195
46164
46140
46112
46054
45969
45873
45781
45700
45637
45585
45527
45462
45385
45290
45182
45066
44958
44870
44802
44739
44669
44599
44534
44472
44412
44353
44294
44240
44198
44160
44114
44065
44021
43977
43928
43883
43845
43809
43774
43744
43725
43706
43674
43626
43570
43516
43475
43454
43460
43497
43572
43698
43870
44088
44362
44708
45138
45645
46216
46844
47514
48190
48843
49445
49971
50411
50761
51036
51243
51377
51439
51444
51402
51304
51154
50968
50761
50550
50340
50137
49944
49763
49591
49434
49301
49194
49103
49010
48904
48792
48680
48565
48445
48313
48163
47997
47830
47675
47530
47395
47271
47155
47049
46950
46861
46791
46739
46701
46670
46639
46609
46588
46576
46564
46546
46525
46500
46477
46470
46466
46451
46432
46403
46348
46280
46222
46162
46082
45993
45914
45841
45755
45636
45498
45376
45282
45211
45148
45089
45023
44942
44863
44792
44714
44627
44546
44490
44447
44404
44358
44307
44251
44184
44112
44038
43969
43906
43841
43774
43705
43636
43581
43541
43504
43466
43435
43412
43383
43344
43299
43264
43232
43199
43163
43119
43075
43045
43035
43052
43103
43196
43335
43529
43791
44127
44541
45029
45579
46182
46817
47451
48066
48639
49142
49556
49877
50106
50245
50295
50264
50177
50055
49908
49747
49566
49356
49125
48894
48679
48487
48321
48176
48039
47913
47810
47730
47660
47599
47551
47498
47432
47348
47245
47134
47012
46878
46750
46641
46540
46439
46335
46223
46120
46041
45990
45974
45985
46009
46038
46055
46063
46075
46103
46141
46167
46173
46158
46125
46085
46037
45989
45941
45866
45769
45675
45580
45487
45405
45334
45267
45190
45097
44988
44869
44756
44666
44593
44527
44462
44397
44339
44284
44236
44199
44166
44130
44092
44053
44018
43979
43934
43886
43837
43785
43722
43647
43568
43495
43436
43397
43375
43352
43318
43270
43216
43165
43116
43071
43027
42986
42959
42954
42972
43030
43144
43315
43544
43826
44155
44542
44988
45482
46007
46545
47083
47608
48100
48527
48878
49155
49355
49484
49543
49522
49422
49265
49081
48888
48695
48509
48330
48142
47945
47761
47599
47452
47333
47242
47159
47079
47001
46926
46840
46735
46629
46532
46432
46324
46216
46117
46022
45926
45838
45754
45675
45609
45555
45510
45470
45435
45418
45419
45422
45423
45430
45449
45472
45485
45490
45494
45481
45455
45424
45389
45355
45319
45271
45205
45125
45053
44996
44931
44851
44770
44702
44641
44583
44523
44453
44371
44282
44197
44118
44037
43955
43881
43818
43763
43708
43652
43599
43545
43492
43450
43424
43410
43404
43389
43355
43308
43251
43196
43154
43120
43089
43066
43045
43034
43043
43071
43123
43209
43338
43521
43765
44066
44415
44813
45272
45791
46349
46915
47463
47978
48441
48834
49151
49387
49540
49610
49597
49520
49398
49244
49070
48887
48694
48495
48298
48109
47934
47769
47608
47465
47342
47234
47150
47086
47014
46925
46832
46742
46644
46533
46421
46319
46220
46125
46040
45971
45917
45869
45831
45802
45766
45720
45681
45657
45646
45638
45625
45615
45613
45611
45611
45611
45618
45632
45635
45623
45600
45561
45514
45471
45433
45390
45338
45283
45229
45168
45105
45037
44954
44855
44750
44653
44569
44492
44420
44351
44282
44213
44155
44109
44066
44021
43976
43927
43870
43810
43750
43690
43628
43566
43517
43481
43448
43426
43422
43415
43390
43357
43336
43332
43342
43379
43449
43547
43674
43852
44115
44471
44908
45403
45937
46506
47109
47723
48316
48860
49331
49731
50059
50305
50465
50539
50530
50450
50328
50189
50047
49904
49761
49619
49479
49339
49201
49075
48972
48893
48824
48757
48695
48627
48541
48434
48314
48185
48054
47925
47799
47672
47536
47392
47245
47101
46964
46845
46744
46670
46624
46589
46554
46526
46519
46527
46544
46562
46566
46563
46564
46565
46564
46565
46572
46582
46587
46571
46525
46467
46415
46359
46288
46207
46125
46044
45962
45883
45806
45726
45645
45568
45495
45423
45339
45244
45145
45047
44957
44873
44801
44747
44705
44678
44658
44625
44577
44523
44467
44416
44379
44349
44314
44271
44228
44186
44134
44073
44000
43926
43861
43806
43770
43761
43765
43775
43801
43854
43955
44123
44361
44669
45047
45507
46041
46640
47290
47964
48637
49296
49912
50455
50905
51259
51528
51720
51844
51913
51937
51919
51863
51770
51643
51498
51348
51204
51065
50924
50791
50687
50608
50546
50500
50465
50435
50398
50350
50280
50177
50048
49890
49703
49499
49286
49063
48835
48608
48390
48182
47983
47810
47666
47545
47447
47374
47321
47277
47247
47236
47230
47228
47233
47239
47255
47267
47257
47238
47216
47186
47150
47101
47052
46998
46926
46853
46787
46722
46654
46577
46495
46417
46339
46262
46181
46093
45998
45903
45814
45724
45623
45521
45434
45353
45277
45216
45167
45122
45087
45062
45033
44992
44956
44933
44908
44875
44829
44772
44721
44677
44644
44615
44586
44557
44521
44467
44402
44337
44280
44237
44197
44143
44081
44025
43989
43978
43993
44025
44079
44163
44286
44467
44712
45025
45433
45948
46560
47240
47952
48659
49338
49978
50560
51065
51488
51829
52092
52269
52359
52391
52377
52323
52241
52128
51996
51868
51743
51619
51507
51409
51325
51256
51199
51148
51098
51045
50988
50925
50856
50768
50643
50483
50308
50124
49924
49706
49480
49246
49008
48779
48567
48373
48201
48056
47937
47841
47754
47675
47621
47593
47577
47569
47566
47563
47559
47558
47570
47582
47575
47563
47553
47539
47516
47481
47432
47376
47315
47246
47173
47092
47009
46932
46862
46789
46707
46622
46538
46454
46372
46287
46196
46094
45985
45883
45795
45721
45658
45593
45526
45456
45382
45307
45239
45194
45174
45167
45166
45160
45135
45089
45036
44992
44956
44918
44876
44828
44773
44721
44683
44650
44615
44582
44558
44541
44515
44474
44421
44363
44316
44273
44220
44162
44105
44055
44025
44009
44014
44054
44130
44252
44439
44696
45030
45446
45957
46550
47201
47882
48560
49211
49826
50378
50842
51225
51530
51758
51915
52002
52017
51967
51860
51714
51548
51382
51219
51053
50884
50720
50577
50464
50374
50305
50248
50188
50116
50040
49959
49866
49760
49640
49502
49337
49147
48946
48734
48513
48305
48128
47978
47837
47701
47579
47471
47380
47313
47272
47251
47235
47218
47212
47226
47256
47289
47312
47318
47309
47285
47254
47229
47203
47169
47130
47078
47013
46942
46871
46796
46712
46622
46532
46446
46365
46284
46201
46114
46030
45954
45881
45798
45707
45619
45543
45475
45408
45356
45322
45286
45243
45197
45158
45120
45079
45042
45013
44985
44949
44900
44841
44786
44743
44710
44675
44627
44584
44554
44521
44480
44433
44375
44312
44250
44202
44164
44125
44080
44039
43998
43943
43876
43822
43788
43756
43726
43710
43713
43733
43767
43815
43890
44013
44192
44413
44678
45005
45404
45871
46385
46931
47511
48115
48701
49236
49691
50051
50326
50518
50637
50705
50724
50688
50609
50495
50357
50198
50015
49811
49593
49363
49133
48926
48759
48637
48559
48519
48498
48490
48472
48414
48321
48221
48123
48023
47910
47796
47691
47589
47471
47351
47240
47135
47036
46950
46880
46818
46763
46717
46684
46672
46668
46664
46678
46701
46717
46726
46728
46721
46700
46673
46637
46585
46522
46458
46392
46323
46254
46184
46114
46037
45947
45845
45731
45624
45536
45455
45375
45296
45221
45154
45082
45021
44975
44916
44841
44776
44739
44728
44729
44738
44740
44716
44669
44613
44550
44485
44427
44374
44321
44284
44261
44240
44219
44195
44165
44118
44060
44013
43978
43950
43923
43890
43850
43807
43761
43715
43677
43660
43672
43714
43798
43937
44141
44410
44735
45118
45561
46056
46588
47142
47704
48250
48755
49203
49584
49889
50120
50272
50345
50353
50306
50206
50057
49869
49659
49449
49250
49065
48900
48756
48622
48480
48332
48211
48120
48037
47961
47897
47844
47789
47725
47650
47564
47470
47366
47260
47160
47066
46979
46893
46797
46690
46590
46512
46451
46401
46365
46342
46328
46327
46336
46348
46358
46372
46387
46391
46379
46360
46344
46336
46325
46312
46293
46255
46198
46126
46044
45963
45884
45803
45724
45639
45551
45471
45392
45303
45210
45114
45005
44881
44763
44676
44614
44560
44524
44501
44471
44423
44359
44287
44215
44145
44080
44028
43993
43967
43941
43912
43871
43822
43777
43740
43714
43697
43684
43674
43648
43602
43561
43535
43514
43486
43449
43408
43357
43302
43255
43214
43188
43195
43238
43319
43439
43607
43820
44076
44394
44789
45260
45788
46345
46924
47513
48076
48580
49021
49408
49742
50008
50200
50320
50354
50304
50197
50059
49902
49730
49551
49374
49207
49051
48903
48762
48629
48511
48417
48343
48275
48203
48127
48047
47972
47907
47833
47747
47649
47532
47402
47265
47133
47024
46941
46864
46784
46704
46621
46532
46451
46403
46381
46372
46368
46369
46375
46375
46371
46382
46409
46434
46444
46429
46398
46373
46354
46327
46284
46230
46174
46112
46037
45956
45878
45803
45720
45630
45540
45454
45370
45284
45196
45103
45008
44913
44822
44750
44695
44650
44611
44568
44508
44433
44360
44293
44222
44150
44082
44023
43982
43955
43933
43909
43874
43831
43790
43758
43736
43721
43701
43669
43621
43563
43497
43425
43363
43317
43279
43254
43243
43229
43205
43181
43159
43156
43192
43268
43388
43560
43784
44060
44386
44766
45210
45708
46238
46775
47306
47812
48281
48709
49075
49368
49589
49737
49802
49777
49685
49567
49445
49314
49174
49027
48868
48708
48563
48442
48341
48246
48157
48083
48017
47944
47876
47831
47798
47757
47693
47610
47512
47402
47287
47174
47064
46955
46845
46736
46635
46548
46484
46433
46378
46315
46250
46197
46156
46119
46087
46068
46052
46039
46039
46042
46047
46056
46065
46075
46082
46067
46030
45980
45915
45844
45775
45701
45617
45525
45431
45339
45248
45158
45066
44972
44882
44789
44692
44605
44534
44473
44421
44370
44315
44255
44185
44107
44032
43967
43920
43879
43832
43787
43743
43693
43638
43577
43517
43464
43411
43353
43301
43260
43225
43192
43161
43126
43093
43066
43040
42997
42933
42869
42817
42770
42727
42700
42686
42675
42668
42677
42713
42780
42884
43037
43248
43514
43820
44157
44537
44969
45444
45938
46426
46894
47329
47708
48016
48258
48437
48550
48597
48588
48539
48451
48325
48176
48024
47870
47710
47547
47391
47244
47111
47005
46931
46881
46843
46811
46790
46774
46740
46685
46621
46545
46456
46355
46240
46124
46019
45930
45856
45787
45717
45641
45571
45519
45479
45447
45426
45410
45394
45374
45361
45357
45361
45373
45381
45370
45347
45328
45316
45300
45282
45257
45211
45146
45069
44985
44898
44812
44725
44635
44555
44492
44438
44381
44314
44241
44167
44099
44037
43982
43934
43890
43845
43804
43768
43731
43688
43642
43599
43559
43519
43477
43434
43395
43367
43344
43316
43277
43229
43167
43094
43034
42985
42945
42925
42915
42903
42896
42889
42892
42911
42951
43021
43108
43200
43315
43480
43695
43952
44261
44629
45047
45502
45974
46433
46873
47296
47681
48001
48248
48436
48568
48646
48677
48662
48609
48526
48410
48281
48140
47977
47809
47664
47543
47431
47321
47224
47145
47067
46985
46903
46817
46745
46690
46638
46580
46499
46403
46306
46215
46134
46062
45997
45933
45857
45765
45681
45631
45607
45604
45631
45674
45713
45738
45748
45755
45773
45806
45842
45865
45878
45896
45919
45936
45932
45904
45856
45790
45720
45663
45608
45539
45468
45389
45299
45208
45116
45028
44951
44882
44810
44740
44681
44630
44583
44528
44461
44389
44316
44246
44187
44134
44072
44000
43932
43876
43829
43785
43749
43732
43722
43703
43675
43646
43616
43576
43529
43477
43417
43353
43296
43249
43220
43221
43250
43309
43419
43592
43808
44058
44359
44722
45151
45641
46177
46738
47300
47846
48368
48848
49265
49617
49904
50105
50227
50284
50274
50213
50122
50005
49864
49703
49530
49357
49188
49035
48900
48778
48677
48604
48550
48499
48449
48399
48352
48307
48257
48195
48112
48004
47880
47751
47618
47487
47357
47217
47067
46932
46818
46716
46630
46570
46533
46518
46521
46533
46548
46567
46584
46594
46605
46616
46622
46629
46637
46638
46621
46580
46526
46477
46425
46359
46284
46207
46117
46008
45899
45811
45745
45689
45624
45548
45465
45382
45309
45244
45185
45133
45085
45037
44991
44943
44894
44837
44772
44711
44661
44610
44561
44511
44455
44410
44389
44375
44360
44341
44322
44300
44263
44218
44180
44141
44095
44047
44002
43950
43893
43843
43810
43808
43845
43932
44070
44255
44491
44787
45156
45599
46108
46671
47261
47861
48458
49037
49585
50088
50522
50863
51102
51252
51342
51391
51397
51361
51280
51154
50996
50828
50659
50493
50345
50231
50150
50088
50027
49953
49880
49817
49757
49700
49631
49540
49433
49305
49154
48992
48833
48682
48541
48406
48266
48118
47968
47828
47700
47595
47515
47452
47395
47349
47325
47336
47370
47402
47426
47445
47456
47460
47460
47453
47437
47418
47388
47342
47291
47241
47188
47132
47074
47009
46940
46865
46790
46720
46645
46555
46461
46385
46327
46270
46211
46149
46077
46002
45934
45872
45810
45752
45695
45631
45557
45471
45387
45321
45282
45258
45226
45172
45105
45040
44980
44918
44863
44817
44761
44702
44646
44588
44544
44518
44491
44453
44416
44380
44330
44265
44202
44162
44147
44150
44176
44240
44360
44533
44766
45069
45457
45937
46495
47108
47759
48420
49070
49694
50266
50774
51212
51572
51846
52027
52125
52147
52104
52029
51932
51806
51659
51510
51354
51181
50999
50828
50674
50531
50406
50299
50201
50112
50022
49919
49802
49670
49525
49371
49209
49036
48856
48667
48470
48271
48072
47879
47699
47535
47400
47295
47212
47145
47088
47040
46996
46949
46903
46856
46814
46791
46795
46810
46812
46804
46796
46787
46772
46742
46700
46655
46611
46572
46525
46455
46371
46289
46203
46109
46005
45903
45807
45711
45606
45500
45408
45340
45284
45227
45170
45113
45057
45007
44959
44911
44859
44804
44757
44711
44658
44596
44532
44477
44441
44427
44422
44413
44399
44380
44348
44300
44245
44194
44151
44108
44066
44024
43976
43928
43894
43879
43885
43913
43957
44018
44111
44257
44465
44736
45072
45484
45963
46513
47141
47819
48516
49210
49865
50446
50950
51371
51699
51940
52109
52209
52238
52193
52077
51898
51675
51430
51181
50944
50726
50520
50326
50142
49971
49821
49688
49553
49414
49280
49159
49038
48904
48759
48599
48415
48223
48051
47902
47762
47637
47532
47442
47370
47307
47232
47152
47088
47050
47045
47069
47099
47112
47105
47093
47089
47090
47092
47101
47117
47130
47139
47133
47100
47049
46996
46950
46907
46851
46764
46655
46541
46420
46293
46184
46100
46030
45975
45925
45876
45830
45781
45733
45677
45612
45547
45475
45412
45363
45310
45253
45199
45144
45077
44997
44917
44850
44802
44763
44727
44693
44664
44640
44622
44605
44586
44565
44543
44520
44503
44503
44534
44606
44726
44899
45138
45463
45878
46384
46981
47650
48361
49085
49801
50496
51155
51753
52267
52680
52999
53228
53371
53433
53418
53335
53200
53024
52813
52585
52358
52145
51950
51769
51589
51405
51227
51065
50922
50796
50674
50544
50406
50258
50089
49905
49718
49525
49331
49142
48958
48770
48583
48403
48234
48079
47954
47857
47772
47712
47676
47658
47659
47679
47711
47744
47764
47767
47760
47758
47754
47742
47733
47729
47713
47680
47643
47604
47555
47489
47399
47293
47175
47043
46909
46784
46668
46566
46481
46398
46315
46236
46164
46102
46040
45971
45906
45848
45794
45737
45673
45601
45525
45447
45376
45321
45280
45261
45255
45241
45216
45185
45152
45116
45079
45046
45015
44980
44940
44897
44859
44821
44780
44743
44718
44712
44742
44819
44940
45109
45347
45683
46133
46704
47393
48178
49021
49887
50735
51539
52286
52954
53529
54004
54372
54635
54807
54908
54946
54922
54842
54719
54565
54391
54221
54072
53944
53832
53733
53647
53575
53517
53466
53415
53359
53288
53203
53118
53026
52911
52766
52573
52327
52048
51754
51441
51109
50782
50477
50197
49946
49729
49544
49380
49244
49143
49069
49014
48970
48944
48941
48952
48977
49011
49043
49068
49076
49078
49078
49062
49023
48970
48912
48839
48744
48641
48534
48420
48304
48189
48080
47976
47875
47778
47687
47604
47518
47422
47316
47208
47101
47001
46910
46830
46763
46703
46648
46595
46537
46472
46400
46324
46263
46223
46189
46156
46120
46070
46006
45939
45886
45848
45819
45790
45752
45716
45687
45656
45626
45587
45532
45474
45418
45363
45318
45310
45357
45449
45577
45769
46053
46437
46918
47493
48171
48951
49801
50682
51556
52400
53182
53868
54444
54912
55282
55555
55728
55805
55809
55768
55688
55581
55459
55325
55191
55068
54951
54844
54755
54685
54641
54610
54580
54541
54493
54435
54364
54281
54179
54056
53902
53703
53453
53160
52836
52492
52135
51777
51437
51127
50853
50614
50406
50228
50086
49971
49879
49807
49759
49732
49716
49707
49710
49730
49763
49797
49827
49842
49833
49799
49749
49683
49600
49506
49409
49318
49224
49127
49032
48933
48828
48711
48581
48452
48325
48191
48059
47936
47821
47717
47634
47572
47519
47465
47407
47328
47236
47146
47064
46996
46942
46897
46859
46827
46805
46774
46716
46648
46589
46545
46512
46481
46448
46414
46373
46315
46243
46168
46094
46021
45955
45894
45832
45774
45724
45669
45605
45544
45492
45445
45397
45343
45296
45267
45259
45276
45314
45371
45451
45578
45776
46067
46472
47000
47654
48425
49267
50135
51007
51857
52646
53346
53943
54437
54833
55133
55328
55414
55404
55326
55202
55037
54849
54661
54473
54282
54092
53906
53734
53586
53461
53357
53281
53233
53198
53154
53091
53012
52916
52798
52644
52435
52185
51920
51647
51362
51071
50795
50535
50277
50027
49805
49619
49467
49350
49268
49206
49155
49122
49107
49105
49105
49097
49097
49118
49142
49162
49170
49160
49127
49067
48995
48920
48842
48763
48679
48583
48476
48358
48236
48127
48027
47928
47833
47734
47635
47539
47438
47337
47241
47149
47063
46975
46878
46776
46680
46598
46533
46472
46407
46340
46281
46246
46227
46204
46165
46114
46061
46013
45975
45953
45944
45943
45940
45936
45932
45922
45897
45860
45817
45771
45725
45674
45616
45555
45503
45464
45428
45396
45379
45378
45399
45464
45585
45782
46081
46507
47049
47679
48379
49120
49857
50563
51229
51848
52401
52856
53198
53423
53549
53605
53588
53498
53346
53138
52878
52588
52290
51993
51699
51422
51169
50938
50738
50573
50438
50326
50228
50138
50056
49956
49820
49665
49504
49335
49164
48998
48833
48660
48485
48313
48146
47999
47888
47804
47742
47697
47656
47617
47585
47558
47554
47588
47639
47684
47731
47779
47803
47797
47783
47762
47721
47670
47616
47554
47476
47379
47282
47201
47134
47077
47016
46938
46847
46749
46637
46520
46411
46305
46190
46080
45994
45934
45884
45829
45770
45715
45668
45617
45551
45475
45403
45336
45269
45204
45148
45102
45069
45051
45031
44995
44951
44910
44869
44834
44816
44808
44795
44770
44735
44689
44634
44582
44550
44538
44548
44592
44673
44792
44944
45134
45380
45712
46148
46679
47300
48010
48785
49581
50352
51063
51693
52229
52673
53032
53305
53489
53581
53579
53506
53383
53209
52982
52711
52423
52157
51929
51720
51513
51316
51145
50996
50858
50742
50660
50591
50507
50405
50290
50151
49983
49805
49643
49496
49354
49208
49049
48870
48689
48527
48390
48280
48193
48127
48075
48049
48050
48063
48082
48107
48137
48176
48215
48245
48270
48292
48315
48335
48349
48352
48335
48292
48217
48112
47990
47867
47752
47640
47523
47416
47320
47215
47098
46983
46872
46769
46681
46604
46523
46442
46363
46274
46180
46101
46036
45973
45915
45874
45846
45819
45791
45772
45754
45721
45670
45609
45536
45453
45375
45330
45318
45315
45303
45287
45271
45242
45185
45117
45063
45036
45028
45017
44983
44940
44910
44879
44836
44810
44827
44891
45015
45206
45449
45747
46127
46596
47158
47820
48571
49373
50168
50908
51569
52153
52669
53107
53453
53702
53849
53914
53932
53912
53855
53761
53633
53483
53316
53129
52943
52770
52608
52460
52334
52226
52130
52040
51955
51869
51779
51675
51546
51386
51190
50969
50754
50554
50353
50153
49951
49742
49538
49341
49150
48978
48825
48691
48587
48507
48443
48405
48396
48407
48439
48484
48527
48565
48598
48617
48616
48594
48559
48532
48507
48472
48430
48380
48314
48232
48141
48058
47980
47892
47790
47684
47577
47472
47386
47311
47233
47161
47101
47044
46971
46876
46772
46668
46577
46512
46460
46399
46331
46266
46212
46171
46136
46104
46078
46048
46007
45951
45887
45827
45774
45727
45686
45640
45583
45535
45503
45476
45453
45434
45399
45335
45263
45191
45114
45052
45012
44989
44990
45029
45117
45269
45482
45745
46058
46435
46892
47426
48019
48661
49344
50053
50758
51415
51997
52508
52938
53273
53518
53670
53740
53746
53690
53569
53395
53200
53010
52823
52639
52468
52296
52125
51974
51840
51740
51681
51640
51595
51547
51490
51413
51303
51155
50982
50805
50626
50434
50230
50026
49830
49645
49472
49306
49137
48957
48769
48596
48470
48400
48371
48365
48377
48402
48443
48487
48522
48559
48594
48608
48598
48581
48567
48545
48508
48450
48376
48303
48241
48192
48141
48064
47955
47820
47685
47569
47472
47391
47315
47229
47122
47001
46881
46756
46625
46506
46408
46338
46303
46287
46270
46248
46218
46177
46129
46075
46021
45971
45923
45875
45820
45753
45680
45612
45557
45517
45491
45475
45457
45434
45392
45328
45268
45221
45174
45131
45093
45062
45053
45076
45147
45266
45421
45609
45856
46197
46639
47174
47784
48445
49114
49767
50391
50964
51482
51953
52363
52708
52980
53173
53290
53330
53303
53219
53081
52896
52683
52464
52250
52044
51827
51589
51358
51155
50979
50833
50711
50603
50494
50372
50236
50090
49948
49813
49684
49546
49395
49245
49109
48990
48881
48774
48659
48539
48429
48341
48277
48239
48208
48167
48120
48083
48070
48081
48105
48128
48130
48115
48096
48072
48045
48018
47987
47950
47902
47846
47784
47701
47607
47512
47413
47300
47178
47069
46985
46913
46843
46768
46690
46612
46534
46447
46350
46248
46161
46094
46029
45961
45897
45842
45800
45773
45754
45725
45683
45644
45626
45629
45629
45606
45573
45547
45532
45522
45511
45503
45492
45472
45442
45391
45317
45249
45222
45235
45281
45369
45505
45696
45944
46273
46718
47274
47915
48602
49291
49959
50595
51208
51782
52284
52703
53034
53265
53391
53427
53385
53282
53139
52968
52774
52566
52349
52120
51889
51658
51441
51266
51137
51039
50961
50896
50838
50770
50671
50550
50420
50283
50134
49965
49778
49586
49401
49233
49083
48944
48813
48689
48581
48501
48445
48416
48419
48446
48479
48511
48540
48554
48553
48558
48572
48571
48543
48493
48440
48392
48345
48297
48249
48202
48156
48117
48084
48043
47982
47909
47818
47709
47601
47503
47405
47302
47190
47075
46968
46871
46781
46697
46617
46531
46446
46375
46310
46250
46199
46146
46085
46041
46020
46010
46013
46020
46005
45965
45915
45864
45820
45781
45743
45705
45667
45623
45575
45534
45493
45441
45387
45343
45307
45290
45302
45338
45388
45447
45539
45704
45959
46308
46752
47291
47926
48649
49428
50225
51010
51746
52405
52959
53393
53729
53998
54203
54343
54404
54383
54300
54174
54036
53900
53753
53603
53473
53369
53279
53196
53128
53083
53044
52995
52939
52866
52757
52616
52463
52311
52162
52008
51840
51652
51444
51216
50978
50741
50495
50236
49980
49747
49558
49429
49352
49301
49258
49206
49143
49095
49085
49095
49107
49119
49126
49120
49109
49107
49099
49072
49050
49034
49005
48963
48902
48819
48737
48671
48602
48509
48413
48339
48284
48233
48162
48049
47912
47796
47716
47658
47608
47551
47467
47353
47239
47153
47091
47028
46954
46892
46846
46809
46774
46728
46681
46653
46640
46628
46594
46532
46469
46416
46367
46318
46268
46220
46163
46090
46019
45957
45900
45857
45836
45839
45860
45898
45968
46082
46240
46445
46717
47083
47534
48056
48645
49278
49929
50596
51260
51882
52437
52912
53306
53608
53814
53937
53981
53960
53892
53779
53640
53485
53328
53191
53077
52968
52856
52758
52667
52572
52489
52428
52384
52333
52260
52174
52070
51935
51756
51543
51318
51087
50839
50576
50306
50045
49814
49616
49448
49298
49164
49047
48948
48873
48827
48814
48827
48854
48886
48904
48897
48874
48842
48796
48742
48701
48675
48642
48583
48513
48455
48419
48382
48320
48239
48164
48101
48044
47987
47915
47816
47691
47561
47447
47333
47206
47081
46966
46873
46808
46764
46727
46691
46654
46600
46517
46404
46289
46194
46107
46034
45987
45958
45929
45913
45909
45899
45877
45842
45804
45766
45719
45666
45598
45515
45442
45379
45306
45217
45131
45077
45065
45071
45064
45047
45051
45086
45155
45275
45451
45684
45981
46354
46812
47354
47970
48647
49352
50036
50676
51261
51770
52187
52496
52705
52841
52905
52899
52847
52767
52664
52529
52361
52172
51979
51794
51631
51481
51345
51231
51130
51035
50956
50893
50836
50777
50700
50606
50504
50399
50288
50147
49981
49805
49619
49421
49228
49053
48911
48797
48684
48573
48489
48431
48386
48345
48302
48279
48277
48263
48236
48218
48216
48224
48243
48270
48291
48300
48289
48254
48205
48154
48100
48040
47962
47859
47755
47657
47555
47457
47366
47273
47167
47047
46936
46847
46777
46726
46677
46619
46554
46479
46410
46357
46313
46276
46247
46222
46193
46163
46133
46098
46060
46010
45942
45872
45802
45729
45655
45575
45506
45463
45424
45378
45339
45312
45293
45286
45314
45381
45475
45596
45772
46018
46332
46725
47198
47729
48294
48873
49461
50042
50580
51049
51449
51767
51999
52154
52232
52239
52173
52040
51870
51693
51508
51315
51138
50982
50833
50676
50525
50394
50283
50198
50147
50104
50033
49931
49821
49722
49622
49494
49350
49203
49054
48902
48740
48563
48389
48237
48122
48043
47989
47953
47927
47902
47882
47870
47880
47916
47960
48014
48081
48138
48167
48166
48146
48115
48076
48021
47952
47886
47818
47742
47671
47613
47561
47511
47454
47369
47257
47148
47059
46979
46886
46787
46708
46634
46540
46444
46368
46309
46271
46251
46235
46209
46177
46149
46122
46080
46027
45990
45965
45924
45866
45815
45776
45748
45736
45732
45724
45700
45667
45636
45602
45555
45492
45411
45321
45241
45174
45118
45089
45115
45210
45370
45604
45916
46300
46761
47289
47873
48521
49229
49956
50651
51283
51845
52330
52737
53054
53263
53380
53438
53454
53438
53387
53301
53194
53070
52929
52796
52677
52555
52441
52365
52325
52300
52269
52227
52178
52124
52057
51973
51880
51761
51603
51428
51250
51070
50881
50668
50437
50206
49993
49805
49634
49466
49314
49197
49121
49074
49039
49009
48988
48981
48994
49013
49017
49011
49001
48990
48974
48940
48896
48867
48842
48806
48763
48710
48639
48558
48490
48430
48357
48273
48176
48070
47968
47871
47778
47695
47618
47533
47434
47337
47261
47195
47126
47063
47013
46977
46952
46931
46911
46887
46843
46780
46721
46670
46618
46554
46478
46409
46349
46277
46197
46134
46085
46023
45944
45862
45785
45714
45644
45582
45542
45536
45550
45562
45580
45615
45666
45746
45864
46027
46247
46536
46903
47356
47894
48502
49159
49849
50556
51246
51878
52433
52914
53328
53668
53937
54144
54274
54301
54247
54156
54044
53913
53777
53639
53483
53313
53148
53001
52882
52797
52748
52726
52710
52680
52625
52555
52484
52405
52299
52165
52014
51852
51671
51471
51264
51058
50852
50650
50441
50215
49994
49795
49624
49491
49390
49312
49265
49263
49306
49373
49446
49500
49514
49500
49491
49490
49476
49434
49378
49328
49293
49260
49209
49146
49084
49011
48921
48815
48700
48589
48491
48400
48306
48200
48092
47992
47904
47822
47741
47660
47572
47490
47410
47333
47267
47210
47167
47135
47100
47055
47000
46938
46874
46815
46761
46713
46680
46657
46630
46601
46582
46571
46554
46523
46484
46447
46405
46350
46279
46208
46152
46116
46097
46072
46017
45943
45876
45811
45737
45662
45598
45547
45520
45542
45614
45720
45878
46110
46416
46799
47269
47817
48431
49100
49798
50490
51154
51761
52286
52727
53092
53377
53586
53725
53783
53751
53651
53509
53345
53177
53009
52845
52682
52509
52344
52205
52088
51997
51935
51891
51852
51819
51799
51779
51736
51648
51510
51353
51186
50992
50779
50562
50350
50155
49989
49851
49723
49583
49442
49324
49233
49164
49100
49038
48983
48939
48906
48893
48903
48931
48962
48975
48963
48935
48905
48875
48835
48780
48715
48641
48569
48518
48478
48425
48355
48280
48197
48099
48003
47921
47832
47723
47608
47497
47394
47299
47206
47120
47042
46962
46876
46787
46702
46630
46558
46474
46394
46325
46279
46270
46283
46286
46249
46174
46098
46046
46021
46017
46022
46030
46033
46020
45984
45945
45919
45896
45859
45794
45704
45606
45517
45443
45370
45279
45170
45060
44974
44914
44880
44886
44948
45062
45221
45437
45711
46039
46426
46863
47348
47883
48458
49063
49680
50271
50794
51226
51572
51842
52043
52168
52214
52199
52139
52031
51868
51656
51419
51185
50959
50741
50551
50402
50285
50189
50109
50037
49965
49900
49845
49790
49735
49675
49595
49496
49373
49235
49098
48955
48794
48626
48476
48353
48262
48193
48144
48115
48096
48085
48090
48111
48145
48191
48250
48311
48361
48399
48420
48426
48419
48395
48362
48325
48278
48225
48176
48115
48020
47897
47770
47651
47546
47454
47371
47285
47194
47104
47020
46943
46869
46803
46748
46692
46627
46553
46485
46433
46388
46343
46302
46258
46209
46157
46091
46008
45928
45866
45823
45790
45765
45746
45715
45671
45630
45599
45572
45542
45510
45474
45434
45392
45362
45357
45375
45407
45458
45544
45671
45833
46041
46318
46671
47102
47606
48166
48762
49369
49974
50558
51094
51564
51952
52250
52462
52589
52641
52629
52555
52424
52252
52056
51840
51610
51378
51152
50950
50792
50672
50572
50484
50403
50336
50293
50266
50234
50180
50085
49957
49809
49642
49473
49322
49183
49059
48941
48818
48705
48602
48514
48466
48455
48468
48479
48471
48466
48474
48482
48473
48439
48385
48321
48249
48183
48128
48083
48062
48073
48100
48126
48133
48118
48083
48019
47919
47794
47659
47535
47434
47356
47295
47227
47133
47025
46924
46847
46795
46752
46709
46662
46619
46589
46566
46528
46455
46353
46238
46128
46050
46010
45990
45971
45950
45930
45902
45851
45795
45755
45725
45697
45660
45617
45578
45538
45493
45459
45437
45418
45393
45358
45329
45334
45375
45443
45533
45671
45874
46133
46467
46911
47462
48088
48765
49469
50163
50805
51368
51841
52230
52553
52808
52986
53097
53151
53151
53111
53045
52941
52794
52629
52444
52228
52009
51819
51666
51551
51468
51407
51360
51330
51320
51304
51258
51194
51125
51040
50923
50774
50614
50438
50245
50059
49885
49727
49584
49447
49320
49200
49083
48982
48916
48866
48817
48782
48759
48733
48709
48703
48722
48755
48781
48781
48753
48706
48663
48625
48582
48530
48459
48377
48302
48238
48186
48139
48078
47991
47893
47799
47711
47629
47548
47475
47413
47355
47300
47250
47201
47147
47088
47029
46965
46889
46803
46702
46599
46512
46443
46388
46350
46327
46318
46312
46283
46216
46123
46033
45972
45938
45911
45871
45832
45802
45766
45713
45655
45610
45588
45585
45573
45542
45505
45489
45513
45588
45713
45900
46160
46494
46909
47409
47989
48637
49327
50022
50689
51311
51883
52389
52794
53081
53279
53419
53500
53519
53477
53381
53258
53114
52943
52759
52588
52430
52280
52140
52015
51905
51815
51748
51689
51629
51575
51520
51444
51345
51234
51126
51011
50869
50693
50499
50297
50096
49915
49759
49613
49465
49309
49156
49020
48907
48818
48749
48696
48672
48676
48683
48685
48695
48714
48729
48732
48718
48689
48651
48610
48558
48486
48400
48308
48219
48135
48053
47969
47884
47793
47687
47583
47490
47393
47302
47222
47146
47071
47002
46937
46867
46791
46721
46651
46568
46481
46405
46342
46286
46231
46180
46126
46062
45998
45948
45907
45861
45812
45770
45731
45684
45641
45618
45609
45596
45572
45554
45542
45516
45473
45429
45384
45331
45269
45208
45158
45123
45101
45082
45064
45051
45060
45108
45191
45306
45476
45726
46048
46425
46864
47382
47968
48594
49245
49903
50516
51056
51526
51921
52227
52435
52560
52617
52596
52503
52361
52178
51967
51750
51534
51330
51144
50974
50819
50683
50568
50481
50419
50372
50329
50278
50223
50164
50091
49997
49892
49781
49654
49500
49328
49147
48975
48831
48706
48596
48500
48418
48349
48284
48228
48191
48168
48154
48156
48169
48184
48209
48246
48288
48327
48348
48343
48314
48270
48227
48196
48169
48129
48061
47976
47882
47788
47693
47606
47531
47464
47404
47345
47284
47221
47151
47079
47015
46955
46884
46802
46715
46623
46531
46455
46391
46330
46275
46225
46175
46120
46058
46005
45966
45937
45919
45905
45886
45860
45833
45809
45785
45749
45697
45648
45614
45590
45558
45518
45487
45477
45499
45566
45670
45802
45970
46180
46449
46790
47202
47688
48236
48824
49418
49995
50547
51051
51494
51865
52145
52333
52452
52504
52488
52420
52310
52145
51929
51688
51438
51196
50979
50792
50632
50482
50343
50226
50127
50045
49990
49952
49907
49852
49794
49740
49683
49607
49506
49384
49240
49087
48940
48809
48698
48601
48518
48449
48393
48345
48306
48283
48279
48292
48319
48350
48378
48396
48402
48401
48391
48380
48367
48341
48300
48257
48221
48180
48126
48064
47993
47905
47810
47727
47659
47602
47546
47485
47416
47343
47252
47143
47042
46950
46850
46745
46645
46544
46431
46324
46248
46189
46125
46057
45998
45963
45949
45947
45962
45977
45974
45962
45939
45909
45892
45894
45898
45880
45836
45784
45729
45669
45618
45570
45517
45473
45451
45466
45523
45609
45726
45895
46130
46439
46841
47340
47930
48597
49310
50028
50719
51360
51937
52434
52840
53164
53408
53572
53652
53651
53580
53453
53274
53058
52840
52647
52467
52273
52063
51869
51713
51593
51498
51409
51303
51177
51047
50924
50812
50713
50632
50560
50471
50342
50191
50044
49903
49750
49583
49416
49263
49123
48987
48863
48773
48709
48658
48620
48584
48545
48519
48525
48560
48608
48658
48699
48711
48693
48669
48654
48642
48622
48585
48529
48456
48381
48315
48256
48198
48142
48090
48037
47976
47902
47815
47708
47576
47436
47305
47190
47083
46989
46918
46861
46795
46730
46676
46618
46544
46456
46373
46303
46244
46196
46150
46106
46076
46053
46020
45992
45984
45993
46007
46023
46031
46018
45982
45918
45836
45768
45710
45643
45585
45554
45548
45575
45660
45807
46005
46249
46568
46984
47492
48071
48693
49351
50029
50691
51308
51845
52280
52619
52870
53033
53121
53148
53124
53059
52962
52840
52696
52520
52316
52108
51902
51690
51482
51298
51146
51020
50911
50826
50770
50720
50651
50569
50475
50357
50226
50098
49959
49796
49632
49475
49324
49191
49081
48984
48895
48811
48732
48658
48581
48495
48410
48341
48299
48269
48245
48231
48227
48227
48226
48218
48201
48170
48130
48102
48085
48064
48037
48009
47973
47909
47820
47730
47636
47518
47383
47248
47133
47026
46915
46814
46720
46613
46497
46392
46301
46221
46153
46092
46026
45969
45934
45917
45909
45901
45883
45838
45769
45698
45632
45566
45514
45481
45453
45417
45375
45332
45296
45276
45266
45252
45231
45199
45151
45090
45031
44995
44978
44970
44963
44955
44963
45011
45117
45289
45514
45781
46110
46514
46997
47550
48145
48753
49349
49915
50441
50900
51270
51548
51740
51862
51914
51879
51771
51612
51418
51215
51017
50827
50638
50442
50243
50059
49909
49788
49683
49590
49504
49429
49369
49317
49272
49229
49173
49098
49006
48903
48775
48615
48442
48268
48095
47942
47830
47746
47679
47637
47618
47614
47624
47643
47665
47690
47722
47767
47824
47885
47932
47954
47953
47923
47864
47803
47753
47698
47627
47545
47460
47373
47290
47218
47148
47074
47000
46926
46846
46763
46688
46624
46563
46493
46410
46339
46288
46235
46173
46103
46037
45975
45907
45843
45789
45723
45648
45593
45562
45530
45485
45438
45406
45394
45389
45373
45345
45319
45304
45299
45284
45233
45165
45110
45074
45061
45088
45165
45303
45509
45780
46112
46502
46946
47446
47993
48561
49133
49686
50183
50606
50967
51271
51501
51630
51659
51622
51528
51389
51232
51067
50886
50679
50445
50208
49999
49828
49693
49587
49500
49416
49330
49243
49152
49054
48968
48904
48842
48772
48676
48561
48459
48370
48276
48185
48113
48062
48020
47979
47925
47870
47841
47829
47813
47796
47787
47792
47802
47803
47802
47806
47815
47824
47835
47839
47826
47795
47753
47708
47653
47586
47515
47453
47388
47306
47223
47153
47080
47002
46932
46865
46795
46719
46630
46533
46449
46390
46333
46269
46220
46179
46124
46054
45983
45911
45840
45787
45750
45716
45689
45662
45634
45614
45587
45539
45480
45438
45422
45415
45402
45392
45388
45374
45351
45336
45339
45365
45431
45540
45692
45884
46123
46443
46855
47333
47872
48470
49107
49747
50367
50953
51479
51917
52277
52564
52754
52854
52886
52855
52764
52623
52445
52250
52059
51868
51678
51503
51340
51200
51097
51020
50942
50869
50810
50749
50665
50565
50469
50383
50300
50221
50141
50047
49930
49800
49670
49547
49439
49345
49245
49128
49016
48923
48837
48750
48668
48613
48596
48606
48644
48694
48729
48743
48751
48770
48797
48810
48800
48780
48743
48678
48600
48517
48424
48329
48238
48145
48056
47971
47883
47802
47720
47631
47557
47501
47436
47352
47277
47222
47158
47060
46953
46870
46803
46746
46699
46657
46611
46563
46528
46498
46457
46406
46351
46293
46236
46187
46157
46144
46130
46105
46070
46027
45986
45952
45916
45878
45833
45784
45744
45718
45697
45676
45663
45666
45702
45801
45960
46160
46406
46711
47088
47558
48130
48796
49524
50266
50982
51646
52227
52680
52997
53209
53342
53402
53407
53378
53328
53253
53144
53018
52889
52753
52607
52451
52289
52135
52007
51913
51834
51767
51720
51680
51629
51577
51524
51446
51338
51206
51056
50893
50717
50532
50344
50166
50013
49882
49762
49646
49541
49437
49330
49233
49157
49106
49081
49084
49109
49124
49121
49111
49091
49069
49064
49064
49054
49036
49021
49005
48981
48947
48899
48836
48774
48709
48634
48555
48477
48407
48354
48300
48225
48129
48018
47911
47825
47765
47727
47694
47647
47569
47463
47338
47205
47077
46975
46899
46841
46802
46771
46726
46668
46617
46571
46521
46472
46445
46431
46403
46364
46322
46276
46238
46216
46186
46134
46080
46043
46017
45994
45974
45946
45904
45862
45817
45766
45727
45697
45670
45672
45705
45778
45915
46113
46363
46673
47066
47552
48101
48690
49322
49990
50650
51254
51780
52221
52570
52829
53001
53101
53138
53118
53049
52935
52786
52620
52450
52287
52129
51979
51841
51711
51596
51505
51431
51378
51338
51293
51239
51177
51105
51020
50934
50843
50740
50625
50498
50359
50206
50049
49904
49772
49647
49534
49427
49330
49260
49211
49173
49143
49117
49101
49094
49086
49073
49059
49047
49018
48963
48908
48890
48906
48930
48946
48943
48914
48865
48809
48751
48685
48598
48493
48386
48279
48172
48054
47908
47743
47577
47421
47285
47176
47093
47020
46947
46888
46849
46823
46800
46780
46763
46739
46688
46620
46563
46525
46496
46470
46440
46397
46341
46263
46169
46085
46014
45948
45902
45881
45874
45854
45808
45754
45696
45631
45574
45524
45468
45409
45363
45343
45340
45350
45380
45426
45492
45587
45711
45869
46080
46352
46674
47052
47508
48034
48613
49208
49780
50319
50814
51248
51612
51898
52108
52245
52306
52299
52240
52126
51952
51733
51498
51276
51069
50860
50659
50472
50292
50137
50026
49957
49914
49883
49861
49833
49774
49690
49600
49509
49411
49309
49210
49113
49006
48880
48750
48643
48569
48524
48498
48475
48460
48470
48491
48504
48511
48527
48569
48632
48709
48793
48869
48925
48961
48973
48955
48900
48814
48721
48635
48546
48453
48368
48295
48223
48154
48089
48020
47934
47828
47719
47622
47522
47402
47263
47126
47010
46917
46833
46750
46670
46604
46560
46522
46477
46433
46389
46343
46296
46246
46198
46147
46090
46028
45956
45884
45829
45788
45756
45740
45741
45756
45770
45776
45783
45791
45789
45773
45748
45725
45709
45725
45804
45945
46121
46323
46566
46869
47249
47706
48231
48792
49347
49867
50337
50747
51079
51332
51525
51660
51742
51772
51741
51652
51526
51372
51190
50991
50790
50602
50440
50286
50131
49996
49895
49817
49751
49688
49618
49538
49460
49390
49316
49237
49143
49019
48867
48696
48524
48384
48279
48191
48105
48019
47958
47933
47928
47936
47960
47997
48038
48072
48100
48125
48145
48162
48166
48153
48144
48140
48119
48071
47998
47927
47871
47820
47764
47699
47622
47534
47438
47336
47230
47123
47030
46955
46884
46811
46742
46683
46636
46589
46537
46492
46461
46430
46369
46276
46167
46067
46006
45977
45960
45949
45924
45874
45817
45765
45713
45660
45620
45604
45609
45617
45616
45612
45609
45600
45566
45515
45468
45437
45428
45445
45500
45605
45745
45921
46154
46454
46820
47258
47763
48307
48853
49380
49891
50388
50862
51291
51658
51960
52194
52344
52402
52387
52321
52210
52078
51940
51793
51640
51491
51356
51244
51157
51075
50985
50909
50855
50815
50795
50781
50754
50703
50623
50524
50419
50316
50204
50070
49917
49749
49587
49454
49347
49249
49151
49055
48966
48886
48817
48774
48761
48757
48756
48769
48800
48837
48879
48920
48944
48958
48973
48983
48967
48915
48846
48775
48705
48640
48572
48488
48400
48328
48275
48235
48194
48141
48068
47970
47852
47736
47643
47575
47520
47457
47376
47283
47195
47124
47068
47021
46979
46945
46909
46847
46758
46680
46637
46610
46564
46508
46467
46432
46395
46378
46377
46369
46354
46340
46331
46318
46290
46250
46206
46156
46111
46086
46079
46076
46087
46134
46224
46363
46547
46782
47096
47499
47984
48551
49187
49860
50526
51148
51708
52208
52658
53044
53344
53542
53655
53724
53761
53745
53663
53527
53347
53150
52965
52792
52636
52512
52409
52325
52278
52259
52256
52260
52263
52265
52255
52213
52134
52024
51897
51764
51623
51462
51281
51103
50926
50722
50505
50320
50180
50079
50004
49935
49855
49758
49660
49593
49568
49579
49618
49665
49696
49700
49684
49659
49639
49633
49637
49641
49632
49597
49542
49473
49378
49261
49136
49009
48890
48777
48669
48568
48466
48371
48287
48209
48132
48059
47998
47940
47875
47812
47764
47724
47685
47650
47617
47582
47549
47515
47472
47419
47360
47297
47238
47194
47160
47126
47090
47044
46986
46936
46892
46829
46750
46679
46628
46589
46551
46511
46475
46449
46431
46399
46348
46292
46235
46195
46196
46246
46341
46479
46659
46885
47157
47493
47916
48421
48976
49561
50173
50800
51414
51982
52489
52928
53276
53515
53657
53718
53715
53668
53584
53468
53341
53195
53017
52830
52673
52546
52420
52289
52177
52105
52063
52036
52013
51976
51921
51850
51752
51621
51479
51349
51225
51092
50950
50802
50649
50497
50357
50221
50064
49893
49739
49616
49538
49497
49469
49453
49445
49444
49457
49467
49455
49426
49399
49394
49404
49421
49426
49401
49364
49327
49286
49225
49142
49052
48962
48876
48799
48726
48651
48566
48468
48376
48293
48209
48115
48005
47904
47825
47743
47646
47540
47431
47321
47221
47156
47125
47112
47104
47083
47040
46987
46928
46871
46824
46794
46781
46777
46766
46748
46731
46705
46657
46598
46547
46506
46465
46423
46386
46349
46296
46219
46124
46015
45905
45819
45763
45721
45689
45679
45704
45788
45935
46127
46360
46640
46963
47336
47786
48314
48888
49467
50034
50584
51097
51559
51971
52322
52582
52729
52769
52737
52673
52594
52494
52369
52215
52034
51836
51644
51480
51336
51198
51074
50968
50873
50799
50748
50708
50667
50613
50547
50478
50405
50307
50167
50003
49852
49722
49604
49488
49357
49207
49055
48928
48843
48794
48775
48781
48805
48824
48829
48839
48859
48881
48899
48897
48882
48867
48859
48855
48841
48800
48739
48675
48607
48527
48437
48327
48213
48116
48035
47961
47894
47839
47792
47739
47671
47581
47478
47380
47297
47215
47125
47049
46988
46930
46879
46833
46792
46750
46695
46635
46587
46554
46528
46499
46460
46410
46337
46253
46173
46100
46037
45987
45941
45883
45808
45727
45648
45578
45539
45538
45564
45620
45705
45805
45913
46036
46183
46357
46561
46817
47136
47522
47983
48502
49050
49605
50156
50686
51153
51538
51849
52081
52228
52296
52297
52255
52179
52062
51919
51755
51570
51387
51220
51066
50925
50810
50727
50665
50614
50568
50521
50465
50398
50319
50222
50112
50001
49885
49767
49645
49507
49368
49243
49118
48995
48901
48840
48789
48738
48685
48636
48608
48613
48632
48660
48703
48748
48783
48819
48866
48920
48963
48970
48935
48858
48756
48663
48591
48524
48459
48398
48333
48267
48215
48175
48131
48075
48011
47944
47867
47783
47706
47637
47568
47487
47387
47277
47184
47118
47074
47040
47010
46977
46937
46890
46847
46818
46806
46802
46802
46797
46788
46780
46765
46733
46684
46624
46553
46473
46405
46342
46257
46159
46075
46010
45951
45891
45843
45825
45851
45937
46069
46228
46422
46674
47015
47460
47999
48618
49298
49992
50651
51258
51811
52300
52699
53006
53249
53420
53502
53523
53500
53431
53334
53232
53122
52995
52852
52701
52548
52401
52267
52149
52062
52006
51954
51902
51866
51837
51793
51729
51646
51545
51433
51309
51160
50990
50803
50610
50421
50225
50032
49875
49767
49694
49641
49610
49593
49574
49557
49547
49534
49518
49519
49538
49564
49579
49571
49545
49512
49469
49416
49372
49330
49271
49216
49178
49140
49090
49031
48964
48879
48783
48698
48626
48550
48461
48366
48273
48183
48098
48022
47961
47905
47840
47774
47717
47663
47612
47555
47472
47369
47270
47185
47105
47044
47021
47021
47015
46994
46972
46954
46930
46891
46836
46780
46742
46722
46714
46713
46697
46661
46616
46567
46516
46473
46439
46416
46406
46402
46407
46437
46509
46630
46802
47029
47308
47637
48029
48492
49017
49606
50260
50950
51627
52250
52795
53250
53624
53928
54153
54302
54402
54466
54495
54483
54432
54361
54278
54178
54065
53949
53832
53718
53616
53523
53454
53400
53333
53250
53156
53064
52993
52931
52851
52741
52589
52405
52210
52013
51821
51637
51441
51232
51036
50860
50696
50533
50385
50279
50214
50180
50171
50177
50187
50195
50201
50199
50182
50153
50133
50129
50127
50120
50108
50088
50050
49999
49942
49871
49787
49703
49623
49531
49414
49296
49188
49072
48945
48825
48734
48669
48615
48570
48519
48437
48334
48233
48139
48058
47996
47944
47896
47855
47822
47799
47782
47759
47721
47659
47583
47517
47468
47427
47383
47324
47259
47211
