20944
20664
20663
20395
20819
20483
20227
20237
19992
20213
19818
19889
19960
19799
19914
19887
19992
19636
19873
19534
20096
20064
19908
19567
19533
19543
19550
19696
19771
19573
19868
19560
19716
19592
19985
19707
19896
19555
19281
19526
19587
19807
19939
19885
19840
19968
19834
19558
19859
19611
20044
20199
19871
20071
19674
19629
19715
20317
20052
19568
20033
19802
19884
20193
20418
20311
20319
20247
19957
20253
20245
20169
20401
20538
20479
20368
20584
20606
20671
20236
20581
20739
20426
20468
20104
20706
20117
20085
20460
19924
20193
20228
19883
20080
19854
19834
19597
19919
20233
19810
20066
19751
20020
19864
19582
19958
19922
19763
19774
19959
19850
19490
19683
19439
19856
19936
19735
19343
19904
19877
19830
19744
19888
19953
19411
19716
19633
19731
19516
19784
19636
19955
19563
19752
19468
19857
19787
19907
19917
19933
19868
20027
19865
19741
19932
20204
20112
20174
20070
19726
19976
20012
19960
19976
20124
20315
19830
20234
20103
20315
19881
19941
20110
20340
20187
20249
20014
20458
20311
19977
20079
20306
20285
20590
20263
20318
20351
20310
20333
20071
20350
20676
20602
20301
20335
20329
20692
20735
20485
20801
20604
20536
20673
20707
20306
20647
20374
20657
20592
20502
20677
20895
20680
20846
20690
20614
20816
20777
20593
20693
20756
20373
20618
20242
20683
20634
20339
20792
20214
20263
20363
20337
20127
20442
20361
20520
20082
20218
20348
19971
19836
19754
19943
19847
19964
19653
19729
19825
19563
19200
19442
19678
19076
19171
19164
19354
19119
19092
19431
19120
19220
18978
18681
18668
18592
18813
18777
18786
18716
18605
18671
18504
18772
18830
18508
18433
18906
18994
18461
18735
18611
19035
18883
18864
18628
18942
18790
18531
19096
18616
18719
18798
18925
19130
18710
19164
19145
19008
18726
19135
19012
19135
19048
18925
19218
19411
19100
19498
19193
19012
19312
19243
19463
19181
19219
19489
19199
19461
19301
19535
19220
19122
19396
19694
19621
19309
19730
19483
19738
19889
19794
19933
19862
19784
20128
19590
19927
19805
19867
19618
20020
19894
19992
19682
20111
19760
20276
20198
20054
20190
19982
20254
19950
20390
20670
20285
20653
20275
20132
20399
20524
20534
20330
20783
20488
20684
20647
21174
21178
20768
21227
21301
21356
20887
20865
21102
21007
21465
21262
21064
21222
20617
20934
20905
20930
20797
21144
20672
20397
20708
20554
20850
20682
20865
20597
20808
20691
20827
20782
21117
20800
20650
20877
20838
20812
21173
21245
20973
21145
21286
20970
21252
21279
20936
21181
21269
20965
20990
21082
21268
21334
21122
21175
21097
21431
21431
21101
21413
21238
21539
20986
21381
21274
21364
21310
21088
21367
21701
21330
21472
21584
21391
21221
21620
21195
21373
21384
21418
21605
21437
21718
21426
21656
21476
21827
21570
21438
21675
21522
21319
21647
21528
21446
21474
21326
21774
21726
21465
21438
21921
21605
21272
21746
21371
21385
21951
21470
22029
21576
21906
21772
22054
22153
21755
21957
22107
21741
21783
22203
21765
22045
22318
22225
22224
22026
21844
22196
22130
22319
21989
22476
22127
22490
22403
22578
22437
22439
22371
22544
22355
22190
22310
22383
22450
22132
22324
22172
22232
22142
22443
22418
21927
22392
22357
22201
22138
21791
21826
21778
21758
21725
21481
21766
22120
21893
21893
21822
21885
21362
21401
21909
21412
21473
21583
21458
21653
21267
21547
21687
21275
21617
21332
21464
21360
21382
21666
21442
21513
21380
21777
21585
21612
21615
21243
21621
21917
21656
21902
21457
21763
21514
21922
21561
21686
21657
21560
21426
21943
22122
21652
21530
21601
21855
21504
21814
21558
22043
21653
21668
21994
21953
22177
21882
22151
21867
22121
22159
22013
21839
22081
22328
22136
21884
22081
22106
22281
22103
22111
22373
22592
22171
22319
22317
22576
22136
22606
22715
22254
22501
22809
22795
22213
22309
22804
22703
22787
22768
22263
22505
22966
22924
22776
22325
22659
22747
22746
22755
22808
22963
22706
22694
22793
22765
22756
22684
22769
22825
22949
22740
22802
22788
22911
22747
23102
22594
22529
22573
22741
22370
22211
22364
22467
22112
22183
22125
22299
22297
22051
21798
21772
22228
21890
22303
21846
21474
21947
21822
21635
21524
22014
21936
21882
21683
21506
21579
21357
21615
21856
21476
22022
21675
21797
21358
21944
22099
21794
21785
21839
22055
21848
21964
21857
21637
21939
21860
22030
21936
21998
21766
22136
22090
22229
22262
22338
21920
21945
21943
22035
22379
21792
22403
22202
22059
21995
22233
22355
22026
22165
21987
22331
22516
22324
22440
22199
22462
22293
22425
22209
22348
22370
22337
22405
22638
22337
22287
22630
22546
22300
22432
22895
22737
22417
22494
22447
22656
22716
22340
22454
22424
22784
23012
22838
22526
22772
22839
22963
22483
22747
22426
22718
22992
22713
22954
22806
22962
22725
22941
23187
22949
22664
23028
22632
22920
23062
22762
22727
22811
23097
22608
22954
23059
22643
22643
23080
22588
22725
22617
22622
23085
22802
22550
23024
22394
22362
22436
22704
22375
22052
22296
22338
21988
22110
22279
21614
21747
22033
21694
21665
21863
21866
21580
21591
21973
21945
21773
21739
21452
21445
21899
21930
21798
21912
22108
21549
21831
21693
21460
22007
21644
21785
21688
22147
21714
21516
21724
22135
21929
21656
21913
21973
22261
22199
21883
22191
21824
22080
22419
22153
22081
22228
22000
21972
22231
22388
22109
22444
22039
22122
22174
22067
22074
21947
21981
22584
22122
22572
22318
22395
22117
22374
22101
22358
22363
22252
22463
22338
22246
22117
22170
22287
22265
22105
22100
22504
22511
22572
22412
22025
22341
22187
22454
22160
22194
22005
22419
22386
22174
22346
22362
22304
22558
22481
22615
22527
22231
22437
22800
22417
22312
22546
22977
22803
22289
22835
22683
22647
22242
22493
22443
22468
22398
22574
22921
22837
22776
22670
22391
22566
22515
22790
22658
22628
22712
22463
22707
22243
22394
22315
22238
22184
21922
22048
21862
22005
22127
21662
21893
22069
21906
21628
21717
21669
21773
21276
21603
21704
21401
21914
21399
21454
21511
21591
21813
21813
21811
21815
21486
21604
21516
21550
21720
21737
21759
21543
22007
21465
21802
22118
21856
22061
21748
22104
21938
21918
21899
21806
21916
22208
21967
21722
21895
21695
22174
21671
21956
22197
22266
22367
21798
22200
22156
22461
22375
22309
22345
22032
22030
22230
22192
22376
22340
22387
22363
22082
22312
22328
22600
22474
22693
22617
22550
22444
22550
22653
22490
22446
22398
22700
22705
22871
22997
22629
22454
22689
22690
22603
22555
22774
22968
22825
22712
22797
22805
22797
22769
22896
22882
22775
22904
22846
23141
22685
22713
23136
23014
22921
23071
23007
22811
23025
23183
23015
22957
22935
23330
23202
23333
23107
23320
22874
23179
22880
22869
23214
23076
23110
23010
22759
23013
23088
22546
22874
22415
22665
22238
22527
22723
22093
22496
22387
22196
22183
21826
22150
21905
22276
22260
22249
21704
22239
22020
21899
22182
22133
21652
21956
22048
21718
21803
22225
21576
21811
22035
21619
21629
22162
21760
22077
21620
21869
22115
22045
22109
22077
22167
22150
22011
22180
22274
22222
22246
22338
22295
22410
22215
22455
22386
21956
22381
22579
22262
22377
22250
22713
22378
22362
22659
22475
22659
22732
22653
22332
22510
22517
22347
22341
22791
22781
22486
22559
22471
22479
22655
22423
22546
22449
22583
22942
22701
22704
22933
22607
22914
22426
22492
22507
22746
22478
22579
22790
22574
23072
23089
22691
22919
23049
23124
22697
22628
22840
22701
22954
22927
23009
22742
23076
22926
23084
22915
22674
22912
22631
22873
22811
23210
22938
23105
23231
23302
22814
22880
23056
22921
23332
23256
22924
23327
23059
22792
23114
22686
22911
22755
22737
23093
23040
23052
22522
22814
22791
22427
22788
22526
22151
22615
22266
22132
22141
22081
22217
22431
22049
22399
22162
22050
22141
22232
22072
22403
22120
21996
21933
22311
22207
21937
21813
22026
21877
21983
21939
21935
22071
22078
22388
22300
22137
22092
22362
22452
21892
22167
22221
22370
22305
22584
22329
22164
22439
22726
22258
22616
22218
22493
22701
22483
22338
22654
22532
22459
22174
22453
22179
22389
22405
22511
22257
22422
22632
22302
22156
22440
22745
22453
22361
22867
22755
22773
22429
22943
22926
22874
22820
22455
22513
22898
22615
22690
22494
22787
22959
22887
22420
22755
22497
22890
22989
22847
22470
22679
22921
22696
23010
22562
23022
22777
22982
22676
22640
22604
23037
22904
22957
22547
23053
23101
22606
22696
22923
22504
22830
22688
22903
22854
22574
22992
22912
22986
22618
22891
22881
23039
22509
22625
23007
22656
22861
22750
22939
22706
22861
22751
22795
22594
22742
22956
22620
22675
22782
22661
22426
22661
22184
22513
22615
22224
22344
21922
22150
21881
22203
22111
21920
22100
21986
21726
21959
21624
22016
21874
21890
22047
21915
21560
21943
21981
22015
22061
21643
21726
21760
22045
21728
21655
21941
21922
21722
22158
22033
21829
21954
22040
22258
22022
22365
22106
22112
21975
21942
22382
22125
22433
22028
22507
22543
21982
22469
22376
22617
22126
22243
22326
22101
22396
22408
22731
22365
22345
22376
22269
22552
22568
22682
22389
22387
22365
22393
22275
22710
22430
22546
22299
22810
22536
22556
22943
22643
22911
22743
22718
22833
23098
22650
22647
22508
22792
23002
22658
22536
22778
22461
22855
23041
22986
22464
22697
23031
23039
22519
22689
22762
22569
22658
23109
22999
22963
23013
22826
23046
23036
23018
22814
22854
22879
22801
22896
23070
22965
23125
23154
23370
23095
23441
23066
23366
23146
22863
23373
23071
22879
22748
22953
22743
22676
22853
22612
22672
23034
22572
22496
22739
22198
22515
22683
22567
22691
22364
22164
22548
22496
22070
22404
22495
21890
22384
21894
22011
22374
21909
21853
22316
22078
22280
21796
21896
22058
22109
22041
21977
22261
22017
22413
22352
21886
22217
22524
22427
22048
21999
22351
21936
22363
22274
22168
21969
22140
22072
22130
22102
22369
22717
22176
22227
22238
22342
22638
22520
22191
22416
22495
22612
22320
22590
22758
22310
22558
22722
22668
22363
22510
22251
22428
22370
22576
22717
22505
22452
22779
22470
22921
22675
22847
22455
22935
23108
22499
22679
22639
22656
22656
22657
22610
23125
23022
23038
22838
23110
22718
22930
23205
22948
22880
22885
22917
22695
22798
22635
23095
23044
22868
22810
23252
22572
23111
22764
23172
22720
22893
23080
22707
23075
22917
23238
23337
22965
23266
22820
22845
22911
22868
23026
23014
23402
23112
22806
22961
23166
23078
22603
23128
22767
23157
22696
22728
22614
22695
22356
22833
22644
22693
22485
22264
22277
22063
22506
22651
22555
22442
21994
22026
22045
22117
22263
22327
22300
22178
21857
21851
21964
21802
21826
22094
21691
22086
21923
21781
21897
21896
22072
21752
21890
22107
22051
21785
22051
22173
22070
22335
22022
21877
21916
22501
22033
22351
22467
22154
22101
22335
22395
22355
22217
22349
22130
22227
22311
22448
22035
22397
22200
22609
22381
22236
22378
22357
22332
22779
22509
22414
22566
22504
22639
22300
22341
22573
22760
22498
22920
22636
22274
22730
22627
22628
22587
22677
22829
22513
22619
22717
22984
22942
22422
23090
23116
22811
22665
22736
22560
22719
22841
22689
22644
22527
22980
23065
23080
22855
22717
22632
23014
22989
23215
22938
22713
22982
23241
23022
22901
22928
23175
23088
22960
22968
23415
23407
23224
23532
23157
23323
23384
22972
23042
23130
23253
23103
23389
23506
23445
23112
23360
23334
23349
23147
22844
22952
23113
22756
22518
22984
23033
22786
22839
22565
22558
22375
22520
22843
22569
22523
22342
22781
22396
22198
22550
22295
22056
22281
22394
22483
22362
22550
21975
22259
22490
22326
22003
22250
22101
22410
21985
22036
22033
22451
22335
22287
22184
22100
22319
22093
22339
22725
22394
22608
22331
22791
22652
22759
22314
22219
22734
22149
22634
22300
22759
22457
22339
22350
22777
22456
22521
22330
22261
22331
22237
22484
22696
22672
22634
22508
22430
22898
22349
22239
22805
22523
22399
22347
22510
23049
22690
22847
22604
22517
22581
22517
22896
22761
23049
22792
22594
23089
22442
22680
22776
23053
22789
22976
22855
23083
22849
22603
23106
22631
22842
22779
22680
22482
23005
23088
22949
23151
22669
22846
22971
22784
22888
22741
22950
22915
23180
22693
23199
22941
22607
23091
22652
23131
23080
23084
23189
22982
22976
22733
22936
23213
22801
22947
22831
22986
22609
22897
22544
22581
22270
22483
22176
22550
22621
22340
22068
21976
22257
22087
21921
22289
22236
21924
22123
22023
21891
21603
21770
21589
21611
21960
21834
21464
21805
21869
21412
21242
21438
21882
21763
21545
21831
21722
21679
21795
21517
21957
21626
21710
22015
22052
21596
22039
22110
21619
21553
22003
21995
21638
21966
21728
21940
22298
22204
21851
22283
22071
22022
22303
22053
22197
22024
21966
21957
21950
22236
21898
22393
22193
22000
22375
21748
22326
22339
22329
22217
22036
22151
22108
22090
22064
22222
22102
22328
22617
22534
21976
22368
22718
22242
22544
22373
22518
22277
22600
22743
22570
22169
22430
22168
22720
22328
22625
22724
22475
22562
22325
22566
22758
22727
22449
22694
22131
22603
22364
22286
22797
22510
22324
22404
22326
22381
22797
22471
22398
22414
22602
22573
22643
22776
22487
22345
22753
22949
22641
22493
22692
22615
22921
22694
22770
22796
22742
22485
22582
22138
22122
22498
22000
22543
22460
22182
21746
21800
21722
22256
21729
21616
22024
22010
21832
21974
21747
21413
21957
21698
21516
22034
21553
21630
21890
21630
21791
21439
21456
21511
21584
21494
21638
21614
21680
21608
21974
21405
21405
21512
21617
21742
21601
22126
21739
21751
21996
22171
22106
21934
22122
21945
22171
21843
21925
22164
22094
22276
22217
21949
22322
21989
22069
21985
22360
21946
22302
22324
22285
22256
22086
22138
22042
22099
22291
21889
22206
22479
22394
22436
22128
22341
22161
22519
22140
22633
22159
21970
22438
22492
22573
22184
22164
22239
22575
22430
22470
22585
22524
22602
22366
22683
22508
22307
22627
22388
22590
22858
22456
22909
22591
22288
22422
22939
22543
22887
22808
22287
22877
22717
22498
22718
22888
22876
23053
22579
23026
22935
22593
22879
22962
22584
22886
22810
22916
22853
22909
22873
22730
22678
22676
23244
22769
22495
22878
22744
22742
22859
22978
22959
22576
22393
22834
22371
22630
22489
22644
22067
21981
22157
22327
22152
22001
22232
22247
21884
21883
21764
22128
21858
21933
22103
21768
21833
22063
21684
21710
21554
22088
21611
21618
21843
22062
22003
22061
21891
22012
21852
21535
22065
22086
21839
22164
21903
21888
21800
22106
21961
22020
22251
22348
22575
22179
22407
22167
22340
22092
22622
22099
22816
22085
22092
22570
22596
22503
22311
22524
22492
22463
22600
22518
22396
22649
22468
22461
22580
22299
22645
22703
22615
22785
22912
22716
22358
22603
22601
22626
23008
22684
22939
22977
22805
23148
22944
22825
22868
23077
22941
22898
23057
23109
23097
23058
23047
23081
22955
23009
22930
23069
23028
23071
23095
23222
22721
23179
23069
23327
22829
23109
22989
23359
23057
23073
23572
23209
23305
23310
22942
23314
23468
23388
22989
23431
23224
23600
23339
23319
23276
23630
23425
23272
23744
23544
23338
23444
23138
23471
23190
23279
22911
23230
23111
23331
23139
22750
22918
22784
22641
23087
22987
22998
23101
23032
22548
22836
22664
22930
22463
22591
22536
22273
22357
22761
22719
22580
22473
22346
22302
22438
22867
22434
22830
22536
22658
22883
22240
22758
22743
22405
22627
22780
23044
22480
23015
22585
22658
22639
22766
22788
22697
22874
22842
23044
23108
23061
22952
23085
22848
22967
23423
23107
23292
22907
22949
23154
23361
23237
23205
22941
23164
22986
23412
23142
23291
22921
23270
23276
23059
22912
23256
23496
23069
23480
23310
23183
23449
23445
23525
23310
23335
23195
23408
23294
23479
23273
23212
23730
23320
23174
23299
23668
23497
23062
23464
23395
23455
23203
23644
23649
23478
23111
23736
23297
23469
23435
23480
23360
23558
23576
23283
23550
23700
23362
23656
23443
23625
23515
23709
23663
23486
23396
23534
23574
23546
23942
23448
23358
23357
23693
23231
23720
23374
23160
23315
22965
23565
23481
23349
23249
23135
23305
22813
22761
23255
22707
22838
22630
22665
22864
22424
22666
22522
22324
22550
22257
22478
22162
22701
22601
22296
22111
22608
22398
22731
22304
22346
22556
22321
22413
22036
22542
22149
22508
22629
22146
22358
22126
22078
22111
22148
22179
22485
22642
22559
22501
22350
22101
22418
22538
22332
22912
22738
22972
22264
22693
22822
22794
22641
22486
22553
22664
22751
22627
22863
22331
22447
22732
22641
22359
22577
22630
22695
22496
22439
22573
22505
22588
22545
22600
22530
22489
22670
22729
22636
22752
22642
22692
22366
22686
22707
22567
22776
22653
23035
22978
22330
22581
22566
22549
22501
22994
22813
22953
22517
23060
22816
22888
22752
22855
23031
23033
22596
22749
22933
23031
22683
22701
22688
22503
22861
22824
22656
22908
22670
22593
22604
22973
22862
22653
22499
22622
22539
22669
22271
22700
22911
22542
22526
22597
22769
22369
22869
22836
22848
22760
22564
22761
22456
22396
22542
22209
22000
22088
21943
21985
21637
21815
21951
21745
21618
21789
21747
21527
21517
21760
21748
21626
21489
21314
21482
21520
21391
21874
21247
21390
21320
21361
21447
21373
21777
21545
21675
21481
21587
21451
21417
21573
21390
21477
21676
21726
21888
21607
21718
21982
21647
21423
21588
22072
21841
21780
21678
22062
21990
21866
22048
21887
21593
21872
21854
21698
21629
21970
21846
22061
21903
22033
22183
21939
21975
22104
22281
22124
22039
22105
22148
22133
22383
22351
22487
22318
22232
22208
22622
22028
22302
22608
22655
22698
22341
22360
22427
22740
22854
22591
22276
22651
22906
22422
22756
22847
22448
22964
23090
22637
22835
23037
22744
22746
22721
23012
22756
22456
22737
22684
22744
22652
22734
22612
22699
22788
22676
22581
22670
22607
22458
22696
22636
22539
22625
22638
22887
22973
22904
22816
23045
22781
23070
22804
23205
22969
22922
22789
22838
22817
22674
22546
22587
22703
22617
22618
22445
22334
22284
22525
22275
22283
22652
22315
21881
22259
22450
22270
22181
21983
22043
21813
21991
21940
22363
22167
21809
21825
22267
21704
21740
21740
22312
21560
21881
21710
21767
21809
21864
22371
22241
21772
22301
22105
22267
22148
22463
22311
22468
22305
22290
22476
22519
22778
22593
22533
22645
22965
22688
22454
22773
22947
22896
22789
22675
22978
22592
22810
23074
22856
23087
22767
23056
22688
23094
22825
22944
23120
22990
23349
23326
23367
23300
23310
23276
23101
23091
23087
23395
23368
23348
23457
23244
23542
23447
23386
23591
23262
23373
23704
23705
23499
23243
23659
23427
23346
23303
23284
23700
23348
23470
23704
23208
23621
23824
23829
23413
23451
23783
23282
23525
23352
23639
23531
23677
23610
23364
23430
23649
23368
23744
23581
23887
23632
23597
23597
23438
23661
23780
23487
23326
23823
23350
23857
23608
23723
23718
23510
23748
23382
23456
23418
23031
22959
23151
23172
22824
23196
23201
23002
22881
22807
22823
23022
22799
22792
22507
22682
22466
22678
22486
22770
22822
22631
22585
22624
22505
22731
22504
22486
22494
22994
22671
22938
22966
22932
22851
23060
22985
23046
22851
22693
22673
22722
22573
23181
22812
22944
22977
23020
23008
23214
23113
22918
22886
23004
22833
23147
23093
22761
22844
22898
23023
23187
23044
23355
23124
22849
23150
23225
23326
23025
23442
23015
23172
23334
22979
23363
23177
23386
23442
23442
23001
23100
23597
22926
22918
23387
23187
23073
22962
23392
23163
23368
23075
22901
23013
23445
23276
23490
23238
22929
23371
22934
22932
23281
23526
23186
22827
23214
22976
23273
23331
23076
22915
23416
23390
23306
23427
23010
23010
23292
23364
23390
23118
23407
23022
22847
23191
23459
22928
23358
23075
22777
22885
22858
22824
23104
23112
22962
23110
22883
22856
22739
22665
22640
22790
22881
22574
22706
22670
22194
22272
22377
22140
21950
21963
22087
22147
21813
22182
21901
21554
21609
21532
21346
21578
21622
21160
21233
21632
21527
21638
21407
21271
21514
21385
21344
21675
21192
21443
21311
21806
21683
21852
21429
21798
21732
21541
21994
21913
21759
21794
21787
21816
21712
21717
22149
21775
21652
22263
22101
21695
21941
22213
21927
22292
22264
22001
21858
22078
22186
22446
21956
22083
22005
22504
21987
22036
22549
22054
22313
22428
22123
22246
22125
22515
22424
22254
22256
22237
22330
22728
22660
22443
22610
22861
22495
22854
22497
22583
22842
22768
22757
22814
23044
22865
22569
22806
23150
23136
22869
22888
22610
22924
22945
23064
22611
22874
22898
23164
23072
22754
22852
23152
22985
23172
22993
23297
23192
22488
22820
23087
22858
22663
23161
23060
23228
22869
22614
22770
23154
22922
23180
22987
23049
22923
22547
22714
22427
22816
22552
22445
22380
22634
22341
22506
22088
22271
22063
22257
22017
22316
22094
22247
22050
21652
22180
21779
22033
21799
21800
21983
21644
21512
21514
21796
21498
21909
21399
21571
21580
21740
21891
21630
21851
21738
21888
22079
22034
22126
21919
21942
22069
22084
22062
22190
22339
22046
22356
22121
21852
22068
22085
22298
22429
22240
21949
22299
22241
22201
22574
22360
22532
22097
22352
22495
22403
22200
22238
22421
22532
22381
22501
22566
22377
22130
22570
22620
22630
22435
22787
22583
22692
22602
22866
22669
22620
22651
22843
22765
22729
22763
22471
22663
22779
22617
22612
23017
22783
22516
22781
22586
22822
22713
22796
22972
22829
22837
22890
23042
22491
23130
22579
22793
23065
22849
23115
22695
23142
23079
22648
22691
22604
23130
23179
22952
22948
23075
23284
23091
22964
22895
23138
23260
23031
23215
22874
22862
22945
23102
23103
22753
23082
22713
22388
22574
22534
22405
22736
22328
22497
22649
22165
22416
22201
21927
22109
21996
22065
22167
22304
21931
22048
22204
21940
21883
22214
22223
21990
22438
22048
22233
21888
22324
21805
21876
21998
22030
22018
22231
22317
21921
22375
22417
22543
22167
22413
22157
22558
22105
22389
22105
22440
22283
22514
22585
22487
22449
22499
22474
22330
22545
22852
22571
22469
22506
22452
22651
22816
22429
22794
22343
22340
22756
22800
22757
22644
22658
22890
22606
22491
22789
22440
22955
22974
22941
22574
22846
22714
22914
22970
22708
22655
23092
23029
22963
22745
22954
22787
22917
22925
22904
22986
23049
22880
23036
22960
23253
22986
22773
22976
22962
22915
22604
23059
23307
23095
23395
23167
22815
23101
23391
23349
23283
23123
23284
23279
23358
23214
23342
23273
23464
22894
23200
22962
23170
23362
23095
23285
22871
23058
22992
23088
23217
22972
22685
22776
23056
22719
22929
22834
22777
22677
22538
22154
22265
22704
22382
22454
22546
22609
22140
22137
22314
22304
22016
22059
22278
22145
21988
22061
22051
22342
22094
21942
22412
21888
21772
21947
21810
22212
21857
22258
22308
21964
22244
21972
22250
22491
22347
22534
22286
22273
22169
22103
22620
22250
22603
22626
22398
22573
22304
22549
22367
22396
22245
22353
22080
22515
22241
22520
22657
22361
22565
22381
22475
22838
22504
22662
22349
22425
22339
22416
22431
22573
22539
22890
22895
23061
22727
22829
22541
22597
23007
22914
22948
22955
22714
22721
22894
22739
22657
22704
22947
23033
22798
22892
23087
23180
22863
23216
22890
23039
22849
23100
22919
23053
22926
23088
22721
23081
23066
22763
22732
22798
23198
22999
23081
22753
22876
22644
22581
22761
23240
22785
22723
22898
23042
22784
23091
22951
22973
22842
22781
23017
22848
22480
22835
23120
22527
22462
22575
22701
22422
22292
22295
22567
22239
22460
22179
22309
21939
22067
22063
21824
21843
22151
21983
21805
21778
21905
21971
21736
21783
21860
21768
21617
21801
21845
21731
21765
21897
21804
21910
21733
21667
21808
21509
21934
21651
21766
22056
21771
21850
21714
22143
21824
22032
22080
21676
22262
21702
22184
22148
21992
22332
22029
22067
21990
22138
22233
22306
22137
22391
21933
22389
22190
22328
22074
22448
22261
22115
22242
22350
22230
22275
22297
22150
22391
22292
22176
22259
22450
22170
22491
22405
22539
22321
22031
22459
22549
22570
22352
22509
22136
22388
22097
22091
22201
22200
22370
22215
22624
22188
22442
22199
22658
22193
22473
22627
22473
22491
22468
22348
22451
22531
22141
22415
22586
22365
22562
22668
22881
22598
22469
22590
22544
22856
22470
22297
22511
22213
22386
22600
22689
22736
22487
22842
22541
22568
22666
22511
22266
22446
21967
22152
21881
21989
21943
22117
21958
22195
22048
21920
21645
22057
22106
21852
22028
21660
21723
21489
21647
21729
21555
21482
21500
21660
21511
21617
21558
21568
21592
21491
21688
21559
21193
21521
21227
21422
21667
21649
21498
21327
21613
21598
21371
21812
21245
21445
21926
21381
21761
21916
21510
21542
21710
22095
21559
21625
21790
22074
21680
21581
21700
22019
22190
21983
22044
21685
21932
21685
21857
21960
21682
22113
21921
21757
21679
21983
22297
21957
22131
21879
22098
21724
22144
22024
21909
22359
22009
22298
22281
21746
22051
22490
22232
22163
22263
22078
21906
22204
21969
22034
22235
22386
22531
22274
22583
22413
22161
22664
22695
22325
22545
22584
22268
22384
22299
22454
22335
22439
22402
22283
22389
22649
22580
22446
22273
22603
22680
22654
22757
22305
22763
22591
22439
22531
22488
22647
22402
22693
22528
22328
22469
22311
22368
22569
22479
22270
22160
22085
22309
21730
21898
21874
22085
22015
21666
22179
21589
21888
21653
21975
21871
21599
21609
21733
21896
21517
21853
21400
21647
21526
21590
21811
21410
21575
21734
21825
21442
21818
21498
21406
21616
21537
21572
21640
21813
21818
21616
21685
21544
21830
22017
21951
22157
22125
21615
21819
22004
22061
21959
21995
21702
21757
22240
22311
22097
21763
22325
22332
22418
22148
22310
22011
22063
22478
22188
22536
22396
21986
22504
22093
22153
22457
22402
22082
22420
22370
22268
22182
22370
22301
22120
22242
22610
22261
22472
22552
22371
22797
22653
22755
22454
22202
22469
22320
22590
22473
22778
22566
22323
22584
22254
22558
22489
22597
22577
22732
22944
22445
22487
22844
22953
22888
22973
22701
22885
22974
22813
22579
22652
22479
22575
22551
22783
22458
22842
22876
22742
22999
22750
22805
23030
22751
22957
22860
23067
22840
22720
22425
22723
22499
22557
22725
22515
22701
22252
22036
22039
22355
22059
22270
22056
22038
21907
22330
22001
21912
21796
21885
21761
21753
21672
22005
21797
22034
22175
21898
21801
21931
22100
21906
21814
22017
22073
21699
21697
21742
21980
22271
21987
21590
22203
22426
22249
21647
21867
22254
22378
21800
22173
22289
21974
21874
21986
22118
21935
21960
21880
22045
22176
22272
22465
22265
22300
21988
21819
22290
22205
22377
22211
22340
21928
22363
21955
21847
22093
22498
22178
22363
22403
22308
22055
22474
22122
21962
22167
22256
22534
22056
22320
22246
22416
22577
22313
22213
22351
22299
22385
22515
22458
22437
22296
22423
22396
22243
22332
22503
22381
22189
22591
22297
22258
22454
22215
22262
22594
22603
22501
22417
22433
22487
22642
22549
22503
22523
22565
22569
22608
22653
22332
22583
22307
22597
22507
22730
22618
22705
22545
22725
22662
22546
22286
22241
22514
22275
22401
22446
22044
21892
21977
22162
21927
22056
21921
22053
21685
21765
21420
21594
21482
21827
21586
21518
21782
21692
21418
21397
21844
21239
21433
21651
21583
21768
21535
21500
21504
21669
21734
21436
21328
21552
21743
21477
21292
21426
21841
21406
21839
21764
21773
21675
21969
22050
21982
21660
21876
21749
22031
21925
21952
22169
21848
21843
22155
22009
21750
21891
21729
22050
21746
22020
22236
22061
21894
22087
22243
22141
22292
21994
22094
21976
22082
22481
22196
22312
22275
22437
22390
22062
22056
22386
22492
22248
22437
22454
22179
22636
22669
22294
22337
22333
22210
22370
22417
22391
22425
22578
22505
22499
22419
22489
22458
22483
22483
22446
22554
22626
22571
22711
22530
22578
22694
22267
22332
22263
22390
22517
22597
22459
22384
22638
22580
22514
22484
22822
22892
23025
22773
22901
22583
22947
22805
22934
22482
22819
22384
22935
22682
22217
22519
22417
22243
22126
22154
22066
22024
21985
21917
22001
22091
21962
22090
21820
21473
21678
21425
21706
21552
21540
21944
21363
21347
21477
21334
21290
21516
21837
21875
21618
21595
21525
21946
21771
21535
21814
21831
21736
21480
21727
21668
21873
21517
21778
21817
21682
21746
21836
21459
21812
21600
22040
21448
21666
22318
22075
22126
21976
21969
21756
21806
22298
22015
22171
21953
22116
22035
21932
21900
21960
22101
21846
22134
22221
21777
22036
22123
22207
21930
22065
22414
22238
21848
22414
22526
22044
22457
22019
22100
22518
22107
22176
22309
22280
22241
22357
22210
22008
22389
22226
22289
22428
22250
22561
22445
22396
22610
22394
22519
22460
22249
22360
22567
22441
22941
22506
22344
22328
22424
22722
22786
22434
22648
22643
22423
22589
22834
22497
22524
22474
22642
22534
22785
22603
22931
22794
22808
22809
22829
22609
22739
22988
22553
22944
22510
22530
22649
22387
22670
22522
22159
22177
22396
22177
22249
22051
22244
21794
21935
22002
21901
22214
21867
21809
22019
22136
22189
21947
21721
21749
22059
21959
21851
21777
21826
21630
21904
21576
21727
21558
21764
21413
21674
21378
21642
21842
21790
21543
21871
21749
21585
21891
21995
22248
21923
22038
21786
22210
21642
22112
22189
22053
21818
22277
22370
21954
22238
22172
22265
22275
22392
22075
22430
22063
22117
22464
22088
22000
22137
22576
22059
21866
22173
22333
22075
22530
22130
22486
22170
22096
22520
22396
22383
22457
22473
22360
22512
22351
22627
22675
22246
22314
22739
22159
22460
22465
22546
22548
22564
22582
22458
22643
22633
22818
22787
22424
22691
22710
22495
22861
22951
22664
22828
22516
22642
22749
22304
22816
22421
22363
22878
22694
22621
22833
22456
22644
22710
22511
22793
22567
22519
22667
22667
23011
22877
22653
22680
22457
22656
22482
22360
22606
22641
22492
22618
22461
22634
22349
22203
22223
22309
21943
21869
22184
22057
21816
21653
21795
21759
21725
21832
21684
21517
21708
21605
21524
21487
21405
21395
21786
21477
21601
21796
21414
21810
21491
21511
21451
21582
21520
21523
21452
21626
21467
21456
21448
21554
21514
21545
21801
21720
21335
21485
21687
21978
21450
21888
21633
21928
21999
22042
21642
21742
21660
21697
21864
21612
21773
21815
22210
21632
21665
21938
22158
21960
22051
21730
22162
22175
22275
21931
21885
22071
21783
22167
21631
21920
22176
22259
21902
22287
22006
22143
22126
22484
22247
22239
22138
21959
22350
21890
22133
22041
22277
22549
22339
22091
22357
22555
22558
22309
22359
22450
22616
22194
22667
22584
22324
22192
22337
22707
22740
22274
22571
22675
22565
22428
22380
22823
22351
22279
22657
22850
22741
22840
22476
22484
22801
22591
22464
22563
22777
22545
22748
22857
22290
22596
22462
22661
22432
22541
22562
22262
22462
22295
22246
22011
22184
22034
22027
21997
22015
22342
22226
21727
22256
21740
21886
21984
22207
21738
21720
21792
22219
22220
21841
21771
22296
21856
21916
21838
22086
21867
21741
22085
21912
22155
21776
21782
21980
22157
21954
22080
21838
22053
21995
22011
22040
21927
22275
22266
22085
22060
22187
22349
22369
22137
22463
22561
22164
22477
22664
22570
22299
22188
22299
22511
22716
22667
22572
22525
22383
22418
22498
22520
22353
22885
22598
22279
22376
22441
22460
22404
22787
22590
22667
22719
22766
22764
22606
22458
22967
22443
22724
22900
22583
22720
22944
22945
22700
22505
22632
22796
22587
22430
22750
22531
22541
22711
22676
22801
22974
22812
23109
23134
22476
22927
22824
23099
22712
23079
22980
22635
23239
23167
22634
23213
23166
22880
23076
23289
23265
23076
23235
23310
23037
23166
22886
22784
23211
22963
22966
23141
23336
23258
23423
23016
22921
23300
23357
23201
23080
22961
22950
23141
23323
23126
22796
22683
22900
22493
22505
22468
22559
22353
22655
22410
22750
22387
22292
22581
22514
22114
22252
22601
22119
22603
22598
22536
22357
22519
22143
22625
22641
22532
22647
22208
22239
22380
22321
22431
22222
22228
22339
22114
22244
22206
22402
22628
22558
22890
22817
22525
22749
22461
22616
22724
23019
22635
22619
22641
23051
22539
22863
22547
22946
22988
22994
22619
23148
22779
22850
22884
23000
22681
22705
23173
23043
22610
22697
22822
23082
22841
23169
23187
22754
23078
22940
23061
22776
23052
23447
23297
22862
23322
23514
23149
23035
23142
23019
23298
22871
23335
23330
23335
23205
23371
23229
23421
23395
23214
23085
23471
23476
23307
23594
23429
23637
23200
23640
23302
23196
23440
23735
23282
23765
23596
23361
23331
23450
23618
23457
23728
23442
23601
23370
23349
23680
23415
23549
23475
23735
23263
23804
23374
23642
23379
23521
23818
23313
23513
23310
23631
23265
23523
23704
23649
23631
23142
23472
23007
23066
23183
23042
22974
22738
22777
22790
22853
22727
22900
22900
22467
22936
22925
22471
22998
22488
22473
22683
22246
22851
22886
22430
22637
22818
22901
22279
22651
22638
22461
22893
22635
22925
22458
22503
22773
22993
22700
22666
22674
23047
22918
23013
22608
22996
22863
22888
22991
23003
22919
22808
23228
22743
22966
23322
23117
22767
22958
22797
23028
23035
23061
22864
23090
23135
23070
23435
23352
23411
23089
22940
23156
22958
23107
23539
23209
23132
23576
23213
23181
23115
23345
23241
23286
23120
23488
23210
23452
23707
23241
23718
23384
23430
23304
23447
23679
23439
23283
23513
23347
23647
23256
23645
23524
23883
23352
23470
23515
23636
23373
23904
23554
23500
23793
23460
23885
23466
23867
24024
23835
24005
23586
23953
23951
23550
24071
24108
23652
23929
23753
23974
23897
24073
23721
24195
24109
24162
24207
23695
23525
24132
23982
24146
23704
24070
23873
23665
23824
23786
23392
23440
23295
23082
23407
23462
23246
22940
23148
23125
23277
22893
22615
22924
22833
22888
22799
22803
22620
22630
23051
22778
22776
22492
22499
23027
22708
22450
22713
22959
22441
22893
22764
22427
22515
22839
22621
22448
22828
22344
22709
23077
22907
22869
22970
22969
22839
23011
22640
23214
22869
22794
23297
22746
22900
23300
23067
22977
23016
23452
23060
23095
23113
23501
23066
23388
23129
22864
23334
23277
23273
23311
23390
23307
23241
23330
23358
23419
23734
23495
23071
23606
23536
23296
23153
23371
23767
23539
23258
23682
23659
23276
23441
23549
23857
23688
23573
23658
23831
23469
23830
23805
23524
23894
23878
23985
24195
24010
24253
24106
23889
24112
24283
24256
24046
24360
24259
24032
24132
24110
24274
24556
24166
24252
24352
24228
24201
24340
24297
24456
24690
24142
24247
24594
24462
24536
24720
24565
24748
24419
24654
24659
24612
24318
24193
24526
24748
24406
24739
24716
24358
24726
24271
24121
24303
24301
24195
23889
23941
24006
23833
23980
23607
23543
23839
23680
23607
23438
23233
23526
23386
23563
23083
23103
22874
23163
23230
23408
23098
23398
23680
23515
23563
23238
23474
23188
23508
23631
23159
23481
23392
23200
23410
23419
23693
23250
23364
23487
23718
23512
23336
23381
23367
23779
23463
23442
23280
23648
23374
23594
23483
23639
23357
23277
23401
23126
23241
23652
23415
23114
23463
23303
23226
22935
23205
23058
23321
23085
23560
23150
23011
23075
23237
23087
23356
23472
23006
23254
23204
23539
23543
23328
22997
23647
23457
23295
23253
23229
23518
23299
23620
23684
23740
23656
23675
23742
23858
23672
23994
23720
23958
23816
23524
23673
23623
23583
23714
23530
23832
23731
23914
23903
23827
24193
23922
24016
23860
24162
24130
24174
24038
24297
24167
23948
24113
23860
24119
24177
24404
24330
23867
23955
24025
24281
24176
24118
24340
23832
24337
24278
24456
23808
23693
23916
24193
23469
23933
23685
23768
23615
23444
23127
23298
22960
23416
23079
23364
23161
22866
23121
23122
22803
22653
22954
22791
22627
22611
22882
22334
22839
22355
22688
22508
22554
22429
22597
22343
22444
22263
22531
22222
22107
22161
21903
21995
21880
22342
21835
22001
22141
22424
22425
22071
22129
22330
22223
22495
22482
22394
22204
22156
22108
21880
22210
22131
21901
22080
22373
22393
22467
22367
22477
22135
22647
22458
22717
22314
22695
22303
22844
22741
22612
22777
22511
22757
22722
22930
22633
22275
22793
22914
22685
22588
22675
23190
22963
22748
22797
22949
23152
22931
23138
23013
23163
23097
22883
22808
22900
23026
22876
22913
22981
23289
23024
22918
23111
23027
23215
22828
23079
23120
22782
23115
22954
22859
23337
23341
23428
23653
23244
23406
23509
23545
23500
23157
23615
23671
23726
23561
23589
23172
23372
23350
23427
23139
23374
23274
23481
23555
23378
23234
23414
23425
23363
23372
23113
23109
22990
23018
22662
22770
23027
22569
22889
22611
22565
22424
22281
22500
22705
22372
22506
22291
22072
22510
22262
22049
22309
21763
22298
22033
21956
22300
22007
21937
22042
22199
22269
22427
21917
22130
22102
22387
22056
22072
22458
22298
22236
22446
22124
22566
22840
22428
22431
22554
22386
22593
22753
22764
22697
22640
22643
22608
22760
22900
23207
23244
22865
22905
23349
23120
23070
23427
23171
23353
23753
23447
23604
23537
23414
23561
23558
23654
24027
23779
23715
23647
23808
23915
23803
23906
23842
23813
23916
23965
23967
23982
24087
24053
24118
24124
24237
24430
24379
24162
24478
24301
24188
24519
24643
24615
24511
24626
24597
24543
24544
24594
24513
24535
24535
24798
24602
24377
24613
24607
24434
24766
24629
24694
24703
24905
24808
25160
24721
24344
24865
24725
24679
24683
24727
24707
24960
25029
24838
24820
25033
25068
24801
24634
24887
24879
24623
24439
24364
24379
24131
24260
24401
24408
23786
24268
23943
23986
24161
23544
23780
23635
23955
23952
23605
23917
23890
23545
23702
23741
23446
23463
23580
23385
23849
23540
23516
23411
23602
23548
23537
23750
23592
23916
23659
23741
23611
23706
23648
23655
23799
23778
23658
23785
23697
23706
23555
23781
23826
23727
23978
23693
23679
23611
23780
23798
23725
23961
23783
23743
23555
23936
23970
23627
23681
23538
24071
24190
23831
24250
23999
24137
24380
24267
24565
24546
24284
24512
24432
24441
24157
24488
24578
24734
24890
24523
24664
24525
24424
24920
24587
24823
24622
24844
24812
24561
24578
24779
24490
24682
24777
24562
25098
24790
25143
24809
25088
24881
25146
24712
24693
25019
25052
25043
24783
25165
24920
25024
24727
25202
25027
24833
24815
25110
24856
24653
24871
24991
24900
25069
24877
24993
25047
24547
25076
24730
24341
24638
24384
24199
24616
24087
24189
23976
24135
24075
23900
23688
23438
23490
23806
23428
23439
23424
23657
23533
23688
23472
23583
23527
23601
23340
23525
23135
23332
23329
23262
23119
23000
23262
23142
23282
23315
23190
23277
23121
23301
23037
23332
23677
23407
23003
23361
23269
23581
23156
23318
23760
23656
23368
23364
23772
23322
23384
23699
23534
23801
23505
23900
23417
23794
23668
23645
23797
23300
23767
23740
23682
23271
23251
23693
23355
23183
23331
23191
23465
23312
23260
23636
23116
23658
23701
23281
23330
23551
23562
23747
23394
23626
23747
23843
23682
23967
23403
23807
23495
23797
23787
23638
23789
23664
23667
23645
23573
23720
23667
23597
23500
23507
23979
24031
24036
23627
24121
24045
23874
23722
23937
23703
24135
23774
23802
24261
23888
24093
23847
23647
23838
23790
23918
24263
23742
24201
24378
24111
23794
24204
24225
23963
23897
23890
24341
23912
24051
23817
23867
23413
23560
23480
23604
23575
23246
23422
23299
23245
23140
22942
22972
22914
23000
23061
22774
22810
22716
22895
22753
22959
23124
22600
22667
22881
22669
22673
22358
22550
22942
22717
22351
22603
22474
22687
22647
22426
22711
22388
22683
22993
22639
22999
22678
22940
22840
22742
23223
22950
23172
22956
23123
22973
22714
23155
23263
22731
23308
23172
23067
22807
22677
22776
23241
23254
23037
23328
23115
22906
23081
22867
23002
22928
23290
23303
23329
23140
23276
22965
23361
23328
23365
23168
23365
23485
23133
23146
23445
23234
23526
23330
23354
23293
23296
23692
23415
23223
23572
23338
23384
23578
23429
23710
23379
23651
23629
23383
23570
23589
23664
23245
23802
23250
23111
23305
23284
23497
23324
23409
23287
23773
23596
23515
23415
23771
23874
23482
23907
23624
23468
23436
23778
23491
23833
23741
23748
23467
23730
23644
24011
23797
23574
23785
24026
23757
23708
23760
23255
23446
23369
23574
23516
23543
23075
23057
22990
22943
23230
22707
22847
23166
22909
22529
23058
22823
23054
23049
22999
22606
22838
22708
22447
22502
22563
22734
22871
22523
22525
22487
22425
22724
22830
22832
22450
22589
22342
22419
22520
22507
22612
22735
22903
23068
22649
22630
23014
22525
23036
22737
22950
22925
23047
23091
22965
22794
22908
23181
23301
22854
23304
22775
22929
23247
22886
23225
22851
23197
23390
22942
22880
23245
23107
22839
23190
23067
22913
23400
23135
22960
23331
23067
23083
23388
23109
23269
23119
23456
23503
23226
23680
23292
23166
23381
23504
23561
23307
23639
23491
23427
23181
23719
23213
23181
23383
23699
23185
23257
23596
23220
23645
23307
23455
23834
23267
23561
23531
23506
23443
23596
23407
23462
23108
23593
23518
23812
23406
23393
23921
23341
23487
23693
23645
23355
23639
23661
23370
23263
23574
23285
23533
23619
23532
23637
23074
23271
23074
23048
22856
23034
23055
22789
23100
22982
22738
22873
22727
22696
22945
22507
22632
22600
22655
22512
22672
22478
22406
22454
22395
22546
22490
22219
22331
22517
21995
22154
22233
22031
22417
22108
22068
22031
22304
22366
21955
22508
21936
22315
22659
22536
22302
22210
22312
22511
22466
22395
22484
22395
22443
22464
22698
22676
22647
22659
22604
22562
22503
22601
22411
22630
22823
22565
22804
22718
22600
22382
22823
22601
22483
22472
22354
22642
22722
22806
22685
22798
22633
22964
22737
22855
22955
22661
22658
22741
22910
22985
23147
22982
22686
22870
23186
22940
22756
22960
23212
23047
23188
23054
23019
22872
22951
23184
22994
22729
22967
23336
22966
23367
23106
22845
23184
23251
23040
23499
23067
23378
23135
23464
23284
23469
23300
23398
23451
23291
23619
23560
23362
23214
22962
23221
23611
23404
23357
23088
23601
23677
23417
23421
23365
23487
23480
22881
23030
23191
22947
23179
23073
22598
22784
22839
22584
22938
22866
22560
22818
22776
22371
22629
22367
22219
22244
22262
22466
22557
22542
22652
22290
22538
22382
22032
22127
21894
22313
22279
22514
22437
22375
22467
22108
22246
22481
22039
21972
22373
22314
22412
22572
22198
22235
22296
22144
22532
22439
22286
22355
22367
22698
22275
22415
22385
22586
22206
22539
22875
22386
22399
22433
22593
22414
22264
22564
22367
22423
22394
22611
22566
22448
22594
22501
22688
22538
22910
22986
22865
22903
22635
22730
22963
22946
22604
22922
22668
22993
23172
22836
23197
23152
22696
22771
22854
22837
22802
22697
22969
22737
23122
22892
23101
22670
23004
22746
22765
23119
22946
22992
23130
22680
23059
23034
23017
22910
22816
22809
23128
23306
23078
23154
23152
22838
23230
22851
22754
22771
23052
23372
23126
23145
23083
22996
23100
23132
23084
23161
23048
23022
22938
23050
23135
22948
22629
23195
22994
22476
22510
22377
22558
22378
22145
22175
22395
22498
22144
22208
22119
22310
22289
22262
22090
21868
22075
22071
22168
21923
21773
22145
21834
21713
21803
21756
22077
21796
21978
21984
22156
21893
22205
21969
21903
21748
22007
21891
22273
22208
21797
22182
21930
22216
22270
21926
22255
22061
22285
22497
22548
22413
22330
22160
22592
22538
22158
22521
22539
22435
22279
22387
22507
22492
22350
22594
22612
22544
22454
22595
22470
22320
22311
22442
22653
22305
22733
22279
22727
22821
22411
22271
22633
22931
22972
22607
22949
22554
22536
22797
22599
22960
23068
22818
22922
22965
22614
22958
22798
23082
23125
22779
22966
23175
22935
22798
23050
22873
22990
23262
22725
23017
23094
23176
23242
23132
23173
23265
22811
22991
23394
23039
22930
23062
23227
23146
22708
22923
23407
22893
23206
23374
23168
23378
22991
23012
23275
23401
23299
23190
23391
22898
23198
23501
23026
23174
23405
23108
23362
23393
23391
22887
23191
23142
23143
22609
22498
22826
23061
22730
22617
22495
22724
22352
22475
22430
22564
22144
22503
22363
22271
22058
22340
22480
22367
22349
22209
22494
22597
22192
22529
22132
22394
22718
22486
22553
22333
22247
22420
22200
22022
22608
22747
22610
22625
22734
22477
22418
22523
22679
22613
22663
22715
22648
22617
22507
22870
22536
22555
22863
22558
22533
22896
22727
23044
22831
22790
22703
22537
22644
22938
22723
22793
22768
22636
22999
22936
22913
23118
22774
22754
22864
22993
23019
22762
22583
23046
22670
22831
23058
22965
23018
22852
22890
23241
22985
23122
22932
23260
22923
23121
23007
23134
22863
22682
22775
23011
22728
22649
23107
22980
22695
22814
23009
22646
22855
22743
22998
22752
22552
23052
22645
22909
23137
23016
22987
22995
23011
23083
22782
22730
22849
22930
23065
23173
22822
22989
22882
22768
22758
22755
22549
22557
22555
22563
22692
22442
22556
22327
22011
22128
22507
22067
22340
22140
22111
22184
21638
21967
21820
21984
21901
21903
21813
21409
21786
21496
21532
22026
21905
21780
22007
21656
21524
21863
21866
21836
21832
21526
21834
21587
21623
21847
21930
21615
22008
21550
21969
22230
22053
22180
21846
21940
22048
21920
21972
22049
21773
22143
21835
21841
21792
22148
21982
22069
21723
22043
21932
21883
22105
22040
22216
22199
22145
22016
22112
22283
22227
22062
22117
22197
22193
22018
22328
22581
22423
22725
22236
22317
22412
22495
22397
22088
22379
22512
22244
22609
22324
22471
22237
22670
22841
22507
22815
22593
22277
22380
22354
22541
22447
22305
22512
22355
22658
22311
22526
22603
22872
22840
22647
22595
22890
22992
22585
22806
22828
22956
22885
22716
22832
22933
22575
22479
22538
22922
22536
22969
22748
22793
22834
22863
22738
22923
22883
22686
22752
22805
22667
22878
22552
22835
22588
22193
22702
22544
22449
22668
22423
21977
22011
22352
21900
22372
22040
22225
22378
22221
22083
21682
21734
21789
21747
22048
21578
21939
21901
21694
21771
21583
21530
21797
21559
21743
21644
21786
21506
21776
21646
21402
21655
21391
21349
21646
21784
21691
21786
21720
21636
21810
21729
21857
21691
21883
21812
21728
21909
21801
21949
21656
21856
21908
21718
21859
21818
21899
21825
21832
21724
22006
22066
22106
22296
22055
22126
21988
22290
21852
22061
21948
22372
22169
21860
21958
21960
22397
22173
22003
22152
22151
22230
22452
22120
22230
22267
22163
22209
22369
22574
22351
22094
22369
22085
22543
22121
22271
22155
22575
22266
22475
22226
22362
22195
22296
22319
22290
22464
22723
22410
22563
22759
22948
22924
22741
22464
22491
22799
22782
22587
22920
22386
22656
22853
22867
22980
22872
22443
22416
22283
22653
22555
22485
22459
22623
22277
22345
22284
22244
22272
22282
22077
21909
22265
21725
21911
21733
22112
22103
22071
21681
21491
21834
21617
21719
21999
21803
22048
22023
21564
21631
21807
21627
21480
21894
21582
21502
21683
21934
21646
21953
21787
21635
21773
21931
21763
21801
22106
22003
22141
22314
22230
21886
22331
22273
22295
22357
22325
22054
21775
22253
22105
22331
22066
22157
22133
22258
22308
22114
22107
22256
22133
22599
22462
22204
22131
22063
22554
22522
22588
22378
22456
22146
22608
22715
22269
22760
22721
22544
22300
22613
22400
22694
22574
22615
22484
22793
22796
22932
22766
22942
22731
22782
22730
22494
22697
23184
22655
23143
22760
23094
22680
22769
22719
22875
23162
22924
23191
22860
23178
23000
23042
23239
22954
22945
23190
23145
22801
23072
23046
22987
23019
23135
23083
23005
23091
23077
23016
23087
22992
23145
22990
22986
22908
22982
22925
22702
23122
22881
23057
22717
22460
22630
22458
22524
22760
22657
22586
22273
22410
22168
22083
22178
22182
22136
22200
21954
21818
21849
21846
21836
21829
21895
22159
22112
21695
21859
22149
21787
22003
21947
22159
21633
22002
22034
21746
21645
22106
22129
21796
21839
21994
22059
21880
21883
21871
21764
22275
22216
21963
21958
21909
22142
22109
22111
22126
22104
22422
22170
22146
22136
22192
22101
21975
22174
22292
22158
22028
22176
22157
22056
22129
22468
22352
22472
21911
22184
21979
22220
22445
22520
21953
22037
22264
22085
22141
22158
22532
22240
22467
21982
22454
22228
22457
22557
22432
22706
22496
22402
22684
22597
22434
22346
22718
22399
22524
22862
22583
22759
22557
22625
22601
22594
22614
22527
22620
22555
22594
22758
22474
22586
22804
22576
22317
22660
22925
22583
22448
22486
22751
22443
22850
22709
22708
22671
22633
22535
22715
22332
22338
22188
22162
22182
22322
22071
21855
21683
21996
22000
21653
21786
22030
21801
21809
21680
21787
21622
21396
21490
21253
21381
21156
21486
21279
21282
21244
21581
21295
21256
21338
21501
21482
21121
21549
21733
21723
21398
21390
21512
21547
21732
21347
21340
21838
21398
21466
21522
21366
21851
21690
21900
21690
21684
22035
21580
21820
21601
21954
21634
21892
21650
21910
21791
21874
21697
21981
21931
22046
21854
22196
22098
22186
21811
21751
22009
22147
22223
21934
22285
22479
21998
22298
22062
22507
22522
22410
22136
22365
22236
22373
22382
22347
22046
22567
22707
22441
22084
22621
22382
22635
22461
22645
22608
22456
22592
22227
22651
22339
22509
22356
22676
22416
22497
22695
22637
22245
22803
22625
22815
22507
22641
22827
22797
22675
22728
22475
22583
22552
22591
22932
22788
22561
22726
22969
22808
22568
22710
22949
22668
22359
22487
22596
22603
22819
22206
22470
22520
22300
22352
21992
22246
22025
21683
21991
22215
22126
22041
21616
22085
21711
21918
21469
21803
21766
21158
21497
21895
21389
21681
21478
21337
21297
21542
21425
21142
21279
21126
21125
21086
21183
21224
21251
21260
21296
21543
21443
21488
21448
21437
21514
21501
21534
21564
21429
21609
21490
21663
21932
21795
21464
21895
21579
21586
21574
22064
21567
21844
21724
21940
21838
21745
21570
21846
21609
21759
21619
21617
21715
21843
21972
21724
21852
21893
22192
21743
22181
22146
22068
21988
22001
22112
21771
22089
22003
22309
21988
22121
22558
22363
22288
22422
22204
22009
22295
22562
22233
22135
22472
22069
22135
22093
22183
22340
22232
22256
22377
22740
22298
22236
22326
22608
22296
22518
22686
22503
22363
22753
22709
22792
22915
22518
22630
22387
22423
22469
22626
22635
22586
22996
22882
22386
22700
22393
22655
22450
22427
22638
22325
22172
22130
22196
22377
22253
22206
21858
22222
22148
22294
22168
21900
22110
22153
21642
22080
21913
21726
21633
21542
21524
21616
21985
21724
21694
21856
21875
21498
21914
21497
22032
21723
21564
21666
21491
21494
21594
21413
21615
22007
21564
22032
22015
21696
21954
21703
21925
21798
22160
21788
21714
22108
22065
21956
22209
21797
21592
22049
22300
21798
21851
21864
22185
22053
21835
22366
21921
22146
21893
21948
22361
21863
22332
22414
22351
22352
22138
22404
22194
22589
22324
22377
22534
22158
22189
22549
22642
22374
22515
22559
22518
22649
22688
22129
22445
22206
22725
22257
22420
22795
22460
22757
22393
22696
22361
22606
22567
22218
22245
22455
22237
22505
22310
22464
22319
22488
22292
22554
22725
22392
22493
22389
22403
22336
22538
22508
22213
22691
22427
22600
22289
22327
22504
22324
22593
22682
22465
22536
22554
22390
22077
22280
22438
22013
21866
22015
22084
21895
21703
21651
21858
21645
21641
21728
21350
21203
21445
21207
21054
21328
21048
21024
21002
20861
21144
20958
20945
20944
20840
20809
20806
21177
21167
20832
21139
20873
21004
21142
21078
21095
20777
21002
20884
21332
20890
21088
21384
21242
21212
21025
21401
21592
21301
21447
21233
21354
21408
21280
21570
21420
21479
21486
21173
21127
21338
21526
21295
21528
21837
21419
21503
21578
21828
21864
21403
21595
21813
21348
21837
21980
21684
21996
21769
21991
21929
21424
21654
21567
21892
21535
21971
21854
21595
21913
21777
21950
21750
22013
21942
21717
21984
21704
21979
21955
21775
21997
21575
21930
21739
21937
21894
21932
21960
22038
22019
21951
22056
22108
22073
22172
22210
22111
22147
21817
22037
22405
22413
22168
22186
22137
21887
22066
22138
22034
22028
22045
21868
21805
21973
22122
21997
21597
21306
21717
21532
21644
21823
21618
21260
21534
21581
21528
21427
21033
21255
21020
20969
21014
20979
20952
20545
20783
20479
20988
20367
20511
20281
20465
20722
20342
20479
20238
20190
20484
20374
20534
20507
20737
20519
20526
20131
20232
20090
20311
20215
20118
20167
20030
20225
20252
20221
20085
19883
19837
19953
19894
20103
20353
20391
20268
19968
19831
19845
19841
19752
19743
20054
20080
20170
19935
20129
20076
20139
20095
20162
20188
20241
20164
20074
20274
20430
20250
20216
20339
20093
20415
20322
20317
20460
20671
20471
20824
20939
20910
20579
20694
20763
20665
20633
20957
21213
20866
20790
21277
21263
20756
20938
21006
21372
21574
21226
21535
21280
21186
21217
21341
21676
21614
21511
21681
21603
21584
21698
21537
21715
21479
21698
21871
21871
21889
21793
21712
21849
21539
21896
21787
22121
21761
21942
21786
22328
21873
22429
22426
21874
22307
22181
22069
22367
22203
22000
22155
21883
21914
21826
21755
21631
22199
21895
21861
21579
21723
21496
21586
21533
21418
21516
21505
21477
21114
21179
21145
21047
21360
21398
21144
21122
21042
20873
20894
20993
20829
20770
20797
20842
20654
20634
20685
20604
20575
20552
20636
20606
20942
20598
20787
20474
20795
20698
20600
20614
20789
20723
20959
20723
20778
20792
20751
20810
20740
20927
20954
20998
20880
20883
20814
21073
20841
20784
20817
20726
20928
21004
21135
20858
20577
21103
20568
20881
20855
20961
20885
20883
20821
20705
20896
20985
20976
20858
20888
20957
20979
20962
20940
21052
21029
20962
21101
21137
21040
21140
21267
21289
21110
21054
20802
20819
21223
20922
20934
21153
20845
20902
20858
20961
21480
21012
20929
21110
21350
21102
21454
21278
21009
21154
21067
21239
21086
21124
21082
21062
20991
21183
20811
21129
21082
20983
20774
21342
20946
20984
21110
20757
20889
20832
20532
20796
20665
20346
20555
20384
20485
20408
20060
20263
20303
20152
20179
19900
20010
19713
20275
20133
19868
19878
20077
20033
20105
19861
19769
19882
19816
19711
20147
19530
19283
19800
19930
19753
19932
19799
20025
19647
19771
20136
19573
19774
19955
19886
19908
19907
20071
20038
20016
19942
19757
20011
19705
19976
19814
20069
20231
19907
20160
19797
19911
20102
19919
19974
19784
20314
19731
19712
20077
20292
19755
20061
20190
20003
19912
20443
20295
19846
20149
20112
20120
20046
20162
20111
20405
19959
20389
20121
20015
20181
20185
20373
20359
20205
20273
20437
20352
20152
20342
20395
20415
20180
20373
20466
20605
20415
20256
20758
20757
20648
20558
20660
20529
20468
20532
20890
20389
20865
20472
20686
20731
20564
20361
20899
20546
20650
20839
20721
20857
20538
20520
21011
20958
20867
20819
20878
20780
20284
20754
20388
20079
20294
20133
20157
20281
20050
20243
19985
20121
19938
19846
19812
19967
19623
19645
20082
19685
19405
19839
19946
19546
19535
19497
19486
19740
19661
19881
19640
19430
19894
19656
19452
19465
19472
19722
20009
19892
19837
19441
20083
20134
19966
19967
19837
19891
19683
19844
20142
19888
20229
19919
20260
20011
20270
20211
20093
19926
20065
19948
19985
20011
19941
20141
19801
20194
20054
20116
20151
20235
20236
20222
20222
20265
20245
20212
20302
20077
20292
20603
20505
20266
20435
20256
20560
20427
20335
20249
20480
20400
20372
20482
20441
20423
20419
20543
20443
20555
20705
20530
20560
20171
20480
20807
20659
20853
20535
20643
20569
20630
20710
20725
20464
20735
20684
20722
20872
20948
21168
21021
20832
20791
21020
20688
21041
21007
21038
20983
21008
20938
21228
21101
20787
21238
20735
21036
21122
20671
20733
20759
20509
20961
20492
20669
20607
20164
20251
20444
20351
20025
20266
20080
20037
20038
20075
20268
20024
20005
19976
20171
19922
19695
19888
19884
19909
19933
19801
19924
19897
19895
19991
19844
19730
19781
19726
19831
20108
19862
20191
20046
19896
19934
20176
20216
20137
20437
20144
20141
20153
20387
20480
20077
20320
20212
20601
20164
20297
20411
20324
20306
20447
20522
20044
20043
20453
20370
20426
20419
20218
20125
20547
20175
20340
20032
20269
20442
20481
20282
20050
20048
20297
20287
20427
20516
20625
20756
20362
20360
20568
20231
20547
21038
20820
20575
21034
21025
21007
20868
20991
20619
21079
20953
20791
21216
20839
21311
20887
21061
21220
21370
21142
21323
21248
21329
21323
21008
21320
21431
21481
21439
21508
21337
21527
21497
21256
21604
21326
21487
21849
21585
21732
21442
21503
21350
21624
21803
21452
21469
21904
21903
21334
21533
21566
21725
21380
21080
21388
21123
21232
21068
21063
20988
20921
20893
20882
20809
20640
20622
20730
20571
20322
20555
20248
20525
20450
20452
20535
20415
20374
20417
20487
20346
20433
20668
20477
20446
20436
20220
20420
20307
20409
20241
20333
20580
20368
20774
20383
20754
20571
20685
20917
20915
20754
20932
20918
20658
20744
20805
20801
20720
20867
20804
20390
20854
21053
20928
20838
20679
21122
20644
21087
20862
20908
20960
20931
20963
21135
20989
20817
21175
20863
21162
20906
21297
20908
21299
21461
21273
21290
21304
21441
21239
21139
21593
21585
21441
21185
21654
21107
21470
21633
21120
21654
21081
21435
21254
21254
21478
21500
21269
21486
21546
21263
21147
21360
21481
21382
21233
21540
21651
21768
21561
21719
21394
21875
21459
21703
21454
21352
21676
21505
21893
21698
21795
21358
21197
21291
21410
21237
21447
21112
21335
21108
21225
21450
20998
20849
20723
21143
20973
20537
20577
20430
20883
20875
20819
20340
20275
20437
20570
20467
20407
20640
20073
20159
20557
20131
20341
20134
20378
20546
20575
20543
20297
20505
20198
20336
20252
19951
20150
20107
20118
20284
20494
20255
20107
20335
20254
20019
20349
20244
20391
20208
20316
20583
20382
20365
20649
20557
20519
20603
20220
20697
20666
20675
20527
20466
20522
20691
20483
20553
20365
20482
20276
20380
20155
20363
20703
20358
20102
20354
20494
20616
20510
20460
20343
20059
20552
20175
20375
20228
20333
20186
20656
20331
20201
20476
20455
20022
20395
20538
20312
20295
20440
20636
20312
20605
20465
20556
20516
20486
20867
20403
20843
20570
20528
20671
20551
20648
20670
20607
20576
20770
20761
20937
20761
20525
20966
21025
20672
20994
21144
21044
20967
21005
21134
20491
21044
21362
20870
20791
21007
20827
20993
21062
20932
20984
21006
20599
20586
20272
20473
20319
20103
20378
19744
20139
19898
19942
19871
19891
20165
19898
19701
19742
19973
19574
19676
19718
19774
19710
19950
19741
19854
19704
19741
19639
19769
19699
19621
19694
19609
19684
19652
19642
19605
19953
19814
19435
19757
19789
19511
19900
19747
20091
20075
19530
19872
19939
19955
19955
20011
20043
20021
20003
20111
20064
20135
20087
20267
20125
20120
20399
20197
20165
20265
20421
20433
20186
20410
20176
20429
19980
20337
20390
20320
20366
20359
20369
20395
20377
20472
20354
20409
20388
20525
20504
20428
20380
20242
20788
20771
20609
20348
20554
20443
20562
20597
20526
20682
20630
20393
20578
20766
20707
20645
20821
20547
20556
20941
20565
21022
20772
20512
20735
21121
20683
21113
20775
20617
20755
20604
21005
21367
20779
20926
21078
21021
21314
21239
21428
21141
21047
21104
20971
21264
21152
21249
20865
21230
20985
20840
21277
20935
21046
20720
20961
20830
20689
20643
20543
20320
20545
20593
20159
20523
20275
20354
19860
19794
19805
19855
19657
19807
20041
19847
19503
19959
19763
19993
19439
20008
19684
19672
19809
19708
19918
19568
19895
19687
19949
20008
19973
19696
19771
20139
19922
20260
19962
20250
19902
20419
20478
20191
19999
20199
20424
20252
20425
20308
20068
20194
20314
20345
20370
20166
20164
20422
20488
20182
20531
20287
20584
20361
20534
20768
20598
20510
20516
20476
20283
20792
20457
20531
20565
20757
20908
20503
20675
20881
20883
20911
20760
20954
20894
20856
20878
21124
20933
21134
20930
20446
20678
20622
20738
20269
20510
20600
20624
20436
20781
20626
20620
20505
20621
20702
20616
20677
21114
21061
21357
20836
20804
21130
21055
21024
21151
20747
21120
21067
21252
21168
21215
21602
21081
21061
21557
21224
21588
20950
21552
21472
21426
21050
21410
21189
21255
21332
21386
21401
21560
21133
21277
21319
21061
21133
21306
20569
20555
20824
20989
20525
20622
20651
20709
20509
20369
20504
20408
20217
20390
20662
20510
20406
20515
20474
20556
20261
20588
20492
20555
20394
20652
20355
20184
20585
20634
20248
20549
20206
20283
20686
20529
20442
20850
20513
20480
20821
20489
20341
20582
20605
20797
21119
21038
20662
20874
20652
20829
20660
20778
21131
20879
20744
20620
20841
20776
21125
20863
21389
21105
20917
20921
21414
21436
21443
21061
21035
21037
21013
21190
21562
21201
21200
21471
21363
21398
21323
21720
21407
21112
21349
21554
21492
21291
21403
21462
21434
21446
21652
21622
21565
21469
21483
21482
21271
21548
21423
21731
21330
21546
21649
21572
21443
21863
21617
21865
21446
21783
21747
21493
21527
21872
21407
21526
21714
21740
21621
21629
21680
21474
21685
21510
21615
21956
21598
21486
21765
21359
21385
21564
21765
21542
21350
21422
21301
21234
21048
21139
21101
20748
20868
21093
20474
20656
20475
20572
20526
20412
20456
20432
20367
20260
20358
20352
20342
20289
20290
19982
20034
20043
20345
20255
20230
20136
20288
20012
20138
20501
20209
19888
20332
20497
20258
20130
20114
20665
20350
20458
20542
20112
20561
20438
20809
20760
20700
20734
20799
20426
20676
20413
20472
20448
20816
20650
20682
20519
20292
20532
20507
20610
20451
20410
20646
20337
20722
20683
20665
20381
20846
20407
20733
20405
20747
20622
20740
20518
20916
20861
21046
20928
20941
21143
20837
20694
20924
20745
21054
20999
21007
21029
21030
21037
20993
20963
21006
21003
20978
20999
21108
21115
21032
21074
21088
21130
21003
21039
20839
21108
20839
20992
21246
20892
21274
21302
21295
21273
21179
21192
21315
21224
21317
21317
21259
21185
21444
21246
21478
21131
21477
21061
21038
21024
21345
21269
21394
21163
21232
21292
20949
21122
21019
21050
20835
20774
20909
20727
20770
20567
20320
20295
20508
20564
20651
20375
20177
20304
20362
20238
20138
20224
20256
20086
20026
20319
20387
19791
20316
20439
20271
20013
20273
20188
19969
20154
20236
20152
19897
20154
20164
20268
20127
20290
20192
20029
20303
20554
20180
20113
20536
20236
20154
20184
20678
20499
20254
20602
20717
20156
20290
20556
20360
20517
20144
20478
20796
20666
20282
20654
20399
20655
20295
20406
20613
20561
20495
20698
20513
20699
20528
20593
20723
20777
20538
20727
20572
20657
20777
21058
20608
20386
20993
20541
20650
20972
20805
20840
20968
20715
21163
21125
20922
21131
21029
20805
21111
21170
21075
21028
21088
20982
21072
21109
21162
21057
21121
20935
21332
21201
21252
21320
21450
21243
21006
21331
21236
21395
21486
21110
21196
21485
21243
21275
21246
21275
21165
21329
21154
21347
21002
21328
21457
21261
21357
21356
20892
20795
21007
20883
20907
20832
20806
20723
20541
20545
20538
20450
20418
20384
20287
20284
20340
20279
20180
20295
19967
20136
19813
20187
19812
20078
19966
20115
20051
19999
20238
20271
20281
20491
20328
20361
20151
20271
19953
19904
20378
20055
19860
20134
20289
20206
20079
20249
20166
20185
20360
20404
20467
20111
20110
20279
20207
20350
20609
20504
20138
20171
20363
20647
20497
20182
20365
20842
20392
20117
20503
20371
20370
20576
20268
20417
20276
20547
20623
20614
20655
20716
20726
20758
20714
20828
20681
20818
20796
20953
20886
20599
20924
20991
21180
20741
20830
21336
20997
20865
20916
21151
20739
21207
20878
21184
21348
21205
21403
20803
21093
20994
20906
21410
21198
21156
21475
21228
21485
21385
21442
21326
21210
21491
21416
21329
21440
21285
21399
21303
21456
21598
21513
21302
21338
21641
21216
21511
21589
21379
21239
21496
21474
21643
21527
21606
21503
21711
21530
21467
21272
21033
21131
21424
21049
21086
20879
20925
20687
20695
20620
20596
20284
20528
20444
20387
20062
20225
20348
20060
20417
20142
20399
20191
20241
20197
20072
20206
20410
20449
20189
20060
20312
20611
20417
20563
20351
20304
20489
20372
20151
20724
20440
20416
20247
20247
20593
20563
20375
20350
20582
20632
20269
20776
20130
20354
20341
20394
20570
20879
20502
20628
20634
20330
20678
20758
20737
20748
20637
20894
20796
20811
20983
20568
20905
20643
20989
20987
21048
20694
20938
21048
21298
21080
21323
20868
21380
21269
20929
20891
20781
21053
21145
20977
21270
21351
21242
21492
20875
20834
20995
21106
20979
20923
21313
21056
20966
21232
20976
21153
20877
21107
21009
21245
20849
21078
20962
21092
20997
21061
21128
20815
20954
20902
21113
21345
21089
21269
21186
21037
21104
21109
21102
21076
21152
21140
21073
21090
21094
21033
20983
20944
20966
20795
20692
20850
20501
20556
20415
20427
20291
20260
20157
20208
20221
20071
20098
20124
20023
19986
19882
19846
20037
19885
19770
19955
19909
19802
19904
19794
19898
19951
19820
20110
19897
20012
19574
19766
19785
19944
19936
19822
19936
20104
19981
19996
20064
20190
20120
20102
20132
20490
20152
20092
20202
20216
20310
19839
20191
20073
20348
20134
20219
20492
20446
20213
20360
20305
20272
20539
20413
20428
20267
20219
20401
20235
20284
20548
20435
20598
20619
20805
20773
20421
20733
20385
20683
20457
20673
20548
20683
20685
20855
20709
20610
20596
20823
20500
20994
20648
21058
20662
20537
20793
21061
20820
20944
20851
20973
21035
20949
20754
20951
20873
20984
20782
21060
20610
20885
20990
20860
20863
21253
21252
21007
21109
20859
21119
20971
20926
21188
20986
21355
21025
21329
21165
20842
21136
21329
21108
21356
21296
20974
21346
21115
20932
21175
20956
20963
21153
20849
20644
20522
20794
20743
20300
20525
20414
20318
20201
20206
20508
20331
20152
19902
19954
20226
20435
20115
19901
20033
19806
20073
19702
20038
20425
19854
19820
20078
20044
19924
19999
19955
20192
20313
20108
20297
19855
20188
20191
20431
20075
20406
20209
20577
20128
20289
20298
20377
20544
20489
20403
20537
20614
20354
20349
20659
20801
20680
20594
20760
20250
20693
20725
20271
20585
20681
20702
20226
20410
20713
20824
20727
20437
20548
20632
20258
20750
20435
20527
20270
20674
20889
20631
20734
20625
20694
20962
20770
20767
20814
20812
20848
20760
20770
20668
21044
20669
20574
20845
20940
20989
20605
20862
20775
20643
20705
20911
20791
20642
20784
20683
21067
20781
20887
20929
21141
20814
20637
20725
21005
21017
20747
20538
21050
20767
20919
20983
21016
21012
21097
21112
21057
21058
21103
21126
21126
21157
21106
20967
21287
20905
20812
20897
21018
20843
20638
20631
20613
20560
20495
20434
20399
20111
20449
20342
20368
20385
19984
20464
19982
20288
19969
20238
20286
20282
19935
19936
20147
19888
19990
20184
19924
19818
20070
20002
20014
20022
19998
20057
20066
20173
20091
19738
19681
19825
19934
20349
20042
20139
20105
19899
20231
20136
20185
20152
20172
20229
20237
20344
19924
20387
20258
20444
20245
20315
20375
20291
20361
20448
20375
20297
20346
20412
20303
20342
20448
20396
20408
20395
20448
20498
20345
20528
20752
20582
20769
20680
20889
20704
20698
20742
20705
20747
20844
21063
20543
20991
20887
21098
20851
21059
20779
20737
20734
21098
21207
20739
21226
20987
20871
21050
20950
21123
20984
21120
21228
21253
21171
21297
21193
21247
21541
21129
21327
21288
21545
21464
21338
21708
21741
21758
21556
21585
21676
21512
21487
21411
21763
21506
21503
21625
21797
21553
21429
21500
21592
21493
21676
21426
21200
21326
21042
21075
21101
21329
20976
21061
20746
21056
20999
20895
20881
21112
20835
20628
20529
20861
20510
20538
20651
20503
20477
20614
20635
20820
20361
20532
20729
20436
20682
20264
20706
20436
20413
20391
20447
20440
20357
20555
20564
20535
20495
20649
20678
20513
20599
20755
20512
20480
20751
20740
20543
20684
20982
20744
20416
20583
20620
20803
20461
20866
20756
20957
20508
20871
20561
20544
20998
20940
21028
20933
20592
20927
20778
20721
20773
21209
20975
20585
20862
21195
21083
20730
21291
21031
20932
20849
20859
20755
21115
21021
20714
21302
21203
21146
20928
20806
20941
20844
20970
20889
20962
21287
20968
20979
20950
20932
20975
20922
20967
20911
21112
21003
20973
20937
20936
20978
20991
21001
20958
21002
20967
20995
20879
21056
20941
21106
21177
21134
20857
21049
20769
21397
21069
20995
21132
21075
21154
21311
20877
20711
20635
21113
20654
20934
20782
20637
20758
20575
20433
20287
20601
20125
20214
20137
19979
20104
20183
20072
20084
20125
19980
19842
20119
20033
19846
19944
20228
19928
19893
19847
19876
19976
20071
20173
20017
20094
20085
19964
19910
20034
20042
20035
20055
20097
20039
20126
20124
20132
20259
20179
20196
20189
20186
20212
20194
20290
20319
20249
20290
20329
20457
20570
20211
20497
20184
20210
20507
20349
20409
20221
20390
20494
20505
20260
20370
20642
20793
20451
20593
20478
20563
20330
20564
20642
20444
20706
20550
20337
20567
20582
20542
20627
20575
20555
20740
20588
20548
20787
20779
20490
20911
20920
20653
20664
20644
20899
20252
20889
20689
20457
20402
20916
20672
20547
20634
20946
20595
20552
20643
20675
20713
20534
20683
20556
20828
20921
20734
20842
20640
20889
20732
20953
20526
20790
20699
20962
20604
20939
20742
20715
20698
20929
20851
20599
20712
20405
20665
20752
20563
20355
20595
20394
20063
20214
20278
19721
20056
20156
20067
19854
19744
19972
19797
19842
20078
19954
20144
19804
20068
19776
19731
19860
19930
19810
19840
20084
19788
19823
19862
19721
19908
19831
19807
20066
19804
19799
19901
19988
19988
19879
19862
20091
20069
20023
20011
20308
20097
20222
20243
20091
20079
20151
20368
19927
19779
20256
19961
20207
19981
20280
20241
19954
20387
19978
20101
20258
20182
20287
20505
20119
20302
20489
20489
20239
20459
20355
20622
20539
20291
20473
20154
20496
20614
20613
20533
20724
20937
20400
20428
20478
20823
20981
20699
21077
21025
20669
21027
20650
20815
21173
20978
20661
20606
20704
20920
20695
20919
20825
21039
21038
20990
20926
21301
20955
21020
21088
21127
21171
21037
21296
21208
21206
21133
21240
21263
21196
21256
21286
21251
21228
21245
21362
21302
21253
21336
20885
21276
21149
21204
21138
21032
21007
20892
20916
20661
20812
20791
20673
20600
20734
20660
20698
20526
20643
20334
20135
20218
20067
20021
19945
20294
20272
20056
19896
20196
19997
20274
20011
20264
20378
19894
20407
20045
19932
20502
20330
20196
20095
20031
20384
20500
20453
20410
20584
20378
20240
20267
20561
20570
20400
20479
20570
20766
20560
20662
20639
20806
20465
20864
20516
20374
20628
20868
20614
20620
20485
20415
20512
20871
20820
20684
20776
20523
20919
20805
20736
20760
20837
20751
20732
20753
20817
20882
20738
20887
20853
20844
20852
20878
20935
21071
20720
20969
20756
20802
21027
20891
20607
20750
20965
20690
20865
20568
20808
20753
20798
20747
20779
20798
20663
20679
21084
20985
20466
21025
20595
20562
21092
20842
20777
21033
20749
20998
20780
20702
20806
20791
20834
20794
20890
20789
20795
20816
20815
20864
20590
20941
21130
20620
20479
20743
20461
20881
20359
20619
20768
20295
20063
20279
20552
20062
20193
20084
20225
19922
19804
20081
20146
19619
20090
20288
19644
19992
19872
19828
19777
19813
19887
19883
19824
19804
19758
19849
19782
19849
19796
19927
19797
19919
19878
20016
19969
20077
20040
20238
20039
20228
20166
19953
20198
20273
20376
20245
20340
20228
20097
20119
20520
20246
20479
20156
20337
20542
20274
20342
20383
20152
20245
20292
20290
20522
20443
20235
20255
20586
20611
20621
20293
20277
20622
20180
20585
20742
20583
20585
20230
20765
20558
20644
20643
20750
20391
20691
20989
20787
20764
20559
20473
20670
20637
20904
20834
20642
21036
20655
20872
21044
20636
20741
20872
20807
20680
20539
21053
20644
21074
20975
20713
20870
20852
20805
20634
20991
20782
20879
20915
20834
20853
20918
20699
21021
20368
20708
20802
20961
20825
20799
20979
20876
20864
20917
20866
20998
20937
20914
20930
20811
20770
20934
20639
20656
20447
20360
20384
20572
20466
20458
20086
20042
20014
20327
20032
20426
20223
20314
20348
20298
20226
19744
20163
19734
19874
20012
20040
20014
19970
19893
19957
20190
20034
19953
19960
20009
19617
19824
20181
20073
19833
19810
19691
19922
20372
20127
20236
20010
20224
20097
20343
20219
20316
20281
20380
20283
20457
20354
20522
20464
20336
20367
20518
20207
20326
20387
20398
20316
20339
20303
20346
20369
20363
20321
20296
20388
20471
20260
20370
20144
20218
20554
20220
20392
20330
20375
20398
20592
20577
20502
20488
20703
20629
20157
20801
20423
20227
20645
20777
20587
20755
20487
20922
20637
20705
20574
20544
20853
20531
20553
20687
20346
20668
20844
20751
20896
20466
20847
20884
20613
20801
20849
20814
20688
20810
21105
20870
20795
20753
20737
20645
20815
20689
20936
20877
20919
20546
20967
20682
20812
20778
20587
20610
20968
20567
20528
20562
20604
20504
20403
20393
20374
20306
20145
20261
20166
20121
20148
19898
20158
19992
19994
20095
19962
19831
19857
20122
19806
19747
19959
19920
19988
20178
19954
20204
19689
19803
19611
19925
19804
19898
20018
19978
20036
19974
20094
19945
20083
20074
20102
20064
20092
20201
20214
20031
20154
20071
20277
20119
20420
20089
20446
20173
20408
20131
20345
20434
20399
20083
20314
20346
20441
20349
20352
20410
20576
20399
20395
20523
20348
20580
20447
20147
20309
20102
20479
20516
20664
20525
20570
20577
20597
20511
20782
20602
20573
20650
20527
20707
20433
20618
20804
20781
20551
20701
20639
20517
20664
20945
20891
20553
20758
20724
20772
20695
20756
20855
20810
20774
20799
20880
20790
21097
21122
20845
20942
20799
20950
20948
21052
21026
20965
21076
20902
21000
21079
21023
20961
21123
21201
21105
20865
21096
21427
21054
21062
21127
21430
21086
20973
21285
20781
20872
20702
20816
21058
20641
20868
20482
20273
20421
20468
20329
20549
20151
20613
20392
20458
19982
20473
20124
20429
20186
19852
20057
20054
20088
19840
20120
20129
20032
20176
19872
19880
19758
19903
20041
19783
20038
20142
20038
19928
20078
19808
20059
20405
19810
20336
20024
20181
20015
20106
20232
20048
19835
20117
20448
20126
20341
20183
20567
20172
19816
20149
19986
20168
19805
20053
20365
20252
20052
19954
20210
19762
19878
19861
20148
20194
20215
20394
20289
20118
19997
20159
20144
20019
20293
19920
20316
20168
19957
20157
20328
20190
20348
19966
20035
20034
20065
20062
20065
20063
20107
20013
20108
20195
20090
20204
20122
20194
20146
20125
20200
20315
19958
20092
20155
20234
20283
20061
20245
20419
19808
20265
20493
20097
20028
20348
20359
20218
19912
20346
20074
20223
20026
20269
20378
20192
20263
20058
20150
20069
20062
19770
20115
19975
19671
19837
19447
19625
19824
19587
19667
19597
19660
19523
19460
19402
19401
19195
19324
19544
19405
19145
19515
19383
19207
19019
19280
19722
19414
19106
19453
19422
19298
19175
19152
19383
19296
19350
19656
19223
19291
19535
19494
19308
19320
19595
19583
19521
19524
19512
19602
19634
19638
19410
19741
19642
19816
19859
19919
19569
19899
19928
19406
19581
19920
19423
19481
19730
19545
19869
19696
19778
19618
19867
19485
19654
19480
19937
19614
20020
20000
20025
19693
19852
19815
19715
19700
19820
19743
19786
19747
19652
19596
19573
19791
19920
19360
19868
19564
19534
19967
19796
19819
19874
19668
19863
19826
19921
19893
19975
19990
19876
19944
19932
20042
