33588
33534
33405
33261
33198
33152
33032
32910
32871
32829
32704
32587
32556
32513
32392
32293
32279
32243
32134
32051
32034
31979
31855
31769
31744
31674
31544
31461
31434
31356
31231
31164
31137
31038
30896
30828
30800
30700
30563
30502
30471
30364
30234
30177
30135
30013
29877
29822
29777
29655
29532
29492
29452
29331
29220
29193
29151
29029
28923
28892
28838
28714
28620
28596
28531
28397
28303
28275
28206
28084
28015
27997
27918
27787
27719
27695
27600
27464
27403
27381
27283
27150
27090
27052
26937
26797
26733
26690
26580
26479
26485
26538
26567
26665
26917
27232
27526
27882
28364
28866
29312
29791
30348
30871
31307
31749
32226
32630
32929
33229
33548
33781
33925
34092
34280
34381
34414
34501
34625
34677
34690
34787
34938
35029
35093
35232
35398
35492
35570
35725
35893
35981
36058
36207
36349
36394
36425
36517
36579
36531
36469
36463
36416
36265
36115
36024
35898
35703
35549
35471
35360
35196
35088
35051
34977
34866
34829
34856
34825
34752
34755
34809
34791
34727
34730
34760
34707
34617
34594
34584
34489
34373
34331
34295
34180
34057
34010
33961
33828
33698
33646
33582
33435
33309
33267
33209
33072
32959
32917
32845
32708
32614
32590
32530
32417
32356
32352
32290
32172
32110
32094
32015
31895
31848
31840
31757
31634
31583
31562
31464
31340
31288
31253
31140
31015
30972
30938
30823
30702
30661
30623
30507
30400
30377
30339
30216
30104
30069
30014
29890
29798
29777
29719
29592
29506
29485
29420
29294
29218
29196
29117
28988
28924
28912
28834
28713
28661
28644
28551
28421
28367
28340
28235
28107
28056
28020
27905
27780
27737
27697
27579
27475
27476
27504
27493
27547
27744
27993
28228
28540
28976
29424
29829
30284
30814
31305
31722
32161
32632
33023
33324
33643
33975
34210
34360
34543
34742
34842
34880
34976
35094
35133
35141
35226
35340
35385
35423
35549
35696
35776
35856
36018
36182
36262
36331
36470
36591
36614
36629
36702
36735
36664
36588
36555
36467
36290
36143
36064
35945
35764
35637
35580
35483
35344
35275
35269
35208
35107
35083
35109
35065
34988
34993
35036
35003
34937
34940
34957
34891
34801
34781
34762
34658
34545
34505
34456
34320
34188
34133
34066
33915
33781
33730
33662
33521
33406
33362
33288
33146
33041
33007
32940
32820
32748
32732
32663
32543
32484
32472
32392
32267
32211
32196
32113
31995
31952
31941
31850
31728
31682
31657
31552
31429
31382
31346
31232
31117
31083
31047
30927
30811
30774
30721
30585
30467
30434
30386
30268
30179
30161
30108
29987
29905
29885
29816
29683
29602
29578
29501
29378
29322
29314
29234
29107
29052
29036
28944
28816
28766
28745
28650
28531
28493
28473
28373
28263
28235
28213
28106
27991
27953
27907
27777
27656
27618
27571
27449
27359
27367
27389
27388
27475
27695
27948
28204
28565
29039
29508
29949
30459
31027
31533
31979
32469
32977
33382
33705
34060
34410
34646
34810
35014
35215
35315
35380
35516
35668
35745
35815
35966
36126
36207
36289
36457
36625
36712
36811
36997
37171
37264
37370
37540
37670
37714
37777
37889
37939
37899
37878
37899
37849
37721
37627
37563
37417
37214
37076
36985
36831
36650
36560
36520
36416
36296
36263
36263
36191
36104
36102
36119
36058
35988
35997
36006
35934
35866
35873
35860
35755
35656
35631
35581
35447
35332
35289
35213
35063
34948
34898
34812
34667
34566
34522
34428
34279
34193
34159
34060
33916
33846
33820
33719
33578
33514
33486
33387
33263
33216
33189
33079
32948
32893
32850
32730
32605
32566
32528
32407
32290
32257
32215
32094
31987
31961
31913
31786
31681
31645
31574
31435
31337
31305
31235
31110
31033
31010
30932
30802
30735
30711
30617
30480
30420
30403
30309
30172
30106
30068
29953
29816
29757
29719
29605
29478
29430
29390
29270
29152
29123
29095
28986
28885
28863
28827
28710
28609
28584
28535
28409
28306
28266
28188
28043
27938
27897
27813
27673
27590
27570
27505
27415
27427
27535
27631
27752
28018
28393
28754
29128
29614
30157
30641
31109
31652
32197
32640
33042
33492
33908
34198
34441
34725
34964
35084
35186
35346
35475
35514
35571
35705
35820
35870
35958
36119
36249
36322
36445
36634
36777
36865
37006
37194
37314
37381
37508
37665
37732
37735
37788
37851
37808
37701
37639
37575
37417
37230
37116
37014
36834
36649
36554
36474
36326
36198
36171
36151
36063
36000
36029
36046
35984
35944
35980
35989
35925
35890
35914
35890
35799
35749
35757
35707
35595
35531
35505
35404
35257
35178
35140
35028
34877
34801
34760
34643
34498
34432
34391
34278
34150
34103
34072
33964
33854
33825
33797
33689
33587
33572
33547
33436
33343
33335
33307
33200
33114
33096
33042
32920
32835
32815
32756
32643
32580
32570
32504
32387
32328
32312
32223
32084
32017
31997
31906
31780
31733
31722
31635
31518
31473
31447
31344
31228
31195
31168
31056
30940
30904
30863
30738
30620
30588
30544
30415
30302
30271
30221
30096
29999
29975
29917
29786
29693
29663
29587
29450
29366
29344
29269
29151
29117
29167
29190
29222
29392
29666
29922
30195
30593
31062
31486
31906
32411
32927
33346
33732
34175
34595
34897
35161
35468
35730
35867
35979
36151
36297
36350
36417
36561
36678
36717
36789
36932
37038
37086
37187
37357
37475
37533
37649
37821
37928
37975
38078
38214
38257
38234
38266
38314
38255
38132
38058
37990
37825
37627
37505
37397
37214
37031
36944
36875
36741
36623
36606
36595
36510
36445
36471
36487
36427
36390
36425
36426
36346
36294
36308
36278
36175
36114
36113
36052
35925
35849
35819
35718
35567
35487
35454
35345
35195
35120
35083
34973
34835
34778
34747
34637
34510
34466
34436
34323
34202
34168
34139
34028
33925
33914
33895
33791
33702
33698
33676
33575
33497
33490
33445
33321
33229
33206
33140
33008
32922
32895
32816
32685
32615
32598
32516
32390
32336
32323
32230
32098
32046
32030
31933
31806
31759
31736
31631
31505
31459
31424
31305
31182
31145
31109
30990
30882
30862
30827
30703
30596
30577
30533
30407
30305
30275
30209
30073
29978
29953
29883
29752
29671
29645
29561
29428
29364
29351
29273
29163
29156
29230
29279
29347
29556
29863
30153
30469
30913
31414
31861
32307
32839
33372
33808
34221
34692
35126
35439
35724
36059
36346
36515
36668
36871
37029
37100
37193
37351
37470
37523
37622
37793
37927
38007
38147
38353
38508
38620
38798
39017
39154
39235
39381
39553
39630
39653
39733
39819
39800
39731
39713
39685
39551
39384
39285
39180
38985
38791
38688
38586
38405
38244
38181
38121
37999
37914
37920
37908
37831
37793
37826
37814
37731
37688
37705
37669
37572
37525
37522
37446
37314
37247
37224
37121
36968
36889
36846
36722
36565
36488
36438
36307
36157
36091
36041
35906
35762
35706
35659
35533
35414
35384
35346
35219
35104
35075
35025
34893
34788
34761
34703
34570
34475
34448
34381
34250
34166
34144
34066
33931
33854
33827
33730
33581
33509
33488
33391
33246
33176
33141
33028
32893
32842
32814
32703
32571
32520
32478
32355
32229
32190
32154
32033
31918
31891
31853
31727
31615
31587
31542
31416
31312
31281
31218
31083
30985
30954
30879
30738
30645
30610
30520
30377
30299
30271
30176
30035
29968
29944
29846
29713
29659
29639
29544
29430
29413
29444
29432
29457
29624
29867
30091
30376
30808
31285
31712
32168
32719
33261
33711
34157
34653
35093
35414
35721
36065
36338
36502
36674
36882
37018
37074
37175
37331
37423
37460
37566
37727
37820
37877
38021
38217
38342
38435
38607
38808
38924
39005
39155
39309
39362
39384
39468
39537
39497
39429
39419
39377
39221
39055
38966
38856
38656
38474
38377
38261
38078
37937
37882
37809
37685
37619
37630
37601
37523
37513
37562
37547
37479
37482
37529
37490
37394
37370
37387
37321
37211
37170
37149
37044
36912
36856
36813
36681
36538
36478
36422
36277
36131
36073
36012
35867
35737
35702
35657
35528
35420
35392
35334
35201
35106
35088
35035
34916
34840
34826
34759
34632
34564
34551
34472
34339
34280
34269
34180
34046
33988
33968
33868
33734
33679
33654
33552
33431
33394
33375
33273
33159
33129
33099
32982
32867
32842
32811
32695
32592
32574
32533
32407
32301
32271
32207
32070
31971
31941
31870
31733
31642
31611
31521
31371
31283
31255
31164
31029
30968
30953
30864
30733
30679
30666
30585
30494
30514
30601
30659
30753
30986
31291
31571
31895
32349
32840
33270
33718
34254
34769
35176
35572
36022
36419
36697
36963
37265
37491
37608
37732
37898
38002
38035
38116
38257
38344
38379
38485
38652
38753
38810
38944
39121
39221
39282
39416
39580
39665
39722
39850
39980
40002
39979
40007
40014
39907
39769
39691
39588
39385
39184
39067
38940
38734
38559
38482
38397
38251
38152
38139
38105
38014
37972
38003
37993
37923
37906
37944
37917
37838
37823
37849
37789
37676
37633
37625
37530
37393
37328
37285
37157
36999
36917
36851
36704
36545
36472
36410
36271
36139
36095
36046
35908
35782
35744
35696
35570
35467
35447
35402
35278
35180
35152
35088
34957
34868
34841
34768
34638
34565
34545
34461
34325
34260
34242
34152
34021
33963
33939
33838
33703
33642
33608
33495
33363
33313
33275
33152
33021
32976
32939
32816
32696
32665
32628
32506
32397
32375
32337
32215
32111
32083
32023
31885
31781
31747
31672
31533
31443
31412
31330
31191
31113
31088
30998
30861
30801
30789
30700
30565
30506
30484
30382
30245
30187
30158
30063
29977
30014
30116
30194
30327
30611
30962
31287
31670
32182
32714
33176
33656
34214
34736
35154
35567
36022
36405
36677
36948
37250
37473
37597
37743
37932
38052
38103
38208
38357
38437
38478
38606
38789
38903
38984
39152
39364
39502
39611
39794
39990
40091
40160
40300
40437
40475
40487
40560
40607
40541
40450
40420
40356
40182
40006
39904
39779
39576
39405
39315
39199
39023
38901
38863
38790
38663
38603
38619
38586
38508
38499
38536
38498
38415
38409
38441
38390
38294
38266
38260
38167
38040
37986
37944
37815
37667
37600
37543
37402
37259
37199
37134
36981
36839
36788
36728
36587
36467
36430
36368
36231
36126
36097
36030
35891
35793
35762
35682
35543
35462
35440
35356
35219
35152
35135
35047
34915
34860
34844
34747
34612
34555
34527
34418
34284
34230
34191
34073
33945
33900
33861
33740
33621
33591
33555
33430
33317
33291
33246
33115
33005
32977
32922
32792
32695
32666
32598
32465
32379
32357
32284
32147
32064
32033
31938
31792
31720
31697
31594
31442
31369
31335
31221
31075
31012
30977
30865
30735
30687
30657
30546
30426
30388
30357
30253
30171
30205
30274
30307
30413
30671
30972
31250
31600
32064
32526
32931
33379
33894
34358
34736
35137
35566
35905
36147
36410
36690
36867
36966
37114
37288
37369
37398
37500
37642
37709
37750
37875
38027
38106
38178
38343
38525
38621
38709
38879
39046
39118
39181
39317
39428
39437
39446
39523
39558
39486
39411
39381
39293
39118
38971
38882
38743
38540
38397
38326
38211
38055
37980
37969
37900
37796
37781
37819
37782
37709
37717
37755
37709
37634
37641
37666
37600
37513
37504
37500
37406
37302
37278
37243
37113
36985
36941
36886
36745
36616
36562
36488
36342
36234
36203
36139
36007
35916
35889
35812
35676
35598
35579
35505
35385
35338
35340
35267
35146
35103
35104
35026
34911
34874
34860
34760
34633
34588
34565
34460
34344
34312
34282
34164
34047
34018
33987
33870
33770
33761
33738
33629
33540
33530
33489
33369
33278
33258
33199
33068
32979
32950
32869
32730
32652
32632
32546
32412
32353
32339
32246
32105
32041
32020
31922
31790
31738
31712
31600
31467
31421
31395
31294
31197
31208
31255
31259
31314
31508
31749
31953
32215
32601
33001
33337
33706
34154
34564
34889
35233
35622
35939
36154
36384
36646
36825
36916
37044
37204
37282
37299
37381
37507
37558
37570
37666
37803
37863
37895
38012
38158
38226
38279
38417
38568
38634
38686
38809
38916
38916
38899
38945
38957
38855
38744
38696
38613
38437
38288
38220
38124
37963
37852
37826
37769
37657
37606
37632
37615
37551
37556
37612
37592
37520
37522
37567
37533
37455
37450
37474
37407
37298
37258
37232
37116
36981
36930
36893
36771
36643
36601
36557
36422
36291
36248
36197
36061
35942
35908
35856
35727
35627
35603
35547
35424
35343
35331
35271
35147
35077
35066
34995
34871
34817
34818
34744
34620
34572
34569
34489
34369
34326
34314
34223
34102
34058
34033
33920
33788
33746
33718
33609
33498
33473
33445
33329
33224
33212
33188
33077
32981
32965
32922
32803
32719
32706
32654
32531
32447
32427
32362
32239
32171
32155
32072
31934
31863
31841
31745
31603
31539
31518
31418
31285
31238
31224
31138
31044
31056
31115
31125
31169
31355
31603
31811
32062
32441
32842
33170
33522
33968
34397
34734
35078
35482
35831
36072
36320
36611
36833
36955
37101
37295
37425
37486
37601
37766
37864
37916
38052
38239
38346
38409
38558
38754
38869
38950
39114
39307
39412
39486
39633
39785
39836
39861
39956
40033
39998
39940
39944
39917
39781
39646
39590
39511
39345
39201
39139
39049
38892
38783
38757
38703
38592
38538
38559
38537
38465
38461
38508
38479
38392
38375
38403
38348
38245
38223
38241
38176
38074
38047
38034
37926
37791
37737
37693
37560
37420
37371
37327
37196
37069
37032
36989
36859
36744
36717
36673
36552
36460
36449
36400
36271
36181
36166
36105
35975
35896
35879
35805
35677
35617
35609
35526
35392
35338
35337
35260
35142
35104
35096
35002
34875
34829
34803
34690
34558
34515
34488
34374
34255
34225
34192
34072
33963
33946
33916
33799
33697
33677
33634
33510
33411
33385
33323
33189
33099
33082
33022
32900
32832
32821
32747
32619
32559
32548
32458
32319
32260
32246
32150
32014
31961
31938
31835
31712
31675
31657
31551
31432
31406
31402
31335
31304
31407
31554
31659
31821
32119
32447
32730
33064
33498
33919
34273
34660
35115
35514
35817
36136
36490
36766
36955
37176
37425
37584
37673
37823
38015
38126
38190
38334
38520
38626
38698
38858
39058
39185
39294
39493
39710
39842
39961
40160
40355
40451
40532
40687
40819
40842
40853
40931
40965
40882
40789
40751
40667
40494
40345
40260
40131
39930
39782
39708
39592
39429
39340
39324
39258
39155
39139
39179
39147
39074
39082
39125
39082
39000
38993
39006
38929
38823
38796
38779
38670
38550
38514
38476
38345
38217
38178
38131
37990
37859
37815
37755
37613
37500
37467
37402
37259
37156
37125
37045
36894
36794
36761
36675
36533
36457
36437
36346
36208
36148
36131
36032
35891
35832
35810
35706
35570
35518
35492
35381
35253
35209
35176
35061
34941
34905
34866
34738
34616
34584
34540
34405
34287
34257
34209
34080
33976
33945
33878
33740
33644
33619
33550
33413
33326
33304
33226
33092
33025
33013
32929
32798
32744
32735
32645
32512
32455
32425
32311
32170
32116
32086
31969
31836
31786
31744
31617
31487
31447
31406
31276
31156
31131
31094
30965
30854
30841
30826
30763
30774
30914
31071
31211
31446
31795
32134
32441
32826
33282
33682
34029
34441
34888
35233
35503
35822
36154
36374
36526
36731
36942
37052
37120
37258
37407
37467
37516
37659
37818
37901
37991
38177
38364
38463
38571
38770
38955
39047
39154
39339
39490
39551
39629
39762
39831
39800
39786
39813
39764
39628
39528
39465
39321
39113
38975
38887
38727
38533
38440
38412
38318
38202
38181
38199
38142
38066
38075
38103
38047
37979
37998
38017
37941
37862
37872
37872
37779
37695
37698
37676
37557
37453
37430
37374
37238
37139
37113
37040
36888
36780
36743
36658
36517
36437
36414
36323
36183
36122
36112
36024
35893
35843
35830
35734
35602
35552
35531
35426
35299
35263
35245
35142
35031
35009
34987
34874
34762
34740
34708
34585
34473
34448
34405
34281
34184
34164
34109
33977
33883
33859
33789
33654
33571
33550
33472
33339
33275
33265
33183
33052
33002
33004
32924
32795
32742
32724
32625
32496
32451
32429
32321
32194
32153
32125
32010
31889
31855
31821
31701
31591
31569
31535
31412
31313
31315
31314
31260
31275
31415
31569
31702
31927
32269
32603
32904
33284
33737
34131
34465
34858
35288
35623
35880
36185
36502
36707
36839
37030
37235
37338
37400
37537
37688
37752
37803
37946
38100
38166
38227
38381
38537
38606
38689
38867
39030
39094
39169
39319
39425
39430
39448
39523
39537
39451
39379
39348
39248
39070
38933
38839
38671
38451
38315
38246
38111
37945
37877
37869
37793
37691
37676
37697
37640
37564
37578
37617
37568
37504
37525
37549
37476
37395
37399
37388
37276
37167
37140
37091
36953
36832
36789
36715
36564
36452
36414
36332
36176
36067
36031
35948
35806
35726
35701
35606
35462
35396
35380
35285
35147
35090
35077
34984
34854
34806
34787
34687
34566
34530
34511
34402
34280
34245
34211
34089
33972
33944
33908
33781
33670
33650
33617
33503
33413
33402
33357
33232
33143
33128
33069
32939
32858
32839
32763
32626
32552
32533
32444
32305
32246
32242
32156
32023
31966
31943
31841
31712
31667
31648
31544
31421
31385
31365
31259
31143
31111
31075
30947
30825
30796
30756
30625
30509
30482
30438
30317
30225
30212
30170
30066
30030
30104
30176
30228
30386
30662
30933
31196
31569
32028
32438
32814
33277
33788
34207
34564
34974
35389
35689
35928
36218
36499
36662
36781
36967
37151
37235
37309
37469
37628
37698
37777
37953
38125
38212
38321
38523
38706
38804
38931
39131
39285
39353
39450
39602
39689
39693
39735
39817
39811
39725
39685
39669
39549
39360
39236
39151
38983
38774
38647
38557
38391
38211
38133
38089
37969
37848
37823
37817
37736
37664
37688
37709
37640
37581
37608
37610
37514
37432
37430
37399
37284
37199
37185
37122
36974
36863
36813
36708
36537
36424
36371
36250
36079
35988
35954
35845
35695
35632
35613
35516
35385
35339
35323
35219
35093
35054
35032
34920
34797
34759
34721
34592
34463
34427
34385
34252
34131
34102
34059
33926
33815
33788
33732
33594
33497
33477
33414
33281
33198
33180
33104
32962
32884
32861
32766
32621
32557
32541
32444
32307
32256
32247
32152
32018
31967
31948
31846
31721
31682
31657
31541
31412
31371
31333
31207
31085
31058
31023
30894
30777
30750
30707
30580
30476
30452
30390
30247
30141
30110
30034
29890
29796
29770
29689
29550
29479
29467
29387
29263
29228
29258
29235
29209
29312
29507
29684
29894
30245
30666
31039
31423
31914
32430
32857
33271
33761
34226
34569
34884
35254
35576
35768
35942
36173
36358
36440
36536
36701
36821
36862
36946
37108
37230
37293
37417
37608
37745
37829
37986
38198
38333
38414
38567
38754
38845
38883
38983
39094
39101
39060
39076
39084
38977
38830
38752
38666
38473
38265
38145
38023
37812
37620
37534
37442
37264
37117
37071
37011
36878
36787
36782
36745
36635
36570
36573
36520
36397
36328
36319
36240
36098
36024
35999
35892
35733
35652
35612
35482
35298
35185
35100
34932
34741
34637
34555
34392
34219
34135
34061
33902
33750
33698
33645
33500
33375
33354
33327
33213
33121
33114
33076
32954
32866
32855
32802
32674
32590
32571
32496
32360
32285
32263
32168
32016
31943
31923
31821
31670
31606
31588
31488
31350
31295
31268
31155
31019
30969
30934
30812
30679
30636
30599
30476
30356
30327
30288
30151
30028
30000
29957
29828
29728
29709
29654
29518
29420
29397
29329
29192
29108
29090
29017
28886
28818
28801
28711
28567
28496
28472
28366
28211
28137
28104
27989
27845
27788
27759
27642
27504
27454
27417
27298
27177
27155
27154
27095
27084
27220
27411
27575
27817
28208
28628
29007
29447
29982
30483
30906
31362
31876
32316
32653
33006
33386
33667
33853
34072
34313
34452
34517
34643
34806
34880
34908
35016
35162
35231
35282
35429
35604
35695
35775
35947
36130
36221
36305
36474
36634
36693
36743
36866
36952
36928
36899
36931
36907
36775
36651
36586
36468
36267
36111
36031
35912
35737
35630
35597
35513
35388
35350
35377
35332
35243
35240
35282
35241
35160
35160
35186
35124
35033
35022
35026
34941
34839
34820
34803
34691
34576
34545
34501
34363
34233
34189
34124
33963
33820
33763
33687
33538
33426
33390
33316
33167
33066
33036
32957
32820
32747
32731
32649
32519
32467
32466
32386
32258
32209
32202
32113
31988
31946
31931
31830
31708
31673
31654
31548
31431
31403
31378
31265
31152
31128
31094
30962
30840
30807
30757
30624
30522
30503
30449
30318
30226
30213
30158
30034
29960
29949
29876
29743
29678
29670
29586
29446
29386
29381
29297
29169
29123
29114
29024
28907
28873
28862
28762
28640
28604
28580
28468
28344
28305
28264
28135
28014
27986
27947
27817
27711
27711
27710
27653
27661
27793
27944
28082
28325
28699
29078
29432
29870
30388
30852
31256
31716
32211
32606
32921
33284
33661
33920
34100
34325
34553
34672
34745
34888
35041
35098
35136
35259
35392
35437
35484
35623
35766
35827
35902
36072
36233
36308
36399
36570
36706
36749
36811
36933
36993
36953
36933
36960
36915
36785
36695
36649
36531
36352
36243
36187
36056
35880
35789
35750
35642
35511
35476
35484
35421
35341
35350
35381
35328
35263
35284
35311
35250
35182
35194
35193
35095
35001
34990
34957
34832
34719
34678
34601
34445
34322
34273
34188
34034
33929
33892
33803
33656
33567
33530
33422
33267
33192
33170
33069
32928
32869
32852
32755
32624
32575
32554
32452
32330
32291
32262
32148
32026
31989
31951
31823
31700
31664
31619
31484
31367
31339
31294
31167
31060
31022
30948
30801
30696
30664
30592
30460
30378
30354
30274
30143
30076
30060
29970
29831
29770
29756
29666
29533
29477
29455
29353
29223
29169
29133
29014
28881
28828
28784
28655
28526
28483
28438
28310
28195
28166
28121
27987
27869
27835
27776
27639
27532
27501
27435
27297
27199
27171
27100
26974
26916
26942
26951
26967
27116
27380
27635
27906
28310
28800
29242
29665
30171
30701
31135
31527
31973
32404
32719
32987
33300
33583
33746
33875
34063
34223
34278
34332
34465
34577
34605
34658
34796
34917
34973
35070
35243
35379
35450
35568
35751
35882
35947
36061
36219
36298
36309
36373
36465
36459
36387
36370
36369
36267
36113
36021
35943
35778
35592
35489
35410
35262
35120
35074
35044
34944
34860
34873
34891
34835
34798
34846
34879
34827
34795
34837
34841
34765
34713
34719
34673
34556
34479
34454
34369
34227
34145
34112
34011
33860
33780
33743
33626
33470
33396
33359
33249
33114
33062
33036
32931
32812
32780
32763
32666
32564
32547
32528
32420
32319
32305
32279
32162
32057
32034
31988
31860
31761
31737
31678
31550
31465
31447
31383
31255
31179
31165
31095
30970
30910
30901
30819
30687
30626
30606
30510
30383
30337
30325
30230
30106
30067
30046
29941
29826
29798
29780
29681
29582
29564
29537
29423
29319
29300
29266
29142
29035
29012
28967
28846
28757
28741
28683
28552
28464
28442
28374
28249
28179
28164
28089
27969
27931
27960
27943
27922
28030
28235
28422
28634
28974
29378
29732
30085
30532
30996
31373
31731
32155
32556
32842
33100
33412
33682
33833
33964
34148
34288
34325
34366
34471
34538
34529
34555
34654
34716
34720
34781
34911
34994
35025
35124
35275
35351
35377
35473
35607
35650
35635
35679
35737
35696
35606
35580
35562
35450
35310
35247
35198
35071
34946
34911
34885
34788
34712
34733
34750
34689
34656
34714
34753
34711
34694
34750
34768
34708
34681
34717
34701
34612
34569
34584
34538
34430
34382
34376
34294
34161
34099
34076
33976
33838
33779
33754
33648
33512
33457
33426
33316
33194
33156
33126
33011
32896
32866
32836
32728
32638
32639
32629
32531
32447
32442
32409
32295
32213
32204
32157
32041
31971
31967
31914
31803
31749
31750
31684
31564
31512
31505
31424
31301
31254
31246
31156
31029
30979
30958
30857
30735
30699
30681
30582
30475
30451
30425
30313
30209
30197
30181
30078
29987
29980
29952
29834
29737
29720
29671
29543
29451
29430
29370
29246
29171
29158
29092
28967
28899
28881
28796
28664
28603
28583
28483
28339
28272
28241
28135
28009
27978
27995
27968
27971
28113
28333
28534
28788
29177
29606
29974
30360
30836
31293
31646
31992
32393
32742
32982
33223
33512
33741
33871
34013
34199
34317
34349
34412
34521
34564
34551
34607
34722
34778
34801
34913
35079
35173
35232
35370
35540
35630
35696
35844
36007
36080
36126
36240
36344
36343
36320
36363
36377
36285
36189
36167
36122
35983
35856
35808
35742
35609
35519
35510
35473
35381
35345
35385
35385
35331
35336
35395
35390
35335
35351
35411
35391
35322
35326
35364
35319
35233
35219
35223
35136
35018
34979
34957
34850
34727
34687
34655
34540
34429
34407
34380
34269
34173
34164
34137
34026
33939
33930
33892
33784
33714
33715
33673
33561
33492
33483
33419
33296
33236
33228
33147
33015
32960
32956
32878
32760
32719
32714
32635
32528
32495
32483
32389
32273
32237
32216
32115
32009
31989
31968
31862
31759
31739
31708
31592
31491
31474
31438
31323
31237
31225
31179
31065
30992
30991
30948
30845
30794
30802
30751
30647
30604
30604
30528
30404
30352
30337
30245
30114
30060
30038
29941
29824
29791
29780
29695
29613
29636
29698
29718
29781
29977
30220
30426
30691
31081
31488
31832
32210
32676
33114
33461
33815
34210
34538
34767
35008
35282
35478
35587
35729
35905
35997
36021
36103
36228
36273
36270
36347
36465
36511
36531
36635
36770
36829
36870
36998
37145
37205
37251
37376
37494
37514
37521
37594
37636
37568
37493
37487
37446
37313
37202
37167
37105
36978
36894
36889
36851
36757
36719
36749
36734
36672
36678
36741
36734
36679
36700
36765
36747
36679
36681
36711
36660
36577
36568
36571
36481
36369
36334
36308
36202
36092
36063
36025
35897
35775
35735
35687
35560
35453
35431
35393
35281
35198
35187
35141
35030
34962
34962
34921
34822
34778
34789
34742
34641
34602
34609
34539
34419
34371
34361
34277
34163
34130
34125
34041
33932
33903
33895
33805
33700
33673
33651
33544
33440
33419
33390
33277
33177
33159
33128
33021
32938
32931
32895
32785
32711
32706
32660
32541
32464
32448
32384
32268
32208
32200
32131
32017
31976
31983
31919
31812
31781
31784
31706
31594
31556
31536
31429
31300
31249
31210
31091
30970
30934
30903
30792
30686
30661
30623
30503
30403
30394
30383
30321
30328
30459
30616
30768
31021
31395
31772
32119
32536
33021
33456
33837
34272
34736
35104
35395
35730
36078
36315
36482
36696
36911
37021
37085
37209
37335
37374
37403
37515
37638
37682
37723
37848
37973
38024
38097
38266
38425
38504
38596
38759
38896
38956
39038
39177
39266
39272
39301
39372
39376
39303
39262
39255
39177
39041
38967
38938
38841
38703
38644
38630
38549
38442
38415
38419
38351
38269
38273
38299
38252
38199
38228
38264
38220
38171
38195
38198
38106
38017
37999
37956
37827
37716
37676
37607
37469
37363
37319
37231
37078
36970
36921
36827
36687
36608
36581
36492
36363
36305
36290
36205
36084
36039
36027
35939
35820
35771
35740
35632
35509
35465
35437
35337
35235
35208
35181
35076
34976
34957
34928
34818
34718
34695
34654
34542
34455
34431
34368
34236
34140
34106
34031
33902
33819
33789
33708
33582
33520
33506
33422
33294
33232
33210
33122
33007
32967
32954
32867
32759
32724
32705
32606
32494
32456
32424
32314
32199
32159
32114
31993
31882
31849
31801
31675
31565
31526
31463
31335
31240
31208
31136
31003
30916
30894
30839
30755
30759
30855
30944
31046
31269
31585
31873
32152
32523
32940
33285
33595
33964
34339
34620
34867
35165
35446
35623
35765
35952
36111
36168
36208
36316
36405
36407
36416
36501
36571
36574
36608
36716
36803
36835
36910
37051
37157
37204
37294
37436
37524
37555
37635
37747
37779
37752
37775
37817
37764
37656
37604
37567
37448
37301
37231
37190
37086
36974
36944
36929
36847
36774
36785
36798
36741
36700
36744
36779
36737
36708
36748
36760
36697
36662
36694
36689
36615
36568
36568
36519
36416
36360
36349
36277
36160
36111
36108
36034
35916
35867
35856
35771
35653
35608
35587
35493
35382
35352
35339
35251
35152
35129
35113
35024
34939
34930
34910
34809
34724
34721
34702
34610
34539
34536
34506
34409
34339
34328
34280
34173
34106
34093
34035
33928
33876
33870
33803
33692
33646
33638
33559
33443
33402
33396
33316
33203
33157
33131
33035
32932
32907
32893
32803
32705
32681
32659
32561
32474
32471
32459
32363
32276
32261
32226
32119
32037
32020
31970
31850
31763
31736
31668
31545
31472
31455
31390
31287
31254
31274
31245
31208
31284
31446
31588
31746
32017
32346
32627
32905
33260
33626
33911
34172
34491
34796
35001
35174
35395
35581
35662
35728
35851
35937
35930
35932
35999
36039
36013
36022
36100
36144
36133
36169
36269
36329
36344
36417
36541
36609
36632
36711
36822
36853
36831
36865
36917
36879
36793
36765
36748
36649
36529
36482
36447
36340
36235
36216
36210
36142
36091
36126
36159
36121
36101
36160
36197
36155
36133
36176
36186
36130
36107
36137
36120
36037
35992
35999
35955
35857
35814
35817
35755
35650
35610
35608
35533
35419
35372
35351
35256
35136
35095
35077
34988
34886
34860
34847
34766
34690
34693
34692
34614
34545
34555
34549
34465
34400
34406
34387
34301
34246
34254
34226
34135
34082
34087
34052
33964
33921
33926
33875
33782
33751
33753
33681
33568
33526
33519
33441
33329
33285
33265
33174
33067
33033
33012
32915
32807
32774
32744
32641
32545
32530
32507
32405
32316
32307
32285
32189
32115
32107
32066
31955
31875
31859
31808
31701
31640
31634
31580
31478
31434
31441
31398
31342
31394
31531
31646
31775
32021
32333
32597
32854
33194
33553
33837
34100
34424
34738
34958
35150
35394
35609
35720
35814
35966
36091
36124
36162
36266
36342
36346
36375
36470
36533
36537
36585
36697
36772
36798
36876
37009
37089
37125
37223
37359
37424
37442
37520
37618
37633
37605
37632
37665
37608
37519
37492
37474
37378
37270
37234
37201
37096
36998
36988
36982
36908
36857
36892
36915
36868
36845
36895
36917
36874
36863
36913
36921
36865
36846
36878
36859
36784
36759
36780
36737
36648
36622
36631
36564
36457
36420
36415
36334
36223
36181
36162
36067
35955
35922
35907
35820
35732
35722
35708
35617
35535
35530
35512
35417
35337
35335
35318
35234
35175
35181
35151
35051
34981
34966
34911
34806
34749
34744
34689
34591
34555
34560
34499
34396
34361
34363
34293
34188
34150
34139
34058
33962
33941
33930
33841
33739
33708
33682
33586
33493
33476
33452
33352
33263
33252
33228
33129
33050
33038
32995
32884
32812
32806
32760
32655
32592
32581
32525
32419
32366
32360
32297
32194
32155
32152
32076
31965
31927
31926
31862
31793
31827
31925
31998
32104
32329
32606
32847
33113
33473
33845
34149
34453
34821
35161
35401
35626
35900
36132
36269
36408
36589
36719
36766
36835
36954
37029
37046
37109
37224
37290
37315
37406
37546
37621
37660
37776
37938
38035
38102
38239
38394
38470
38517
38629
38747
38783
38799
38874
38939
38912
38865
38877
38868
38771
38675
38653
38615
38504
38413
38393
38349
38245
38181
38184
38156
38075
38044
38078
38074
38023
38024
38072
38065
38015
38026
38072
38045
37974
37969
37994
37940
37851
37828
37822
37737
37630
37593
37566
37464
37358
37326
37295
37189
37090
37073
37054
36962
36883
36879
36857
36761
36684
36669
36622
36514
36442
36429
36378
36271
36207
36193
36126
36013
35962
35954
35880
35765
35720
35710
35629
35514
35473
35459
35374
35266
35231
35214
35125
35025
34994
34967
34866
34767
34744
34717
34615
34524
34509
34480
34374
34283
34262
34214
34098
34011
33990
33935
33819
33745
33731
33673
33562
33497
33476
33400
33284
33231
33215
33128
33001
32946
32927
32837
32716
32664
32632
32525
32405
32361
32330
32228
32122
32089
32059
31961
31875
31880
31897
31865
31891
32048
32243
32419
32660
32997
33323
33598
33916
34295
34626
34887
35169
35476
35708
35871
36068
36281
36401
36456
36561
36688
36731
36731
36796
36887
36908
36908
36983
37080
37112
37142
37254
37383
37440
37497
37631
37760
37807
37855
37974
38072
38086
38110
38196
38241
38199
38170
38188
38153
38037
37946
37909
37827
37694
37616
37594
37523
37416
37379
37393
37349
37278
37287
37335
37317
37274
37305
37359
37341
37303
37336
37379
37343
37299
37326
37347
37286
37220
37224
37211
37114
37025
37009
36975
36866
36779
36762
36718
36614
36550
36548
36503
36401
36344
36340
36285
36178
36129
36123
36054
35946
35905
35901
35828
35724
35696
35701
35634
35542
35521
35514
35430
35333
35311
35296
35208
35118
35102
35078
34976
34881
34862
34830
34725
34635
34614
34572
34468
34396
34384
34336
34229
34164
34158
34111
34012
33959
33947
33872
33754
33699
33683
33600
33480
33432
33424
33349
33244
33205
33183
33085
32972
32936
32917
32828
32729
32703
32678
32582
32508
32536
32582
32582
32631
32796
32987
33148
33365
33673
33969
34216
34503
34847
35145
35373
35628
35917
36133
36278
36458
36657
36767
36817
36920
37044
37082
37076
37139
37235
37266
37276
37358
37461
37496
37524
37632
37748
37792
37839
37963
38079
38110
38141
38244
38323
38313
38307
38360
38374
38301
38245
38243
38197
38083
38003
37977
37907
37790
37729
37721
37661
37565
37540
37564
37524
37451
37454
37498
37475
37427
37450
37496
37466
37415
37434
37461
37403
37329
37322
37311
37222
37132
37116
37087
36975
36872
36847
36808
36698
36609
36590
36540
36421
36336
36313
36253
36139
36074
36062
35998
35888
35839
35838
35775
35670
35631
35632
35566
35468
35440
35435
35354
35251
35220
35205
35115
35012
34984
34961
34859
34753
34722
34687
34576
34477
34453
34412
34300
34211
34195
34157
34053
33977
33961
33909
33793
33717
33702
33646
33540
33483
33473
33403
33289
33239
33226
33139
33016
32970
32962
32881
32767
32722
32699
32602
32490
32448
32415
32305
32190
32152
32122
32020
31925
31909
31881
31770
31669
31646
31609
31516
31473
31534
31606
31662
31801
32047
32297
32525
32825
33196
33524
33806
34143
34514
34810
35052
35346
35655
35868
36024
36231
36442
36558
36632
36765
36903
36957
36991
37098
37213
37256
37304
37434
37563
37621
37697
37858
38003
38067
38154
38318
38455
38518
38601
38735
38823
38837
38872
38946
38957
38900
38876
38883
38815
38689
38619
38582
38473
38327
38255
38220
38118
37997
37956
37943
37864
37779
37776
37791
37735
37676
37698
37722
37668
37619
37647
37659
37588
37525
37530
37508
37410
37334
37326
37284
37173
37092
37070
37007
36884
36806
36779
36696
36567
36503
36485
36400
36277
36228
36217
36134
36017
35977
35968
35887
35784
35753
35738
35644
35535
35505
35482
35379
35276
35251
35221
35111
35009
34984
34945
34832
34736
34713
34664
34544
34453
34426
34363
34236
34147
34115
34039
33918
33854
33840
33766
33648
33596
33585
33502
33378
33327
33313
33227
33111
33064
33036
32934
32816
32773
32742
32633
32516
32475
32438
32329
32226
32200
32167
32060
31966
31943
31899
31782
31691
31670
31617
31494
31406
31381
31316
31197
31124
31103
31032
30924
30890
30922
30917
30912
31024
31226
31410
31608
31915
32279
32590
32893
33276
33674
33984
34272
34623
34961
35198
35411
35677
35914
36051
36174
36352
36494
36542
36604
36731
36827
36855
36920
37054
37157
37207
37305
37466
37583
37649
37769
37934
38034
38084
38197
38348
38424
38447
38522
38605
38592
38529
38518
38509
38408
38279
38220
38168
38034
37891
37826
37771
37652
37551
37538
37522
37437
37376
37398
37401
37333
37297
37333
37337
37276
37252
37286
37276
37201
37167
37183
37143
37048
37009
37008
36935
36816
36763
36742
36647
36515
36454
36418
36305
36168
36107
36065
35950
35826
35780
35741
35625
35513
35483
35451
35344
35252
35240
35215
35115
35034
35020
34976
34862
34779
34760
34702
34581
34502
34479
34409
34287
34220
34199
34115
33988
33928
33908
33816
33687
33632
33613
33521
33399
33350
33319
33214
33099
33061
33031
32926
32816
32781
32744
32629
32523
32502
32468
32352
32250
32227
32185
32072
31985
31965
31909
31791
31710
31687
31619
31494
31418
31393
31316
31191
31127
31107
31019
30891
30837
30825
30750
30659
30664
30727
30758
30819
31010
31269
31497
31754
32117
32506
32835
33178
33601
34014
34337
34656
35032
35363
35588
35806
36067
36269
36378
36499
36666
36779
36818
36894
37022
37099
37125
37217
37370
37466
37520
37643
37807
37900
37957
38088
38255
38343
38399
38525
38661
38704
38716
38787
38848
38807
38737
38718
38677
38544
38407
38341
38261
38104
37970
37922
37865
37744
37656
37643
37603
37504
37452
37467
37444
37368
37342
37364
37335
37267
37266
37306
37273
37192
37174
37186
37121
37017
36976
36947
36833
36696
36635
36587
36459
36318
36255
36203
36083
35972
35940
35900
35779
35670
35639
35594
35477
35385
35366
35321
35208
35126
35103
35038
34914
34835
34807
34727
34605
34546
34531
34446
34316
34256
34238
34148
34018
33962
33943
33853
33735
33689
33663
33560
33441
33396
33359
33247
33135
33098
33057
32937
32827
32800
32761
32645
32546
32521
32473
32355
32267
32245
32182
32055
31966
31939
31869
31746
31674
31655
31582
31466
31417
31410
31332
31211
31156
31135
31040
30915
30863
30834
30728
30602
30551
30513
30400
30280
30241
30208
30107
30034
30069
30130
30159
30256
30488
30758
30999
31304
31715
32120
32473
32868
33327
33741
34083
34446
34835
35138
35361
35616
35886
36059
36167
36326
36502
36586
36619
36714
36831
36872
36893
36996
37126
37190
37254
37405
37571
37666
37759
37925
38081
38150
38222
38367
38484
38508
38537
38627
38673
38628
38591
38595
38538
38398
38285
38223
38111
37942
37826
37764
37651
37503
37434
37421
37348
37245
37224
37248
37206
37143
37156
37194
37152
37085
37088
37098
37027
36947
36942
36932
36837
36740
36720
36687
36567
36454
36415
36352
36213
36104
36069
35998
35857
35756
35723
35652
35523
35443
35420
35346
35226
35167
35151
35065
34936
34880
34862
34770
34646
34597
34578
34486
34374
34339
34321
34225
34121
34096
34078
33985
33893
33876
33846
33733
33631
33610
33574
33458
33365
33349
33309
33197
33116
33101
33046
32925
32846
32825
32755
32633
32569
32552
32470
32344
32288
32274
32188
32064
32019
32012
31929
31817
31777
31754
31652
31531
31485
31449
31337
31220
31180
31136
31012
30896
30862
30820
30703
30604
30589
30564
30478
30437
30494
30557
30602
30742
31003
31276
31537
31882
32305
32691
33042
33459
33913
34288
34607
34975
35347
35605
35789
36010
36230
36347
36421
36552
36681
36720
36742
36836
36935
36963
37001
37124
37245
37289
37349
37497
37632
37689
37768
37919
38034
38066
38118
38218
38263
38231
38224
38250
38202
38079
37996
37949
37827
37653
37549
37497
37381
37235
37172
37147
37057
36958
36948
36964
36905
36833
36840
36859
36801
36739
36758
36775
36708
36642
36651
36642
36546
36465
36456
36420
36308
36222
36194
36119
35970
35859
35811
35718
35572
35483
35449
35357
35223
35158
35139
35052
34926
34874
34861
34775
34659
34618
34603
34515
34409
34378
34355
34253
34142
34108
34075
33966
33857
33823
33781
33664
33565
33547
33509
33394
33304
33285
33231
33108
33021
33001
32945
32835
32770
32756
32683
32554
32482
32458
32362
32220
32152
32128
32034
31908
31859
31846
31762
31656
31621
31599
31497
31379
31340
31309
31201
31091
31062
31030
30919
30814
30788
30747
30632
30543
30536
30501
30388
30301
30279
30222
30106
30046
30069
30077
30072
30168
30363
30548
30746
31069
31485
31864
32227
32682
33184
33613
34006
34455
34898
35231
35512
35836
36137
36329
36485
36689
36866
36944
37013
37150
37267
37299
37349
37484
37608
37666
37757
37922
38058
38129
38241
38420
38553
38622
38737
38899
38991
39019
39095
39196
39206
39152
39146
39151
39054
38897
38792
38698
38524
38335
38231
38152
38007
37862
37804
37760
37649
37552
37549
37545
37462
37397
37421
37434
37368
37323
37347
37339
37256
37203
37210
37170
37057
36982
36961
36885
36749
36668
36632
36528
36377
36295
36256
36147
36004
35934
35898
35791
35663
35612
35584
35480
35363
35323
35290
35175
35054
35017
34983
34871
34770
34752
34723
34611
34515
34496
34454
34339
34252
34231
34171
34044
33956
33931
33862
33736
33662
33641
33556
33423
33361
33347
33262
33137
33088
33076
32988
32862
32805
32773
32664
32533
32482
32450
32343
32225
32187
32157
32052
31954
31939
31916
31811
31720
31709
31677
31564
31473
31457
31407
31283
31193
31171
31111
30989
30910
30879
30790
30651
30579
30557
30470
30340
30284
30271
30186
30067
30036
30057
30035
30031
30154
30352
30533
30761
31122
31538
31913
32313
32812
33315
33734
34153
34637
35080
35408
35718
36066
36353
36537
36719
36940
37103
37187
37295
37450
37549
37592
37689
37842
37937
37992
38124
38310
38428
38510
38670
38863
38979
39063
39214
39377
39452
39498
39607
39709
39707
39672
39690
39685
39576
39450
39387
39299
39117
38943
38847
38733
38551
38412
38356
38277
38143
38062
38055
38013
37915
37872
37890
37855
37767
37743
37767
37720
37625
37598
37606
37534
37420
37373
37345
37238
37106
37050
37011
36894
36759
36698
36640
36500
36358
36298
36234
36089
35958
35915
35862
35733
35627
35597
35541
35416
35324
35298
35234
35104
35017
34990
34913
34781
34706
34682
34593
34459
34392
34366
34268
34137
34081
34056
33950
33815
33756
33716
33600
33472
33422
33383
33267
33147
33109
33071
32950
32832
32796
32748
32619
32506
32472
32418
32295
32204
32185
32132
32008
31918
31887
31810
31679
31609
31595
31520
31391
31325
31303
31210
31080
31027
31014
30928
30811
30762
30732
30622
30491
30436
30397
30280
30158
30118
30080
29960
29845
29817
29783
29666
29563
29547
29528
29460
29455
29569
29708
29841
30074
30436
30812
31168
31599
32105
32565
32975
33438
33933
34335
34667
35041
35420
35686
35876
36108
36338
36464
36541
36677
36816
36867
36898
37002
37116
37155
37198
37333
37472
37534
37616
37790
37955
38041
38144
38316
38451
38499
38562
38676
38731
38694
38672
38685
38622
38480
38375
38302
38157
37961
37837
37762
37619
37444
37357
37325
37233
37127
37111
37126
37066
36994
37010
37042
36994
36942
36973
37003
36945
36884
36901
36900
36806
36719
36705
36663
36540
36443
36414
36345
36204
36103
36064
35978
35831
35736
35696
35598
35454
35380
35356
35262
35126
35062
35033
34926
34789
34732
34705
34604
34487
34453
34436
34338
34227
34194
34167
34061
33963
33948
33923
33813
33715
33696
33658
33539
33441
33416
33358
33227
33133
33107
33041
32911
32827
32802
32725
32597
32535
32521
32436
32307
32253
32245
32156
32024
31969
31947
31847
31722
31675
31645
31532
31400
31343
31291
31156
31021
30973
30926
30800
30689
30663
30622
30499
30396
30371
30319
30196
30109
30102
30077
30015
30033
30166
30307
30451
30712
31079
31429
31767
32203
32705
33144
33543
34010
34492
34867
35179
35538
35884
36107
36272
36476
36662
36748
36806
36923
37033
37060
37090
37205
37316
37351
37409
37554
37682
37734
37815
37967
38077
38115
38194
38340
38441
38472
38535
38633
38651
38596
38581
38585
38488
38318
38207
38132
37984
37804
37705
37635
37493
37338
37275
37243
37146
37049
37043
37053
36990
36935
36965
36990
36929
36875
36896
36897
36813
36750
36760
36733
36623
36538
36515
36446
36309
36215
36178
36092
35955
35878
35845
35741
35590
35514
35484
35380
35236
35170
35143
35038
34902
34844
34809
34697
34572
34529
34500
34396
34291
34264
34228
34107
33997
33973
33940
33824
33721
33697
33654
33537
33449
33429
33368
33234
33141
33109
33031
32900
32827
32805
32719
32584
32519
32505
32417
32283
32226
32210
32113
31977
31912
31865
31739
31601
31550
31521
31416
31305
31277
31251
31141
31035
31015
30984
30867
30761
30738
30697
30577
30478
30446
30381
30248
30151
30121
30048
29911
29821
29790
29709
29584
29526
29511
29424
29299
29258
29281
29262
29254
29376
29586
29781
30013
30384
30827
31229
31647
32166
32701
33153
33593
34097
34568
34923
35255
35634
35962
36172
36365
36598
36773
36849
36938
37083
37181
37209
37279
37412
37504
37554
37672
37847
37966
38045
38200
38400
38520
38596
38743
38915
38997
39041
39152
39265
39276
39249
39278
39289
39190
39060
38992
38909
38734
38564
38478
38383
38208
38054
37987
37906
37765
37669
37657
37617
37516
37463
37481
37460
37386
37366
37395
37355
37261
37231
37245
37182
37070
37026
37013
36915
36778
36706
36652
36519
36370
36303
36250
36120
35984
35929
35875
35741
35614
35573
35527
35401
35293
35270
35230
35112
35017
34990
34926
34793
34698
34672
34604
34474
34391
34364
34286
34159
34097
34079
33988
33848
33782
33759
33662
33527
33466
33436
33326
33191
33134
33097
32983
32860
32820
32786
32671
32556
32521
32477
32345
32224
32188
32139
32008
31899
31865
31805
31674
31576
31547
31478
31344
31258
31238
31168
31039
30966
30941
30846
30707
30645
30631
30544
30416
30367
30351
30256
30132
30084
30056
29949
29827
29786
29754
29641
29521
29477
29431
29306
29190
29170
29158
29098
29102
29247
29431
29602
29865
30259
30670
31053
31509
32055
32567
33016
33502
34017
34442
34782
35148
35518
35773
35946
36161
36384
36501
36558
36669
36790
36826
36841
36938
37053
37094
37134
37264
37409
37476
37548
37708
37864
37937
38022
38185
38322
38369
38425
38534
38591
38559
38542
38569
38529
38405
38313
38265
38145
37957
37829
37753
37608
37423
37323
37275
37161
37026
36985
36986
36916
36828
36827
36853
36801
36736
36754
36771
36699
36622
36626
36620
36525
36435
36422
36383
36257
36146
36109
36038
35891
35772
35721
35632
35480
35377
35338
35246
35093
34994
34946
34837
34687
34616
34591
34487
34335
34258
34219
34099
33948
33877
33831
33707
33568
33509
33462
33339
33214
33177
33143
33026
32918
32895
32860
32737
32634
32619
32582
32465
32372
32348
32286
32155
32066
32039
31962
31829
31752
31729
31643
31510
31453
31446
31362
31230
31173
31154
31056
30925
30874
30848
30740
30613
30569
30543
30435
30316
30282
30253
30143
30042
30027
29997
29873
29759
29725
29669
29528
29413
29373
29299
29152
29047
29012
28937
28806
28730
28722
28679
28619
28673
28835
28988
29160
29473
29887
30272
30656
31146
31686
32156
32595
33101
33600
33987
34327
34711
35060
35284
35468
35698
35884
35954
36010
36132
36221
36216
36230
36325
36397
36399
36445
36568
36659
36692
36781
36939
37046
37097
37202
37352
37422
37430
37492
37575
37558
37473
37441
37421
37303
37139
37045
36972
36819
36652
36571
36505
36368
36240
36209
36190
36101
36033
36062
36085
36031
35999
36045
36061
35998
35962
35993
35982
35893
35839
35841
35785
35662
35585
35557
35459
35303
35210
35170
35057
34897
34815
34772
34646
34488
34411
34364
34240
34105
34055
34020
33902
33777
33739
33705
33587
33476
33456
33424
33301
33191
33170
33134
33019
32931
32915
32866
32747
32669
32656
32596
32473
32402
32389
32315
32186
32121
32098
31997
31851
31784
31761
31660
31525
31474
31456
31357
31230
31185
31159
31050
30931
30900
30873
30755
30635
30600
30557
30427
30308
30275
30227
30093
29980
29946
29881
29740
29637
29608
29539
29410
29331
29307
29225
29089
29021
29011
28943
28852
28872
28982
29069
29178
29433
29785
30116
30468
30937
31456
31913
32361
32887
33409
33826
34214
34653
35050
35320
35559
35844
36078
36193
36295
36449
36554
36569
36612
36730
36813
36828
36890
37024
37119
37162
37268
37432
37537
37595
37723
37892
37977
38003
38094
38212
38234
38202
38227
38254
38176
38059
38008
37955
37806
37638
37545
37451
37277
37119
37061
37006
36877
36777
36773
36759
36675
36630
36668
36672
36599
36559
36584
36563
36480
36444
36458
36404
36287
36231
36221
36130
35989
35923
35895
35782
35630
35558
35513
35386
35233
35159
35103
34973
34844
34803
34765
34642
34517
34478
34434
34308
34200
34184
34151
34034
33936
33915
33863
33738
33651
33635
33580
33464
33400
33397
33332
33204
33138
33126
33045
32915
32861
32851
32764
32633
32576
32546
32439
32308
32260
32231
32117
31987
31943
31914
31803
31689
31658
31620
31495
31382
31358
31321
31199
31094
31066
31007
30870
30765
30728
30652
30513
30425
30409
30342
30209
30130
30105
30012
29866
29795
29770
29669
29527
29464
29438
29333
29201
29154
29145
29084
29045
29143
29319
29479
29699
30064
30480
30855
31277
31816
32357
32817
33287
33823
34312
34688
35050
35443
35758
35961
36168
36407
36569
36648
36768
36930
37017
37043
37135
37279
37356
37394
37517
37689
37794
37872
38032
38216
38317
38393
38543
38699
38762
38802
38916
39020
39020
39003
39052
39069
38973
38869
38831
38758
38590
38437
38353
38235
38044
37894
37823
37721
37568
37482
37470
37417
37321
37297
37327
37285
37198
37192
37232
37194
37116
37109
37120
37036
36921
36892
36885
36789
36669
36622
36575
36439
36298
36243
36185
36041
35911
35873
35819
35676
35553
35511
35443
35301
35192
35153
35075
34934
34842
34815
34738
34609
34543
34528
34440
34299
34234
34217
34124
33989
33928
33903
33804
33674
33621
33588
33475
33352
33315
33288
33172
33050
33014
32976
32848
32727
32694
32649
32519
32404
32366
32306
32172
32071
32042
31976
31842
31751
31728
31661
31532
31456
31439
31360
31228
31165
31147
31051
30911
30847
30818
30706
30565
30508
30484
30382
30262
30225
30203
30093
29971
29932
29896
29779
29665
29637
29598
29472
29363
29342
29308
29209
29166
29243
29341
29431
29628
29958
30292
30607
31017
31522
31989
32410
32896
33422
33855
34211
34612
35022
35311
35519
35768
36013
36141
36215
36350
36488
36531
36555
36660
36769
36799
36835
36966
37098
37151
37221
37383
37533
37598
37687
37856
37987
38030
38098
38228
38304
38295
38309
38360
38336
38235
38176
38152
38041
37868
37762
37701
37562
37382
37292
37252
37150
37036
37018
37032
36973
36906
36927
36961
36915
36868
36905
36935
36871
36810
36833
36840
36756
36688
36699
36681
36580
36503
36493
36441
36314
36222
36190
36105
35963
35879
35850
35755
35611
35541
35516
35413
35267
35199
35170
35065
34933
34888
34872
34776
34663
34634
34616
34511
34398
34370
34343
34225
34112
34088
34052
33930
33829
33819
33792
33687
33610
33607
33565
33448
33370
33357
33297
33175
33104
33090
33015
32887
32833
32830
32748
32617
32563
32550
32459
32336
32293
32276
32177
32054
32010
31980
31866
31744
31708
31676
31557
31438
31408
31368
31236
31115
31084
31033
30898
30792
30768
30715
30592
30508
30500
30468
30402
30429
30566
30699
30833
31089
31448
31777
32093
32516
33004
33422
33797
34239
34695
35044
35337
35680
36009
36215
36367
36570
36753
36824
36872
36993
37099
37111
37134
37247
37343
37358
37403
37539
37657
37706
37793
37954
38073
38121
38211
38357
38437
38446
38501
38590
38589
38518
38501
38507
38413
38259
38168
38101
37949
37764
37668
37609
37481
37345
37304
37284
37191
37103
37110
37125
37059
37004
37039
37065
37003
36958
36995
37005
36931
36882
36904
36882
36782
36719
36716
36660
36538
36469
36453
36367
36227
36158
36134
36030
35880
35810
35785
35687
35553
35501
35478
35374
35247
35206
35183
35080
34973
34954
34937
34835
34738
34729
34708
34598
34499
34486
34456
34346
34262
34253
34203
34076
33989
33972
33910
33781
33701
33680
33604
33476
33413
33400
33312
33177
33122
33115
33029
32901
32848
32828
32728
32602
32557
32532
32423
32301
32260
32225
32103
31982
31951
31919
31801
31694
31675
31637
31512
31408
31381
31319
31182
31085
31061
30998
30869
30791
30778
30712
30587
30527
30521
30445
30323
30290
30327
30324
30326
30459
30683
30882
31105
31462
31886
32262
32645
33122
33613
34011
34392
34843
35270
35582
35869
36211
36503
36671
36826
37034
37191
37249
37323
37457
37541
37553
37612
37744
37835
37873
37976
38144
38258
38329
38476
38672
38790
38855
38989
39153
39226
39253
39345
39445
39437
39380
39383
39375
39257
39110
39032
38946
38769
38600
38527
38455
38309
38191
38167
38128
38020
37953
37970
37957
37874
37831
37859
37846
37772
37749
37783
37753
37668
37649
37675
37618
37509
37475
37477
37388
37255
37198
37164
37044
36901
36845
36806
36683
36552
36511
36476
36355
36241
36221
36196
36082
35978
35957
35917
35791
35690
35669
35619
35492
35399
35377
35314
35189
35119
35109
35042
34919
34860
34851
34767
34633
34575
34564
34478
34355
34312
34301
34207
34083
34037
34009
33901
33786
33762
33743
33633
33515
33480
33434
33297
33172
33141
33099
32976
32874
32855
32813
32701
32624
32615
32564
32446
32377
32369
32305
32180
32110
32088
31995
31856
31798
31792
31708
31579
31527
31512
31415
31283
31228
31191
31071
30936
30888
30854
30739
30624
30600
30578
30480
30413
30472
30567
30625
30754
31020
31318
31587
31931
32384
32824
33207
33636
34132
34571
34933
35328
35748
36073
36316
36597
36892
37079
37192
37360
37552
37646
37690
37802
37939
37998
38040
38170
38321
38396
38470
38639
38816
38914
39019
39210
39389
39478
39575
39744
39878
39915
39960
40058
40093
40031
39984
39982
39910
39751
39630
39559
39422
39227
39101
39031
38897
38734
38666
38652
38572
38464
38442
38457
38399
38328
38351
38395
38350
38289
38310
38331
38260
38186
38193
38183
38077
37976
37955
37911
37778
37663
37621
37546
37395
37285
37251
37174
37027
36926
36890
36801
36660
36589
36571
36480
36338
36273
36254
36156
36019
35964
35941
35840
35713
35666
35638
35527
35401
35361
35333
35220
35105
35076
35040
34914
34799
34772
34730
34607
34503
34477
34424
34300
34210
34192
34135
34008
33923
33898
33817
33675
33594
33570
33477
33333
33268
33254
33166
33035
32984
32972
32879
32752
32703
32676
32563
32428
32379
32348
32235
32121
32097
32071
31957
31850
31833
31804
31686
31584
31563
31517
31389
31288
31261
31199
31071
30987
30966
30896
30766
30694
30673
30583
30442
30375
30366
30298
30208
30226
30324
30392
30486
30724
31051
31354
31686
32141
32641
33076
33506
34015
34511
34895
35257
35680
36059
36315
36550
36835
37068
37196
37327
37513
37647
37692
37768
37913
38016
38056
38150
38308
38413
38472
38606
38798
38923
39006
39170
39373
39484
39545
39672
39812
39852
39847
39901
39950
39890
39792
39756
39707
39556
39394
39310
39213
39027
38856
38775
38686
38524
38396
38363
38311
38193
38124
38135
38108
38018
37981
38009
37986
37905
37884
37910
37859
37754
37721
37728
37650
37524
37475
37456
37348
37207
37146
37104
36977
36834
36773
36721
36584
36449
36405
36361
36230
36109
36076
36033
35907
35800
35771
35715
35586
35496
35485
35436
35316
35240
35225
35153
35019
34947
34929
34844
34714
34662
34659
34579
34456
34410
34397
34300
34167
34112
34080
33963
33824
33770
33732
33614
33490
33454
33418
33294
33175
33141
33095
32963
32850
32819
32764
32634
32536
32515
32457
32327
32241
32224
32156
32027
31955
31942
31865
31735
31675
31661
31569
31433
31379
31365
31267
31128
31067
31035
30921
30786
30735
30702
30584
30457
30413
30370
30240
30116
30083
30040
29907
29786
29753
29709
29592
29513
29530
29547
29534
29615
29826
30057
30287
30628
31078
31503
31896
32373
32908
33366
33764
34219
34689
35046
35330
35656
35972
36166
36298
36480
36656
36730
36778
36900
37018
37045
37074
37198
37321
37364
37429
37590
37741
37810
37904
38076
38218
38280
38374
38530
38631
38652
38710
38812
38833
38772
38750
38753
38658
38496
38395
38328
38174
37976
37858
37782
37636
37474
37411
37382
37275
37162
37150
37162
37095
37033
37065
37094
37031
36974
37000
37007
36925
36861
36869
36837
36721
36635
36621
36564
36434
36348
36323
36241
36094
36005
35969
35863
35708
35629
35599
35489
35331
35254
35216
35100
34956
34897
34868
34759
34632
34591
34563
34454
34341
34315
34289
34176
34067
34045
34011
33887
33779
33757
33715
33593
33500
33480
33422
33293
33210
33195
33131
33007
32940
32928
32848
32715
32652
32636
32540
32398
32338
32321
32222
32089
32034
32003
31889
31758
31713
31685
31575
31461
31435
31409
31293
31180
31157
31125
31003
30894
30874
30830
30703
30603
30582
30532
30409
30322
30298
30223
30082
29998
29975
29892
29752
29681
29660
29563
29416
29346
29321
29220
29091
29056
29075
29050
29049
29185
29398
29588
29826
30205
30636
31016
31418
31921
32424
32832
33236
33704
34124
34424
34703
35015
35251
35373
35499
35665
35766
35786
35844
35951
35994
35979
36031
36139
36177
36167
36244
36377
36434
36452
36555
36693
36745
36766
36863
36967
36967
36932
36958
36969
36868
36743
36688
36614
36437
36264
36183
36093
35924
35790
35755
35707
35595
35529
35550
35543
35477
35462
35515
35521
35470
35477
35531
35507
35425
35409
35435
35377
35266
35224
35214
35118
34987
34939
34915
34799
34658
34598
34551
34421
34287
34237
34185
34044
33913
33874
33825
33692
33579
33552
33503
33375
33281
33266
33214
33091
33010
32995
32933
32812
32751
32754
32696
32585
32541
32544
32467
32343
32296
32289
32204
32085
32047
32035
31940
31825
31795
31780
31678
31566
31537
31506
31382
31260
31226
31182
31048
30930
30898
30847
30717
30615
30590
30531
30399
30308
30291
30229
30105
30035
30027
29959
29837
29782
29772
29684
29544
29480
29463
29371
29245
29199
29180
29074
28945
28910
28915
28867
28848
28966
29149
29302
29510
29858
30247
30589
30979
31486
31994
32420
32861
33356
33786
34108
34433
34792
35069
35239
35421
35629
35749
35791
35887
36024
36077
36079
36161
36293
36349
36366
36468
36609
36674
36718
36850
37004
37074
37126
37258
37391
37432
37458
37548
37605
37546
37473
37470
37430
37281
37135
37058
36944
36747
36587
36506
36395
36233
36132
36109
36047
35936
35896
35922
35887
35804
35797
35841
35805
35725
35726
35764
35717
35636
35633
35646
35565
35454
35418
35390
35273
35146
35100
35046
34896
34749
34694
34632
34487
34362
34322
34260
34123
34021
33995
33928
33787
33690
33666
33598
33477
33416
33409
33332
33205
33151
33147
33064
32935
32885
32879
32793
32675
32641
32636
32543
32422
32379
32346
32229
32104
32065
32026
31896
31770
31736
31694
31566
31453
31422
31369
31240
31144
31125
31070
30939
30850
30833
30770
30642
30570
30559
30488
30363
30312
30310
30230
30099
30046
30034
29943
29817
29771
29754
29651
29520
29470
29440
29329
29213
29184
29155
29039
28926
28904
28874
28754
28650
28638
28613
28514
28456
28504
28558
28589
28718
28980
29259
29532
29914
30410
30887
31331
31854
32428
32921
33349
33832
34331
34713
35010
35344
35674
35884
36031
36228
36418
36506
36571
36714
36862
36924
36987
37145
37305
37380
37472
37659
37832
37923
38039
38234
38397
38479
38589
38764
38891
38936
39009
39126
39167
39128
39125
39152
39085
38943
38856
38802
38657
38458
38331
38239
38067
37870
37763
37691
37546
37398
37352
37334
37244
37160
37173
37192
37125
37065
37090
37097
37013
36944
36957
36942
36844
36771
36765
36716
36590
36499
36464
36376
36225
36130
36089
35978
35818
35735
35708
35603
35450
35378
35351
35248
35110
35050
35014
34903
34777
34734
34703
34587
34465
34431
34396
34271
34150
34118
34077
33953
33847
33825
33782
33661
33565
33543
33486
33357
33268
33249
33181
33047
32964
32935
32844
32704
32638
32621
32524
32375
32308
32290
32201
32079
32033
32007
31893
31755
31701
31663
31541
31410
31367
31331
31206
31076
31036
30989
30853
30733
30707
30667
30548
30458
30446
30401
30279
30193
30179
30121
29994
29913
29894
29818
29682
29613
29600
29516
29386
29333
29322
29227
29090
29030
29005
28899
28770
28724
28703
28609
28518
28540
28614
28663
28778
29051
29383
29684
30049
30550
31071
31531
32025
32602
33142
33583
34030
34520
34932
35235
35540
35861
36083
36211
36373
36563
36663
36697
36797
36944
37016
37047
37166
37336
37437
37514
37679
37871
37980
38075
38253
38440
38537
38621
38779
38922
38966
39005
39116
39195
39166
39129
39147
39110
38968
38831
38748
38615
38405
38237
38142
38003
37811
37685
37624
37511
37364
37308
37314
37253
37152
37135
37164
37116
37033
37030
37055
36993
36905
36894
36887
36787
36677
36649
36615
36491
36370
36338
36296
36162
36040
36002
35940
35791
35666
35613
35521
35353
35229
35181
35095
34950
34860
34826
34726
34572
34492
34469
34376
34239
34180
34165
34070
33933
33875
33847
33741
33609
33559
33525
33408
33279
33235
33197
33072
32947
32909
32861
32721
32593
32553
32498
32362
32252
32216
32147
32002
31892
31852
31769
31620
31525
31496
31411
31266
31182
31151
31048
30899
30827
30804
30706
30570
30510
30483
30378
30245
30197
30176
30072
29953
29917
29888
29774
29655
29622
29583
29455
29337
29308
29265
29132
29015
28978
28917
28782
28682
28654
28586
28450
28359
28331
28251
28112
28032
28005
27912
27775
27727
27751
27733
27717
27837
28059
28268
28514
28909
29389
29833
30291
30852
31433
31924
32396
32929
33431
33811
34156
34542
34868
35063
35236
35456
35615
35665
35724
35843
35918
35922
35972
36095
36179
36211
36308
36466
36562
36611
36741
36929
37043
37107
37243
37411
37487
37513
37601
37700
37692
37634
37632
37626
37515
37370
37286
37190
37004
36820
36727
36634
36464
36319
36272
36219
36095
36006
36006
35984
35897
35860
35901
35901
35836
35814
35844
35812
35723
35696
35717
35657
35541
35495
35487
35394
35258
35194
35154
35029
34878
34808
34759
34626
34477
34413
34359
34222
34089
34045
33998
33865
33746
33717
33674
33547
33440
33412
33355
33225
33133
33119
33066
32948
32878
32870
32805
32681
32622
32615
32535
32404
32347
32338
32255
32133
32087
32072
31974
31845
31796
31768
31654
31522
31477
31444
31328
31209
31175
31131
30996
30869
30832
30790
30669
30570
30554
30511
30389
30297
30277
30221
30095
30010
29987
29913
29779
29704
29683
29592
29448
29378
29355
29251
29101
29027
28991
28877
28737
28682
28656
28552
28434
28402
28386
28300
28232
28286
28384
28445
28571
28852
29186
29490
29862
30359
30864
31307
31783
32325
32816
33213
33619
34054
34404
34657
34927
35214
35400
35497
35635
35800
35870
35879
35957
36072
36103
36097
36173
36286
36330
36362
36485
36630
36695
36748
36881
37016
37060
37097
37208
37293
37274
37249
37289
37287
37183
37081
37032
36932
36751
36604
36526
36409
36234
36117
36074
35986
35855
35801
35810
35756
35660
35650
35694
35668
35604
35613
35646
35596
35514
35501
35500
35411
35305
35277
35254
35141
35024
34991
34948
34813
34684
34637
34577
34438
34321
34275
34195
34037
33914
33867
33788
33647
33556
33530
33453
33318
33241
33218
33128
32991
32931
32919
32838
32719
32671
32651
32551
32426
32381
32363
32266
32152
32116
32088
31980
31869
31841
31808
31690
31581
31556
31517
31391
31278
31245
31188
31058
30962
30939
30880
30748
30654
30623
30548
30419
30347
30326
30239
30104
30040
30025
29938
29813
29768
29767
29691
29582
29550
29544
29459
29352
29321
29304
29211
29107
29080
29055
28955
28859
28841
28818
28719
28631
28616
28586
28493
28422
28414
28386
28310
28277
28314
28352
28387
28511
28740
29000
29291
29688
30168
30640
31111
31655
32237
32765
33254
33773
34282
34705
35076
35458
35807
36055
36251
36461
36641
36739
36814
36929
37031
37072
37123
37232
37332
37385
37461
37597
37725
37812
37928
38089
38224
38318
38443
38598
38703
38757
38837
38931
38959
38932
38928
38928
38857
38745
38667
38592
38448
38277
38152
38039
37881
37723
37629
37552
37434
37326
37285
37254
37177
37117
37122
37124
37074
37039
37056
37049
36984
36934
36922
36879
36788
36720
36683
36604
36481
36390
36331
36228
36092
36004
35946
35837
35700
35615
35556
35446
35314
35232
35166
35052
34931
34866
34809
34702
34595
34541
34486
34376
34272
34225
34172
34067
33976
33941
33889
33786
33699
33658
33594
33487
33410
33371
33297
33183
33103
33055
32963
32839
32761
32713
32615
32488
32410
32356
32251
32126
32052
31994
31885
31766
31702
31646
31533
31412
31343
31276
31155
31042
30989
30933
30826
30728
30683
30628
30526
30439
30395
30327
30210
30117
30073
30001
29885
29802
29759
29681
29569
29500
29461
29375
29260
29191
29143
29042
28919
28848
28798
28694
28570
28497
28437
28325
28210
28158
28130
28083
28086
28200
28376
28571
28845
29240
29682
30118
30605
31166
31716
32217
32732
33275
33766
34178
34576
34965
35270
35491
35707
35917
36055
36138
36243
36357
36414
36445
36523
36623
36678
36725
36830
36956
37036
37112
37246
37392
37486
37577
37719
37851
37919
37982
38085
38162
38169
38164
38185
38166
38073
37973
37900
37787
37618
37467
37355
37215
37046
36925
36850
36748
36628
36565
36545
36493
36427
36416
36432
36399
36347
36348
36363
36322
36259
36240
36225
36155
36075
36037
35991
35889
35789
35739
35679
35563
35450
35385
35307
35182
35071
35004
34913
34778
34671
34610
34526
34412
34334
34292
34211
34099
34032
33998
33921
33815
33756
33721
33637
33531
33469
33424
33333
33230
33178
33141
33057
32965
32925
32890
32799
32705
32662
32610
32503
32403
32354
32293
32186
32096
32048
31978
31863
31772
31724
31652
31540
31459
31415
31338
31231
31161
31117
31025
30905
30831
30789
30705
30601
30540
30494
30399
30290
30229
30179
30084
29985
29938
29894
29799
29699
29645
29581
29457
29339
29282
29222
29117
29028
28988
28929
28826
28750
28732
28716
28694
28750
28906
29097
29320
29648
30065
30487
30921
31430
31981
32487
32956
33448
33934
34340
34692
35054
35389
35633
35825
36026
36196
36286
36348
36443
36525
36546
36570
36650
36725
36750
36798
36909
37018
37092
37190
37330
37441
37504
37589
37705
37779
37803
37848
37911
37912
37858
37825
37799
37708
37575
37472
37380
37239
37081
36977
36901
36790
36677
36626
36596
36526
36457
36447
36446
36403
36370
36392
36407
36371
36344
36362
36358
36298
36243
36221
36169
36070
35993
35951
35872
35746
35642
35566
35456
35317
35220
35152
35044
34912
34828
34770
34666
34544
34471
34420
34325
34216
34151
34094
33991
33888
33842
33807
33726
33646
33612
33570
33474
33381
33335
33277
33173
33083
33036
32972
32866
32782
32743
32677
32567
32478
32423
32337
32223
32149
32100
32005
31879
31799
31747
31648
31530
31464
31420
31331
31225
31166
31120
31030
30931
30879
30826
30719
30611
30555
30495
30384
30285
30243
30198
30108
30028
29990
29931
29825
29739
29694
29628
29522
29441
29397
29324
29218
29144
29097
29012
28902
28837
28801
28725
28627
28580
28570
28543
28539
28633
28800
28989
29236
29595
30021
30448
30915
31462
32025
32538
33047
33589
34096
34518
34911
35313
35663
35925
36161
36400
36584
36699
36815
36950
37043
37089
37161
37267
37338
37385
37483
37619
37723
37807
37936
38084
38183
38260
38382
38518
38602
38665
38765
38857
38884
38888
38915
38914
38841
38750
38691
38610
38469
38325
38220
38102
37941
37801
37711
37612
37487
37399
37363
37313
37242
37211
37219
37194
37144
37135
37152
37123
37064
37047
37054
37015
36948
36913
36882
36795
36688
36620
36557
36444
36321
36242
36165
36038
35908
35826
35743
35612
35491
35418
35335
35203
35089
35023
34942
34823
34725
34666
34585
34469
34378
34323
34238
34121
34042
33991
33897
33773
33695
33646
33557
33446
33379
33326
33225
33111
33045
32992
32890
32776
32710
32650
32540
32430
32370
32305
32190
32082
32029
31969
31862
31766
31714
31643
31524
31422
31360
31275
31153
31066
31025
30956
30853
30777
30722
30624
30497
30411
30352
30254
30136
30064
30010
29908
29787
29709
29649
29547
29438
29380
29331
29230
29123
29058
28988
28864
28742
28671
28596
28478
28386
28362
28354
28347
28413
28587
28818
29085
29444
29899
30371
30843
31368
31937
32468
32959
33469
33976
34403
34761
35119
35456
35705
35895
36090
36268
36374
36446
36547
36645
36684
36710
36784
36867
36905
36953
37060
37172
37244
37332
37473
37606
37696
37802
37946
38057
38110
38166
38239
38261
38224
38194
38174
38095
37965
37856
37764
37622
37451
37324
37227
37095
36954
36873
36826
36752
36680
36668
36675
36638
36598
36611
36632
36608
36581
36592
36590
36531
36477
36471
36455
36387
36323
36291
36230
36122
36032
35983
35912
35806
35724
35669
35577
35448
35349
35279
35173
35044
34961
34912
34825
34717
34654
34615
34538
34447
34401
34364
34277
34180
34130
34085
33990
33895
33849
33801
33706
33615
33573
33524
33430
33348
33314
33265
33170
33094
33060
33003
32906
32833
32795
32723
32615
32540
32489
32396
32277
32203
32158
32071
31961
31895
31851
31765
31663
31607
31564
31470
31364
31306
31258
31163
31065
31014
30958
30848
30737
30674
30604
30486
30376
30312
30238
30122
30025
29973
29904
29794
29715
29687
29658
29633
29687
29829
29999
30205
30517
30918
31326
31742
32228
32759
33259
33740
34253
34757
35184
35562
35942
36284
36533
36731
36934
37104
37198
37275
37382
37469
37497
37528
37604
37668
37689
37731
37824
37912
37968
38052
38178
38278
38340
38423
38532
38600
38627
38679
38743
38744
38692
38658
38622
38518
38375
38263
38158
38005
37842
37733
37645
37520
37403
37348
37313
37243
37181
37173
37168
37124
37090
37100
37098
37045
37001
37000
36976
36904
36846
36824
36774
36678
36603
36558
36481
36372
36292
36233
36127
35988
35888
35816
35699
35556
35454
35376
35259
35130
35047
34983
34885
34786
34732
34681
34586
34491
34445
34398
34302
34209
34166
34117
34018
33929
33888
33833
33736
33659
33623
33562
33462
33385
33344
33274
33171
33103
33070
33003
32902
32832
32784
32698
32588
32520
32471
32376
32263
32196
32144
32044
31930
31865
31808
31703
31593
31532
31473
31370
31273
31226
31173
31074
30983
30939
30881
30776
30685
30634
30560
30442
30346
30289
30209
30098
30018
29968
29886
29779
29711
29671
29588
29479
29417
29390
29343
29318
29392
29550
29735
29977
30334
30764
31206
31686
32241
32817
33351
33873
34423
34941
35374
35772
36175
36522
36777
37002
37232
37407
37511
37610
37729
37814
37858
37927
38028
38098
38142
38230
38356
38450
38522
38640
38791
38906
39003
39141
39291
39386
39452
39549
39642
39669
39664
39684
39687
39621
39528
39460
39365
39206
39044
38928
38802
38637
38493
38407
38318
38200
38112
38076
38024
37940
37890
37885
37860
37804
37780
37782
37741
37667
37631
37618
37560
37477
37434
37404
37323
37219
37152
37091
36978
36849
36765
36687
36560
36430
36349
36270
36141
36019
35952
35881
35763
35653
35587
35512
35400
35309
35264
35204
35104
35025
34986
34923
34824
34755
34714
34636
34529
34460
34421
34342
34239
34177
34135
34049
33943
33883
33840
33750
33648
33589
33536
33443
33349
33299
33247
33143
33034
32973
32910
32795
32689
32634
32575
32476
32388
32336
32258
32137
32035
31972
31887
31770
31682
31626
31534
31409
31322
31266
31176
31069
31019
31011
30987
30981
31069
31234
31418
31650
31990
32398
32809
33246
33751
34270
34747
35219
35722
36192
36582
36943
37310
37621
37840
38033
38235
38388
38472
38554
38662
38738
38770
38824
38914
38981
39026
39114
39237
39329
39396
39507
39646
39742
39812
39916
40028
40084
40112
40165
40208
40183
40125
40089
40038
39921
39786
39687
39575
39407
39240
39121
39001
38846
38713
38638
38566
38463
38390
38370
38339
38276
38244
38253
38234
38180
38153
38150
38106
38030
37994
37979
37912
37809
37739
37685
37583
37457
37371
37297
37180
37054
36970
36894
36775
36654
36582
36509
36387
36267
36193
36111
35983
35869
35811
35746
35642
35552
35504
35440
35337
35254
35209
35140
35035
34956
34905
34818
34701
34627
34583
34496
34381
34312
34272
34189
34084
34019
33969
33876
33770
33707
33654
33553
33443
33378
33320
33220
33124
33077
33024
32923
32832
32787
32729
32621
32519
32456
32377
32256
32154
32091
32005
31883
31789
31732
31643
31522
31435
31378
31281
31157
31081
31036
30952
30855
30814
30811
30799
30821
30945
31146
31371
31656
32048
32493
32931
33399
33935
34474
34957
35425
35911
36353
36713
37051
37395
37682
37887
38074
38266
38406
38481
38559
38660
38723
38748
38804
38889
38941
38970
39047
39158
39233
39289
39393
39523
39610
39676
39778
39880
39922
39940
39985
40012
39972
39907
39865
39801
39675
39538
39436
39318
39151
38995
38887
38772
38626
38512
38452
38383
38289
38232
38221
38190
38132
38108
38116
38087
38027
38003
37998
37944
37859
37814
37788
37712
37608
37539
37476
37359
37225
37134
37052
36920
36782
36691
36598
36456
36319
36237
36156
36032
35919
35854
35779
35663
35565
35514
35444
35331
35239
35185
35106
34995
34915
34867
34783
34672
34604
34568
34491
34387
34322
34276
34185
34075
34007
33952
33850
33738
33676
33625
33526
33416
33347
33282
33173
33063
32997
32927
32809
32699
32638
32572
32464
32370
32316
32245
32136
32052
32007
31937
31827
31738
31681
31594
31481
31404
31353
31263
31147
31071
31021
30931
30823
30756
30701
30598
30481
30406
30340
30225
30096
30013
29940
29834
29746
29736
29768
29810
29923
30153
30447
30762
31150
31631
32136
32628
33151
33708
34226
34683
35137
35587
35966
36268
36559
36837
37041
37183
37333
37480
37559
37597
37665
37744
37775
37789
37849
37926
37965
38006
38098
38204
38275
38351
38475
38594
38658
38711
38795
38855
38848
38830
38831
38793
38689
38583
38501
38387
38228
38091
37992
37875
37735
37638
37585
37510
37424
37389
37393
37367
37328
37334
37362
37348
37317
37328
37347
37316
37270
37260
37248
37181
37101
37057
37010
36913
36814
36754
36682
36560
36444
36374
36294
36169
36057
35981
35884
35751
35642
35576
35492
35380
35306
35271
35207
35119
35074
35054
34990
34900
34850
34821
34745
34642
34578
34533
34445
34344
34285
34236
34144
34049
33997
33946
33854
33766
33726
33680
33581
33484
33432
33371
33263
33166
33113
33042
32928
32834
32780
32702
32588
32499
32440
32350
32230
32147
32096
32009
31897
31827
31783
31696
31586
31512
31450
31342
31224
31155
31100
31005
30905
30853
30806
30717
30638
30626
30641
30647
30710
30886
31123
31381
31712
32144
32606
33060
33554
34097
34615
35080
35549
36026
36440
36782
37115
37435
37677
37854
38036
38217
38335
38410
38509
38615
38670
38706
38785
38879
38938
38997
39109
39230
39305
39378
39500
39621
39691
39760
39870
39963
39993
40012
40049
40045
39973
39890
39820
39711
39554
39411
39301
39169
39012
38891
38809
38704
38587
38520
38489
38425
38348
38323
38325
38290
38243
38244
38258
38221
38169
38161
38156
38098
38025
37988
37940
37834
37720
37650
37572
37442
37315
37231
37135
36995
36873
36791
36693
36562
36462
36401
36315
36197
36112
36061
35981
35872
35799
35754
35675
35571
35502
35451
35358
35250
35192
35153
35069
34968
34907
34852
34747
34632
34566
34509
34411
34318
34271
34215
34108
34004
33945
33875
33759
33656
33595
33519
33406
33314
33258
33179
33066
32983
32932
32849
32735
32659
32617
32536
32427
32357
32309
32214
32099
32027
31975
31885
31785
31728
31678
31579
31473
31413
31356
31252
31149
31090
31026
30913
30805
30744
30678
30575
30500
30496
30516
30548
30661
30886
31164
31473
31864
32337
32820
33302
33838
34409
34933
35410
35904
36392
36802
37145
37488
37813
38062
38260
38465
38649
38760
38841
38951
39061
39123
39183
39291
39404
39479
39568
39712
39856
39958
40070
40225
40363
40457
40561
40691
40788
40832
40881
40945
40960
40921
40888
40857
40768
40638
40534
40444
40304
40135
40005
39901
39759
39608
39516
39455
39366
39276
39239
39218
39160
39102
39092
39084
39030
38979
38974
38959
38895
38837
38816
38775
38684
38601
38550
38474
38358
38263
38196
38097
37961
37858
37792
37692
37555
37455
37383
37272
37137
37046
36980
36880
36770
36708
36663
36574
36472
36409
36352
36253
36150
36091
36030
35922
35819
35763
35703
35599
35503
35450
35383
35274
35182
35135
35068
34960
34871
34818
34744
34640
34566
34520
34439
34331
34261
34216
34129
34010
33936
33891
33805
33696
33624
33565
33462
33347
33278
33220
33119
33013
32952
32894
32792
32688
32632
32572
32463
32361
32306
32244
32141
32050
31999
31926
31806
31705
31648
31572
31458
31370
31314
31229
31122
31067
31072
31086
31132
31285
31532
31807
32127
32549
33034
33511
33996
34537
35091
35591
36064
36553
37008
37377
37708
38048
38345
38552
38723
38906
39052
39134
39216
39332
39426
39477
39541
39645
39729
39780
39859
39977
40074
40148
40262
40407
40512
40585
40694
40819
40888
40910
40951
40989
40960
40894
40849
40793
40669
40516
40392
40268
40096
39920
39799
39686
39538
39411
39347
39285
39188
39115
39102
39080
39015
38969
38969
38951
38895
38860
38855
38817
38739
38687
38658
38589
38488
38422
38379
38288
38164
38077
38005
37886
37746
37646
37559
37427
37287
37202
37130
37012
36893
36826
36763
36652
36544
36484
