41636
41602
41568
41560
41519
41452
41457
41452
41415
41397
41372
41378
41310
41252
41213
41144
41451
41387
41466
41298
41156
41232
41446
41294
41266
41317
41372
41305
41347
41396
41378
41388
41419
41348
41387
41527
41492
41556
41512
41662
41417
41418
41577
41570
41463
41720
41441
41726
41469
41449
41693
41673
41539
41575
41562
41580
41869
41672
41655
41787
41685
41610
41812
41941
41813
41870
41936
41710
41879
42005
41785
41805
41873
41866
42004
41874
41902
41944
41994
41995
42176
42051
41916
42134
41835
42015
42251
41957
42075
42101
42283
42184
42325
41966
42086
42133
42075
42140
42205
42288
42224
42351
42240
41957
42277
42012
42233
42155
42096
42240
42325
42191
42200
42236
42161
42316
42048
42068
42307
42132
42260
42199
41971
41940
41923
41998
41656
41575
41747
41587
41559
41237
41401
41509
41412
41419
41122
40973
41240
41181
41081
40851
40813
40973
40882
40863
41040
41000
40982
41000
40923
40773
41064
40837
40859
40988
40942
41057
40905
40835
40867
41030
40851
41038
40980
40872
41092
40873
40974
40930
41108
41103
40921
41183
41281
41044
40904
41208
41104
41091
41136
41027
41172
41103
41130
41211
41401
41165
41269
41308
41212
41314
41117
41370
41295
41153
41260
41136
41238
41365
41232
41271
41351
41343
41467
41382
41340
41371
41539
41421
41478
41435
41391
41477
41564
41486
41456
41519
41497
41374
41469
41323
41451
41389
41642
41454
41563
41382
41587
41574
41570
41698
41799
41685
41471
41494
41511
41770
41803
41763
41519
41529
41708
41824
41522
41628
41866
41601
41709
41923
41729
41616
41746
41578
41812
41676
41805
41775
41809
41847
41902
41856
41902
41812
41793
41540
41427
41466
41319
41351
41288
41295
41046
41050
41154
40994
41059
40947
40857
40625
40801
40948
40627
40583
40764
40640
40714
40825
40725
40576
40481
40415
40730
40588
40820
40550
40480
40557
40755
40595
40860
40685
40762
40727
40688
40797
40853
40894
40841
40742
40927
40677
40777
40708
40919
40904
41050
40928
41088
40831
40961
41021
41063
40886
41025
40962
40929
41070
41162
41113
41119
41051
41300
41250
41084
41080
41191
41298
41218
41258
41256
41170
41145
41077
41205
41223
41263
41488
41348
41513
41250
41180
41372
41226
41392
41462
41522
41303
41549
41381
41646
41464
41551
41388
41548
41462
41400
41403
41630
41688
41667
41600
41534
41754
41537
41535
41579
41796
41798
41493
41631
41822
41808
41809
41572
41530
41593
41588
41820
41606
41885
41851
41698
41707
41780
41720
41778
41920
41963
41911
41840
42023
41952
41930
41716
42009
41782
41774
41660
41504
41529
41561
41442
41355
41222
41209
41154
41067
41074
40973
40896
40910
40906
40794
40652
40780
40624
40646
40911
40691
40672
40595
40609
40534
40623
40850
40664
40482
40724
40504
40634
40683
40797
40718
40687
40745
40742
40925
40823
40715
40852
40881
41020
40883
40852
40791
40821
40930
41010
40996
40991
40970
41025
41040
41047
40933
41105
40938
41097
41076
41041
41171
41206
40966
41188
41033
40975
41261
40997
41063
41098
41076
41148
41117
41055
41203
41067
41202
41074
41402
41455
41174
41523
41549
41604
41447
41342
41345
41536
41451
41389
41222
41569
41585
41588
41500
41481
41487
41507
41512
41529
41531
41582
41536
41607
41546
41752
41635
41557
41735
41817
41690
41773
41678
41698
41631
41602
41663
41627
41741
41591
41725
41811
41829
41628
41586
41871
41905
41801
41775
41578
41762
41784
41677
41671
41620
41556
41487
41376
41338
41290
41224
41084
41063
41017
41023
40909
41027
40768
40653
40683
40678
40641
40581
40570
40750
40485
40375
40577
40544
40400
40659
40537
40640
40689
40448
40343
40533
40292
40379
40301
40410
40463
40517
40491
40325
40531
40481
40631
40552
40659
40506
40645
40741
40630
40726
40734
40832
40697
40721
40741
40730
40984
40826
40944
40820
41049
40774
40736
40812
40730
41005
40986
40790
40899
40848
41031
40847
41045
40957
41041
40813
41027
40849
40976
41191
40970
40899
40919
40983
41026
40948
41130
41155
41036
41250
41125
41016
41022
41191
41208
41179
41222
41294
41416
41439
41338
41349
41440
41227
41460
41495
41247
41242
41300
41270
41394
41335
41328
41374
41357
41488
41659
41537
41354
41494
41642
41549
41678
41617
41632
41510
41583
41621
41730
41725
41484
41529
41635
41592
41625
41813
41626
41589
41426
41361
41498
41533
41337
41041
40981
41193
41049
40823
40904
40799
40521
40627
40417
40598
40379
40611
40627
40450
40524
40406
40352
40542
40412
40518
40375
40597
40338
40233
40338
40375
40373
40288
40320
40454
40502
40389
40460
40570
40666
40555
40420
40585
40453
40712
40507
40673
40600
40855
40783
40767
40895
40888
40695
40970
40675
40787
40910
40679
40854
40810
40786
41012
40951
40844
40905
41079
40865
40926
41134
40781
40876
41130
40987
40947
41096
40895
40916
41190
41140
40942
41025
41101
41229
40986
41036
41104
41117
41115
41110
41148
41154
41327
41179
41298
41170
41195
41296
41136
41131
41299
41367
41312
41199
41233
41456
41332
41442
41391
41087
41288
41394
41239
41510
41469
41502
41277
41417
41222
41301
41516
41407
41613
41423
41626
41431
41316
41390
41541
41381
41629
41616
41619
41431
41430
41458
41484
41461
41652
41673
41669
41477
41341
41568
41471
41209
41422
41223
41267
41025
41183
40920
40980
40861
40921
40692
40775
40757
40600
40613
40531
40558
40371
40456
40348
40444
40361
40459
40467
40450
40464
40481
40468
40544
40550
40452
40389
40484
40429
40425
40503
40459
40460
40375
40492
40504
40539
40630
40592
40671
40693
40699
40669
40748
40728
40643
40727
40838
40727
40625
40786
40673
40947
41034
40716
41024
40786
40636
40969
40700
40871
40891
40853
40758
40996
41009
41009
40796
40977
40797
40821
41049
40883
40952
40862
41101
40900
41026
40979
41091
41115
41271
41217
40963
41158
41271
41217
41082
41240
41166
41104
41151
41168
41216
41155
41200
41164
41205
41237
41254
41362
41300
41326
41296
41307
41201
41384
41474
41482
41405
41323
41324
41424
41392
41518
41316
41552
41452
41451
41270
41383
41588
41378
41388
41459
41375
41469
41450
41559
41493
41366
41647
41558
41503
41586
41498
41493
41522
41428
41277
41255
41123
41158
41328
41037
41013
40934
40726
40981
40813
40939
40719
40602
40484
40703
40530
40575
40677
40451
40546
40595
40663
40342
40681
40603
40436
40645
40603
40516
40658
40625
40725
40646
40652
40513
40793
40639
40452
40600
40530
40587
40601
40573
40832
40646
40857
41035
40922
40949
40895
41027
40909
40903
40959
41002
40923
41001
41022
40961
40892
41068
41202
41033
40925
41108
40868
41093
41194
40969
41015
41222
41212
41031
41065
41238
41123
40992
41095
41128
41193
41152
41288
41003
41330
41115
41371
41199
41378
41243
41423
41274
41497
41205
41425
41394
41273
41371
41320
41403
41132
41518
41507
41308
41388
41303
41330
41215
41504
41324
41324
41372
41419
41284
41470
41462
41356
41277
41458
41325
41579
41441
41529
41446
41287
41439
41452
41479
41468
41524
41505
41492
41492
41509
41515
41476
41437
41506
41418
41478
41349
41101
41177
41026
41143
41178
41043
40733
40802
40613
40852
40430
40676
40395
40522
40417
40405
40241
40336
40294
40184
40393
40275
40335
40213
40071
40208
40430
40239
40451
40206
40123
40251
40181
40254
40455
40297
40327
40293
40326
40400
40382
40257
40449
40363
40502
40343
40490
40623
40688
40759
40656
40664
40619
40574
40646
40534
40693
40669
40703
40551
40705
40646
40811
40644
40952
40871
40629
40866
40606
40730
40845
40940
40837
40974
40895
40952
40911
40854
40911
40983
40930
40928
41002
40894
41102
41029
40945
40951
41245
41074
41220
41152
40956
41075
41327
41242
41149
41258
41231
41140
41355
41210
41151
41438
41168
41410
41233
41112
41163
41427
41211
41308
41290
41499
41300
41537
41463
41494
41472
41294
41447
41451
41515
41420
41491
41459
41617
41560
41592
41548
41399
41376
41467
41491
41439
41460
41421
41389
41328
41275
41127
41201
41012
41162
40870
41009
40934
40905
40899
40544
40754
40466
40687
40453
40535
40236
40499
40356
40203
40168
40117
40098
40097
40165
40096
40189
40216
39994
40173
40066
40139
40057
40185
40003
40193
40398
40113
40414
40224
40329
40300
40287
40505
40365
40345
40360
40460
40531
40278
40567
40499
40569
40661
40674
40429
40632
40590
40730
40506
40778
40643
40773
40577
40587
40679
40677
40624
40648
40699
40682
40623
40821
40642
40828
40555
40828
40743
40622
40899
40660
40954
40781
40822
40937
40841
40783
40886
40814
40909
40981
40960
41097
40976
41049
40965
40838
41104
41088
40965
41062
41084
41027
40895
41091
41307
41178
41183
41190
41271
41188
41093
41121
40996
41258
41387
41187
41250
41338
41164
41203
41155
41411
41428
41254
41416
41318
41258
41403
41219
41459
41516
41314
41412
41414
41167
41276
41210
41328
41142
41208
41094
41136
41093
40980
40763
40920
40774
40674
40661
40412
40548
40345
40378
40236
40343
40189
40373
40137
40168
40092
40178
40390
40220
40349
40217
40311
40226
40147
40210
40125
40290
40305
40149
40173
40434
40165
40111
40391
40328
40427
40288
40236
40372
40357
40407
40421
40453
40362
40485
40423
40484
40514
40580
40538
40512
40507
40549
40609
40649
40624
40713
40718
40700
40519
40697
40545
40796
40563
40905
40569
40607
40712
40621
40880
40808
40857
40840
40838
40695
40545
40776
40962
40728
40917
40843
40813
40652
40859
40654
40872
40792
40834
41076
40937
41052
41057
41059
40895
40884
40990
40979
41021
41148
41025
41034
40847
41103
40894
40904
41157
40950
41121
40940
40893
41213
41054
41287
41164
40964
41021
41123
41240
41279
41271
40997
41284
41074
41269
41272
41352
41420
41288
41106
41180
41265
41170
41219
41121
41314
41281
41238
40900
40953
41137
40947
40913
40694
40753
40632
40658
40757
40562
40574
40405
40275
40488
40325
40392
40451
40317
40285
40415
40215
40111
40256
40410
40199
40103
40314
40411
40233
40290
40155
40053
40192
40105
40232
40377
40321
40292
40451
40270
40190
40258
40282
40368
40249
40377
40262
40403
40478
40435
40633
40675
40618
40613
40561
40521
40533
40459
40603
40694
40502
40362
40605
40671
40617
40605
40597
40672
40634
40632
40503
40674
40769
40763
40488
40573
40627
40582
40614
40638
40851
40791
40731
40669
40773
40744
40792
40926
40865
40676
40773
40999
41006
40740
40886
41146
40961
40907
40993
41042
41090
41059
41146
40963
41213
40897
40997
41061
40910
41150
41221
41137
40988
41225
40936
41072
41016
40929
41074
41099
41079
41058
41232
41283
41220
41345
41167
41171
41400
41279
41217
41226
41220
41323
41069
41230
41195
41195
41309
41061
41221
40860
40908
40964
40953
40888
40843
40609
40640
40544
40422
40442
40549
40329
40401
40395
40274
40333
40134
40161
40374
40279
40426
40200
40174
40206
40091
40224
40038
40203
40252
40372
40447
40399
40431
40183
40343
40191
40386
40299
40373
40268
40542
40329
40583
40548
40505
40718
40580
40713
40490
40707
40783
40647
40807
40747
40741
40824
40686
40711
40828
40750
40537
40807
40618
40729
40718
40780
40775
40700
40843
40950
40923
41051
40899
41031
40918
40752
40848
40977
40975
41098
40826
41076
41041
40964
41119
41093
41003
41147
41055
40928
40923
41140
41113
41026
41174
41141
41132
41237
41171
41120
41178
41176
41208
41036
41261
41075
41410
41179
41185
41126
41414
41252
41408
41422
41306
41399
41243
41469
41348
41447
41562
41320
41415
41269
41550
41284
41426
41620
41390
41393
41466
41256
41394
41324
41391
41471
41229
41137
41040
41140
40934
40977
40801
40819
40726
40716
40502
40614
40467
40544
40665
40577
40562
40410
40417
40472
40283
40438
40450
40377
40346
40343
40363
40387
40332
40372
40303
40387
40276
40227
40417
40446
40471
40465
40370
40525
40556
40521
40519
40580
40571
40582
40599
40612
40646
40643
40576
40575
40674
40646
40654
40555
40668
40536
40803
40790
40778
40733
40689
40686
40620
40740
40570
40598
40634
40666
40862
40839
40797
40918
40783
40924
40790
40717
40889
40712
41022
40761
40750
40737
40864
41118
40885
40785
40935
41177
40933
41153
41017
41112
40953
41134
40935
41056
41196
41143
41250
41118
40958
41170
41140
41224
41219
41086
41373
41037
41353
41065
41157
41137
41253
41110
41160
41232
41293
41138
41353
41087
41111
41415
41185
41426
41315
41367
41213
41409
41399
41247
41274
41250
41409
41239
41273
41098
41124
41057
40816
40999
40912
40897
40727
40655
40644
40603
40517
40333
40416
40463
40394
40249
40169
40241
40277
40093
40206
40248
40305
39995
39961
39967
39967
40174
39932
40146
39948
40192
40207
40050
39899
40187
40109
40249
40073
40266
40220
40130
40090
40160
40113
40421
40158
40292
40229
40394
40342
40450
40168
40321
40259
40381
40522
40421
40359
40435
40530
40296
40425
40401
40457
40411
40560
40348
40394
40377
40410
40603
40447
40703
40466
40383
40536
40726
40487
40577
40403
40640
40612
40585
40564
40638
40838
40750
40480
40584
40480
40572
40571
40810
40668
40726
40676
40849
40671
40747
40865
40705
40709
40784
40804
40969
40737
40682
40836
40876
40719
40672
40700
40833
40808
40909
40732
40917
40741
40857
40775
40824
40946
40859
41120
40894
41101
40980
41094
41068
40953
41045
41006
40933
40927
40845
40833
40934
40866
40840
40770
40552
40571
40587
40343
40235
40401
40156
40320
40095
39930
39964
39922
39937
39863
39915
39743
39714
39702
39669
39691
39968
39760
39969
39798
39714
39783
39969
39755
39938
39841
39861
39712
39912
39915
39791
39692
39899
40078
39907
40009
39895
39785
40003
40130
39921
39960
39999
40226
40198
39920
40128
40330
40206
40145
40012
40172
40312
40257
40370
40212
40303
40171
40077
40299
40129
40202
40297
40113
40248
40463
40380
40493
40418
40154
40253
40197
40338
40453
40368
40295
40290
40534
40438
40630
40317
40381
40487
40495
40342
40520
40458
40574
40396
40595
40505
40431
40601
40771
40656
40657
40683
40473
40672
40651
40535
40552
40559
40754
40711
40716
40537
40788
40824
40658
40712
40749
40608
40732
40607
40751
40584
40680
40724
40847
40735
40660
40848
40673
40708
40714
40783
40987
40716
40788
40837
40650
40714
40485
40644
40473
40548
40333
40286
40238
40344
40128
39955
40161
39831
39949
39821
39831
40046
39871
39806
39899
39798
39801
39806
39681
39718
39505
39794
39591
39761
39862
39798
39545
39592
39488
39588
39672
39676
39708
39723
39583
39643
39621
39894
39835
39809
39760
39983
39801
39800
39925
39942
39947
39945
39980
39974
39813
39980
39903
39974
39873
40017
39875
39989
40011
40080
39921
39931
40008
40174
40093
40259
39951
39979
40053
40234
40202
40318
40203
40317
40245
40054
40241
40006
40355
40399
40119
40385
40261
40264
40364
40210
40209
40335
40154
40260
40235
40388
40509
40463
40544
40550
40452
40611
40427
40479
40489
40417
40509
40373
40507
40434
40486
40647
40523
40627
40631
40577
40401
40552
40642
40573
40465
40552
40805
40708
40622
40717
40798
40679
40491
40582
40613
40769
40637
40796
40733
40772
40711
40743
40646
40646
40543
40525
40476
40333
40382
40324
40341
40028
40123
40076
39936
39977
40027
39959
40073
39748
39935
39712
39596
39681
39577
39707
39801
39686
39649
39703
39808
39826
39590
39505
39800
39848
39629
39475
39546
39474
39533
39655
39508
39652
39553
39758
39556
39824
39592
39740
39793
39823
39601
39893
39797
39684
39869
39851
39794
39953
39928
39663
39924
39860
39855
39815
39961
39781
39833
40080
39984
39806
39911
40132
39897
39948
40018
39846
39963
39846
40177
40011
40151
39971
39968
39983
39936
40056
40226
40087
40125
39922
40045
40000
40107
39958
40062
40155
40230
40159
40071
40082
40245
40271
40280
40149
40057
40204
40051
40177
40242
40169
40398
40338
40207
40246
40227
40211
40331
40376
40392
40355
40138
40177
40170
40079
40164
40402
40288
40207
40195
40213
40390
40304
40132
40247
40165
40220
40030
40263
40148
40166
39891
40091
39986
40013
39746
39689
39844
39746
39475
39416
39408
39514
39360
39496
39270
39308
39375
39170
39196
39198
39091
39009
39219
39187
38974
39126
39027
39124
39004
39211
39180
38977
39051
39056
39294
39026
39056
39031
39249
39382
39095
39263
39287
39416
39219
39434
39274
39387
39422
39427
39488
39560
39400
39617
39338
39370
39693
39461
39483
39602
39432
39462
39599
39595
39582
39684
39523
39530
39503
39669
39787
39671
39633
39703
39660
39749
39742
39756
39705
39755
39876
39970
39934
39657
39795
39785
40047
39800
39825
39913
40026
39928
39897
39946
39870
40032
39871
40124
40101
40001
40104
39983
40233
39991
40070
40101
40008
40034
39977
40158
40210
40165
40052
40361
40333
40044
40178
40113
40331
40224
40318
40261
40217
40137
40314
40365
40285
40174
40132
40441
40273
40407
40284
40231
40124
40216
40039
40096
39955
39936
39801
39747
39743
39913
39714
39427
39515
39403
39389
39313
39307
39488
39343
39189
39332
39308
39246
39094
38999
39137
39069
39308
39189
39034
39204
39007
39160
39186
39195
39122
39082
39157
39096
39300
39282
39440
39403
39098
39432
39186
39222
39360
39289
39287
39361
39414
39487
39418
39421
39419
39380
39616
39466
39541
39570
39534
39613
39525
39683
39731
39745
39767
39749
39731
39560
39503
39801
39848
39702
39893
39744
39745
39646
39939
39606
39871
39762
39715
39912
39763
39964
39993
39734
39964
40011
39791
39790
39906
39824
40022
39889
39974
39859
39875
39956
40008
40054
39893
40068
39909
40223
40163
40109
39897
40086
40022
40176
40200
40210
40031
39982
40279
40208
40219
40158
40059
40327
40110
40328
40128
40144
40204
40111
40385
40400
40140
40350
40500
40434
40162
40269
40313
40150
40339
40114
40221
40292
40128
40148
40139
40019
39868
39873
39785
39791
39660
39629
39563
39464
39510
39529
39441
39333
39489
39316
39331
39331
39306
39265
39353
39272
39187
39256
39202
39200
39295
39147
39284
39314
39371
39339
39351
39073
39195
39350
39497
39158
39213
39349
39505
39444
39260
39476
39458
39453
39641
39475
39708
39452
39367
39630
39648
39440
39449
39577
39512
39626
39782
39699
39655
39562
39684
39632
39737
39506
39853
39553
39806
39699
39866
39841
39676
39643
39833
39817
39715
39793
40027
39956
40029
39952
39866
40000
40160
40000
40066
39879
40142
40168
40029
39930
40028
40229
40105
40046
40230
40222
40222
39995
40188
40259
40170
40169
40191
40166
40157
40200
40234
40201
40242
40262
40202
40245
40253
40252
40167
40320
40233
40261
40285
40293
40276
40199
40353
40213
40398
40384
40470
40339
40414
40426
40589
40419
40610
40357
40507
40369
40409
40274
40333
40217
40296
40255
40172
39991
39984
39920
40019
39906
39847
39747
39618
39613
39623
39643
39562
39535
39526
39617
39576
39457
39492
39283
39356
39281
39577
39389
39207
39391
39353
39444
39385
39341
39402
39511
39369
39467
39357
39479
39507
39487
39506
39588
39547
39545
39679
39652
39637
39654
39756
39813
39709
39783
39556
39786
39686
39787
39708
39778
39804
39806
39766
39830
39830
39817
39787
39839
39785
40001
39737
39932
39801
39869
39857
39883
39805
40121
39929
39880
40073
39983
39928
40071
39897
40238
39925
40061
40250
40127
40234
40034
40020
40050
40182
40271
40135
40361
40446
40167
40316
40082
40259
40443
40307
40510
40310
40478
40305
40402
40427
40216
40272
40219
40286
40229
40311
40302
40574
40378
40434
40575
40432
40393
40552
40521
40482
40436
40362
40441
40505
40381
40644
40506
40643
40679
40502
40639
40579
40604
40608
40545
40355
40509
40191
40453
40310
40070
40068
40117
40139
39867
39948
39771
39894
39878
39707
39599
39678
39640
39478
39778
39666
39418
39522
39590
39554
39693
39508
39542
39618
39486
39564
39441
39467
39771
39704
39581
39598
39593
39695
39845
39634
39750
39660
39881
39869
39780
39923
39806
39966
39950
39875
39709
39959
39795
39908
39870
39987
39926
39871
40059
39853
39830
39861
39796
39941
39986
39978
40119
39932
39986
40127
39957
40054
40190
40087
40191
40217
40196
40197
40215
40062
40238
40226
40388
40290
40286
40216
40437
40235
40441
40327
40163
40400
40340
40375
40601
40332
40565
40412
40305
40340
40461
40557
40397
40600
40502
40545
40425
40542
40366
40615
40655
40711
40382
40478
40600
40459
40414
40585
40684
40523
40568
40665
40518
40474
40603
40475
40477
40571
40549
40680
40603
40618
40782
40585
40529
40497
40568
40481
40554
40231
40444
40203
40113
40327
40250
40001
39785
39782
39853
39818
39822
39726
39701
39783
39648
39633
39532
39448
39369
39397
39570
39555
39462
39686
39559
39476
39499
39625
39455
39423
39399
39332
39396
39681
39456
39572
39674
39677
39724
39661
39488
39702
39771
39599
39758
39824
39883
39630
39733
39941
39636
39805
39806
39749
39748
39813
39844
39871
39759
39940
39915
39995
39989
40141
39886
40106
39923
39763
39996
39781
39978
40045
40037
40161
39898
40138
40108
39992
39918
40159
40189
40112
40224
40152
40300
40162
40295
40139
40135
40295
40359
40100
40237
40131
40381
40337
40332
40318
40221
40305
40423
40429
40257
40437
40406
40512
40356
40321
40338
40325
40343
40475
40232
40572
40465
40464
40497
40356
40406
40506
40466
40465
40516
40615
40476
40617
40537
40504
40391
40484
40600
40454
40583
40404
40470
40309
40345
40368
40188
40209
40138
39892
39877
39815
39886
39771
39748
39742
39549
39689
39522
39571
39594
39355
39515
39421
39448
39413
39601
39337
39297
39406
39396
39308
39451
39508
39531
39326
39515
39550
39327
39517
39696
39441
39535
39738
39595
39644
39613
39731
39658
39614
39711
39516
39801
39874
39796
39635
39687
39809
39886
39735
39823
39864
39823
39876
39697
39773
40012
39897
39802
39763
39695
39833
40002
39846
40054
39856
40004
39912
40037
40152
39899
39906
40137
40003
39941
39987
39957
39896
40054
39968
40155
40043
40211
40264
40291
40280
40118
40105
40382
40228
40495
40334
40116
40216
40117
40365
40148
40292
40337
40457
40448
40483
40304
40523
40268
40284
40396
40604
40598
40568
40412
40344
40475
40656
40498
40428
40523
40514
40514
40677
40558
40485
40677
40692
40550
40504
40580
40557
40573
40464
40551
40368
40563
40486
40426
40417
40154
40132
40041
40023
39923
40075
40070
39974
39948
39864
39664
39825
39826
39760
39562
39529
39527
39503
39464
39472
39522
39727
39636
39645
39592
39470
39513
39464
39708
39444
39496
39448
39689
39717
39633
39750
39820
39715
39767
39882
39725
39814
39820
39738
39663
39966
39711
39938
39958
39745
40039
40025
40007
39851
39991
39978
40037
39959
39946
39995
39837
39911
40108
40014
39993
39896
40023
40016
40177
40056
40039
40057
39882
40048
40265
40032
40220
40062
39990
40135
40164
40100
40062
40230
40118
40218
40278
40255
40393
40252
40203
40333
40356
40293
40304
40552
40418
40292
40262
40393
40421
40508
40593
40466
40565
40437
40252
40495
40293
40442
40377
40633
40382
40561
40718
40561
40449
40584
40685
40764
40593
40544
40669
40617
40506
40499
40748
40787
40576
40524
40539
40502
40544
40820
40653
40639
40664
40645
40622
40593
40567
40479
40444
40262
40254
40347
40254
40178
40106
40087
40000
40000
39932
39851
39831
39865
39817
39819
39779
39711
39708
39768
39699
39764
39703
39673
39652
39706
39711
39673
39666
39716
39563
39601
39688
39625
39722
39876
39772
39910
39696
39869
39788
39929
39852
39695
39778
39779
39921
39789
39988
40042
39791
39955
40022
39939
40052
40022
40081
39910
40038
39977
40028
40020
40036
40084
40149
40038
40025
40046
40241
40064
40227
39972
40060
39992
40056
40268
40306
40135
40156
40219
40160
40162
40182
40158
40238
40304
40181
40319
40256
40394
40274
40319
40276
40297
40298
40383
40275
40284
40277
40320
40412
40221
40400
40458
40424
40553
40461
40371
40479
40377
40568
40383
40517
40504
40639
40521
40572
40556
40737
40574
40417
40552
40396
40589
40765
40501
40460
40587
40740
40527
40545
40820
40724
40780
40620
40675
40666
40689
40803
40753
40834
40763
40557
40530
40625
40652
40469
40319
40286
40299
40438
40127
40236
40121
40256
40172
40030
39889
39908
39838
39834
40040
39837
39724
39775
39875
39853
39781
39875
39781
39899
39683
39950
39622
39803
39763
39813
39740
39956
39780
39994
39877
40001
40007
39862
40051
39979
39950
40114
39925
39862
39938
40134
40124
39892
40016
40023
40077
40040
40037
40157
39997
39961
40267
40273
40321
40289
40200
40212
39995
40308
40255
40233
40238
40083
40096
40040
40102
40224
40333
40408
40289
40251
40292
40140
40362
40409
40343
40413
40492
40282
40508
40519
40265
40284
40496
40508
40365
40569
40640
40458
40637
40407
40576
40539
40538
40659
40599
40445
40494
40751
40647
40598
40467
40687
40794
40789
40603
40725
40709
40733
40734
40683
40618
40830
40556
40754
40545
40832
40738
40642
40863
40640
40904
40655
40802
40912
40670
40818
40720
40937
40762
40744
40791
40659
40799
40753
40673
40420
40342
40339
40383
40326
40283
40252
40028
40196
39836
40109
39790
39892
39866
39864
39828
39852
39739
39817
39727
39615
39674
39577
39612
39860
39788
39808
39854
39805
39630
39873
39794
39639
39788
39747
39790
39677
39576
39698
39967
39708
39974
39865
39912
40026
39877
40043
40060
39944
40045
39920
39927
39999
40121
40101
39911
40162
39963
40027
40080
40031
39968
40100
40013
40079
40082
40104
40092
40135
40152
40119
40086
40110
40154
40200
40189
40217
40203
40301
40250
40126
40282
40139
40397
40492
40239
40497
40492
40403
40232
40556
40496
40433
40510
40497
40610
40410
40283
40452
40330
40377
40585
40473
40555
40403
40515
40371
40601
40343
40556
40603
40516
40474
40568
40544
40631
40460
40551
40550
40516
40767
40484
40602
40842
40739
40698
40644
40736
40810
40502
40623
40580
40709
40689
40479
40341
40642
40599
40274
40407
40157
40187
40141
40004
40246
40043
40072
39971
39772
39911
39854
39640
39732
39816
39647
39740
39632
39472
39674
39619
39651
39726
39529
39428
39456
39500
39673
39535
39480
39552
39709
39702
39766
39525
39504
39734
39849
39780
39723
39661
39915
39614
39934
39700
39615
39851
39762
39792
39839
39876
39920
39883
39881
39867
39837
39902
39947
40086
39874
39918
39835
40013
40093
40018
40002
40027
40112
40013
40039
40022
40050
40038
40032
40040
40094
40085
40123
40042
40130
40325
40222
40371
40308
40377
40138
40295
40215
40339
40294
40262
40362
40370
40290
40446
40408
40251
40382
40479
40238
40467
40198
40407
40555
40468
40248
40512
40283
40397
40576
40378
40374
40476
40553
40592
40494
40400
40488
40530
40463
40562
40609
40509
40439
40505
40567
40557
40461
40546
40418
40641
40697
40456
40453
40453
40408
40410
40553
40307
40409
40231
40450
40132
40306
40198
40158
40103
39858
39764
39802
39951
39780
39836
39670
39566
39709
39513
39656
39658
39675
39518
39469
39417
39567
39437
39625
39385
39673
39508
39508
39458
39405
39529
39553
39571
39565
39569
39620
39635
39641
39472
39551
39654
39740
39745
39732
39747
39782
39768
39736
39797
39776
39779
39872
39817
39879
39836
39840
39819
39847
39880
39888
39955
39888
39767
39792
39747
39792
39903
39920
39870
39944
39943
40015
39966
39980
39921
39999
39988
40056
40117
40036
40115
40136
40101
40146
39936
40283
40051
40137
40029
40154
40237
40171
40296
40203
40356
40254
40135
40256
40179
40221
40166
40217
40308
40383
40251
40324
40293
40202
40481
40292
40439
40491
40437
40509
40362
40566
40536
40343
40367
40554
40402
40440
40603
40537
40324
40538
40642
40512
40503
40555
40421
40450
40658
40593
40529
40691
40493
40724
40471
40491
40448
40267
40433
40219
40399
40402
40086
40308
40097
40055
39739
39912
39764
39917
39805
39786
39595
39651
39571
39509
39625
39607
39640
39424
39581
39446
39389
39509
39539
39321
39484
39341
39426
39506
39481
39547
39498
39446
39559
39579
39536
39519
39548
39630
39503
39601
39651
39635
39533
39748
39690
39749
39823
39862
39568
39623
39797
39588
39603
39916
39746
39633
39702
39957
39690
39817
39719
39851
39737
39953
39730
39691
39920
39893
39721
39956
39790
39891
39902
39951
39953
39960
39766
40055
39926
40016
40102
39871
40110
39930
40132
39934
40082
40275
40135
39915
40064
40138
40166
40122
40231
40064
40174
40205
40100
40238
40261
40160
40388
40095
40343
40314
40097
40364
40403
40138
40101
40255
40436
40231
40234
40185
40270
40253
40290
40508
40341
40178
40416
40316
40429
40340
40343
40425
40437
40451
40462
40421
40592
40436
40410
40362
40202
40313
40355
40326
40045
40151
40020
39871
40099
40020
39713
39730
39898
39840
39752
39824
39613
39587
39725
39661
39677
39371
39401
39579
39446
39384
39688
39541
39505
39472
39536
39564
39615
39512
39476
39456
39424
39609
39544
39419
39616
39475
39545
39839
39713
39827
39663
39773
39638
39659
39854
39764
39635
39658
39934
39884
39677
39831
39992
39716
39976
39742
39995
39924
39702
39917
39867
39709
40030
39982
39935
40058
39820
39966
39884
39732
39973
39874
40007
39943
39859
39962
39889
39830
40101
39891
39967
40111
39875
40088
39905
40090
40240
39946
40294
40206
39927
40036
40359
39999
40294
40016
40042
40361
40244
40003
40206
40422
40117
40341
40156
40167
40233
40165
40123
40230
40319
40300
40131
40296
40469
40246
40436
40180
40275
40249
40464
40429
40498
40344
40213
40404
40324
40265
40393
40198
40439
40184
40177
40336
40151
40268
40213
40199
40035
40065
39733
39948
39550
39728
39637
39518
39648
39626
39278
39458
39556
39388
39273
39416
39200
39187
39259
39303
39295
39249
39237
39118
39250
39314
39285
39174
39166
39278
39366
39267
39271
39143
39358
39165
39487
39292
39479
39421
39352
39468
39290
39298
39261
39516
39512
39589
39635
39445
39364
39341
39476
39610
39508
39499
39530
39475
39579
39462
39625
39631
39609
39581
39572
39651
39699
39633
39754
39645
39641
39705
39545
39662
39717
39585
39927
39730
39678
39900
39757
39644
39707
39702
39888
39821
39822
39697
39773
40041
39961
40034
39918
39819
39916
39941
39937
40019
40103
40100
40098
40002
40113
39992
39974
39961
40136
40125
39863
40184
39971
39945
40078
40092
40247
40018
40204
40022
40231
40053
40181
40300
40037
39983
40273
39972
40038
40283
40375
40043
40064
40010
39838
39897
39859
39885
39679
39800
39660
39663
39628
39501
39441
39452
39373
39284
39317
39198
39210
39085
39172
39001
39116
39182
38993
39213
38937
39124
39173
39041
39080
38905
39082
38986
39028
39059
39033
39025
39013
38998
39035
39049
39185
39185
39149
39110
39138
39144
39258
39313
39200
39128
39182
39201
39154
39166
39393
39351
39204
39226
39379
39152
39436
39535
39365
39349
39430
39550
39391
39394
39506
39544
39376
39575
39279
39633
39467
39337
39441
39653
39470
39694
39600
39516
39640
39821
39502
39415
39524
39729
39560
39738
39779
39844
39783
39767
39787
39785
39836
39672
39725
39868
39706
39755
39972
39859
39670
39688
39850
39849
39888
39890
39957
39893
39967
39903
39941
39924
39957
39912
40008
39998
39959
39991
40018
39965
39949
39985
39924
40000
40024
40078
40238
40097
39935
39883
40179
40111
40181
39916
40153
39996
40042
39864
39978
39744
39779
39786
39548
39403
39331
39420
39368
39118
39082
39083
39035
39093
39283
39056
39256
39170
39088
39120
39152
39032
39033
38864
38976
39064
39014
39149
38987
38925
38956
39102
39074
38826
38920
39005
39125
39243
38971
39035
38949
39215
39210
39097
39102
39238
39180
39300
39382
39209
39129
39268
39249
39186
39145
39407
39485
39160
39308
39453
39351
39468
39383
39572
39444
39638
39483
39465
39340
39427
39371
39551
39436
39553
39489
39527
39368
39640
39712
39458
39613
39503
39637
39582
39528
39485
39575
39669
39678
39524
39709
39722
39813
39855
39757
39889
39728
40013
39722
39780
39910
40034
39946
40029
39771
39965
39991
40008
40056
39949
39846
40029
40120
39841
40098
39898
40042
40090
39883
40144
39990
40122
40071
40012
40034
39910
40074
39965
40196
39944
40059
40109
40115
40102
40158
40168
40122
40137
40048
39992
39992
39936
39825
39826
39813
39751
39628
39594
39556
39490
39449
39437
39323
39312
39309
39271
39216
39214
39176
39216
39116
39149
39016
39213
39059
38921
39237
39120
39119
39169
38910
38934
38912
38992
38976
39141
39049
39061
39102
39084
39056
39306
38994
39212
39167
39109
39408
39280
39237
39324
39423
39361
39267
39350
39332
39390
39552
39367
39459
39348
39331
39476
39422
39468
39533
39481
39308
39515
39505
39619
39414
39374
39530
39511
39570
39435
39440
39546
39558
39485
39520
39457
39683
39848
39730
39538
39757
39795
39506
39708
39786
39718
39907
39774
39770
39670
39587
39712
39918
39649
39872
39687
39894
39695
39852
39901
39818
39852
39757
39737
39853
39990
39972
39950
39893
40068
40035
40026
39889
39970
40124
39928
39889
39856
40139
40067
39871
39870
40158
39933
40177
40079
40207
40091
39851
40080
39780
39809
39839
39761
39863
39567
39771
39659
39577
39737
39584
39473
39586
39439
39545
39421
39432
39295
39201
39311
39189
39197
39249
39241
39241
39217
39163
39105
39146
39031
39349
39324
39246
39228
39123
39092
39126
39102
39092
39058
39211
39320
39145
39224
39107
39121
39174
39175
39131
39189
39349
39348
39182
39254
39338
39327
39189
39205
39261
39136
39306
39174
39330
39171
39164
39346
39324
39176
39199
39508
39257
39240
39359
39269
39242
39380
39209
39413
39333
39493
39426
39462
39403
39588
39489
39583
39265
39650
39705
39663
39528
39601
39476
39744
39606
39485
39561
39804
39539
39584
39534
39554
39671
39788
39566
39724
39879
39723
39829
39720
39832
39778
39904
39710
39625
39858
39780
39843
39978
39776
39646
39765
39765
39710
39891
39910
39871
39887
39799
39972
39990
39971
39861
40001
40033
39911
39946
39841
39813
39602
39523
39699
39433
39517
39647
39350
39424
39245
39378
39162
39304
39050
39146
39215
39098
39254
39005
39189
39039
38909
39006
38863
38981
39202
39014
39031
39060
39082
39091
38945
39222
39087
39079
39066
38933
39166
38930
39096
39275
39011
39089
39332
39283
39105
39320
39450
39271
39297
39284
39362
39266
39131
39443
39236
39498
39339
39474
39277
39498
39215
39246
39257
39302
39366
39401
39332
39502
39566
39333
39624
39579
39371
39368
39567
39570
39679
39473
39757
39544
39801
39707
39611
39785
39846
39760
39486
39734
39697
39867
39770
39717
39656
39660
39743
39796
39769
39647
39839
39791
39811
39805
39773
39869
39834
39849
39817
39804
39832
39891
39701
39891
39950
39756
40065
39758
39945
39819
40046
39882
39920
39810
40084
39688
39727
39759
39956
40055
39868
39817
39788
39757
39798
39691
39846
39933
39704
39701
39504
39580
39735
39460
39522
39412
39504
39247
39465
39167
39017
39066
38945
38946
38875
38989
39023
38891
39008
38953
38993
39040
38949
39074
38823
39078
39041
39053
39066
38883
38849
39030
39134
38926
38805
38920
38893
39086
39164
39142
38935
38985
38969
39251
39096
39220
39081
38910
39162
39296
39073
39051
39214
39233
39150
39343
39186
39114
39105
39283
39112
39238
39038
39358
39304
39227
39301
39332
39407
39394
39350
39358
39446
39300
39322
39320
39550
39522
39246
39380
39370
39355
39558
39568
39399
39680
39667
39667
39535
39665
39706
39743
39668
39495
39652
39465
39615
39643
39567
39740
39543
39656
39540
39778
39647
39776
39803
39731
39702
39767
39757
39780
39758
39792
39794
39765
39770
39760
39796
39818
39818
39776
39849
39848
39814
39860
39774
39962
39913
39790
39742
39944
39982
39854
39887
39788
39621
39710
39604
39552
39523
39480
39338
39285
39224
39250
39259
39058
39150
39082
39006
39113
38938
38922
38932
38918
38884
38890
38843
38868
38885
38893
38906
38852
38843
38923
38939
38853
38897
38832
38841
38828
38802
39050
38849
39059
39023
39030
38909
39098
39038
38998
38934
39176
39185
39001
39257
39142
39316
39244
39260
39204
39240
39120
39271
39372
39503
39194
39147
39205
39368
39228
39280
39437
39375
39525
39367
39449
39416
39502
39509
39570
39412
39442
39400
39536
39417
39537
39602
39544
39691
39562
39628
39600
39626
39685
39757
39681
39645
39807
39699
39739
39626
39668
39783
39789
39630
39882
39761
39719
39778
39578
39715
39953
39814
39695
39865
39887
40015
39759
39970
39842
39762
39852
39936
39951
39765
39844
40087
40003
39715
39904
39834
40119
40120
39881
40042
39966
39957
40109
39893
40105
40028
40059
39850
39980
39882
39819
39653
39596
39476
39386
39267
39383
39286
39214
39124
39162
39065
39191
39332
39272
39188
39023
39109
38991
39116
39124
39097
38926
39170
38943
39067
39178
39225
39198
39153
38998
39056
39090
39110
39167
39295
39131
39009
39288
39168
39328
39096
39374
39087
39176
39407
39280
39108
39395
39141
39364
39382
39423
39407
39591
39358
39405
39448
39239
39494
39300
39504
39564
39331
39426
39422
39439
39446
39427
39452
39615
39711
39616
39761
39592
39497
39574
39608
39685
39646
39629
39709
39753
39702
39626
39686
39771
39751
39844
39757
39839
39828
39819
39712
39902
39767
39899
39923
39814
39607
39907
39968
39733
39851
39732
39793
39883
39775
39889
39711
39848
39835
40036
39875
39810
39886
39988
39848
39904
39824
40119
39814
40085
39809
39736
39814
39804
39783
39850
40002
39811
39632
39709
39661
39779
39500
39569
39773
39562
39523
39314
39555
39516
39191
39144
39265
39278
39194
39325
39060
38962
39168
39188
39109
39087
39084
39249
39025
39139
39262
39092
39172
39011
39099
38917
39130
39060
39174
39103
39032
39189
39040
39036
39135
39025
39274
39364
39220
39009
39238
39083
39248
39073
39156
39140
39192
39483
39355
39395
39328
39327
39320
39266
39492
39202
39441
39447
39579
39418
39389
39435
39306
39307
39569
39552
39359
39369
39543
39577
39475
39340
39534
39603
39482
39405
39564
39427
39503
39469
39674
39685
39723
39646
39694
39708
39760
39611
39848
39595
39612
39589
39554
39858
39711
39599
39729
39577
39857
39772
39792
39739
39895
39865
39953
39917
39978
40049
39968
40028
39844
39974
39852
39813
39742
39943
39902
39858
39752
39954
39785
39960
39991
39918
40145
39907
39875
39751
39906
39736
39896
39920
39812
39673
39556
39714
39504
39706
39355
39540
39403
39490
39425
39189
39048
39352
39104
39102
39202
39017
39289
39161
39220
38938
38925
38926
39045
38984
39214
39067
39007
39113
39031
38972
39164
39173
38978
39301
39026
39092
39220
39379
39275
39251
39104
39238
39375
39258
39134
39322
39405
39355
39431
39321
39439
39317
39396
39545
39288
39308
39666
39438
39426
39565
39404
39659
39390
39325
39608
39475
39452
39351
39618
39523
39456
39570
39586
39593
39416
39643
39364
39606
39712
39756
39747
39573
39859
39723
39834
39768
39731
39908
39808
39757
39686
39611
39682
39840
39882
39632
39884
39790
39882
39592
39838
39804
39774
39787
39670
39923
40007
39777
39908
39920
39704
39890
39779
39975
39825
40013
39987
39743
40047
39962
39913
40074
39942
39901
39835
39719
39825
39825
39838
39670
39704
39623
39678
39648
39648
39430
39565
39469
39406
39349
39401
39306
39066
39150
39048
39018
39181
39237
38867
38902
38945
39137
38956
38898
39069
38963
38913
39004
38913
39129
38895
38958
39112
38856
39173
38932
39039
39026
39126
38974
39195
39017
39022
38985
39156
39188
39138
39030
39093
39282
39237
39341
39157
39396
39226
39236
39315
39044
39172
39237
39293
39145
39211
39346
39398
39141
39308
39317
39556
39410
39259
39470
39384
39535
39638
39342
39495
39386
39388
39436
39645
39457
39631
39571
39568
39453
39667
39650
39731
39532
39850
39730
39787
39749
39645
39693
39975
39805
39686
39803
39786
39869
39942
39913
39799
39730
39995
39839
39701
39846
39809
39725
39781
39920
39852
39704
39955
39780
39966
39805
39936
39935
39779
39708
39762
39716
39981
39910
39760
39727
39970
39765
39602
39811
39594
39641
39376
39596
39509
39547
39383
39202
39252
39172
39441
38983
39141
38921
39187
39274
39170
38906
38969
39022
39076
39097
38941
39129
38891
38920
38893
38940
38960
38831
38894
38847
38936
38945
38899
38967
38949
38989
38777
38885
38973
38925
38907
38852
39056
38966
38963
38888
38971
39147
38947
39053
39047
39159
39118
39031
38935
39027
39028
39090
38987
39075
39232
39199
39006
39067
39350
39009
39219
39090
39046
38993
39222
39011
39033
39095
39108
39182
39093
39402
39301
39108
39358
39026
39328
39089
39434
39140
39213
39385
39399
39187
39471
39199
39222
39414
39481
39400
39147
39330
39275
39399
39388
39375
39442
39406
39392
39441
39379
39340
39415
39448
39428
39348
39438
39492
39463
39496
39413
39464
39375
39469
39385
39499
39630
39449
39267
39397
39523
39525
39482
39299
39447
39132
39356
38991
39084
39155
39110
38968
38919
39042
38725
38701
38871
38917
38876
38820
38558
38796
38546
38725
38484
38447
38611
38659
38383
38588
38395
38413
38534
38511
38474
38648
38590
38441
38592
38743
38583
38683
38522
38658
38540
38572
38750
38709
38671
38489
38564
38729
38483
38652
38507
38742
38733
38710
38869
38716
38828
38717
38533
38597
38672
38728
38737
38567
38721
38927
38708
38787
38759
38859
38774
38784
39002
38773
38765
38768
38863
39114
39043
38970
38934
38862
38827
38961
39171
39024
38985
38998
39027
39052
39061
39085
39045
39145
39086
39119
39167
39209
39180
39371
39167
39344
39216
39219
39224
39385
39272
39141
39222
39121
39176
39400
39490
39384
39494
39210
39482
39263
39122
39168
39286
39322
39306
39313
39066
39326
39041
38998
38943
38970
39066
39004
38964
38957
38927
38814
38837
38581
38816
38704
38697
38510
38767
38542
38490
38655
38612
38637
38703
38596
38513
38604
38633
38606
38596
38658
38650
38576
38616
38700
38637
38644
38678
38681
38715
38825
38792
38913
38892
38666
38903
38938
38641
38724
38858
38950
38765
38810
39029
38955
38736
38990
38876
39020
39101
38800
39117
38749
38966
38763
39058
39042
39017
38998
38932
39017
38988
39011
39154
39067
38975
39144
39225
39088
39019
39126
38984
39124
38978
39203
39131
39110
39281
39104
39113
39151
39125
39225
39427
39342
39421
39210
39199
39329
39223
39308
39424
39287
39296
39514
39256
39182
39199
39233
39323
39394
39544
39390
39247
39458
39359
39400
39480
39398
39435
39429
39426
39467
39452
39435
39429
39483
39423
39265
39460
39417
39269
39310
39378
39146
39357
39156
39315
39279
38984
39166
39162
38953
38765
39006
38976
38754
38909
38932
38769
38678
38542
38764
38750
38611
38887
38532
38601
38535
38766
38576
38781
38613
38661
38818
38603
38772
38642
38555
38685
38656
38883
38750
38578
38781
38892
38801
38684
38844
38780
38895
38896
38945
38758
38775
38856
38939
38973
39079
39007
38813
39053
38813
38877
39139
39076
38887
39100
39180
39073
38940
38894
39180
39142
39057
39130
38909
39166
39007
39150
39033
39034
39022
39050
39138
39297
39307
39259
39305
39191
39349
39266
39304
39243
39386
39275
39386
39260
39269
39287
39301
39236
39359
39264
39299
39238
39361
39518
39326
39484
39351
39270
39302
39400
39473
39498
39525
39246
39487
39402
39313
39571
39278
39375
39633
39346
39445
39606
39337
39492
39625
39485
39488
39471
39437
39445
39444
39579
39387
39622
39500
39230
39264
39488
39277
39448
39157
39155
39062
39159
38989
39103
39196
39048
39171
39002
39118
38842
38890
39002
38765
38884
38832
38777
38687
38705
38762
38634
38748
38628
38865
38890
38904
38797
38933
38948
38759
38908
38962
38962
39023
38882
39088
38887
39022
38982
38747
39042
38808
39089
38916
38929
39162
39154
39145
39174
39070
38992
39097
38949
39106
39202
39095
39241
39119
38943
39060
38973
38991
39033
39238
39083
39023
39238
39007
39249
39284
39085
39272
39161
39358
39165
39285
39386
39511
39461
39394
39457
39260
39184
39468
39551
39424
39459
39310
39278
39523
39467
39442
39273
39544
39339
39554
39490
39477
39491
39579
39512
39352
39494
39403
39462
39524
39562
39745
39535
39481
39534
39623
39742
39489
39758
39581
39734
39571
39707
39729
39687
39559
39738
39574
39693
39590
39766
39501
39456
39633
39542
39628
39428
39376
39457
39342
39430
39484
39276
39408
39177
39295
39325
39223
38915
39043
38914
39103
39045
39069
38973
39011
38807
39068
38907
38952
38999
39015
39031
39029
39028
39098
38997
38815
39099
38863
39033
39134
39060
39044
39122
38916
39075
38900
39192
39116
39219
39013
39038
39088
39305
39222
39304
39294
39219
39116
39070
39030
39194
39367
39211
39346
39153
39058
39171
39049
39240
39441
39284
39141
39292
39097
39263
39170
39337
39214
39205
39319
39374
39348
39195
39370
39527
39415
39499
39433
39489
39334
39341
39385
39465
39650
39570
39371
39560
39426
39547
39270
39491
39262
39545
39678
39335
39542
39618
39406
39589
39486
39587
39521
39403
39515
39411
39607
39749
39476
39645
39601
39580
39670
39554
39597
39540
39699
39778
39783
39622
39595
39589
39566
39527
39500
39713
39520
39587
39545
39462
39438
39498
39400
39474
39341
39434
39280
39251
39206
39264
39226
39051
39226
39122
38987
39077
38956
39126
39145
39051
39167
38989
39080
39041
38934
39047
38963
38967
39097
39067
39198
39139
38938
39080
39100
39104
39050
39065
39136
39009
39152
39234
39201
39229
39173
39039
39284
39211
39395
39223
39184
39243
39143
39232
39201
39279
39497
39386
39309
39158
39445
39141
39263
39409
39415
39425
39424
39269
39285
39531
39376
39542
39293
39482
39378
39510
39478
39573
39637
39372
39334
39476
39408
39534
39713
39469
39605
39660
39694
39605
39545
39542
39544
39617
39609
39647
39602
39776
39709
39445
39635
39620
39710
39574
39647
39552
39561
39773
39747
39800
39503
39699
39754
39656
39614
39887
39798
39630
39750
39890
39557
39679
39702
39827
39905
39637
39779
39794
39786
39700
39474
39740
39571
39621
39456
39534
39251
39299
39229
39278
39249
39176
39233
39088
39100
39054
39025
39036
38886
38988
38855
38869
39000
39018
38977
39037
38902
38860
38998
39058
38992
38784
38808
38929
38996
38871
38978
38772
38993
38930
38874
38915
39106
38860
39098
39076
39052
38946
39141
39115
39113
38921
39039
39020
38902
38927
39154
38879
39095
39236
39149
39211
39052
39003
39165
38934
39178
39169
38996
39177
39138
39147
39080
39143
39237
39023
39109
39232
39153
39238
39023
39358
39373
39158
39243
39262
39229
39215
39248
39271
39236
39296
39360
39257
39323
39099
39307
39228
39322
39287
39350
39296
39346
39371
39288
39362
39248
39368
39212
39406
39283
39450
39282
39342
39494
39406
39475
39625
39280
39263
39538
39557
39469
39242
39516
39425
39441
39209
39288
39087
39299
39279
39162
38934
38970
39009
38999
38955
38867
38864
38753
38802
38775
38577
38824
38504
38491
38554
38619
38748
38527
38719
38546
38422
38575
38453
38514
38622
38498
38575
38473
38558
38612
38615
38554
38580
38493
38611
38806
38614
38565
38646
38801
38721
38797
38797
38829
38837
38882
38675
38808
38757
38852
38851
38936
38895
38905
38793
38772
38878
38917
38881
39034
38740
38856
38739
39012
38930
38801
39000
38766
38882
38817
38992
38787
38949
38929
39140
39183
39155
39063
38839
39100
39267
39062
39241
39152
39000
39115
38995
39207
39104
39007
39271
39162
39070
39024
39226
39318
39310
39235
39280
39069
39156
39214
39297
39387
39121
39149
39384
39150
39330
39417
39313
39195
39433
39297
39120
39458
39134
39351
39178
39469
39200
39231
39216
39426
39226
39432
39399
39336
39142
39210
39110
39042
38882
38842
38911
38643
38653
38651
38562
38586
38605
38502
38423
38494
38674
38450
38573
38485
38394
38377
38541
38423
38389
38491
38413
38240
38425
38218
38348
38618
38413
38624
38351
38241
38325
38390
38390
38531
38472
38290
38697
38453
38415
38432
38562
38492
38602
38544
38786
38769
38529
38750
38703
38656
38618
38545
38643
38723
38692
38756
38696
38878
38694
38635
38728
38870
38707
38708
38734
38738
38858
38815
38915
38855
38823
38803
38748
38963
38779
38987
38901
38948
38783
38931
38826
39063
38955
39109
38875
38995
38910
38841
38985
39155
39029
38992
38978
39066
39115
38953
39022
38952
39034
38919
39052
39047
39150
39114
39031
39127
39073
39026
39205
39241
39121
39264
39174
39150
39224
39347
39219
39069
39223
39329
39259
39241
39210
39137
39173
39118
39139
39018
39099
38903
38948
38935
38675
38770
38941
38675
38750
38506
38622
38437
38677
38528
38370
38575
38574
38244
38235
38311
38320
38434
38272
38274
38416
38475
38407
38195
38342
38251
38259
38224
38439
38372
38352
38364
38512
38377
38187
38505
38337
38539
38568
38372
38433
38630
38636
38669
38591
38345
38455
38311
38461
38524
38489
38430
38637
38414
38517
38721
38706
38702
38691
38583
38472
38736
38716
38614
38572
38639
38880
38654
38574
38807
38520
38585
38777
38610
38663
38636
38875
38781
38883
38863
38947
38801
38912
38751
38933
38748
39001
38902
38854
38972
39007
38915
38938
38942
38995
38946
38914
38973
39050
38961
39039
39036
38977
39086
39008
38892
39008
39172
38960
39197
39069
39223
39051
38931
39184
38874
39045
39286
39227
38985
39005
38999
39287
39201
39229
39074
39213
39017
39171
39164
39034
39018
39016
38825
38839
38859
38684
38716
38693
38644
38572
38383
38496
38564
38398
38333
38382
38260
38280
38257
38403
38396
38198
38283
38209
38345
38338
38276
38242
38229
38173
38356
38494
38198
38178
38465
38172
38472
38358
38418
38363
38556
38537
38431
38494
38330
38427
38307
38374
38683
38664
38545
38465
38530
38744
38552
38472
38611
38488
38599
38668
38604
38691
38692
38701
38648
38707
38622
38676
38876
38798
38546
38690
38919
38813
38700
38665
38727
38808
38754
38809
38786
38845
38817
38864
38843
38910
38925
38942
38908
38949
39003
38998
39050
38974
38985
39208
38995
38898
39112
38975
39139
39034
38896
39068
39132
39061
39261
39045
39294
39025
38925
39048
39251
39227
39286
39239
39285
39213
39206
39263
39291
39114
39136
39142
39291
39140
39366
39159
39178
39088
39310
39358
39303
39041
38999
38934
38950
39104
38824
38776
38867
38914
38568
38679
38594
38636
38620
38360
38387
38338
38438
38268
38407
38449
38309
38371
38270
38239
38297
38248
38232
38316
38280
38277
38248
38279
38302
38281
38255
38265
38307
38286
38398
38318
38139
38453
38294
38454
38485
38220
38554
38365
38477
38443
38489
38478
38490
38479
38536
38509
38460
38567
38555
38362
38605
38626
38534
38588
38629
38540
38631
38596
38622
38625
38737
38697
38703
38581
38693
38672
38679
38762
38717
38702
38731
38729
38757
38882
38748
38696
38900
38839
38918
38989
38939
38696
38789
38844
38908
38791
38825
38880
38862
38897
38746
39001
39011
38803
38792
38878
39049
39081
38864
39045
38984
38985
38996
38867
39127
39077
39041
39010
38973
39190
39158
39102
39025
39128
39123
39109
39059
39110
39193
39084
38850
39039
38932
38773
38684
38610
38674
38878
38712
38691
38398
38493
38378
38563
38475
38391
38359
38090
38193
38293
38262
38082
38318
38117
37995
38112
38146
38145
37966
38115
38187
38124
38002
38169
38076
38211
38117
38295
38206
38288
38190
38116
38264
38381
38170
38448
38277
38106
38377
38368
38431
38447
38391
38460
38203
38326
38298
38426
38442
38485
38264
38527
38401
38327
38654
38487
38632
38444
38391
38589
38555
38461
38480
38383
38524
38597
38495
38589
38628
38632
38701
38528
38706
38732
38438
38482
38784
38790
38807
38716
38629
38625
38547
38785
38911
38712
38791
38743
38767
38592
38790
38623
38839
38811
38740
38907
38846
38905
38830
38876
38900
38956
39020
38897
39087
38843
39121
38864
38884
39047
38794
38855
38840
39004
39147
39092
39100
39012
39039
39155
39110
39160
39000
39197
38979
38900
38757
38672
38714
38610
38712
38453
38660
38379
38336
38392
38468
38181
38349
38073
37987
38034
37883
38040
38002
37872
37766
37904
37930
37907
37871
37919
37903
37739
37804
37987
37849
37928
37889
37740
37767
37813
37809
37950
38026
37911
38021
37972
37851
38008
38151
38065
38143
38120
37982
38057
37995
38136
37980
38154
38299
38213
38242
38269
38197
38277
38156
38034
38087
38096
38243
38438
38157
38238
38135
38431
38440
38284
38144
38418
38319
38257
38498
38492
38555
38425
38622
38543
38466
38439
38485
38623
38569
38775
38591
38520
38656
38553
38596
38634
38816
38788
38628
38591
38905
38606
38780
38632
38656
38733
38840
38968
38733
38823
38811
38867
39037
38959
38828
38809
38720
38928
38938
38810
38873
38873
38786
38773
38860
38755
38832
38772
38789
38998
38831
38907
38834
38977
38896
38914
38736
39007
39068
38768
38927
38780
38909
38693
38778
38593
38452
38635
38417
38431
38535
38502
38283
38421
38165
38118
38251
38017
38047
37982
38000
38229
37927
37861
37896
37929
38178
37895
37817
37965
37784
38039
37741
37905
38092
37845
37878
38054
37851
38029
38097
37985
38013
37911
38080
37820
37939
38125
38107
37976
37925
37949
38109
38079
38129
37971
38164
38015
38106
37898
37891
37940
38013
37981
38029
38025
38001
38091
37979
38022
38063
38084
38254
38047
38045
38232
38047
38026
38162
38236
38159
38141
38217
38167
38206
38185
38242
38218
38290
38264
38269
38326
38368
38297
38417
38362
38440
38447
38491
38493
38521
38546
38413
38531
38514
38327
38469
38429
38409
38447
38525
38455
38647
38716
38586
38588
38539
38576
38729
38678
38700
38794
38608
38756
38628
38620
38505
38558
38498
38644
38570
38704
38668
38798
38749
38647
38693
38822
38675
38625
38543
38449
38500
38298
38487
38365
38371
38403
38168
38347
38053
38133
38146
37995
37926
38017
37850
37973
38130
37907
38058
37960
37802
38004
37882
38007
37850
37711
37929
38044
37937
37742
37954
37972
37893
37931
37938
38050
38047
37936
38067
38058
37885
38106
38007
38040
38153
38062
38048
38108
38078
38016
38054
38059
38349
38106
38265
38324
38294
38214
38214
38199
38242
38335
38182
38116
38317
38415
38281
38333
38379
38341
38164
38413
38234
38380
38446
38273
38422
38482
38184
38453
38249
38506
38231
38561
38263
38412
38450
38601
38371
38391
38496
38530
38620
38331
38538
38751
38441
38428
38420
38480
38453
38520
38699
38578
38498
38614
38749
38688
38695
38647
38817
38650
38583
38714
38895
38837
38806
38646
38787
38594
38752
38593
38855
38908
38826
38764
38737
38623
38780
38452
38578
38669
38605
38497
38417
38332
38181
38275
38176
38171
38236
38064
37962
37932
38105
37895
38024
37946
38015
37747
37916
38069
37852
38080
37951
37769
37808
37856
37758
37753
37784
38002
37781
37851
37729
38034
37765
37827
37824
37905
37871
38046
37940
37941
37814
38108
38131
37954
38239
38172
38115
38179
38047
38186
38007
38092
38180
38134
38093
38117
38175
38157
38234
38099
38095
38283
38215
38153
38082
38161
38204
38252
38206
38266
38290
38332
38299
38340
38397
38363
38372
38485
38422
38265
38464
38380
38441
38398
38597
38430
38582
38576
38446
38533
38635
38494
38498
38563
38489
38546
38521
38531
38398
38479
38642
38587
38576
38484
38542
38531
38709
38459
38484
38751
38696
38825
38728
38851
38549
38482
38655
38745
38585
38615
38631
38615
38904
38730
38517
38799
38821
38708
38800
38650
38451
38584
38442
38435
38409
38466
38352
38421
38201
38311
38207
37966
38034
37921
37993
38032
38053
37972
37807
37707
37765
38011
37846
37968
37805
37841
38044
37897
37788
38035
38115
37931
37993
37894
37978
37997
37829
37942
38152
37840
38165
38066
38105
38016
38121
38033
38168
38116
38211
38285
38243
38277
38273
38326
38326
38284
38092
38315
38225
38305
38359
38322
38132
38325
38224
38457
38382
38443
38321
38209
38524
38438
38360
38402
38502
38467
38397
38448
38562
38497
38414
38674
38437
38508
38367
38491
38681
38548
38403
38511
38589
38575
38437
38631
38787
38546
38726
38515
38508
38563
38618
38563
38705
38869
38701
38825
38697
38896
38793
38820
38712
38778
38666
38602
38653
38793
38965
38747
38849
38796
38989
38801
38899
38777
39047
38987
38677
38769
38702
38853
39023
38905
38770
39057
39031
38748
38873
38829
38952
38763
38695
38640
38540
38760
38619
38407
38419
38430
38530
38349
38131
38285
38291
38164
38019
38229
38012
38036
38005
38027
38134
37978
38047
38226
38040
38205
37982
38093
38191
38044
38151
38027
38159
38148
38043
37956
38203
38256
37982
38308
38153
38270
38260
38143
38082
38222
38186
38274
38286
38314
38222
38280
38296
38429
38321
38470
38348
38227
38364
38364
38369
38513
38314
38222
38391
38513
38343
38368
38479
38324
38297
38542
38445
38566
38399
38472
38640
38635
38617
38438
38694
38474
38447
38584
38672
38590
38522
38396
38591
38466
38696
38713
38508
38823
38532
38484
38519
38529
38578
38696
38726
38646
38658
38728
38694
38703
38862
38763
38778
38749
38787
38836
38914
38772
38961
38713
38963
38656
38716
38799
38923
38771
38930
38940
38966
38699
38880
38774
38848
38885
39052
38822
38856
38903
38651
38893
38657
38695
38712
38778
38633
38611
38459
38563
38546
38497
38231
38420
38223
38194
38194
38159
38237
38281
38249
38197
38058
38251
38182
38053
38048
38069
38232
38122
37951
38142
38233
38121
38032
38115
38274
38142
38174
38136
38113
38151
38178
38198
38236
38038
38258
38371
38353
38443
38313
38232
38316
38328
38291
38539
38457
38309
38301
38595
38259
38517
38361
38450
38540
38529
38374
38487
38387
38420
38548
38355
38372
38428
38643
38673
38441
38397
38609
38447
38575
38545
38660
38655
38677
38590
38589
38587
38765
38672
38693
38663
38543
38688
38820
38777
38892
38828
38690
38893
38639
38810
38654
38775
38791
38973
38703
38682
38735
38986
38919
38999
38968
38804
38859
38949
38953
38941
38826
38745
39056
38789
38820
38977
38993
38919
39115
39028
38891
39008
39129
38996
39153
39063
38971
38875
38909
39004
38859
38644
38817
38554
38668
38781
38674
38476
38627
38672
38337
38401
38465
38239
38223
38259
38375
38141
38263
38190
38328
38136
38026
38049
38335
38285
38061
38235
38044
38310
38103
38081
38253
38358
38226
38346
38215
38065
38123
38092
38232
38251
38361
38382
38164
38324
38383
38347
38495
38337
38349
38370
38526
38354
38449
38337
38418
38340
38318
38386
38437
38314
38440
38578
38415
38523
38450
38295
38475
38609
38471
38667
38490
38463
38436
38573
38544
38435
38550
38464
38595
38603
38695
38555
38796
38556
38648
38718
38593
38652
38759
38785
38826
38707
38813
38709
38770
38690
38685
38788
38649
38866
38675
38917
38848
38862
38717
38635
38688
38914
38711
38938
38876
38949
38792
38736
39046
39000
38867
39009
38928
38887
38934
38889
38867
39014
38866
38865
38960
39008
38932
38709
38755
38703
38605
38706
38561
38550
38465
38414
38227
38415
38235
38256
38073
38245
38088
38250
38037
38015
38091
38127
38051
38025
38036
38104
38025
38025
38030
38077
38040
38005
38056
38051
38031
38042
38018
38077
37924
38063
38015
38108
38212
38147
38103
38108
38240
38150
38206
38076
38289
38085
38230
38227
38189
38272
38370
38350
38313
38218
38367
38280
38209
38381
38304
38128
38266
38121
38460
38386
38462
38351
38489
38329
38403
38325
38208
38353
38379
38415
38491
38328
38412
38377
38424
38563
38435
38509
38474
38575
38533
38612
38632
38638
38580
38563
38598
38601
38540
38520
38600
38567
38562
38581
38606
38605
38612
38587
38643
38648
38625
38566
38533
38516
38777
38755
38664
38624
38713
38768
38667
38743
38754
38883
38773
38710
38678
38878
38824
38643
38883
38742
38758
38588
38721
38664
38671
38698
38565
38591
38383
38482
38190
38364
38346
38063
38226
37950
38065
38106
38073
38019
37963
38008
37806
37861
37823
37729
37795
37995
37848
37896
37960
37890
37725
37758
37956
37795
38005
37837
37768
37805
37848
37888
37854
37846
37902
37892
37900
37990
37956
38013
37974
37993
38000
38030
38052
37991
38018
38126
38062
37865
37910
38021
38249
38238
38088
38228
38067
38168
38111
38105
38217
38144
38131
38208
38010
38223
38121
38149
38039
38276
38165
38142
38216
38093
38356
38366
38196
38350
38367
38347
38354
38308
38200
38331
38332
38371
38512
38369
38379
38374
38248
38445
38533
38372
38453
38431
38468
38444
38480
38562
38539
38319
38511
38371
38467
38540
38609
38388
38614
38483
38628
38599
38604
38729
38597
38486
38703
38578
38733
38734
38716
38591
38806
38690
38776
38757
38544
38703
38671
38631
38657
38689
38560
38405
38499
38526
38506
38325
38177
38397
38256
38227
38257
38135
38253
38022
37883
38037
38105
38025
37874
37900
37739
37826
37996
37796
37793
37745
37662
37642
37957
37810
37768
38012
37854
37733
37713
37851
37707
38022
37810
37928
38046
38034
37965
37995
38127
37923
37795
38084
37976
38047
38089
38048
37920
37910
38011
38117
38146
37924
38086
37940
38092
38195
38238
38110
38194
38047
38266
38049
38087
38078
38163
38162
38261
37999
38281
38068
38127
38290
38024
38263
38403
38249
38326
38283
38283
38216
38277
38364
38324
38316
38312
38226
38365
38408
38389
38393
38354
38364
38414
38289
38413
38511
38496
38595
38428
38554
38652
38500
38597
38635
38515
38435
38498
38475
38358
38397
38691
38630
38373
38715
38433
38509
38505
38464
38468
38528
38685
38566
38490
38772
38725
38671
38611
38687
38415
38617
38635
38529
38627
38494
38616
38386
38344
38320
38246
38200
38198
38116
38132
38071
38021
38138
37975
37860
37858
37980
37881
38039
37823
37627
37910
37926
37723
37806
37719
37674
37805
37777
37835
37911
37774
37808
37762
37857
37836
37781
38047
37885
37766
37887
37910
37877
37938
38104
37928
38115
37956
38087
37955
38140
38088
38104
38117
37847
37928
38163
38242
37968
37910
38148
38236
38040
38294
38164
38002
38110
38132
38105
38183
38203
38016
37975
38176
38154
38156
38321
38214
38121
38179
38133
38242
38055
38203
38167
38382
38274
38381
38183
38401
38234
38511
38294
38362
38361
38236
38434
38343
38329
38425
38266
38545
38458
38394
38395
38402
38339
38508
38537
38407
38370
38403
38507
38360
38473
38366
38368
38493
38483
38394
38574
38710
38496
38530
38578
38754
38479
38767
38643
38711
38559
38684
38671
38517
38665
38574
38620
38511
38545
38481
38536
38392
38426
38276
38334
38325
38139
38300
38170
38042
38138
38150
38043
37877
38047
37896
37902
37857
38028
37856
37987
38069
37976
38043
38003
37998
37831
37896
37757
37905
37767
37902
37740
37932
37886
37881
37947
37927
37998
38126
38057
38180
38033
38109
38072
37872
38103
38124
38087
38232
38048
37955
38257
38030
38052
38162
38304
38041
38353
38157
38346
38166
38044
38234
38063
38168
38239
38371
38078
38149
38325
38118
38302
38387
38240
38251
38437
38149
38377
38267
38309
38139
38463
38409
38247
38440
38416
38412
38400
38498
38594
38385
38646
38504
38386
38567
38460
38583
38449
38675
38355
38458
38353
38621
38536
38439
38524
38733
38619
38716
38673
38621
38547
38610
38663
38667
38576
38614
38711
38726
38624
38597
38747
38734
38519
38658
38850
38794
38866
38681
38869
38573
38564
38761
38565
38711
38417
38580
38393
38584
38439
38377
38188
38106
38084
38033
38113
38174
38075
38042
38023
37946
38003
37890
37933
37839
38080
37933
37838
37917
38013
37835
37855
37800
37894
37899
37935
37915
37882
38077
37926
37749
37920
37967
37961
38047
37971
37981
37952
38046
37946
38033
38188
38077
37917
38098
38282
38041
37955
38020
38288
38143
38002
38089
38202
38078
38317
38120
38154
38164
38242
38317
38287
38324
38263
38331
38117
38265
38278
38252
38447
38311
38165
38308
38309
38291
38347
38317
38332
38336
38358
38337
38370
38382
38378
38403
38274
38280
38460
38482
38468
38543
38450
38480
38418
38493
38462
38505
38505
38482
38489
38478
38474
38497
38523
38556
38533
38561
38555
38587
38635
38579
38579
38587
38609
38687
38613
38576
38706
38700
38757
38812
38542
38590
38766
38789
38772
38833
38649
38442
38450
38323
38509
38421
38387
38386
38347
38331
38168
38277
37926
38128
38147
38145
38007
37929
37758
37703
37795
37690
37804
37932
37785
37912
37810
37953
37843
37677
37752
37882
37858
37680
37606
37709
37587
37772
37942
37730
37775
37699
37753
37811
37917
37749
37889
38022
37804
37752
37869
37766
37946
37841
37961
38076
38101
38096
37934
38136
38147
38103
38019
38072
38090
38125
38034
38065
38067
38128
38139
38189
38122
38147
38050
38062
38083
38103
38365
38042
38180
38088
38249
38376
38123
38287
38302
38308
38147
38124
38412
38426
38447
38317
38453
38254
38199
38382
38151
38360
38440
38358
38372
38362
38383
38390
38418
38388
38472
38399
38511
38426
38428
38466
38521
38564
38523
38435
38557
38626
38611
38368
38495
38687
38441
38469
38637
38583
38543
38708
38494
38437
38506
38536
38513
38639
38550
38438
38633
38309
38539
38261
38202
38077
38100
38023
38148
37973
37929
37907
37908
37598
37697
37567
37716
37623
37481
37518
37672
37546
37511
37422
37301
37442
37290
37468
37359
37411
37376
37371
37370
37339
37342
37358
37478
37364
37273
37402
37487
37436
37438
37463
37577
37505
37412
37612
37378
37632
37713
37507
37370
37554
37723
37506
37739
37514
37537
37491
37680
37679
37680
37630
37466
37438
37582
37528
37702
37540
37634
37532
37701
37576
37590
37573
37622
37898
37615
37767
37617
37766
37757
37804
37886
37784
37811
37739
37846
37779
37815
37822
37848
37786
37818
37882
37885
37936
37879
37871
37836
37997
37911
37997
37825
37917
37835
37753
37914
37821
38020
38056
37902
38058
38057
37848
38150
37907
37895
38006
37960
37991
38017
38009
38018
38045
38040
38033
38001
38031
37969
37950
38017
37885
37957
37898
37949
37921
37903
37852
37781
37696
37665
37669
37520
37632
37732
37438
37426
37456
37382
37281
37176
37237
37182
37241
37081
37210
37320
37255
37367
37170
37296
37076
37228
37135
37303
37181
37293
37141
37335
37328
37247
37198
37425
37213
37387
37202
37086
37226
37133
37380
37458
37392
37438
37174
37138
37216
37275
37541
37365
37543
37452
37453
37330
37295
37402
37312
37435
37607
37491
37503
37471
37396
37610
37532
37428
37544
37637
37562
37678
37569
37730
37624
37778
37702
37582
37752
37575
37738
37686
37830
37671
37574
37592
37583
37814
37638
37632
37551
37651
37664
37623
37591
37788
37699
37613
37767
37902
37908
37939
37842
37893
37790
37895
37715
37860
37803
37721
37925
37807
37781
37803
37990
37813
37964
37770
37874
37943
37902
37869
37847
38027
37936
37972
37863
38036
37977
38109
37995
38078
37960
37965
37946
37853
37927
37994
37850
37805
37811
37706
37624
37606
37570
37485
37366
37489
37227
37250
37520
37326
37226
37231
37241
37302
37161
37179
37223
37065
37087
37198
37072
37293
37049
37053
37035
37175
37110
37347
37233
37349
37078
37140
37158
37240
37267
37225
37086
37227
37135
37360
37241
37470
37306
37376
37559
37550
37588
37340
37522
37398
37570
37509
37574
37363
37542
37606
37591
37439
37509
37504
37390
37624
37680
37568
37443
37551
37743
37588
37590
37611
37756
37653
37667
37514
37624
37555
37553
37601
37662
37648
37674
37598
37748
37856
37812
37930
37757
37997
37760
37984
37786
37969
37903
37872
37851
38041
38071
38015
37846
37865
38134
37959
38152
37853
37817
38034
37929
38122
38008
38039
37990
37952
37995
38167
37996
38147
37970
38024
38009
38188
38121
37965
37938
38026
37984
37924
37961
38086
37856
38031
38132
37941
37779
37736
37775
37711
37644
37644
37723
37528
37431
37274
37417
37198
37306
37060
37219
37103
37185
37331
37183
36993
37127
37218
37261
37281
37093
37149
36996
37156
36947
37200
37152
37164
37276
37199
37028
37080
37111
37270
37247
37013
37195
37063
37314
37281
37383
37441
37188
37187
37396
37304
37311
37390
37358
37296
37230
37296
37251
37380
37362
37258
37319
37355
37264
37401
37460
37406
37397
37542
37568
37503
37440
37654
37514
37552
37617
37422
37584
37579
37542
37527
37555
37502
37617
37620
37549
37732
37552
37607
37695
37662
37558
37672
37726
37674
37693
37723
37737
37778
37743
37787
37721
37718
37756
37863
37764
37669
37757
37777
37768
37976
37876
37916
37842
37963
37739
38003
37710
37784
37883
37887
37911
37975
37756
37750
37819
37996
37875
37869
37960
38094
37970
38127
37905
38083
37889
37808
37928
37726
37870
37641
37797
37678
37622
37451
37535
37622
37491
37417
37394
37397
37369
37245
37324
37406
37361
37214
37309
37226
37222
37211
37218
37179
37211
37237
37181
37218
37258
37236
37258
37225
37248
37255
37343
37201
37456
37508
37334
37399
37584
37294
37525
37368
37542
37329
37549
37371
37577
37375
37322
37573
37460
37505
37579
37505
37489
37637
37528
37665
37620
37760
37553
37728
37428
37609
37748
37742
37706
37704
37688
37675
37754
37638
37686
37699
37635
37633
37503
37764
37533
37549
37581
37773
37683
37635
37896
37703
37686
37756
37787
37829
37801
37777
37806
37821
37826
37820
37875
37720
37902
37751
37957
37937
38087
37918
37939
38048
37883
38001
37767
38097
38068
38011
38079
37836
38006
38100
37991
38084
38124
38040
37998
37939
37952
38078
37925
38207
38053
37940
37928
38013
38115
38028
38097
38199
38145
38077
38114
38003
37893
38046
38088
37833
37967
37681
37888
37639
37754
37758
37630
37431
37551
37566
37471
37646
37622
37597
37466
37416
37321
37465
37509
37492
37539
37435
37421
37451
37460
37454
37408
37492
37466
37521
37545
37565
37507
37421
37586
37510
37618
37707
37610
37459
37675
37629
37821
37835
37774
37619
37836
37760
37640
37818
37701
37651
37866
37627
37696
37900
37710
37681
37881
37750
37765
37760
37682
37623
37872
37960
37882
38018
37915
37783
37909
37789
37916
37962
37931
37938
37821
37969
38024
37927
37982
37932
37877
38003
37847
38062
38122
38009
38028
38145
37898
38028
38142
37937
38218
37934
38237
38234
38241
37965
38216
38272
38148
38084
38275
38029
38345
38108
38364
38206
38265
38253
38432
38252
38202
38256
38349
38178
38384
38255
38297
38428
38447
38440
38380
38324
38362
38263
38352
38515
38265
38479
38274
38475
38173
38124
38313
38148
38047
38048
38186
37992
38080
37932
37998
37843
37814
37831
37910
37715
37520
37801
37735
37633
37605
37814
37668
37439
37610
37473
37665
37654
37527
37493
37618
37646
37811
37654
37675
37613
37619
37665
37794
37701
37609
37715
37917
37789
37786
37867
37711
37841
37888
38005
37764
37804
37948
37857
37922
37991
37885
37982
37856
37789
37947
38128
37831
38073
38045
38059
37862
37851
37804
38052
37775
38019
38083
37972
38137
37918
37890
37894
38053
37958
38093
37881
37954
38095
37975
37871
38046
37870
38065
38065
38001
38158
38205
37977
38023
38230
37969
38085
38359
38077
38244
38084
37960
38149
38055
38109
38199
38263
38284
38322
38061
38125
38262
38115
38334
38412
38337
38458
38243
38526
38389
38354
38415
38428
38365
38269
38281
38189
38422
38434
38361
38351
38313
38388
38311
38341
38485
38324
38453
38324
38180
38060
38130
38062
38109
37971
38081
38013
37999
37985
37718
37932
37684
37764
37587
37595
37853
37632
37743
37726
37837
37691
37681
37680
37717
37708
37679
37726
37696
37652
37669
37850
37651
37861
37941
37651
37800
37736
37782
37967
37951
38124
37869
38197
38083
38169
38009
37827
38108
38144
37891
38115
38021
38152
37960
38102
38243
38163
38102
38179
38148
38089
38232
38023
38141
38331
38152
38001
38210
38034
38169
38300
38189
38076
38149
38334
38361
38307
38317
38263
38102
38346
38091
38125
38311
38215
38330
38314
38297
38329
38362
38424
38146
38253
38436
38237
38297
38537
38327
38252
38305
38222
38315
38380
38345
38377
38361
38337
38358
38337
38358
38368
38224
38339
38296
38338
38312
38332
38250
38318
38375
38328
38464
38439
38378
38321
38504
38304
38305
38169
38286
38245
38164
38035
38241
37991
37942
37946
38027
37712
37866
37703
37824
37661
37687
37744
37607
37642
37791
37716
37607
37603
37399
37462
37575
37632
37533
37450
37536
37634
37541
37435
37543
37518
37514
37461
37569
37656
37727
37611
37701
37561
37609
37609
37595
37728
37920
37721
37691
37764
37703
37762
37798
37903
37843
37671
37757
37804
37770
37740
37837
37966
37782
37729
37837
37812
37871
37950
37859
37823
37970
37767
37874
37931
38054
37990
37858
37934
38082
37883
37898
38011
37993
37865
38017
37894
37835
37827
37987
38177
37964
37926
37991
38185
38185
37941
37985
38170
38120
37965
38270
38062
37988
38109
38007
38184
38183
38162
38257
38206
38270
38136
38191
38333
38333
38345
38108
38238
38126
38283
38402
38372
38273
38438
38181
38229
38252
38109
38365
38156
38217
38316
38386
38213
38417
38316
38170
38134
37930
37949
38072
37909
37938
37840
37842
37687
37677
37684
37597
37450
37540
37744
37498
37357
37446
37351
37451
37261
37390
37403
37215
37297
37382
37185
37537
37224
37506
37298
37434
37460
37280
37366
37324
37531
37230
37510
37421
37434
37537
37433
37451
37447
37503
37450
37505
37548
37589
37568
37622
37793
37652
37819
37626
37447
37789
37642
37529
37725
37836
37567
37691
37731
37580
37571
37868
37577
37896
37640
37873
37637
37670
37784
37721
37639
37875
37749
37801
37818
37785
37861
37867
37706
37854
37840
37877
37838
37761
37834
37786
37807
37911
37822
37916
37859
37891
37857
37865
37845
37861
37979
37869
37743
37899
37844
38013
37791
37862
37782
38021
37763
37868
38029
38095
37773
38085
38165
37959
38144
37971
38104
37973
38053
37902
37947
38028
37898
38161
38097
38000
37898
37989
37970
37774
37867
37679
37627
37595
37649
37535
37481
37251
37496
37190
37253
37215
37256
37153
37110
37078
37124
37119
36965
37043
37095
37193
37064
36927
37054
37048
36994
37022
37025
36999
37047
37030
37042
37024
37070
37075
37097
37113
37218
37141
37110
37149
37188
37170
37250
37448
37221
37146
37402
37147
37359
37356
37355
37392
37330
37269
37298
37346
37330
37313
37363
37430
37358
37507
37433
37472
37502
37323
37353
37341
37334
37386
37571
37476
37441
37548
37490
37558
37542
37587
37565
37415
37605
37673
37666
37574
37687
37524
37676
37655
37682
37656
37684
37717
37673
37722
37878
37654
37706
37687
37867
37775
37586
37761
37903
37806
37731
37847
37672
37888
37816
37875
37902
37918
37911
37872
37725
37758
37908
37827
37710
37838
37871
37850
38032
37818
38035
37867
37688
37770
37814
37723
37651
37666
37581
37617
37480
37363
37358
37264
37252
37105
37160
37142
37144
37054
37075
37063
37019
37005
37014
37008
36986
36973
36949
36958
36990
36978
37006
37029
37095
36944
36938
36985
37024
36963
36942
36977
37012
37002
37043
37038
37059
37043
37113
37081
37136
37170
37104
37163
37151
37201
37191
37179
37333
37289
37158
37229
37421
37287
37376
37344
37336
37278
37254
37263
37254
37318
37376
37324
37390
37295
37408
37213
37450
37296
37334
37334
37480
37516
37512
37264
37605
37412
37516
37441
37327
37481
37438
37487
37601
37488
37499
37475
37513
37599
37555
37461
37546
37476
37544
37590
37617
37618
37593
37642
37557
37814
37520
37447
37779
37772
37704
37776
37768
37629
37625
37728
37563
37635
37697
37847
37536
37664
37731
37789
37706
37914
37682
37626
37769
37651
37684
37556
37658
37679
37639
37438
37347
37542
37271
37443
37329
37122
37360
37074
37237
37066
36863
37064
36823
36936
37106
36976
36917
37005
36782
36959
36776
37087
36923
36883
36863
36750
36954
37120
37006
37000
37013
36910
36950
36923
37102
37077
37050
37044
37071
37132
37144
37131
37348
37183
37264
37142
37152
37181
37226
37308
37174
37195
37184
37201
37132
37333
37248
37421
37352
37420
37384
37387
37200
37257
37424
37222
37304
37491
37199
37269
37321
37276
37246
37326
37335
37336
37443
37364
37625
37433
37578
37472
37639
37692
37479
37680
37507
37394
37534
37388
37626
37681
37671
37467
37456
37613
37436
37459
37648
37733
37634
37663
37521
37636
37646
37809
37531
37718
37501
37824
37579
37881
37646
37608
37740
37922
37759
37925
37846
37951
37760
37914
37729
37617
37659
37754
37647
37808
37478
37538
37718
37538
37376
37474
37462
37348
37229
37124
37305
37130
37114
37142
37024
36805
36938
36937
36903
36840
36894
37025
36954
37031
36871
36856
36953
36884
36937
36779
37050
36882
36735
36954
36881
36887
36851
36867
36895
36840
36863
36889
36926
36842
36813
36911
36980
37060
37006
37127
37050
37025
37037
37155
37080
37070
37106
37072
37130
