24309
24324
24338
24348
24350
24342
24331
24323
24323
24332
24339
24322
24283
24233
24169
24095
24017
23936
23851
23766
23695
23642
23584
23511
23430
23350
23277
23224
23189
23159
23117
23060
23007
22976
22959
22931
22874
22798
22737
22701
22669
22611
22526
22421
22318
22234
22170
22113
22054
21999
21952
21907
21867
21844
21839
21843
21854
21867
21874
21864
21832
21787
21731
21672
21612
21546
21481
21423
21370
21314
21242
21147
21043
20952
20895
20857
20812
20764
20726
20706
20706
20726
20737
20701
20634
20581
20548
20516
20480
20441
20402
20356
20296
20230
20189
20197
20256
20361
20502
20667
20863
21092
21330
21576
21839
22107
22381
22676
22976
23242
23458
23641
23803
23950
24095
24237
24362
24475
24566
24605
24597
24561
24507
24449
24400
24360
24310
24254
24212
24187
24164
24135
24109
24083
24061
24050
24047
24049
24062
24099
24154
24203
24231
24231
24211
24204
24208
24183
24133
24098
24068
24010
23950
23914
23886
23868
23877
23891
23867
23801
23725
23672
23641
23621
23614
23617
23620
23598
23558
23533
23524
23519
23523
23535
23547
23552
23536
23486
23411
23319
23219
23130
23061
23013
22986
22977
22974
22965
22959
22942
22903
22842
22760
22661
22551
22449
22363
22287
22220
22149
22082
22025
21957
21877
21806
21736
21655
21584
21552
21546
21523
21483
21456
21447
21431
21390
21333
21269
21210
21166
21125
21073
21004
20932
20889
20882
20887
20887
20870
20834
20786
20744
20709
20680
20658
20641
20623
20581
20520
20461
20403
20328
20244
20191
20181
20205
20272
20388
20557
20764
20996
21262
21538
21797
22039
22271
22505
22753
22999
23218
23397
23555
23717
23890
24063
24200
24285
24340
24373
24391
24409
24432
24455
24459
24437
24407
24365
24313
24271
24245
24245
24267
24294
24336
24386
24412
24424
24438
24444
24445
24433
24394
24333
24268
24221
24190
24153
24118
24084
24043
24005
23952
23890
23835
23781
23736
23711
23693
23664
23628
23607
23594
23561
23509
23457
23416
23405
23415
23422
23421
23411
23399
23382
23354
23329
23317
23289
23240
23198
23177
23171
23155
23129
23117
23115
23099
23069
23039
23016
22985
22927
22869
22820
22761
22693
22602
22484
22345
22209
22101
22028
21994
21979
21964
21944
21924
21905
21873
21826
21769
21715
21666
21615
21540
21445
21359
21284
21220
21160
21093
21022
20950
20892
20847
20821
20812
20787
20729
20662
20620
20589
20543
20502
20485
20458
20406
20362
20335
20309
20290
20285
20292
20292
20274
20233
20166
20078
19982
19908
19853
19790
19739
19716
19716
19753
19824
19921
20064
20268
20516
20785
21078
21396
21723
22046
22360
22668
22984
23293
23565
23794
23968
24098
24200
24275
24336
24394
24433
24456
24472
24471
24435
24380
24329
24286
24266
24266
24247
24210
24182
24165
24163
24181
24201
24208
24211
24235
24280
24326
24377
24430
24464
24483
24491
24482
24451
24396
24314
24206
24100
24012
23939
23889
23858
23831
23819
23814
23807
23801
23780
23758
23749
23736
23722
23724
23736
23742
23743
23738
23730
23723
23715
23695
23644
23574
23515
23473
23457
23455
23423
23370
23334
23323
23324
23311
23277
23216
23140
23070
22989
22897
22819
22745
22655
22569
22521
22508
22505
22495
22470
22430
22370
22287
22197
22103
22013
21940
21877
21837
21817
21799
21773
21723
21644
21550
21459
21368
21277
21194
21130
21100
21094
21090
21072
21041
21012
20986
20957
20941
20937
20911
20853
20794
20749
20702
20665
20639
20586
20500
20413
20341
20281
20245
20226
20216
20218
20208
20181
20142
20090
20033
19978
19921
19875
19844
19820
19794
19744
19675
19614
19562
19543
19583
19663
19792
19999
20260
20533
20816
21123
21456
21795
22116
22413
22699
22968
23205
23411
23587
23734
23864
23990
24097
24179
24234
24258
24262
24272
24290
24293
24275
24252
24241
24229
24203
24164
24134
24132
24137
24135
24135
24130
24110
24082
24068
24091
24136
24169
24179
24171
24163
24154
24152
24159
24153
24139
24126
24089
24038
23993
23953
23924
23914
23916
23907
23882
23848
23792
23713
23625
23541
23471
23420
23394
23376
23353
23326
23292
23267
23273
23313
23355
23363
23336
23308
23292
23258
23198
23131
23056
22985
22940
22915
22913
22925
22920
22901
22893
22891
22874
22825
22750
22662
22562
22458
22339
22210
22083
21958
21849
21778
21736
21699
21651
21588
21526
21475
21419
21360
21322
21308
21298
21271
21238
21218
21211
21210
21199
21167
21101
20998
20878
20780
20709
20635
20558
20511
20499
20499
20484
20439
20368
20285
20218
20194
20197
20206
20220
20240
20269
20289
20270
20209
20133
20059
19985
19901
19811
19740
19688
19635
19575
19507
19450
19422
19412
19418
19460
19549
19676
19835
20044
20316
20641
20992
21342
21679
22006
22323
22624
22906
23154
23371
23560
23705
23812
23903
23984
24042
24072
24066
24029
23973
23905
23843
23805
23795
23804
23819
23834
23834
23816
23780
23740
23722
23729
23759
23803
23854
23898
23917
23899
23860
23815
23758
23687
23622
23587
23578
23581
23590
23594
23588
23579
23564
23536
23480
23403
23340
23297
23252
23198
23139
23082
23029
22984
22943
22910
22887
22868
22860
22868
22892
22935
22997
23056
23089
23100
23093
23064
23016
22957
22907
22886
22901
22938
22963
22960
22940
22898
22832
22752
22659
22563
22483
22417
22356
22295
22219
22122
22026
21937
21862
21800
21734
21676
21647
21636
21630
21628
21613
21563
21485
21403
21318
21240
21185
21147
21116
21087
21058
21029
20999
20947
20874
20806
20758
20725
20710
20707
20698
20669
20620
20565
20523
20503
20499
20508
20542
20598
20672
20782
20944
21153
21395
21659
21939
22223
22505
22795
23105
23421
23724
23994
24217
24403
24576
24744
24891
24994
25048
25056
25035
25000
24974
24963
24961
24965
24969
24974
24981
24988
25001
25024
25039
25023
24990
24965
24933
24900
24891
24898
24895
24879
24865
24859
24863
24860
24826
24766
24698
24621
24532
24459
24417
24397
24388
24389
24386
24364
24328
24289
24254
24233
24233
24247
24266
24264
24240
24210
24155
24087
24048
24027
23986
23934
23884
23823
23758
23710
23681
23670
23681
23707
23725
23725
23694
23617
23501
23380
23275
23174
23078
23009
22970
22951
22943
22934
22912
22865
22783
22674
22559
22463
22380
22289
22182
22071
21985
21922
21854
21776
21709
21662
21625
21594
21572
21549
21511
21467
21425
21380
21340
21306
21262
21197
21113
21025
20943
20874
20810
20736
20663
20619
20599
20586
20576
20567
20553
20534
20511
20488
20476
20492
20540
20623
20749
20918
21134
21402
21708
22022
22327
22621
22921
23242
23572
23879
24139
24361
24555
24731
24899
25037
25127
25188
25241
25284
25299
25284
25257
25231
25214
25223
25261
25305
25337
25364
25380
25391
25401
25392
25361
25332
25326
25325
25312
25303
25314
25332
25333
25325
25316
25286
25229
25174
25137
25103
25059
24986
24883
24778
24696
24633
24578
24527
24476
24427
24392
24369
24351
24345
24351
24363
24377
24388
24388
24373
24346
24312
24276
24235
24194
24161
24136
24107
24070
24041
24019
23995
23970
23938
23892
23839
23797
23762
23727
23691
23664
23640
23586
23493
23386
23291
23209
23133
23056
22977
22899
22843
22818
22788
22734
22671
22613
22568
22529
22486
22431
22356
22265
22169
22078
21998
21938
21892
21844
21783
21729
21704
21691
21654
21585
21495
21397
21314
21256
21219
21202
21199
21208
21228
21238
21216
21171
21131
21089
21021
20931
20842
20768
20712
20673
20625
20551
20458
20371
20318
20285
20253
20226
20207
20194
20180
20164
20147
20143
20179
20266
20398
20564
20744
20940
21161
21425
21749
22103
22454
22797
23126
23434
23725
24003
24262
24495
24694
24855
24993
25117
25213
25272
25299
25310
25317
25310
25267
25205
25158
25134
25137
25169
25213
25251
25274
25292
25314
25334
25352
25375
25405
25432
25445
25439
25408
25362
25309
25251
25181
25092
24995
24907
24840
24782
24715
24659
24638
24627
24608
24594
24578
24563
24542
24512
24489
24476
24470
24463
24442
24400
24355
24323
24295
24272
24254
24216
24164
24117
24084
24079
24092
24085
24044
23995
23970
23961
23939
23900
23853
23813
23780
23735
23677
23620
23567
23509
23444
23384
23323
23246
23169
23116
23070
23018
22969
22929
22897
22868
22815
22723
22604
22485
22397
22334
22261
22183
22126
22097
22079
22059
22057
22064
22047
22015
21983
21942
21897
21846
21785
21718
21639
21537
21425
21318
21213
21106
21005
20914
20849
20818
20799
20764
20716
20662
20590
20516
20473
20464
20468
20465
20456
20449
20444
20428
20396
20364
20339
20313
20294
20306
20355
20428
20513
20610
20740
20934
21198
21525
21886
22232
22538
22826
23125
23425
23710
23979
24220
24422
24587
24733
24859
24958
25031
25067
25066
25039
24996
24949
24904
24872
24849
24832
24829
24846
24874
24905
24938
24976
25015
25043
25048
25045
25049
25048
25037
25029
25041
25055
25048
25029
25009
24985
24940
24874
24807
24735
24647
24553
24468
24389
24325
24285
24260
24254
24266
24283
24302
24316
24309
24285
24257
24228
24201
24170
24133
24105
24085
24076
24082
24101
24114
24108
24087
24059
24027
24000
23979
23949
23905
23854
23791
23723
23653
23586
23535
23488
23433
23370
23297
23210
23117
23032
22949
22868
22799
22742
22692
22647
22605
22553
22478
22385
22287
22184
22075
21979
21912
21873
21843
21826
21834
21853
21854
21833
21803
21765
21712
21645
21586
21555
21543
21531
21513
21478
21432
21399
21380
21362
21343
21324
21308
21308
21336
21395
21493
21633
21820
22056
22327
22614
22930
23276
23633
23988
24326
24632
24903
25139
25352
25545
25692
25784
25848
25895
25924
25942
25957
25961
25939
25891
25828
25775
25749
25757
25787
25808
25805
25783
25753
25726
25713
25722
25742
25758
25772
25788
25783
25755
25733
25715
25680
25634
25588
25526
25444
25357
25278
25204
25118
25030
24958
24891
24818
24754
24717
24697
24693
24697
24693
24695
24718
24744
24758
24767
24786
24803
24806
24806
24804
24789
24760
24730
24706
24684
24645
24584
24505
24420
24358
24320
24288
24257
24214
24151
24079
24008
23932
23845
23757
23689
23645
23613
23573
23506
23418
23324
23229
23141
23061
22987
22930
22907
22905
22894
22864
22811
22739
22673
22626
22591
22552
22504
22449
22386
22312
22222
22134
22056
21976
21902
21860
21833
21788
21740
21705
21688
21694
21729
21803
21935
22138
22395
22677
22978
23303
23646
23985
24310
24632
24954
25266
25554
25816
26059
26269
26442
26602
26732
26816
26876
26928
26972
27006
27011
26978
26930
26887
26843
26793
26739
26703
26717
26767
26833
26897
26931
26938
26940
26950
26965
26973
26961
26930
26901
26874
26835
26774
26699
26620
26540
26472
26403
26320
26244
26183
26126
26066
26002
25945
25903
25848
25764
25671
25604
25577
25561
25554
25566
25580
25598
25618
25623
25621
25630
25638
25638
25627
25599
25546
25471
25390
25311
25223
25121
25026
24954
24908
24878
24843
24799
24768
24757
24740
24696
24637
24577
24524
24474
24415
24339
24265
24209
24163
24124
24091
24054
23989
23883
23757
23643
23548
23470
23406
23342
23267
23189
23109
23022
22948
22902
22862
22830
22801
22746
22669
22590
22523
22480
22441
22402
22371
22330
22271
22204
22138
22084
22040
22005
21993
21988
21958
21904
21839
21776
21736
21714
21686
21645
21607
21605
21668
21807
22017
22285
22595
22942
23327
23725
24104
24476
24841
25164
25449
25728
25995
26235
26477
26710
26890
27030
27155
27239
27277
27310
27354
27397
27433
27457
27468
27461
27448
27446
27460
27475
27461
27427
27384
27324
27263
27234
27248
27299
27368
27424
27466
27497
27518
27539
27538
27503
27451
27406
27353
27264
27139
26998
26861
26726
26613
26549
26520
26496
26448
26372
26285
26203
26140
26098
26067
26053
26056
26066
26085
26108
26121
26112
26081
26038
25992
25943
25893
25844
25798
25763
25739
25705
25661
25618
25573
25527
25483
25431
25365
25292
25228
25177
25127
25086
25058
25027
24961
24871
24786
24705
24619
24526
24440
24369
24310
24257
24198
24114
24010
23906
23823
23767
23715
23654
23589
23527
23464
23396
23334
23288
23255
23235
23223
23204
23170
23133
23088
23033
22986
22957
22919
22848
22753
22655
22571
22507
22463
22426
22386
22345
22301
22245
22170
22094
22044
22015
21992
21957
21900
21828
21757
21695
21638
21572
21498
21428
21372
21343
21338
21340
21335
21330
21349
21395
21468
21584
21761
22016
22343
22708
23074
23429
23780
24133
24484
24830
25162
25474
25755
25993
26198
26380
26531
26657
26763
26842
26884
26897
26891
26870
26840
26804
26764
26730
26707
26702
26713
26734
26759
26771
26765
26762
26772
26784
26790
26779
26752
26732
26730
26739
26744
26739
26719
26690
26663
26638
26596
26527
26443
26344
26233
26126
26034
25948
25877
25815
25754
25703
25676
25670
25691
25735
25784
25818
25832
25834
25812
25763
25700
25629
25552
25482
25429
25383
25337
25291
25245
25189
25143
25117
25075
25004
24930
24873
24847
24842
24829
24779
24707
24645
24582
24514
24460
24412
24335
24236
24151
24083
24021
23958
23885
23801
23722
23651
23590
23533
23478
23428
23394
23365
23312
23247
23190
23135
23085
23037
22978
22904
22837
22788
22750
22726
22711
22687
22651
22606
22554
22488
22405
22314
22226
22148
22087
22034
21973
21909
21869
21855
21846
21833
21813
21776
21726
21689
21672
21658
21626
21570
21507
21432
21326
21190
21043
20900
20772
20667
20597
20549
20508
20472
20438
20400
20371
20371
20406
20467
20569
20733
20948
21203
21500
21831
22184
22549
22920
23289
23643
23989
24331
24652
24941
25191
25403
25589
25763
25917
26033
26118
26172
26183
26160
26131
26091
26027
25946
25862
25785
25723
25681
25651
25631
25623
25637
25676
25727
25784
25837
25870
25880
25883
25898
25909
25897
25871
25841
25813
25785
25745
25687
25611
25529
25447
25374
25315
25264
25224
25201
25188
25183
25188
25198
25213
25231
25230
25203
25159
25099
25022
24946
24881
24829
24801
24790
24773
24745
24710
24662
24600
24535
24480
24433
24383
24333
24297
24276
24261
24249
24234
24212
24196
24189
24175
24133
24071
24010
23931
23832
23756
23696
23608
23488
23376
23303
23258
23225
23196
23161
23116
23074
23036
22987
22928
22865
22802
22743
22692
22648
22607
22561
22506
22448
22390
22335
22292
22263
22240
22212
22172
22124
22078
22034
21988
21939
21890
21844
21801
21773
21756
21726
21679
21645
21638
21664
21729
21848
22020
22228
22467
22735
23026
23335
23662
24004
24344
24666
24981
25284
25564
25825
26059
26258
26426
26560
26667
26753
26795
26776
26721
26656
26606
26591
26596
26594
26572
26542
26529
26530
26536
26537
26528
26516
26503
26500
26519
26534
26532
26523
26496
26450
26413
26399
26393
26374
26335
26282
26215
26139
26054
25953
25852
25779
25732
25699
25667
25615
25542
25460
25391
25362
25380
25436
25508
25554
25556
25534
25505
25480
25464
25456
25447
25436
25424
25407
25379
25350
25336
25327
25315
25292
25251
25195
25133
25054
24959
24874
24814
24755
24678
24595
24514
24438
24387
24350
24289
24196
24082
23962
23850
23750
23671
23623
23574
23494
23390
23278
23169
23079
23020
22990
22971
22954
22936
22920
22904
22881
22837
22765
22681
22608
22550
22497
22446
22398
22348
22307
22283
22263
22240
22223
22209
22197
22201
22231
22291
22387
22518
22678
22864
23080
23332
23615
23928
24265
24609
24959
25316
25668
26003
26304
26569
26808
27020
27193
27313
27377
27412
27436
27438
27410
27368
27341
27342
27357
27361
27356
27360
27377
27400
27415
27404
27381
27375
27403
27453
27500
27534
27552
27554
27538
27510
27484
27457
27415
27358
27290
27208
27110
27006
26916
26838
26764
26702
26664
26635
26602
26567
26525
26483
26452
26428
26402
26378
26360
26342
26324
26310
26311
26323
26324
26303
26267
26227
26192
26154
26114
26080
26050
26014
25962
25887
25799
25721
25666
25625
25582
25530
25471
25405
25324
25235
25159
25098
25048
25019
25003
24990
24978
24952
24892
24798
24680
24556
24441
24326
24219
24150
24116
24091
24064
24028
23981
23920
23850
23778
23713
23658
23607
23545
23465
23385
23333
23319
23333
23345
23331
23300
23277
23267
23254
23230
23198
23158
23108
23050
22985
22910
22826
22743
22666
22603
22559
22528
22510
22506
22526
22605
22753
22952
23194
23467
23759
24069
24393
24730
25080
25435
25792
26151
26499
26822
27113
27369
27586
27755
27864
27916
27925
27910
27900
27915
27949
27991
28035
28083
28130
28167
28179
28165
28134
28093
28050
28011
27976
27955
27969
28026
28102
28173
28226
28257
28280
28291
28283
28260
28227
28197
28168
28124
28052
27968
27894
27831
27772
27709
27637
27551
27467
27401
27349
27311
27278
27245
27215
27196
27186
27171
27160
27150
27130
27112
27106
27100
27086
27066
27038
27002
26956
26901
26850
26789
26709
26630
26558
26487
26418
26360
26313
26263
26208
26151
26095
26042
25993
25939
25878
25810
25733
25651
25576
25523
25472
25405
25340
25272
25201
25132
25048
24941
24835
24758
24719
24700
24672
24608
24528
24458
24387
24319
24262
24202
24144
24101
24065
24021
23962
23899
23843
23804
23774
23749
23742
23748
23736
23678
23581
23475
23379
23301
23247
23208
23162
23104
23042
22970
22885
22790
22696
22632
22628
22689
22813
22983
23189
23447
23753
24090
24447
24811
25170
25513
25840
26151
26435
26688
26922
27142
27348
27533
27701
27861
27999
28102
28164
28189
28195
28186
28152
28106
28070
28038
28007
27990
27995
28015
28040
28075
28114
28147
28171
28189
28209
28237
28273
28317
28349
28352
28326
28280
28216
28133
28044
27975
27928
27891
27850
27799
27738
27671
27613
27560
27495
27419
27359
27320
27278
27221
27166
27130
27120
27135
27161
27179
27189
27198
27202
27194
27173
27145
27120
27093
27053
27000
26940
26876
26819
26780
26751
26722
26686
26640
26585
26522
26456
26388
26307
26221
26145
26083
26026
25974
25936
25911
25888
25850
25785
25711
25645
25584
25526
25464
25391
25313
25236
25153
25067
24974
24882
24809
24764
24736
24707
24672
24635
24599
24572
24558
24531
24483
24432
24385
24337
24284
24223
24165
24116
24079
24072
24112
24196
24313
24461
24644
24859
25105
25381
25678
25999
26344
26688
27002
27290
27566
27832
28075
28286
28463
28613
28741
28846
28925
28984
29024
29047
29052
29046
29033
29008
28976
28954
28946
28950
28948
28939
28948
28990
29044
29090
29128
29150
29154
29153
29150
29137
29106
29063
29014
28962
28904
28837
28760
28684
28606
28513
28405
28297
28205
28138
28084
28032
27988
27961
27939
27924
27922
27926
27933
27945
27949
27929
27894
27862
27848
27844
27832
27811
27781
27736
27677
27624
27589
27561
27513
27445
27373
27310
27260
27215
27170
27118
27050
26972
26894
26825
26768
26714
26658
26603
26553
26499
26442
26377
26301
26217
26135
26051
25956
25874
25816
25756
25684
25617
25563
25521
25486
25451
25412
25352
25280
25217
25158
25097
25050
25015
24981
24946
24910
24866
24815
24762
24710
24674
24660
24656
24643
24629
24639
24685
24770
24899
25080
25310
25576
25865
26168
26490
26830
27170
27500
27815
28110
28371
28591
28783
28953
29085
29174
29232
29273
29304
29325
29339
29365
29404
29438
29457
29462
29463
29466
29478
29498
29514
29523
29539
29574
29619
29667
29712
29751
29794
29839
29857
29844
29821
29785
29737
29685
29630
29568
29490
29401
29310
29218
29124
29029
28933
28847
28776
28718
28670
28625
28581
28542
28515
28499
28480
28449
28409
28374
28349
28330
28312
28300
28300
28311
28313
28308
28316
28325
28306
28249
28172
28097
28030
27959
27870
27770
27675
27583
27499
27433
27382
27339
27309
27281
27243
27207
27172
27121
27055
26981
26898
26810
26736
26683
26639
26581
26500
26405
26305
26208
26117
26025
25939
25867
25806
25755
25707
25658
25606
25552
25499
25450
25411
25379
25349
25310
25251
25182
25116
25054
24989
24916
24848
24794
24750
24711
24679
24668
24667
24650
24614
24567
24515
24466
24423
24382
24329
24262
24185
24091
23990
23912
23858
23817
23795
23799
23834
23894
23980
24106
24283
24504
24751
25021
25320
25638
25966
26290
26605
26918
27225
27526
27814
28068
28288
28482
28646
28773
28855
28894
28902
28897
28909
28960
29031
29109
29175
29209
29223
29231
29232
29225
29222
29237
29261
29282
29296
29309
29326
29330
29302
29262
29249
29250
29246
29242
29220
29182
29136
29086
29034
28973
28898
28810
28730
28671
28624
28582
28546
28519
28499
28473
28440
28402
28362
28320
28279
28243
28196
28129
28054
27989
27941
27921
27931
27962
28005
28042
28052
28026
27966
27894
27811
27713
27607
27512
27443
27394
27358
27325
27289
27255
27221
27186
27159
27131
27076
26994
26903
26821
26743
26653
26546
26435
26342
26262
26174
26071
25982
25936
25916
25896
25876
25853
25816
25761
25696
25640
25597
25539
25448
25344
25264
25209
25163
25121
25084
25044
24999
24943
24869
24780
24690
24606
24525
24441
24361
24293
24245
24211
24182
24156
24127
24096
24067
24033
23996
23955
23908
23868
23839
23805
23759
23706
23653
23605
23557
23504
23440
23359
23267
23167
23057
22948
22857
22791
22748
22702
22638
22575
22535
22520
22536
22607
22731
22898
23113
23383
23700
24051
24422
24808
25200
25575
25925
26254
26558
26833
27085
27317
27507
27640
27730
27796
27852
27921
27996
28061
28113
28145
28161
28169
28170
28165
28151
28130
28107
28086
28065
28042
28023
28015
28023
28051
28095
28142
28175
28192
28206
28216
28200
28161
28105
28027
27939
27861
27794
27728
27666
27601
27520
27440
27377
27326
27281
27247
27223
27199
27168
27140
27125
27117
27111
27111
27113
27107
27091
27063
27035
27007
26970
26934
26912
26897
26869
26829
26790
26750
26707
26670
26638
26601
26550
26479
26393
26305
26232
26177
26125
26064
26001
25948
25896
25825
25742
25654
25559
25461
25367
25284
25217
25159
25101
25042
24989
24941
24886
24820
24757
24710
24684
24666
24644
24609
24550
24466
24365
24257
24157
24077
24016
23960
23917
23903
23917
23932
23931
23916
23880
23826
23773
23730
23687
23633
23566
23490
23415
23339
23262
23185
23113
23062
23028
22995
22975
22967
22953
22922
22861
22783
22708
22648
22600
22557
22514
22460
22392
22327
22274
22242
22255
22336
22486
22687
22914
23165
23453
23780
24139
24513
24881
25229
25558
25864
26141
26398
26628
26818
26974
27094
27181
27253
27313
27371
27432
27485
27509
27506
27494
27476
27454
27439
27442
27454
27466
27475
27471
27463
27453
27430
27383
27316
27238
27157
27090
27044
27019
27005
26998
26992
26990
26996
26999
26984
26950
26899
26832
26750
26665
26582
26500
26426
26378
26356
26347
26346
26352
26349
26327
26306
26295
26294
26295
26277
26234
26171
26112
26090
26097
26103
26103
26092
26067
26031
25988
25934
25873
25805
25731
25662
25589
25511
25435
25355
25279
25223
25182
25155
25133
25103
25055
24976
24876
24765
24651
24549
24467
24405
24357
24320
24293
24278
24256
24208
24139
24055
23961
23865
23797
23761
23732
23698
23656
23608
23550
23473
23376
23275
23184
23099
23012
22925
22856
22823
22806
22775
22736
22681
22598
22497
22398
22314
22242
22196
22173
22153
22133
22111
22083
22044
21997
21949
21902
21854
21823
21824
21859
21936
22066
22251
22494
22778
23086
23416
23766
24131
24504
24868
25210
25529
25814
26068
26307
26520
26693
26834
26947
27031
27094
27136
27150
27143
27131
27120
27109
27105
27112
27114
27090
27032
26965
26917
26893
26888
26895
26903
26916
26939
26963
26982
26988
26973
26955
26937
26911
26876
26830
26770
26705
26642
26574
26497
26422
26363
26312
26263
26216
26169
26113
26054
25997
25947
25904
25863
25823
25793
25784
25781
25773
25766
25752
25737
25732
25728
25710
25689
25667
25642
25607
25554
25493
25443
25403
25347
25267
25177
25090
25006
24935
24891
24858
24819
24774
24721
24662
24594
24513
24427
24345
24276
24209
24137
24066
23985
23889
23799
23717
23637
23578
23544
23509
23461
23391
23298
23206
23137
23074
22994
22897
22801
22719
22657
22611
22575
22539
22494
22439
22391
22348
22292
22224
22158
22104
22051
21991
21930
21876
21821
21761
21698
21631
21563
21500
21441
21380
21324
21286
21257
21224
21185
21129
21055
20971
20888
20804
20721
20644
20561
20479
20418
20369
20310
20247
20191
20145
20109
20081
20060
20036
20000
19970
19954
19968
20038
20176
20378
20641
20955
21304
21681
22081
22496
22922
23345
23741
24104
24451
24786
25106
25397
25638
25825
25958
26042
26087
26103
26102
26104
26107
26091
26050
25992
25922
25852
25807
25798
25804
25804
25800
25787
25768
25749
25735
25738
25761
25796
25833
25870
25897
25902
25888
25847
25781
25717
25672
25621
25542
25449
25362
25281
25209
25147
25098
25059
25012
24953
24901
24871
24865
24861
24850
24838
24817
24790
24777
24779
24787
24781
24754
24719
24691
24668
24644
24620
24601
24580
24551
24511
24461
24405
24341
24270
24204
24150
24109
24073
24026
23962
23880
23785
23696
23626
23583
23554
23518
23477
23426
23362
23293
23209
23107
23011
22927
22848
22772
22709
22650
22580
22496
22409
22325
22250
22181
22115
22048
21968
21876
21783
21695
21616
21549
21507
21483
21460
21434
21410
21389
21360
21316
21258
21192
21134
21093
21050
20994
20936
20878
20814
20753
20693
20627
20576
20541
20502
20454
20399
20333
20264
20210
20176
20148
20103
20039
19967
19893
19817
19745
19667
19574
19476
19386
19305
19225
19146
19075
19013
18955
18908
18873
18837
18802
18768
18732
18709
18712
18747
18817
18943
19149
19438
19787
20171
20575
20995
21424
21847
22256
22656
23039
23396
23731
24038
24301
24517
24696
24843
24956
25036
25088
25117
25120
25104
25092
25113
25158
25196
25214
25205
25174
25131
25085
25052
25040
25043
25054
25052
25022
24981
24945
24912
24879
24848
24812
24776
24762
24769
24774
24754
24707
24642
24568
24487
24389
24282
24182
24091
24021
23966
23916
23877
23861
23859
23850
23834
23817
23803
23802
23813
23823
23820
23810
23803
23789
23768
23755
23748
23735
23711
23675
23631
23591
23537
23467
23390
23298
23207
23139
23084
23034
23000
22965
22915
22875
22839
22793
22753
22714
22669
22614
22537
22440
22332
22225
22134
22055
21984
21918
21862
21818
21766
21698
21626
21557
21494
21428
21359
21278
21176
21058
20951
20872
20811
20758
20706
20649
20596
20563
20542
20511
20465
20410
20348
20282
20211
20139
20071
20013
19970
19928
19868
19789
19701
19613
19523
19442
19378
19322
19273
19241
19217
19187
19148
19109
19076
19044
19008
18973
18936
18890
18835
18766
18669
18552
18442
18346
18257
18175
18104
18045
17994
17942
17900
17898
17934
17997
18105
18276
18521
18832
19182
19560
19968
20396
20836
21281
21712
22115
22490
22828
23117
23358
23560
23738
23900
24046
24162
24238
24290
24350
24423
24482
24507
24499
24469
24428
24383
24327
24269
24214
24146
24068
23999
23945
23907
23901
23933
23984
24024
24047
24055
24040
24002
23953
23895
23826
23766
23721
23677
23628
23579
23534
23491
23450
23414
23374
23318
23249
23183
23135
23102
23093
23099
23089
23062
23042
23035
23027
23014
22997
22984
22977
22969
22950
22923
22902
22894
22889
22876
22860
22834
22797
22761
22729
22698
22659
22601
22525
22446
22373
22311
22260
22210
22153
22092
22020
21941
21875
21806
21722
21643
21566
21491
21431
21379
21322
21261
21187
21097
20996
20893
20804
20736
20675
20611
20546
20475
20407
20361
20333
20305
20272
20223
20148
20066
19996
19944
19905
19874
19847
19819
19779
19714
19635
19550
19452
19351
19268
19200
19142
19097
19060
19031
19012
18997
18972
18930
18885
18858
18863
18903
18980
19105
19282
19508
19785
20111
20468
20840
21213
21589
21959
22311
22637
22941
23227
23494
23741
23968
24168
24339
24469
24567
24656
24731
24771
24783
24788
24798
24802
24789
24772
24745
24703
24655
24598
24529
24469
24436
24427
24426
24424
24419
24411
24397
24366
24321
24277
24233
24185
24132
24067
23993
23920
23855
23803
23764
23735
23719
23711
23697
23669
23633
23595
23562
23531
23503
23483
23458
23423
23392
23387
23405
23429
23453
23467
23477
23499
23518
23536
23559
23572
23570
23557
23531
23488
23424
23347
23263
23177
23110
23066
23036
23018
22995
22951
22885
22804
22721
22642
22562
22473
22374
22279
22193
22126
22077
22030
21965
21892
21824
21763
21718
21679
21632
21580
21535
21497
21462
21432
21402
21369
21330
21284
21233
21186
21151
21114
21069
21032
21004
20971
20938
20914
20900
20902
20926
20981
21077
21220
21417
21663
21962
22309
22683
23072
23470
23871
24262
24618
24935
25218
25461
25673
25865
26029
26168
26291
26399
26487
26549
26577
26581
26576
26561
26538
26504
26458
26414
26377
26340
26307
26279
26260
26259
26267
26259
26233
26206
26186
26175
26171
26169
26171
26174
26176
26165
26138
26097
26040
25962
25875
25787
25702
25630
25577
25529
25477
25430
25390
25358
25336
25330
25344
25363
25385
25420
25459
25490
25513
25527
25532
25530
25523
25507
25480
25446
25411
25387
25384
25388
25375
25338
25282
25217
25144
25068
24986
24900
24818
24739
24658
24577
24487
24399
24337
24301
24275
24244
24189
24122
24057
23984
23898
23817
23760
23731
23704
23667
23631
23604
23578
23541
23491
23418
23323
23228
23152
23099
23060
23023
22981
22931
22876
22821
22765
22707
22659
22635
22629
22627
22631
22651
22702
22800
22956
23170
23436
23745
24076
24410
24749
25120
25520
25922
26326
26717
27067
27365
27609
27810
27979
28119
28236
28339
28425
28484
28519
28530
28527
28517
28507
28506
28521
28539
28552
28567
28582
28596
28608
28618
28628
28631
28621
28606
28600
28605
28610
28606
28592
28576
28564
28552
28548
28540
28508
28450
28370
28271
28161
28056
27961
27872
27791
27712
27636
27585
27555
27529
27497
27442
27368
27306
27262
27229
27198
27166
27160
27180
27206
27226
27212
27150
27072
27013
26977
26950
26916
26851
26766
26697
26644
26599
26572
26553
26518
26467
26408
26364
26336
26294
26228
26139
26032
25916
25813
25726
25640
25537
25421
25315
25244
25204
25164
25112
25060
25010
24950
24888
24830
24765
24697
24638
24584
24531
24476
24420
24367
24328
24301
24279
24257
24227
24186
24134
24064
23973
23874
23792
23739
23712
23709
23710
23695
23682
23677
23658
23628
23613
23626
23659
23722
23842
24009
24204
24432
24712
25042
25411
25807
26208
26598
26982
27352
27686
27981
28245
28484
28689
28847
28964
29053
29134
29214
29273
29314
29357
29402
29436
29451
29461
29477
29493
29509
29525
29540
29564
29595
29625
29655
29692
29737
29778
29811
29831
29832
29823
29810
29795
29771
29717
29639
29559
29481
29404
29335
29273
29210
29144
29078
29010
28936
28873
28831
28795
28766
28745
28724
28699
28669
28628
28580
28537
28498
28445
28383
28325
28275
28242
28225
28212
28202
28200
28209
28230
28247
28237
28188
28118
28041
27959
27877
27794
27709
27638
27596
27569
27533
27490
27436
27357
27259
27172
27094
27012
26923
26836
26750
26661
26570
26478
26391
26308
26222
26140
26064
25987
25907
25829
25774
25741
25705
25665
25637
25624
25618
25605
25573
25525
25478
25437
25397
25351
25290
25221
25155
25090
25027
24964
24896
24825
24762
24718
24692
24670
24632
24592
24560
24528
24477
24396
24301
24214
24140
24083
24034
23985
23937
23885
23831
23792
23791
23847
23970
24156
24387
24651
24957
25305
25678
26067
26464
26853
27228
27594
27948
28265
28548
28821
29085
29311
29479
29594
29676
29731
29764
29785
29801
29821
29848
29870
29891
29920
29941
29947
29950
29952
29946
29935
29921
29914
29917
29925
29940
29963
29974
29954
29918
29887
29854
29818
29796
29788
29790
29803
29816
29803
29747
29662
29571
29482
29385
29276
29169
29078
29011
28967
28942
28937
28946
28957
28968
29000
29040
29063
29076
29072
29048
29018
28975
28928
28875
28799
28709
28633
28585
28564
28559
28558
28552
28539
28508
28445
28359
28280
28202
28113
28045
27999
27931
27848
27772
27685
27585
27491
27409
27346
27291
27232
27170
27112
27053
26972
26874
26773
26688
26641
26620
26596
26558
26503
26435
26373
26311
26257
26222
26200
26169
26125
26081
26038
25988
25947
25917
25878
25830
25791
25747
25685
25610
25531
25454
25383
25324
25288
25286
25319
25395
25507
25663
25871
26120
26397
26705
27046
27405
27773
28161
28566
28950
29278
29551
29792
30021
30232
30417
30585
30723
30812
30868
30911
30943
30966
30983
30992
30994
31002
31014
31013
31005
31004
31006
31000
30995
30994
30995
30995
30993
30993
30990
30989
30985
30976
30968
30957
30946
30923
30875
30808
30734
30660
30592
30532
30468
30392
30309
30231
30154
30076
30006
29964
29942
29929
29921
29910
29894
29877
29867
29864
29859
29841
29797
29745
29711
29689
29671
29657
29638
29607
29565
29520
29479
29442
29401
29357
29309
29237
29150
29085
29043
28995
28923
28835
28746
28657
28563
28463
28355
28251
28152
28055
27958
27856
27767
27701
27651
27608
27557
27484
27399
27318
27243
27173
27103
27035
26973
26907
26831
26767
26724
26686
26646
26606
26560
26505
26453
26407
26358
26287
26210
26138
26059
25972
25877
25789
25727
25676
25625
25587
25567
25554
25528
25475
25408
25347
25307
25302
25344
25434
25552
25696
25888
26146
26475
26858
27277
27716
28154
28580
29002
29416
29793
30115
30402
30671
30911
31125
31311
31444
31519
31563
31600
31630
31639
31633
31622
31608
31591
31576
31569
31569
31567
31569
31581
31598
31612
31616
31611
31603
31598
31606
31619
31622
31618
31615
31614
31603
31574
31534
31482
31415
31336
31250
31151
31042
30945
30865
30783
30691
30603
30533
30481
30433
30377
30332
30315
30325
30356
30392
30416
30428
30431
30425
30404
30370
30343
30328
30317
30312
30305
30292
30278
30260
30212
30121
30012
29904
29807
29728
29657
29586
29511
29433
29351
29262
29173
29085
28987
28872
28738
28587
28446
28340
28269
28218
28170
28108
28035
27969
27915
27850
27768
27671
27564
27463
27370
27296
27251
27222
27192
27153
27100
27048
27015
26991
26960
26930
26897
26840
26766
26699
26652
26615
26584
26548
26498
26421
26319
26221
26159
26123
26092
26063
26039
26019
26004
25991
25971
25940
25897
25843
25765
25652
25517
25386
25275
25176
25086
25014
24957
24892
24811
24729
24672
24667
24735
24865
25030
25232
25487
25790
26136
26521
26940
27366
27773
28165
28547
28917
29268
29602
29906
30166
30392
30596
30781
30943
31064
31132
31166
31198
31234
31260
31269
31267
31261
31253
31250
31247
31242
31229
31198
31165
31142
31128
31119
31119
31129
31145
31165
31182
31196
31221
31248
31246
31200
31129
31050
30970
30887
30804
30715
30624
30544
30472
30406
30354
30329
30322
30316
30307
30299
30284
30257
30225
30190
30144
30092
30057
30053
30066
30070
30059
30041
30019
29990
29951
29902
29842
29777
29722
29688
29667
29621
29551
29479
29401
29325
29264
29229
29195
29145
29087
29003
28897
28794
28693
28595
28505
28423
28352
28281
28204
28141
28089
28019
27939
27874
27819
27764
27705
27635
27547
27451
27357
27268
27180
27078
26962
26849
26755
26689
26641
26601
26560
26524
26488
26443
26397
26357
26310
26247
26193
26167
26151
26119
26068
26011
25964
25923
25868
25797
25727
25664
25601
25534
25464
25401
25333
25239
25133
25039
24965
24906
24856
24813
24778
24745
24707
24668
24626
24570
24503
24430
24348
24252
24150
24065
23998
23926
23857
23820
23837
23914
24037
24198
24396
24647
24958
25310
25689
26093
26509
26917
27308
27681
28031
28373
28710
29020
29287
29504
29673
29804
29911
29997
30053
30078
30081
30068
30039
30005
29976
29939
29890
29848
29822
29814
29820
29831
29846
29868
29897
29923
29944
29960
29970
29968
29952
29929
29903
29871
29831
29778
29719
29668
29629
29592
29545
29492
29442
29385
29319
29252
29192
29138
29091
29053
29023
29002
28984
28975
28973
28963
28943
28926
28918
28918
28921
28927
28937
28935
28904
28853
28792
28721
28638
28552
28479
28415
28362
28328
28309
28299
28278
28238
28197
28152
28089
28019
27943
27864
27781
27689
27603
27541
27488
27418
27341
27270
27202
27157
27128
27074
26997
26917
26836
26764
26692
26609
26529
26469
26421
26373
26324
26280
26248
26223
26194
26160
26121
26078
26032
25974
25904
25831
25760
25692
25626
25564
25509
25463
25423
25369
25308
25251
25185
25104
25020
24966
24937
24907
24872
24835
24792
24739
24662
24580
24525
24506
24539
24629
24769
24960
25200
25481
25803
26161
26546
26940
27326
27696
28049
28377
28672
28931
29154
29345
29509
29647
29750
29815
29859
29887
29897
29900
29901
29897
29884
29860
29831
29798
29754
29718
29715
29732
29757
29780
29801
29828
29857
29875
29883
29885
29882
29868
29843
29800
29731
29650
29567
29481
29405
29341
29276
29206
29140
29079
29018
28956
28897
28846
28803
28768
28738
28714
28696
28683
28673
28652
28620
28599
28599
28603
28596
28581
28560
28547
28557
28579
28594
28588
28556
28508
28454
28396
28333
28257
28174
28098
28039
27996
27956
27895
27809
27715
27617
27517
27432
27394
27391
27370
27326
27265
27177
27064
26943
26829
26728
26644
26573
26507
26459
26420
26359
26280
26207
26142
26095
26071
26037
25978
25916
25879
25850
25820
25812
25821
25828
25815
25776
25712
25620
25517
25405
25287
25176
25091
25048
25039
25036
25032
25039
25075
25144
25244
25374
25533
25706
25879
26075
26321
26617
26945
27270
27580
27887
28193
28495
28786
29063
29328
29582
29826
30051
30237
30362
30427
30450
30452
30449
30454
30465
30463
30443
30406
30352
30287
30220
30158
30104
30068
30044
30018
29993
29982
29992
30020
30056
30076
30063
30032
30004
29975
29933
29891
29856
29820
29768
29705
29644
29592
29555
29520
29477
29429
29363
29273
29183
29113
29062
29038
29041
29059
29076
29068
29034
28987
28949
28932
28912
28880
28850
28830
28812
28783
28740
28693
28654
28609
28553
28497
28445
28403
28384
28383
28388
28393
28388
28367
28328
28259
28164
28062
27978
27925
27887
27852
27824
27805
27774
27712
27622
27511
27393
27280
27174
27089
27036
26997
26956
26899
26808
26690
26560
26435
26340
26273
26214
26162
26122
26099
26082
26058
26039
26028
25992
25921
25828
25735
25661
25594
25523
25455
25402
25377
25363
25330
25280
25227
25179
25143
25101
25058
25036
25025
25000
24943
24862
24784
24738
24744
24801
24920
25116
25368
25643
25925
26222
26536
26871
27220
27571
27925
28279
28637
28984
29294
29576
29828
30036
30207
30330
30398
30433
30436
30422
30410
30397
30374
30338
30303
30286
30279
30275
30272
30293
30332
30362
30387
30420
30452
30465
30456
30440
30426
30413
30398
30382
30371
30371
30378
30371
30329
30254
30173
30089
29994
29895
29808
29738
29687
29652
29624
29584
29524
29460
29420
29399
29390
29390
29380
29349
29309
29271
29248
29245
29258
29275
29278
29275
29281
29279
29241
29186
29141
29083
28996
28897
28807
28735
28687
28663
28654
28658
28677
28683
28648
28583
28501
28407
28310
28218
28129
28049
27982
27919
27855
27775
27688
27618
27565
27518
27466
27411
27353
27288
27206
27108
27013
26933
26863
26793
26722
26657
26603
26547
26491
26449
26406
26352
26298
26256
26219
26172
26111
26054
26011
25975
25945
25922
25887
25819
25721
25612
25515
25443
25398
25373
25351
25314
25264
25216
25164
25106
25058
25016
24974
24938
24901
24856
24793
24709
24618
24546
24491
24445
24412
24398
24396
24385
24342
24268
24183
24104
24044
24021
24043
24098
24191
24337
24547
24821
25143
25498
25874
26255
26635
27004
27359
27698
28003
28265
28499
28717
28918
29100
29259
29383
29467
29530
29593
29634
29631
29599
29556
29510
29464
29420
29385
29359
29331
29312
29309
29320
29336
29339
29328
29324
29341
29369
29396
29419
29438
29448
29444
29424
29388
29342
29301
29264
29216
29137
29039
28959
28894
28817
28734
28668
28625
28603
28592
28581
28568
28564
28573
28586
28593
28601
28610
28607
28579
28539
28506
28478
28459
28442
28416
28383
28352
28320
28285
28238
28180
28123
28067
28002
27922
27837
27753
27668
27596
27540
27488
27449
27424
27414
27425
27431
27398
27324
27219
27102
26993
26898
26811
26722
26624
26522
26424
26334
26256
26194
26146
26103
26050
25999
25965
25939
25910
25889
25884
25885
25868
25826
25780
25735
25691
25659
25639
25618
25582
25533
25478
25413
25341
25273
25205
25139
25091
25070
25059
25037
25003
24966
24919
24859
24794
24745
24711
24672
24617
24552
24482
24406
24325
24253
24192
24130
24069
24011
23938
23846
23754
23679
23617
23560
23516
23501
23512
23550
23628
23750
23906
24102
24338
24599
24877
25180
25503
25833
26163
26488
26798
27071
27306
27515
27698
27854
27967
28030
28067
28099
28119
28121
28114
28100
28084
28071
28060
28043
28027
28019
28020
28029
28029
28002
27958
27929
27920
27912
27893
27872
27861
27863
27861
27849
27820
27772
27722
27675
27635
27608
27583
27543
27489
27433
27372
27302
27231
27163
27102
27059
27038
27021
26994
26960
26922
26892
26880
26881
26887
26890
26887
26875
26855
26852
26875
26915
26968
27021
27042
27024
26974
26902
26826
26768
26737
26721
26710
26695
26658
26579
26470
26354
26244
26139
26033
25940
25874
25820
25757
25693
25634
25574
25514
25458
25397
25331
25272
25224
25183
25142
25082
25003
24917
24832
24752
24678
24617
24566
24499
24424
24369
24323
24277
24239
24207
24184
24165
24127
24065
24003
23949
23889
23829
23790
23759
23710
23645
23582
23529
23494
23468
23443
23428
23416
23395
23357
23295
23212
23124
23050
22991
22960
22988
23086
23232
23412
23622
23880
24181
24493
24796
25093
25381
25655
25911
26134
26317
26469
26606
26729
26832
26908
26963
27001
27027
27042
27035
27013
26978
26920
26845
26766
26700
26657
26629
26610
26603
26613
26649
26699
26743
26769
26782
26790
26787
26755
26700
26638
26577
26521
26459
26385
26315
26254
26211
26191
26189
26192
26193
26181
26140
26078
26018
25957
25892
25829
25773
25720
25682
25664
25655
25648
25630
25588
25526
25468
25429
25407
25395
25381
25360
25336
25314
25292
25282
25292
25299
25285
25242
25182
25134
25097
25048
24980
24906
24841
24782
24722
24657
24602
24565
24520
24452
24376
24295
24213
24133
24035
23922
23817
23743
23710
23697
23670
23621
23562
23512
23479
23446
23385
23303
23234
23175
23102
23022
22947
22878
22828
22790
22744
22686
22628
22588
22564
22544
22529
22509
22478
22436
22380
22308
22225
22149
22089
22041
21996
21937
21862
21801
21755
21712
21662
21587
21498
21430
21370
21296
21215
21153
21130
21149
21207
21317
21476
21677
21913
22175
22453
22735
22997
23244
23491
23718
23917
24100
24270
24424
24554
24663
24747
24813
24875
24934
24988
25031
25061
25087
25106
25097
25065
25039
25021
25000
24977
24950
24917
24880
24845
24805
24758
24723
24716
24733
24773
24810
24823
24823
24816
24813
24839
24878
24891
24876
24869
24864
24832
24780
24716
24632
24543
24458
24375
24293
24220
24166
24125
24096
24078
24060
24043
24031
24031
24045
24059
24059
24043
24028
24021
24017
24003
23971
23934
23895
23840
23769
23702
23653
23617
23586
23559
23535
23513
23485
23452
23424
23406
23390
23371
23340
23281
23196
23099
22996
22893
22797
22713
22641
22575
22508
22434
22340
22245
22172
22113
22057
22011
21975
21938
21894
21863
21842
21813
21775
21738
21695
21638
21573
21507
21435
21361
21295
21235
21172
21119
21097
21099
21097
21073
21019
20939
20849
20767
20691
20616
20550
20501
20471
20455
20452
20446
20423
20399
20366
20302
20214
20106
20004
19937
19895
19854
19818
19791
19766
19736
19713
19725
19783
19885
20037
20235
20466
20725
21013
21319
21629
21926
22200
22450
22685
22907
23115
23313
23495
23646
23765
23860
23941
24008
24055
24074
24071
24065
24064
24059
24044
24024
24004
23977
23947
23934
23929
23915
23884
23841
23813
23816
23837
23864
23887
23900
23912
23930
23944
23945
23929
23901
23867
23832
23794
23746
23692
23634
23575
23520
23485
23482
23504
23524
23510
23471
23432
23399
23371
23348
23333
23323
23320
23336
23365
23392
23404
23393
23362
23321
23284
23259
23241
23214
23179
23139
23090
23033
22972
22913
22866
22827
22782
22733
22694
22662
22640
22623
22601
22563
22512
22457
22394
22320
22246
22182
22122
22056
21981
21911
21872
21873
21903
21939
21949
21909
21836
21753
21655
21541
21417
21305
21219
21153
21105
21068
21040
21017
20993
20965
20930
20883
20833
20783
20726
20670
20621
20579
20537
20499
20484
20491
20482
20447
20409
20373
20320
20254
20191
20133
20095
20082
20058
20005
19950
19921
19911
19922
19951
19975
19991
20019
20092
20223
20402
20622
20883
21168
21455
21735
22008
22280
22541
22773
22984
23193
23385
23545
23685
23816
23936
24036
24093
24113
24127
24149
24176
24197
24210
24225
24247
24261
24263
24254
24239
24221
24194
24169
24165
24175
24179
24175
24169
24167
24177
24195
24220
24244
24263
24277
24278
24262
24238
24204
24158
24107
24055
24010
23981
23949
23892
23830
23786
23750
23710
23676
23654
23638
23628
23621
23615
23610
23603
23593
23570
23541
23521
23506
23488
23452
23400
23347
23308
23287
23279
23277
23276
23278
23281
23276
23249
23201
23144
23092
23046
22988
22916
22848
22805
22783
22760
22718
22659
22596
22543
22501
22454
22399
22362
22339
22298
22230
22152
22086
22038
21988
21942
21917
21901
21887
21883
21888
21902
21909
21879
21816
21748
21692
21652
21620
21581
21538
21483
21413
21338
21271
21236
21209
21179
21173
21198
21254
21344
21471
21625
21782
21948
22132
22337
22562
22804
23076
23377
23688
23986
24250
24484
24685
24856
25002
25109
25176
25223
25276
25334
25374
25388
25375
25341
25295
25251
25216
25188
25170
25163
25168
25189
25248
25322
25370
25396
25409
25412
25424
25455
25488
25513
25540
25550
25521
25460
25373
25264
25167
25105
25062
25030
25006
24987
24959
24916
24874
24830
24778
24721
24677
24662
24665
24673
24694
24724
24755
24780
24793
24794
24777
24755
24736
24710
24666
24610
24561
24540
24543
24549
24545
24522
24479
24423
24353
24272
24204
24151
24086
24011
23933
23847
23769
23715
23675
23640
23604
23577
23568
23555
23529
23500
23478
23455
23426
23383
23320
23252
23191
23130
23073
23024
22976
22934
22892
22849
22808
22755
22708
22686
22657
22594
22523
22478
22449
22420
22391
22352
22309
22274
22248
22246
22268
22300
22345
22416
22515
22639
22798
23004
23246
23513
23799
24100
24410
24728
25036
25299
25519
25704
25854
25988
26120
26241
26346
26427
26477
26509
26536
26547
26541
26542
26571
26626
26674
26687
26672
26643
26622
26626
26630
26622
26621
26638
26673
26699
26723
26762
26812
26867
26908
26917
26886
26821
26746
26675
26619
26570
26524
26493
26475
26460
26438
26404
26364
26323
26277
26233
26194
26162
26131
26092
26058
26029
25990
25940
25894
25857
25833
25831
25852
25877
25903
25936
25963
25984
25986
25946
25870
25771
25660
25555
25475
25414
25347
25262
25184
25138
25136
25151
25154
25147
25118
25053
24954
24841
24732
24641
24573
24506
24420
24340
24281
24228
24176
24141
24123
24102
24070
24052
24046
24019
23967
23908
23838
23763
23702
23649
23599
23556
23511
23449
23373
23286
23206
23151
23113
23076
23042
23010
22977
22949
22934
22930
22935
22943
22937
22919
22891
22835
22748
22651
22564
22489
22417
22355
22312
22287
22275
22285
22322
22383
22464
22568
22714
22901
23109
23346
23629
23941
24260
24584
24913
25229
25527
25812
26071
26291
26475
26634
26774
26889
26983
27055
27101
27122
27119
27112
27110
27109
27115
27142
27194
27266
27342
27409
27464
27507
27528
27527
27519
27512
27512
27536
27585
27634
27663
27679
27689
27680
27648
27611
27576
27526
27461
27389
27305
27218
27141
27074
27014
26968
26928
26881
26823
26762
26714
26683
26665
26655
26651
26654
26656
26655
26651
26633
26615
26615
26628
26638
26627
26602
26591
26598
26600
26579
26540
26493
26441
26396
26356
26307
26248
26179
26090
25989
25899
25822
25744
25675
25619
25581
25557
25516
25448
25368
25283
25196
25118
25061
25017
24959
24874
24773
24686
24645
24628
24614
24625
24645
24638
24616
24595
24577
24553
24528
24511
24488
24431
24339
24252
24186
24129
24065
23987
23894
23799
23708
23636
23606
23593
23550
23480
23402
23339
23319
23343
23367
23352
23307
23255
23202
23139
23063
22985
22915
22862
22829
22816
22815
22805
22783
22763
22748
22714
22649
22560
22464
22378
22300
22217
22137
22076
22029
21998
21999
22037
22116
22249
22425
22626
22865
23140
23433
23743
24084
24447
24795
25101
25380
25666
25953
26194
26385
26556
26696
26801
26891
26985
27068
27102
27090
27058
27015
26969
26941
26941
26971
27011
27044
27076
27108
27129
27143
27165
27186
27203
27219
27227
27225
27214
27195
27171
27151
27138
27130
27127
27122
27106
27069
27012
26938
26858
26781
26699
26626
26588
26562
26528
26501
26494
26512
26537
26545
26534
26519
26508
26496
26481
26468
26460
26454
26453
26445
26430
26406
26358
26301
26260
26229
26193
26173
26169
26160
26152
26134
26089
26028
25957
25879
25798
25714
25632
25550
25471
25408
25364
25327
25280
25215
25138
25054
24966
24886
24820
24774
24752
24732
24694
24659
24650
24653
24632
24575
24501
24429
24366
24304
24245
24202
24165
24123
24072
24004
23924
23838
23753
23683
23631
23588
23542
23495
23455
23422
23395
23375
23373
23381
23379
23380
23380
23347
23294
23247
23196
23140
23097
23056
23006
22947
22879
22820
22761
22703
22672
22667
22667
22672
22695
22743
22821
22938
23096
23312
23593
23922
24269
24612
24956
25303
25629
25919
26172
26394
26608
26800
26950
27084
27197
27276
27330
27353
27344
27302
27246
27198
27149
27111
27102
27098
27080
27066
27063
27057
27048
27043
27044
27068
27109
27153
27193
27210
27200
27180
27168
27163
27156
27142
27105
27038
26955
26865
26779
26698
26633
26589
26562
26565
26582
26576
26560
26569
26590
26597
26592
26563
26517
26470
26431
26422
26444
26470
26475
26452
26416
26377
26330
26272
26214
26155
26084
26015
25970
25952
25945
25927
25899
25882
25886
25896
25899
25882
25826
25731
25629
25540
25452
25369
25306
25261
25231
25209
25176
25119
25046
24967
24884
24813
24757
24691
24616
24544
24484
24437
24391
24352
24326
24303
24271
24230
24188
24155
24134
24116
24094
24052
23997
23960
23937
23906
23862
23807
23744
23676
23601
23523
23463
23428
23410
23393
23377
23380
23420
23506
23633
23798
23986
24197
24426
24665
24918
25196
25498
25813
26129
26426
26685
26919
27141
27321
27450
27565
27668
27742
27784
27800
27792
27777
27785
27813
27837
27851
27864
27868
27856
27825
27777
27732
27708
27704
27711
27714
27719
27737
27755
27748
27715
27681
27665
27657
27639
27623
27611
27587
27550
27500
27444
27387
27335
27291
27250
27196
27112
27019
26952
26899
26844
26792
26737
26685
26664
26671
26688
26717
26746
26764
26788
26805
26793
26764
26732
26696
26651
26604
26571
26559
26556
26544
26524
26494
26455
26419
26376
26316
26243
26169
26120
26092
26062
26032
26000
25943
25860
25771
25682
25597
25526
25458
25371
25275
25203
25169
25148
25121
25092
25064
25041
25019
25001
24976
24917
24823
24702
24588
24505
24444
24399
24361
24325
24276
24226
24194
24163
24120
24068
24022
23994
23960
23915
23875
23842
23807
23766
23717
23646
23573
23521
23484
23477
23499
23540
23625
23754
23917
24123
24369
24654
24976
25318
25668
26012
26332
26618
26862
27070
27263
27449
27618
27766
27885
27966
28029
28106
28197
28276
28333
28376
28411
28451
28506
28574
28639
28680
28699
28710
28705
28683
28659
28629
28581
28532
28493
28458
28425
28401
28386
28383
28387
28379
28366
28364
28365
28365
28367
28352
28313
28262
28202
28136
28082
28039
27996
27956
27919
27871
27815
27761
27709
27662
27631
27610
27596
27588
27584
27579
27570
27557
27532
27500
27459
27415
27378
27342
27295
27234
27162
27081
27014
26968
26933
26911
26900
26883
26850
26808
26765
26719
26666
26601
26531
26462
26393
26322
26252
26177
26090
26000
25929
25877
25822
25764
25715
25665
25597
25513
25427
25348
25276
25215
25165
25123
25104
25112
25117
25092
25038
24977
24927
24872
24808
24739
24663
24593
24544
24515
24495
24472
24446
24420
24392
24362
24327
24275
24208
24136
24072
24014
23952
23876
23797
23731
23684
23649
23614
23571
23529
23492
23461
23456
23503
23610
23767
23955
24173
24436
24755
25113
25481
25847
26198
26514
26804
27086
27360
27601
27804
27981
28141
28275
28373
28431
28463
28488
28495
28474
28446
28426
28423
28435
28441
28431
28429
28449
28484
28510
28509
28494
28499
28521
28539
28545
28547
28550
28558
28576
28593
28608
28611
28589
28541
28473
28403
28347
28303
28275
28256
28219
28151
28070
27994
27919
27850
27796
27750
27699
27657
27643
27656
27666
27645
27599
27535
27464
27407
27387
27410
27455
27491
27494
27465
27428
27398
27380
27378
27387
27381
27339
27265
27176
27098
27039
26975
26899
26826
26757
26694
26638
26580
26520
26461
26406
26362
26319
26277
26228
26174
26129
26082
26023
25958
25882
25789
25696
25622
25567
25509
25443
25378
25316
25252
25184
25116
25058
25003
24945
24896
24852
24810
24767
24719
24671
24629
24584
24523
24448
24368
24295
24238
24178
24121
24084
24058
24035
24020
24002
23966
23909
23839
23782
23762
23764
23767
23767
23770
23772
23750
23693
23613
23516
23404
23284
23168
23070
22992
22932
22884
22834
22768
22699
22670
22684
22726
22815
22968
23179
23434
23727
24041
24350
24653
24961
25275
25590
25902
26186
26436
26660
26857
27031
27181
27299
27385
27435
27466
27497
27528
27565
27601
27609
27590
27566
27530
27491
27464
27449
27442
27442
27447
27460
27474
27485
27503
27547
27596
27631
27663
27694
27701
27679
27640
27592
27536
27480
27430
27397
27381
27378
27392
27419
27442
27437
27402
27344
27254
27146
27054
26985
26931
26898
26871
26838
26809
26793
26783
26771
26748
26711
26666
26616
26569
26538
26519
26497
26462
26415
26365
26326
26324
26349
26371
26388
26406
26408
26384
26361
26344
26303
26231
26143
26056
25972
25884
25798
25722
25656
25590
25523
25467
25417
25368
25320
25268
25207
25145
25101
25069
25032
24991
24955
24926
24899
24868
24824
24761
24698
24635
24563
24493
24435
24394
24362
24329
24291
24246
24201
24161
24127
24095
24057
24018
23986
23968
23961
23941
23904
23862
23821
23778
23741
23712
23688
23649
23573
23477
23389
23303
23223
23185
23175
23165
23168
23179
23183
23200
23268
23401
23585
23807
24055
24312
24574
24848
25119
25379
25639
25911
26197
26485
26758
26993
27187
27355
27500
27613
27695
27752
27788
27809
27823
27818
27786
27729
27669
27626
27594
27551
27497
27445
27405
27395
27414
27460
27515
27540
27526
27484
27441
27432
27458
27508
27558
27587
27590
27569
27523
27460
27391
27321
27249
27184
27127
27081
27053
27038
27025
26997
26947
26896
26855
26818
26783
26752
26721
26692
26665
26642
26625
26614
26606
26603
26616
26644
26667
26687
26705
26711
26697
26653
26586
26509
26433
26368
26307
26239
26166
26091
26023
25973
25935
25885
25815
25756
25733
25718
25683
25647
25618
25581
25526
25461
25393
25328
25266
25199
25130
25064
25006
24964
24926
24888
24852
24827
24809
24795
24782
24750
24691
24609
24515
24428
24350
24282
24236
24217
24203
24170
24114
24039
23974
23956
23968
23979
23997
24011
23987
23921
23848
23813
23822
23852
23898
23975
24086
24226
24397
24600
24836
25105
25410
25747
26103
26456
26789
27081
27330
27556
27762
27938
28076
28159
28195
28207
28204
28203
28204
28184
28146
28114
28097
28088
28079
28078
28072
28070
28081
28086
28083
28074
28069
28080
28086
28081
28082
28089
28086
28077
28090
28110
28096
28044
27972
27903
27854
27819
27792
27762
27728
27702
27689
27661
27603
27527
27446
27374
27329
27310
27314
27339
27358
27343
27300
27252
27216
27184
27146
27098
27058
27036
27007
26970
26957
26964
26955
26932
26909
26877
26834
26798
26775
26747
26700
26638
26576
26527
26496
26473
26437
26382
26321
26280
26260
26231
26184
26133
26074
26004
25920
25828
25744
25675
25616
25552
25494
25445
25404
25366
25313
25247
25183
25117
25048
24994
24945
24886
24826
24781
24767
24772
24774
24769
24744
24698
24644
24575
24489
24409
24354
24309
24247
24176
24131
24118
24107
24080
24040
23992
23949
23906
23842
23764
23696
23650
23641
23670
23721
23805
23923
24062
24232
24434
24672
24956
25263
25575
25887
26195
26501
26786
27055
27324
27585
27827
28045
28220
28346
28446
28520
28548
28550
28539
28515
28506
28524
28543
28529
28474
28414
28381
28354
28319
28295
28295
28315
28348
28381
28412
28436
28436
28407
28365
28317
28256
28190
28140
28110
28091
28073
28059
28042
28002
27955
27928
27910
27888
27853
27796
27732
27697
27697
27705
27708
27717
27720
27705
27686
27669
27640
27593
27550
27530
27524
27524
27523
27509
27482
27447
27406
27380
27370
27345
27293
27240
27204
27187
27166
27112
27034
26963
26887
26789
26681
26579
26508
26470
26436
26395
26350
26311
26275
26225
26161
26093
26023
25943
25851
25751
25645
25553
25504
25483
25461
25431
25400
25356
25309
25274
25232
25162
25091
25056
25049
25057
25066
25051
25001
24933
24878
24833
24781
24734
24715
24707
24682
24637
24579
24523
24469
24395
24301
24189
24070
23965
23872
23792
23738
23695
23651
23624
23621
23629
23621
23581
23534
23517
23511
23481
23425
23346
23256
23179
23139
23126
23110
23088
23051
23002
22983
23023
23105
23240
23448
23709
23995
24303
24640
24983
25315
25651
25987
26312
26622
26893
27113
27289
27434
27556
27662
27753
27820
27859
27885
27922
27969
28014
28036
28026
28019
28044
28082
28088
28050
27989
27916
27835
27758
27706
27703
27744
27789
27826
27854
27876
27897
27910
27917
27924
27912
27882
27865
27850
27800
27724
27655
27601
27538
27445
27333
27228
27146
27102
27092
27089
27092
27097
27088
27090
27099
27077
27028
26980
26944
26922
26898
26861
26824
26805
26818
26859
26913
26963
27006
27038
27047
27024
26964
26888
26814
26740
26676
26620
26545
26456
26374
26292
26212
26152
26116
26080
26023
25947
25861
25767
25673
25592
25521
25442
25354
25264
25182
25118
25072
25032
24990
24946
24903
24861
24824
24807
24799
24789
24784
24780
24768
24743
24687
24604
24514
24427
24345
24258
24166
24081
24010
23950
23902
23874
23857
23843
23825
23787
23742
23708
23671
23625
23568
23490
23403
23334
23287
23249
23216
23181
23127
23071
23031
22989
22941
22906
22885
22855
22808
22766
22733
22685
22615
22546
22498
22477
22488
22545
22664
22838
23053
23318
23640
23992
24357
24722
25073
25420
25770
26100
26390
26649
26890
27116
27319
27478
27582
27642
27664
27659
27645
27625
27619
27631
27631
27611
27573
27515
27450
27387
27313
27231
27156
27104
27072
27051
27026
27011
27029
27055
27058
27057
27078
27110
27125
27110
27069
27019
26966
26911
26850
26795
26759
26730
26691
26643
26592
26531
26471
26438
26424
26405
26368
26329
26317
26319
26326
26351
26390
26425
26445
26467
26487
26488
26485
26464
26430
26402
26361
26314
26271
26208
26120
26034
25977
25954
25942
25925
25911
25901
25871
25811
25749
25690
25617
25548
25504
25478
25456
25433
25389
25313
25225
25137
25034
24928
24838
24758
24684
24618
24569
24529
24475
24427
24400
24386
24364
24324
24270
24212
24159
24128
24104
24055
23985
23903
23807
23710
23627
23562
23523
23509
23510
23523
23553
23586
23599
23578
23521
23457
23400
23347
23299
23237
23154
23061
22969
22893
22836
22790
22755
22747
22795
22908
23089
23326
23581
23826
24071
24337
24627
24932
25240
25547
25853
26149
26418
26658
26865
27038
27183
27300
27390
27461
27508
27523
27516
27503
27483
27451
27429
27420
27404
27383
27356
27296
27219
27154
27102
27072
27050
27006
26962
26944
26942
26959
27001
27063
27114
27119
27094
27056
26997
26927
26850
26773
26710
26647
26573
26491
26404
26309
26216
26135
26077
26040
26005
25967
25936
25908
25890
25893
25918
25965
26026
26096
26145
26167
26185
26195
26200
26209
26200
26161
26098
26018
25929
25841
25770
25719
25676
25635
25577
25515
25470
25430
25399
25389
25382
25361
25334
25294
25240
25186
25127
25065
25009
24960
24905
24813
24702
24620
24562
24491
24408
24324
24243
24178
24139
24111
24083
24059
24034
23998
23937
23859
23799
23764
23735
23699
23667
23638
23595
23552
23513
23467
23407
23347
23295
23231
23145
23062
23002
22960
22929
22913
22915
22926
22913
22873
22834
22812
22830
22910
23046
23214
23399
23591
23793
24024
24296
24595
24899
25209
25532
25851
26153
26443
26710
26939
27131
27300
27456
27579
27660
27717
27757
27769
27758
27746
27737
27726
27717
27714
27703
27660
27591
27522
27472
27456
27459
27450
27439
27438
27423
27389
27350
27321
27302
27281
27262
27267
27280
27266
27232
27210
27199
27180
27149
27095
27019
26949
26904
26865
26818
26779
26758
26764
26790
26817
26833
26827
26806
26778
26750
26732
26726
26720
26718
26722
26728
26752
26790
26817
26821
26810
26808
26803
26761
26690
26612
26534
26454
26358
26248
26151
26072
26005
25958
25922
25880
25836
25791
25733
25660
25580
25494
25395
25282
25174
25096
25048
25011
24967
24909
24871
24866
24862
24828
24764
24682
24591
24494
24409
24336
24258
24176
24113
24075
24041
24001
23972
23955
23943
23923
23880
23801
23691
23578
23481
23412
23366
23313
23247
23175
23103
23052
23039
23047
23049
23042
23028
23014
22990
22938
22871
22801
22722
22632
22538
22457
22416
22418
22439
22444
22414
22353
22268
22179
22125
22109
22119
22178
22306
22487
22696
22939
23219
23524
23872
24254
24625
24971
25308
25644
25956
26239
26529
26818
27068
27277
27447
27572
27665
27737
27786
27830
27876
27904
27909
27887
27841
27788
27754
27747
27754
27769
27783
27773
27736
27702
27682
27663
27652
27655
27667
27685
27695
27697
27695
27671
27639
27614
27587
27554
27502
27443
27386
27321
27253
27199
27164
27131
27081
27035
27018
27018
27023
27037
27064
27094
27103
27088
27058
27034
27034
27038
27028
27022
27032
27041
27048
27043
27012
26955
26890
26827
26760
26686
26604
26528
26477
26447
26412
26366
26318
26271
26228
26192
26165
26121
26049
25964
25880
25806
25759
25734
25703
25657
25591
25506
25422
25350
25279
25204
25127
25060
25003
24942
24874
24814
24763
24711
24668
24633
24593
24554
24531
24516
24490
24449
24402
24335
24248
24161
24092
24043
24013
23995
23963
23911
23850
23788
23734
23677
23598
23508
23433
23382
23355
23353
23365
23376
23376
23371
23355
23325
23286
23233
23169
23101
23017
22915
22817
22732
22666
22614
22557
22486
22404
22327
22260
22200
22142
22089
22061
22079
22160
22310
22512
22736
22977
23249
23563
23924
24314
24708
25101
25502
25897
26258
26578
26866
27122
27341
27511
27623
27707
27795
27864
27888
27884
27868
27837
27794
27760
27757
27771
27764
27745
27729
27695
27652
27630
27619
27602
27575
27551
27539
27525
27505
27483
27457
27435
27423
27416
27406
27398
27406
27424
27437
27425
27389
27350
27298
27227
27152
27088
27047
27031
27020
26997
26959
26897
26823
26762
26719
26689
26665
26654
26656
26652
26637
26604
26562
26535
26514
26491
26470
26453
26430
26390
26345
26316
26304
26301
26307
26326
26336
26305
26257
26224
26201
26182
26143
26080
26012
25924
25815
25711
25616
25527
25439
25353
25297
25267
25230
25160
25067
24993
24948
24911
24867
24801
24719
24649
24605
24567
24508
24440
24400
24387
24376
24342
24277
24194
24112
24041
23990
23958
23940
23929
23913
23883
23844
23798
23735
23652
23571
23519
23486
23470
23454
23403
23318
23222
23138
23076
23023
22966
22930
22927
22939
22974
23035
23117
23242
23436
23704
24030
24374
24705
25033
25358
25663
25969
26273
26545
26788
27013
27209
27362
27484
27577
27647
27703
27740
27770
27804
27842
27878
27889
27884
27882
27867
27827
27781
27726
27660
27601
27558
27530
27509
27501
27505
27516
27530
27542
27558
27562
27551
27530
27513
27514
27518
27506
27469
27403
27319
27243
27197
27168
27133
27071
26994
26939
26925
26939
26967
26987
26990
26983
26961
26937
26918
26905
26914
26938
26938
26903
26850
26779
26711
26671
26655
26656
26658
26652
26647
26632
26596
26553
26513
26472
26429
26388
26329
26254
26189
26137
26086
26030
25984
25956
25928
25878
25802
25700
25588
25502
25456
25432
25407
25365
25311
25246
25174
25099
25011
24924
24869
24844
24835
24837
24838
24829
24815
24786
24736
24671
24603
24544
24488
24423
24357
24297
24238
24175
24106
24043
24006
24004
24039
24107
24218
24384
24586
24815
25071
25350
25642
25947
26268
26596
26916
27206
27468
27737
28025
28292
28504
28674
28818
28933
29007
29029
29016
29007
29015
29029
29042
29039
29014
28973
28925
28874
28827
28797
28788
28802
28831
28864
28901
28941
28975
28995
28994
28969
28915
28852
28815
28797
28774
28735
28667
28586
28506
28423
28360
28321
28289
28248
28202
28179
28173
28157
28127
28077
28017
27969
27927
27878
27837
27822
27813
27794
27786
27807
27849
27900
27943
27963
27952
27911
27848
27766
27672
27568
27471
27409
27386
27381
27372
27336
27268
27193
27124
27060
27013
26981
26941
26871
26795
26730
26669
26611
26549
26481
26405
26325
26241
26150
26065
25997
25949
25923
25910
25896
25870
25836
25792
25749
25713
25677
25634
25579
25515
25446
25364
25277
25218
25180
25150
25129
25113
25104
25104
25114
25144
25206
25302
25443
25637
25882
26176
26502
26844
27194
27543
27881
28207
28513
28797
29060
29282
29463
29624
29766
29876
29956
30033
30121
30218
30312
30377
30392
30384
30368
30343
30324
30313
30316
30334
30351
30341
30301
30251
30199
30146
30108
30110
30142
30187
30244
30306
30362
30407
30427
30422
30394
30348
30294
30216
30097
29971
29865
29769
29683
29612
29546
29481
29407
29334
29281
29234
29206
29209
29236
29264
29272
29274
29283
29285
29277
29284
29307
29321
29306
29264
29205
29141
29081
29010
28933
28876
28837
28810
28782
28732
28672
28620
28562
28495
28445
28420
28390
28325
28244
28161
28060
27952
27843
27726
27612
27513
27420
27327
27237
27153
27074
26999
26936
26889
26851
26819
26795
26781
26762
26714
26637
26563
26524
26518
26508
26480
26461
26451
26431
26405
26367
26323
26279
26225
26174
26120
26045
25957
25872
25801
25754
25728
25712
25702
25699
25697
25683
25656
25628
25625
25672
25776
25931
26127
26365
26636
26927
27229
27538
27860
28210
28572
28920
29236
29502
29736
29969
30186
30347
30459
30538
30581
30593
30590
30578
30569
30572
30589
30606
30617
30631
30657
30696
30730
30747
30757
30779
30812
30840
30852
30854
30852
30862
30880
30884
30873
30860
30840
30818
30801
30774
30728
30664
30579
30485
30391
30298
30208
30128
30070
30031
29997
29971
29948
29919
29890
29876
29876
29868
29852
29826
29786
29739
29693
29657
29630
29605
29578
29546
29504
29449
29395
29358
29324
29279
29224
29174
29145
29124
29087
29049
29011
28959
28904
28845
28763
28674
28598
28531
28461
28378
28286
28190
28094
28000
27922
27852
27780
27718
27674
27637
27592
27541
27489
27436
27384
27329
27269
27215
27168
27137
27112
27060
26992
26945
26923
26908
26887
26865
26835
26787
26732
26671
26602
26530
26445
26356
26287
26224
26151
26075
26005
25934
25857
25783
25724
25686
25665
25646
25628
25606
25568
25512
25432
25333
25235
25140
25048
24980
24953
24940
24913
24875
24838
24800
24767
24763
24807
24906
25059
25241
25440
25684
25958
26243
26545
26864
27192
27522
27852
28175
28475
28730
28936
29121
29299
29468
29631
29771
29863
29937
30018
30095
30156
30188
30174
30124
30072
30027
29983
29933
29873
29805
29760
29764
29800
29841
29869
29878
29882
29902
29934
29966
29995
30018
30027
30025
30024
30010
29970
29915
29858
29789
29699
29597
29492
29399
29318
29251
29207
29182
29171
29179
29178
29143
29090
29039
28991
28942
28899
28867
28845
28835
28832
28818
28788
28747
28707
28671
28635
28601
28569
28539
28523
28516
28496
28448
28385
28319
28252
28202
28179
28156
28119
28066
27987
27885
27773
27657
27546
27464
27417
27373
27311
27242
27160
27067
27001
26975
26964
26950
26931
26889
26828
26762
26687
26616
26561
26519
26487
26471
26457
26422
26365
26285
26201
26140
26087
26037
25996
25941
25868
25804
25758
25730
25718
25712
25692
25645
25567
25475
25387
25308
25239
25189
25154
25127
25116
25121
25139
25142
25100
25013
24903
24801
24718
24630
24534
24459
24421
24427
24488
24597
24737
24913
25138
25420
25758
26121
26475
26819
27141
27431
27695
27949
28192
28423
28637
28820
28975
29093
29165
29197
29204
29217
29245
29253
29222
29163
29089
29019
28971
28941
28919
28916
28934
28944
28932
28905
28880
28868
28860
28833
28799
28792
28812
28832
28840
28836
28806
28738
28639
28522
28409
28320
28254
28204
28161
28132
28119
28116
28122
28135
28147
28149
28132
28094
28047
28004
27970
27941
27915
27899
27890
27884
27898
27933
27970
27993
27995
27988
27988
27990
27987
27975
27942
27887
27816
27743
27681
27618
27549
27499
27473
27456
27437
27408
27361
27295
27222
27158
27104
27051
26999
26933
26841
26736
26641
26557
26468
26370
26277
26198
26138
26094
26055
26020
25996
25980
25964
25946
25933
25928
25929
25940
25949
25939
25907
25860
25796
25716
25630
25543
25461
25392
25332
25280
25236
25200
25162
25111
25060
25032
25017
24995
24972
24952
24939
24957
25019
25114
25235
25390
25593
25833
26091
26367
26664
26976
27291
27591
27871
28132
28361
28544
28692
28812
28892
28932
28953
28970
28986
29002
29015
29017
29005
28998
29002
29008
29003
28994
28986
28971
28956
28945
28942
28946
28951
28953
28964
28988
29008
29013
29008
29000
28985
28942
28880
28825
28775
28717
28653
28590
28534
28484
28441
28411
28397
28384
28356
28317
28276
28240
28212
28186
28165
28151
28145
28144
28146
28155
28176
28196
28207
28204
28192
28180
28164
28137
28101
28053
27995
27929
27851
27774
27710
27645
27570
27498
27431
27368
27304
27230
27154
27090
27033
26980
26932
26883
26831
26786
26758
26731
26676
26595
26504
26417
26337
26258
26187
26122
26050
25981
25922
25874
25832
25790
25748
25702
25650
25603
25565
25542
25530
25505
25454
25395
25348
25319
25289
25258
25231
25193
25153
25113
25065
25024
25010
25004
24977
24933
24892
24857
24820
24779
24728
24659
24571
24477
24382
24292
24228
24213
24254
24344
24473
24641
24847
25084
25341
25617
25909
26214
26530
26843
27146
27438
27713
27958
28153
28300
28419
28512
28587
28651
28701
28742
28772
28793
28818
28843
28858
28869
28865
28843
28821
28805
28792
28788
28795
28811
28821
28814
28791
28756
28723
28711
28724
28742
28757
28788
28843
28895
28924
28928
28902
28848
28766
28656
28532
28410
28300
28202
28114
28048
28011
27987
27963
27934
27903
27875
27849
27828
27827
27850
27876
27895
27911
27930
27960
27994
28020
28042
28051
28039
28002
27952
27899
27839
27766
27691
27629
27573
27511
27437
27367
27317
27283
27244
27209
27183
27146
27100
27058
27020
26968
26878
26760
26647
26545
26455
26365
26282
26222
26173
26132
26097
26060
26015
25951
25874
25793
25713
25646
25597
25559
25514
25469
25448
25433
25399
25367
25341
25301
25253
25193
25119
25046
24986
24944
24909
24870
24831
24798
24769
24750
24735
24711
24667
24599
24520
24455
24409
24367
24323
24278
24227
24164
24085
24014
23966
23920
23865
23799
23726
23648
23568
23507
23473
23454
23441
23433
23419
23393
23358
23323
23288
23264
23270
23304
23370
23483
23644
23857
24119
24408
24703
25011
25339
25676
26013
26332
26607
26844
27052
27227
27370
27506
27659
27803
27909
27990
28059
28095
28099
28077
28033
27973
27911
27860
27816
27776
27732
27685
27654
27639
27630
27640
27671
27715
27772
27839
27898
27935
27948
27959
27984
28006
28005
27986
27952
27888
27786
27673
27577
27492
27409
27332
27270
27226
27179
27124
27075
27035
26995
26961
26958
26995
27046
27078
27087
27091
27089
27070
27051
27061
27080
27062
27014
26961
26895
26829
26773
26720
26668
26618
26570
26512
26447
26394
26354
26328
26313
26289
26259
26234
26201
26136
26052
25990
25950
25915
25876
25820
25755
25701
25643
25572
25512
25461
25403
25364
25348
25317
25251
25164
25065
24965
24880
24821
24784
24744
24680
24605
24533
24469
24421
24395
24372
24331
24284
24252
24238
24230
24216
24191
24149
24094
24033
23962
23881
23794
23719
23667
23630
23608
23600
23586
23562
23535
23507
23468
23413
23348
23288
23240
23198
23149
23083
23003
22928
22882
22859
22841
22821
22800
22784
22769
22747
22719
22715
22778
22908
23081
23288
23523
23784
24078
24395
24714
25012
25292
25568
25841
26105
26351
26562
26745
26930
27108
27260
27395
27516
27603
27642
27645
27621
27570
27511
27450
27380
27307
27248
27208
27178
27150
27120
27087
27055
27034
27026
27032
27048
27063
27069
27069
27068
27072
27065
27037
26992
26940
26890
26828
26755
26692
26628
26544
26453
26383
26340
26312
26296
26289
26281
26264
26251
26264
26301
26337
26363
26401
26449
26479
26473
26428
26365
26314
26286
26291
26310
26311
26288
26249
26193
26117
26037
25965
25903
25870
25859
25837
25789
25709
25610
25508
25406
25306
25224
25175
25155
25145
25130
25099
25050
24986
24906
24821
24740
24669
24614
24577
24549
24525
24515
24527
24544
24544
24526
24485
24413
24328
24255
24199
24147
24095
24043
23992
23938
23883
23836
23789
23730
23669
23615
23558
23509
23483
23466
23447
23426
23411
23401
23386
23359
23316
23267
23237
23241
23260
23288
23330
23391
23471
23583
23737
23925
24141
24373
24618
24902
25230
25575
25908
26220
26509
26775
27025
27238
27384
27473
27533
27573
27602
27631
27674
27715
27719
27680
27624
27565
27514
27500
27511
27513
27513
27520
27517
27488
27455
27444
27446
27455
27458
27445
27435
27434
27420
27388
27353
27313
27264
27219
27180
27138
27078
27003
26921
26839
26790
26773
26749
26699
26642
26611
26598
26573
26544
26527
26524
26532
26552
26581
26612
26641
26661
26662
26652
26632
26610
26595
26589
26582
26560
26516
26449
26370
26300
26255
26244
26235
26211
26187
26150
26084
25999
25910
25827
25745
25684
25657
25646
25623
25579
25514
25431
25341
25264
25194
25131
25074
25014
24966
24950
24939
24907
24870
24845
24823
24787
24732
24662
24588
24522
24458
24395
24324
24255
24201
24146
24081
24022
23988
23973
23956
23925
23893
23861
23820
23776
23736
23681
23626
23614
23645
23689
23752
23845
23963
24112
24305
24530
24768
25014
25276
25572
25901
26252
26619
26977
27288
27546
27767
27942
28081
28203
28314
28409
28472
28491
28482
28464
28442
28425
28431
28458
28478
28489
28498
28509
28528
28549
28570
28586
28591
28588
28596
28617
28637
28646
28636
28606
28582
28566
28545
28517
28484
28441
28398
28363
28310
28245
28190
28137
28071
27995
27912
27823
27733
27657
27592
27531
27472
27425
27397
27390
27395
27404
27424
27453
27493
27527
27534
27514
27483
27453
27419
27378
27334
27293
27251
27216
27196
27189
27190
27188
27175
27149
27107
27065
27029
26978
26911
26843
26774
26687
26595
26522
26464
26413
26366
26331
26304
26261
26198
26127
26063
26013
25966
25915
25866
25827
25790
25741
25675
25604
25537
25475
25424
25380
25332
25278
25237
25234
25249
25239
25199
25172
25163
25148
25132
25114
25077
25031
24980
24917
24846
24766
24670
24574
24502
24445
24401
24370
24344
24309
24255
24194
24142
24114
24110
24127
24173
24238
24317
24438
24620
24863
25153
25458
25760
26067
26388
26717
27053
27388
27707
27987
28227
28442
28628
28796
28941
29053
29140
29190
29210
29223
29231
29246
29266
29282
29302
29311
29298
29288
29295
29299
29300
29296
29273
29239
29205
29179
29168
29163
29174
29208
29254
29305
29346
29382
29427
29454
29421
29342
29250
29153
29052
28957
28857
28746
28640
28560
28513
28482
28456
28432
28410
28387
28353
28310
28287
28296
28294
28259
28205
28159
28143
28149
28166
28194
28226
28249
28256
28249
28233
28206
28164
28110
28055
28000
27949
27909
27884
27886
27895
27884
27855
27814
27761
27696
27631
27583
27541
27494
27429
27343
27241
27129
27019
26921
26842
26773
26711
26655
26590
26514
26427
26340
26278
26236
26197
26156
26126
