18767
18617
18685
18746
18710
18675
18738
18821
18721
18746
18800
18874
18808
18831
18902
19004
18923
19009
19127
19153
19116
19276
19414
19413
19477
19569
19699
19638
19672
19766
19848
19676
19767
19787
19780
19686
19736
19781
19695
19674
19700
19744
19645
19640
19655
19717
19565
19570
19620
19673
19527
19600
19629
19539
19515
19536
19581
19466
19470
19533
19533
19395
19465
19481
19490
19374
19441
19495
19452
19368
19420
19463
19359
19346
19367
19431
19308
19312
19376
19377
19269
19320
19363
19308
19266
19298
19349
19250
19221
19277
19317
19187
19201
19225
19271
19136
19215
19232
19184
19125
19163
19243
19132
19094
19117
19165
19059
19054
19120
19166
18996
19038
19097
19100
19015
19089
19088
19049
18994
19053
19114
19006
18989
19048
19082
18969
19012
19040
19072
18983
19042
19093
18996
18975
19018
19045
18948
18940
18952
18990
18846
18853
18898
18874
18756
18777
18839
18775
18676
18721
18776
18660
18674
18721
18779
18623
18657
18749
18764
18644
18726
18806
18748
18716
18752
18822
18740
18777
18857
18923
18851
18889
19007
19003
18924
19003
19151
19149
19181
19290
19442
19442
19511
19619
19726
19676
19739
19858
19886
19780
19850
19922
19903
19799
19869
19922
19817
19796
19811
19851
19758
19766
19785
19801
19686
19726
19761
19774
19662
19715
19765
19718
19653
19687
19751
19616
19645
19670
19736
19601
19635
19671
19682
19597
19641
19689
19654
19628
19642
19682
19602
19591
19613
19659
19521
19562
19607
19606
19472
19556
19621
19530
19475
19545
19580
19477
19475
19506
19570
19438
19464
19503
19484
19363
19420
19489
19401
19354
19395
19431
19334
19316
19334
19396
19297
19261
19313
19349
19198
19234
19299
19244
19158
19209
19257
19192
19147
19204
19229
19105
19108
19152
19246
19097
19148
19178
19180
19117
19159
19218
19139
19112
19140
19167
19051
19068
19071
19102
18927
18986
18954
18975
18830
18893
18903
18824
18770
18737
18858
18736
18722
18774
18805
18661
18710
18745
18796
18668
18736
18824
18747
18720
18796
18840
18761
18762
18815
18878
18805
18840
18945
18960
18912
18971
19111
19095
19104
19250
19348
19356
19428
19543
19659
19617
19693
19796
19861
19770
19819
19910
19864
19811
19889
19894
19855
19831
19877
19923
19802
19832
19846
19891
19757
19782
19821
19798
19701
19753
19774
19719
19691
19738
19774
19640
19680
19718
19768
19648
19690
19747
19717
19647
19706
19763
19697
19660
19708
19744
19656
19651
19692
19725
19614
19645
19653
19699
19539
19617
19647
19591
19583
19601
19625
19555
19542
19592
19617
19528
19533
19600
19566
19456
19534
19545
19518
19456
19461
19509
19414
19403
19440
19462
19359
19372
19399
19427
19305
19342
19407
19322
19268
19315
19375
19306
19287
19314
19357
19270
19284
19352
19368
19238
19274
19330
19292
19238
19295
19301
19226
19189
19228
19273
19187
19164
19177
19203
19068
19064
19098
19055
18942
18968
18986
18908
18867
18900
18955
18849
18850
18889
18906
18807
18866
18934
18933
18855
18899
18975
18915
18868
18931
18999
18973
18982
19031
19119
19071
19098
19221
19328
19244
19366
19479
19503
19506
19666
19784
19769
19832
19934
19996
19955
20004
20063
20051
19959
20029
20041
20033
19955
20014
20055
19985
19966
20007
20018
19923
19934
19997
19985
19843
19920
19953
19880
19848
19890
19950
19861
19858
19851
19888
19810
19787
19847
19863
19722
19770
19832
19782
19691
19732
19801
19735
19682
19708
19758
19653
19666
19693
19695
19572
19593
19645
19627
19547
19596
19647
19552
19487
19548
19571
19462
19474
19514
19546
19405
19439
19469
19456
19318
19353
19391
19313
19270
19310
19313
19209
19176
19196
19209
19112
19075
19127
19131
19002
19032
19072
19004
18969
18984
19001
18919
18902
18927
18979
18870
18857
18916
18917
18782
18866
18903
18866
18819
18845
18891
18812
18764
18826
18839
18747
18719
18777
18795
18623
18659
18674
18602
18563
18601
18616
18535
18497
18498
18573
18440
18471
18494
18551
18427
18440
18512
18484
18413
18475
18555
18485
18472
18513
18603
18482
18532
18594
18659
18567
18651
18725
18754
18661
18775
18906
18878
18932
19014
19091
19106
19140
19316
19431
19365
19435
19575
19603
19579
19642
19696
19647
19632
19652
19721
19634
19625
19628
19647
19532
19577
19586
19578
19485
19543
19586
19503
19529
19521
19588
19523
19489
19529
19567
19442
19455
19496
19524
19383
19436
19498
19449
19367
19425
19469
19441
19384
19413
19465
19358
19406
19449
19446
19352
19353
19456
19389
19318
19377
19434
19328
19312
19345
19393
19293
19297
19339
19352
19245
19272
19329
19278
19219
19234
19301
19201
19209
19196
19212
19146
19125
19156
19200
19068
19074
19133
19145
19021
19039
19091
19022
19000
19027
19046
18933
18910
18929
18968
18878
18909
18911
18925
18829
18877
18946
18880
18834
18863
18909
18843
18808
18825
18906
18812
18826
18858
18863
18768
18806
18868
18802
18734
18751
18805
18690
18642
18680
18684
18568
18529
18573
18566
18435
18463
18542
18501
18428
18489
18536
18470
18447
18508
18554
18448
18481
18509
18556
18454
18517
18605
18595
18531
18588
18641
18603
18613
18675
18740
18704
18759
18837
18964
18914
19018
19084
19210
19194
19326
19449
19451
19454
19525
19609
19546
19521
19577
19627
19513
19532
19555
19563
19454
19510
19560
19478
19425
19451
19492
19413
19392
19461
19464
19376
19378
19440
19431
19295
19340
19405
19342
19316
19356
19405
19324
19270
19366
19378
19246
19262
19325
19336
19221
19256
19281
19249
19173
19223
19267
19197
19132
19213
19238
19164
19160
19145
19209
19070
19094
19174
19107
19066
19064
19147
19042
19026
19050
19075
18980
18952
19039
19013
18884
18923
18969
18938
18859
18921
18950
18872
18838
18849
18867
18755
18778
18841
18823
18720
18773
18782
18765
18690
18733
18789
18709
18672
18723
18757
18675
18676
18702
18742
18651
18649
18728
18710
18591
18643
18691
18591
18543
18566
18576
18480
18457
18483
18520
18376
18381
18433
18408
18324
18381
18429
18383
18319
18381
18426
18340
18332
18408
18474
18363
18400
18419
18474
18366
18436
18495
18452
18453
18526
18608
18557
18549
18640
18775
18704
18763
18883
18961
18916
18998
19179
19209
19216
19370
19472
19415
19438
19497
19555
19452
19483
19513
19530
19389
19433
19479
19454
19343
19372
19408
19324
19279
19306
19356
19236
19253
19257
19278
19168
19195
19247
19235
19129
19165
19234
19167
19133
19196
19219
19179
19141
19158
19207
19111
19133
19136
19176
19058
19096
19152
19125
19044
19105
19135
19035
19019
19045
19124
18947
18999
19048
19054
18937
18967
19045
18952
18906
18970
18958
18886
18863
18892
18910
18818
18806
18873
18927
18761
18789
18830
18796
18697
18768
18792
18708
18675
18723
18762
18647
18647
18668
18693
18584
18650
18677
18631
18591
18613
18684
18620
18575
18628
18659
18569
18567
18583
18632
18507
18568
18604
18565
18491
18555
18613
18542
18493
18525
18580
18460
18482
18501
18526
18391
18441
18455
18429
18313
18414
18392
18333
18295
18346
18383
18300
18272
18371
18380
18278
18297
18381
18385
18298
18369
18441
18371
18363
18423
18472
18431
18444
18478
18567
18502
18545
18635
18676
18608
18691
18799
18813
18819
18938
19062
19090
19172
19307
19419
19405
19494
19586
19668
19565
19604
19685
19625
19599
19627
19664
19575
19583
19616
19678
19545
19545
19573
19630
19473
19496
19548
19538
19430
19498
19516
19469
19391
19471
19488
19393
19397
19462
19444
19363
19387
19439
19406
19345
19368
19430
19374
19297
19355
19393
19283
19316
19307
19373
19260
19275
19310
19301
19203
19281
19300
19263
19235
19239
19307
19232
19222
19230
19285
19180
19187
19248
19242
19154
19166
19203
19172
19117
19164
19183
19109
19077
19100
19123
19029
19024
19074
19079
18995
19044
19058
19023
18982
18979
19047
18953
18963
18978
19048
18957
18922
18966
19005
18893
18937
18969
18972
18889
18942
19005
18955
18905
18954
18993
18867
18898
18969
18925
18812
18804
18845
18828
18732
18729
18766
18677
18588
18619
18683
18579
18591
18643
18631
18520
18562
18663
18643
18526
18596
18661
18597
18556
18637
18708
18652
18620
18669
18756
18677
18710
18795
18830
18781
18873
18976
18964
19013
19110
19251
19252
19322
19447
19541
19520
19601
19684
19684
19624
19664
19744
19700
19654
19705
19735
19674
19660
19690
19699
19621
19584
19664
19660
19567
19597
19638
19596
19531
19578
19620
19584
19534
19574
19617
19539
19518
19564
19589
19476
19504
19580
19573
19456
19509
19568
19519
19489
19504
19538
19461
19453
19498
19493
19393
19450
19468
19463
19360
19394
19432
19392
19348
19331
19398
19291
19278
19324
19358
19231
19241
19289
19288
19169
19220
19271
19166
19113
19194
19204
19138
19105
19116
19149
19031
19031
19110
19081
18962
18996
19050
19001
18940
18968
19021
18930
18899
18914
18974
18843
18864
18887
18927
18793
18862
18882
18877
18748
18800
18844
18775
18680
18723
18740
18610
18602
18644
18669
18532
18562
18601
18513
18450
18496
18523
18459
18400
18466
18504
18417
18469
18468
18548
18385
18479
18535
18509
18439
18516
18583
18510
18528
18617
18676
18639
18658
18751
18815
18781
18869
18955
19046
19045
19167
19327
19340
19385
19501
19629
19586
19638
19673
19761
19652
19677
19739
19764
19656
19713
19747
19678
19628
19676
19686
19603
19560
19650
19647
19520
19554
19609
19576
19408
19484
19546
19493
19443
19454
19519
19438
19401
19432
19479
19362
19354
19394
19412
19296
19308
19379
19331
19241
19264
19313
19220
19197
19174
19251
19156
19123
19172
19192
19067
19088
19105
19068
18973
19037
19041
18959
18941
18962
18997
18896
18851
18885
18910
18775
18769
18818
18787
18679
18716
18776
18687
18622
18661
18703
18612
18578
18624
18666
18543
18560
18619
18599
18497
18528
18564
18508
18458
18514
18550
18472
18467
18478
18504
18453
18484
18504
18523
18410
18463
18514
18463
18439
18460
18498
18417
18386
18462
18447
18353
18323
18363
18400
18274
18278
18357
18328
18243
18311
18330
18278
18233
18300
18324
18245
18254
18328
18351
18256
18298
18381
18338
18319
18366
18444
18384
18394
18456
18543
18447
18529
18595
18627
18558
18628
18733
18760
18737
18840
18948
18922
18997
19109
19239
19212
19282
19393
19477
19415
19463
19527
19528
19428
19501
19569
19485
19459
19471
19527
19469
19429
19493
19503
19411
19413
19435
19455
19335
19405
19496
19417
19384
19437
19477
19391
19402
19424
19474
19368
19391
19416
19430
19325
19386
19417
19388
19303
19368
19402
19345
19301
19359
19388
19281
19301
19307
19350
19218
19251
19283
19254
19193
19213
19265
19216
19127
19190
19234
19136
19143
19175
19174
19067
19106
19119
19125
19049
19083
19094
19050
19004
19014
19067
18949
18963
18944
18982
18868
18869
18919
18941
18820
18882
18920
18843
18812
18857
18865
18834
18800
18839
18889
18789
18827
18856
18876
18789
18829
18900
18829
18757
18810
18880
18765
18748
18771
18830
18689
18679
18707
18720
18606
18617
18654
18625
18534
18579
18618
18565
18562
18558
18638
18532
18508
18604
18637
18491
18564
18634
18597
18597
18640
18674
18646
18671
18741
18776
18700
18760
18831
18907
18838
18936
19021
19038
19042
19173
19295
19338
19380
19469
19574
19563
19611
19682
19733
19647
19707
19760
19782
19653
19732
19800
19729
19668
19724
19745
19648
19643
19708
19700
19607
19616
19701
19659
19582
19614
19653
19610
19545
19608
19630
19570
19556
19590
19638
19539
19495
19571
19587
19519
19527
19580
19542
19497
19525
19575
19482
19472
19500
19573
19469
19466
19499
19513
19398
19436
19463
19470
19395
19401
19462
19365
19352
19383
19435
19302
19308
19339
19341
19210
19291
19318
19263
19205
19270
19289
19234
19195
19242
19280
19151
19193
19176
19261
19135
19193
19208
19194
19098
19181
19197
19135
19140
19150
19202
19094
19144
19166
19186
19070
19122
19177
19136
19041
19069
19136
19050
18962
19019
19042
18902
18894
18910
18943
18803
18830
18868
18829
18740
18781
18824
18761
18694
18794
18777
18750
18727
18748
18829
18703
18752
18808
18842
18750
18813
18902
18875
18879
18886
19027
18959
18978
19073
19152
19145
19206
19349
19433
19417
19537
19646
19685
19692
19781
19856
19812
19838
19853
19916
19806
19824
19873
19878
19765
19806
19837
19810
19780
19800
19839
19763
19712
19783
19825
19703
19700
19780
19790
19666
19723
19740
19712
19643
19673
19717
19669
19659
19690
19706
19634
19621
19663
19699
19565
19603
19628
19625
19558
19594
19607
19559
19495
19554
19607
19515
19501
19540
19569
19479
19514
19523
19511
19411
19448
19502
19438
19351
19385
19432
19384
19320
19350
19417
19300
19307
19305
19320
19222
19251
19270
19238
19164
19216
19242
19160
19138
19123
19189
19096
19063
19117
19133
19032
19034
19070
19000
18989
19041
19021
19008
18946
18964
19023
18935
18943
18994
19001
18903
18929
18964
18947
18903
18944
18943
18905
18863
18888
18897
18807
18738
18776
18822
18666
18705
18723
18713
18582
18618
18671
18573
18542
18580
18630
18549
18550
18581
18620
18530
18581
18607
18635
18548
18635
18687
18665
18632
18693
18792
18757
18749
18827
18926
18866
18936
19022
19106
19065
19192
19293
19347
19374
19492
19599
19623
19651
19771
19807
19781
19788
19820
19855
19748
19815
19876
19815
19743
19803
19867
19789
19752
19793
19835
19775
19771
19773
19780
19685
19742
19771
19744
19707
19728
19796
19693
19721
19778
19789
19706
19714
19738
19786
19649
19703
19711
19724
19622
19674
19684
19649
19593
19651
19647
19578
19581
19601
19653
19548
19589
19621
19619
19546
19572
19647
19581
19554
19553
19595
19504
19470
19500
19530
19399
19419
19439
19425
19323
19351
19387
19297
19241
19292
19344
19223
19209
19218
19246
19108
19136
19181
19170
19059
19118
19164
19093
19078
19122
19121
19087
19064
19094
19141
19035
19052
19061
19049
18934
18994
19013
18985
18908
18993
19012
18930
18924
18917
18952
18833
18827
18841
18827
18670
18710
18690
18597
18524
18539
18592
18490
18480
18454
18502
18441
18407
18463
18510
18374
18445
18459
18447
18374
18429
18494
18430
18426
18476
18498
18414
18469
18491
18571
18459
18495
18609
18643
18560
18639
18753
18733
18776
18848
18951
18919
18973
19067
19156
19053
19111
19135
19184
19083
19113
19192
19076
19080
19132
19162
19061
19038
19070
19118
18995
19001
19046
19063
18957
19008
19039
18957
18930
19001
19020
18965
18919
18927
18986
18869
18919
18933
18934
18841
18901
18956
18866
18820
18856
18933
18834
18822
18853
18889
18757
18795
18835
18883
18737
18781
18804
18800
18725
18780
18795
18746
18698
18721
18754
18643
18645
18675
18694
18568
18601
18623
18631
18513
18593
18585
18520
18519
18520
18596
18485
18487
18526
18559
18443
18481
18528
18524
18441
18496
18529
18477
18442
18468
18511
18447
18430
18465
18495
18401
18416
18453
18466
18348
18396
18425
18396
18318
18356
18422
18323
18282
18309
18355
18235
18257
18284
18249
18147
18209
18249
18215
18177
18247
18265
18201
18201
18265
18296
18217
18223
18279
18338
18241
18310
18377
18341
18316
18406
18480
18421
18474
18502
18590
18561
18571
18662
18709
18679
18799
18908
18931
18922
19040
19147
19146
19142
19187
19266
19160
19154
19226
19247
19124
19151
19215
19188
19081
19117
19182
19058
19077
19066
19114
19019
19042
19091
19089
18964
18980
19018
19011
18935
18973
19021
18982
18916
18955
18979
18883
18864
18886
18939
18828
18860
18893
18897
18799
18840
18876
18834
18764
18811
18850
18804
18788
18788
18840
18737
18728
18773
18763
18653
18699
18695
18667
18617
18638
18690
18642
18601
18595
18641
18529
18547
18589
18616
18495
18533
18562
18500
18449
18499
18568
18486
18464
18482
18509
18427
18445
18455
18496
18359
18417
18450
18416
18350
18421
18436
18395
18366
18410
18455
18378
18365
18435
18436
18325
18401
18431
18383
18353
18409
18412
18346
18318
18332
18373
18275
18262
18288
18320
18180
18236
18240
18259
18149
18224
18268
18196
18211
18215
18236
18193
18203
18232
18279
18219
18208
18301
18314
18209
18320
18359
18320
18326
18366
18447
18385
18394
18464
18524
18479
18512
18613
18688
18636
18716
18859
18870
18891
19044
19131
19185
19209
19289
19370
19285
19354
19375
19364
19282
19303
19377
19323
19278
19283
19316
19266
19226
19291
19298
19212
19197
19216
19272
19135
19190
19234
19193
19089
19149
19204
19119
19136
19142
19179
19086
19084
19119
19164
19032
19082
19105
19103
18999
19076
19095
19034
19010
19035
19058
18950
18971
18999
19076
18948
18960
18979
19012
18897
18930
18994
18947
18862
18910
18950
18854
18813
18862
18903
18817
18823
18821
18846
18728
18769
18839
18788
18750
18715
18788
18719
18674
18695
18773
18638
18650
18674
18663
18584
18639
18643
18611
18597
18616
18648
18574
18553
18604
18623
18552
18575
18623
18610
18536
18591
18607
18575
18524
18521
18593
18524
18484
18484
18518
18458
18438
18456
18458
18371
18385
18425
18398
18310
18350
18387
18319
18302
18317
18375
18312
18278
18327
18379
18286
18325
18399
18417
18319
18405
18462
18442
18410
18465
18527
18481
18495
18592
18635
18571
18681
18775
18853
18851
18938
19094
19155
19160
19289
19403
19394
19394
19461
19499
19437
19452
19488
19511
19396
19448
19492
19453
19408
19431
19442
19393
19365
19395
19415
19351
19343
19379
19397
19280
19307
19351
19320
19278
19311
19348
19272
19281
19289
19321
19241
19266
19267
19330
19199
19225
19264
19229
19191
19196
19214
19186
19163
19176
19215
19116
19149
19144
19178
19100
19124
19180
19150
19091
19103
19198
19099
19081
19105
19163
19052
19041
19080
19100
18996
18998
19038
19030
18935
19011
19033
18955
18898
18955
18969
18898
18891
18957
18944
18844
18854
18925
18918
18815
18875
18918
18821
18825
18874
18918
18829
18825
18906
18885
18807
18820
18875
18864
18729
18784
18809
18728
18663
18690
18691
18604
18573
18580
18617
18518
18515
18571
18568
18484
18536
18576
18527
18511
18562
18587
18509
18518
18543
18631
18522
18558
18583
18656
18568
18632
18689
18683
18642
18730
18816
18779
18811
18924
19054
19038
19131
19259
19348
19314
19444
19538
19592
19575
19665
19726
19643
19651
19712
19751
19639
19647
19688
19711
19641
19655
19681
19655
19573
19619
19637
19587
19546
19607
19587
19567
19558
19578
19612
19524
19516
19585
19593
19479
19536
19605
19542
19513
19548
19571
19482
19494
19484
19541
19449
19443
19497
19508
19402
19454
19458
19409
19342
19345
19410
19332
19322
19379
19380
19242
19253
19296
19292
19150
19200
19225
19207
19110
19123
19154
19084
19009
19039
19078
18938
18936
18973
18989
18837
18866
18904
18860
18743
18795
18838
18731
18689
18710
18727
18624
18635
18680
18682
18570
18623
18647
18658
18538
18605
18652
18563
18552
18572
18607
18519
18538
18546
18581
18495
18495
18531
18505
18468
18469
18488
18391
18359
18378
18445
18300
18319
18320
18380
18272
18303
18326
18382
18255
18320
18359
18314
18337
18351
18390
18328
18355
18385
18417
18353
18373
18440
18452
18368
18462
18564
18569
18551
18630
18690
18693
18750
18837
18958
18977
19051
19174
19345
19288
19433
19547
19568
19548
19635
19686
19681
19651
19672
19726
19657
19623
19665
19686
19579
19604
19642
19602
19565
19629
19657
19579
19541
19521
19587
19530
19526
19537
19564
19454
19506
19559
19518
19459
19478
19518
19453
19431
19448
19503
19409
19396
19431
19423
19319
19325
19378
19369
19289
19304
19328
19280
19253
19273
19311
19220
19217
19213
19268
19166
19159
19203
19183
19083
19114
19157
19068
19015
19051
19100
18983
18961
18939
18987
18927
18890
18923
18948
18842
18845
18923
18838
18790
18807
18864
18756
18755
18777
18818
18725
18751
18787
18749
18704
18715
18759
18711
18667
18680
18732
18704
18660
18696
18753
18673
18651
18707
18676
18597
18683
18669
18667
18564
18608
18646
18559
18512
18548
18576
18481
18484
18469
18512
18405
18413
18439
18428
18328
18365
18412
18398
18350
18427
18440
18363
18380
18456
18481
18401
18423
18481
18530
18423
18504
18582
18566
18548
18632
18708
18685
18739
18811
18962
18921
19051
19154
19226
19222
19370
19501
19535
19566
19606
19663
19632
19611
19658
19718
19596
19627
19637
19622
19505
19542
19575
19529
19449
19486
19527
19433
19414
19427
19475
19414
19364
19409
19424
19298
19361
19379
19358
19253
19309
19334
19273
19290
19293
19367
19250
19266
19276
19318
19208
19247
19279
19245
19180
19185
19249
19189
19127
19162
19194
19105
19101
19090
19090
18995
19020
19051
19048
18933
18981
19012
18948
18889
18892
18946
18894
18846
18906
18924
18815
18857
18883
18857
18810
18816
18867
18830
18797
18827
18853
18811
18759
18814
18829
18746
18742
18794
18821
18713
18762
18788
18792
18733
18752
18781
18754
18688
18765
18803
18723
18727
18773
18777
18654
18696
18730
18635
18595
18588
18632
18540
18520
18524
18516
18464
18427
18458
18465
18374
18393
18468
18439
18385
18418
18481
18430
18406
18446
18502
18434
18426
18494
18553
18490
18515
18612
18629
18587
18664
18740
18730
18754
18896
18959
18989
19040
19141
19262
19248
19382
19512
19588
19545
19650
19736
19722
19678
19744
19771
19711
19690
19713
19768
19631
19672
19708
19714
19584
19640
19698
19659
19573
19616
19665
19565
19590
19597
19602
19532
19562
19563
19590
19466
19541
19584
19545
19486
19534
19545
19502
19495
19494
19522
19487
19477
19524
19500
19404
19422
19458
19441
19353
19409
19423
19350
19315
19324
19379
19282
19234
19306
19315
19189
19206
19284
19260
19167
19206
19221
19170
19117
19196
19211
19126
19122
19135
19148
19057
19065
19086
19069
18993
19023
19046
19007
18952
18971
18994
18931
18910
18918
18974
18863
18872
18891
18897
18806
18853
18906
18816
18773
18829
18886
18804
18800
18799
18830
18753
18763
18816
18796
18677
18746
18743
18698
18663
18675
18667
18605
18575
18612
18587
18464
18456
18469
18470
18357
18354
18419
18364
18285
18352
18384
18303
18308
18333
18389
18303
18311
18352
18412
18315
18362
18444
18401
18380
18430
18458
18476
18468
18531
18591
18529
18592
18663
18736
18680
18806
18907
18948
18991
19122
19238
19267
19308
19418
19509
19512
19539
19622
19642
19556
19550
19629
19625
19553
19559
19643
19552
19538
19551
19592
19525
19496
19536
19573
19458
19469
19519
19531
19438
19470
19515
19442
19424
19493
19502
19414
19429
19432
19486
19377
19416
19447
19481
19358
19398
19446
19398
19390
19399
19417
19361
19331
19365
19385
19318
19315
19377
19368
19281
19316
19361
19315
19264
19319
19349
19278
19243
19290
19311
19196
19236
19250
19257
19142
19170
19217
19213
19123
19165
19191
19111
19095
19119
19140
19038
19080
19095
19127
19012
19028
19071
19055
18966
19002
19037
18985
18929
18980
19021
18948
18929
19000
18983
18892
18927
18970
18983
18891
18948
18984
18935
18883
18921
18934
18851
18858
18895
18925
18803
18780
18830
18798
18680
18730
18707
18633
18580
18613
18619
18567
18511
18556
18576
18475
18509
18544
18554
18437
18516
18576
18528
18506
18542
18591
18575
18566
18612
18663
18571
18601
18682
18787
18697
18758
18854
18853
18902
18993
19069
19103
19150
19272
19346
19335
19414
19490
19581
19520
19586
19668
19651
19597
19650
19680
19637
19604
19651
19674
19575
19578
19613
19623
19525
19570
19612
19601
19516
19566
19612
19539
19539
19580
19600
19503
19491
19559
19603
19492
19512
19524
19545
19440
19510
19517
19512
19470
19505
19534
19436
19434
19469
19461
19402
19393
19448
19439
19368
19391
19411
19376
19349
19353
19379
19296
19291
19311
19360
19236
19249
19317
19290
19173
19221
19273
19200
19173
19178
19210
19116
19076
19149
19130
19035
19034
19070
19083
18967
19010
19022
18978
18939
18974
19012
18962
18902
18943
18980
18921
18929
18955
18978
18843
18925
18950
18916
18877
18898
18951
18867
18848
18869
18883
18756
18760
18814
18767
18662
18642
18667
18617
18518
18534
18539
18514
18473
18479
18524
18451
18431
18459
18489
18407
18467
18491
18505
18418
18441
18510
18527
18462
18541
18538
18490
18508
18595
18638
18548
18642
18667
18755
18729
18869
18945
18985
19029
19146
19263
19286
19353
19446
19521
19502
19518
19611
19622
19580
19592
19636
19599
19573
19593
19627
19564
19514
19576
19642
19512
19549
19559
19559
19465
19509
19537
19508
19438
19501
19530
19454
19463
19475
19518
19415
19411
19456
19481
19352
19414
19419
19414
19353
19415
19442
19362
19351
19386
19437
19323
19314
19370
19388
19269
19306
19336
19349
19268
19281
19294
19253
19227
19257
19281
19180
19167
19200
19214
19110
19131
19137
19114
19016
19073
19066
18995
18985
18987
19005
18929
18917
18919
18956
18874
18851
18905
18894
18810
18837
18889
18851
18778
18823
18908
18788
18758
18796
18833
18704
18755
18768
18800
18727
18736
18809
18759
18735
18742
18820
18753
18721
18736
18745
18657
18657
18665
18693
18571
18584
18605
18553
18444
18461
18490
18435
18385
18396
18429
18317
18340
18370
18357
18251
18322
18350
18329
18294
18318
18403
18321
18317
18351
18417
18318
18338
18393
18429
18340
18406
18457
18495
18446
18545
18603
18592
18599
18756
18840
18827
18913
19044
19176
19153
19229
19354
19421
19409
19497
19586
19548
19539
19531
19621
19538
19528
19527
19571
19488
19500
19538
19522
19406
19442
19469
19433
19375
19357
19399
19349
19291
19317
19353
19249
19255
19299
19298
19176
19247
19294
19235
19195
19207
19263
19195
19198
19213
19265
19130
19161
19208
19227
19095
19124
19187
19162
19099
19148
19152
19111
19092
19125
19136
19063
19054
19069
19102
19005
19012
19060
19028
18951
19038
19086
18996
18943
18991
19029
18917
18900
18931
18978
18878
18898
18925
18934
18827
18875
18895
18834
18810
18813
18847
18769
18769
18777
18822
18719
18728
18789
18810
18694
18771
18798
18732
18705
18753
18799
18726
18723
18750
18803
18702
18716
18744
18746
18620
18677
18662
18613
18569
18602
18617
18517
18489
18487
18479
18402
18433
18453
18481
18364
18392
18437
18400
18381
18417
18460
18398
18410
18450
18481
18418
18443
18515
18550
18457
18506
18603
18588
18578
18666
18730
18720
18724
18819
18890
18913
18985
19113
19211
19164
19287
19409
19472
19446
19517
19606
19586
19587
19620
19665
19588
19592
19614
19629
19548
19574
19646
19601
19542
19575
19603
19516
19495
19517
19553
19486
19452
19514
19532
19427
19453
19504
19510
19416
19465
19541
19488
19409
19467
19499
19461
19406
19470
19470
19403
19426
19447
19454
19321
19377
19427
19359
19324
19384
19398
19333
19316
19343
19367
19268
19281
19354
19327
19212
19275
19289
19272
19188
19242
19276
19214
19167
19205
19243
19165
19137
19165
19189
19075
19106
19142
19107
19039
19110
19119
19047
19025
19053
19077
19012
19020
19070
19036
18977
18992
19044
19026
18983
18996
19044
18986
18951
18982
19015
18934
18921
18959
18984
18861
18875
18934
18890
18777
18831
18833
18731
18697
18686
18749
18651
18609
18671
18662
18590
18604
18659
18656
18561
18628
18703
18649
18603
18658
18680
18635
18631
18659
18727
18653
18702
18783
18789
18777
18824
18948
18973
18975
19089
19206
19224
19298
19402
19531
19539
19574
19668
19722
19672
19741
19815
19768
19716
19772
19814
19777
19767
19744
19826
19741
19706
19753
19753
19662
19674
19715
19699
19644
19677
19696
19651
19613
19625
19692
19604
19569
19595
19642
19515
19551
19612
19554
19472
19544
19562
19510
19445
19476
19491
19436
19451
19476
19497
19401
19405
19423
19423
19319
19374
19390
19345
19291
19293
19333
19240
19228
19230
19287
19194
19169
19192
19174
19114
19127
19166
19079
19058
19055
19081
18975
18959
18987
18997
18893
18889
18913
18908
18808
18844
18863
18827
18763
18779
18811
18766
18703
18748
18768
18670
18677
18716
18709
18624
18649
18686
18656
18582
18631
18645
18574
18578
18599
18633
18536
18566
18557
18552
18451
18470
18507
18459
18365
18411
18409
18332
18280
18313
18349
18246
18223
18283
18312
18203
18205
18279
18266
18205
18268
18323
18236
18226
18244
18336
18267
18263
18304
18360
18288
18333
18421
18432
18362
18461
18550
18531
18574
18623
18710
18740
18789
18898
19018
19020
19121
19233
19320
19268
19394
19431
19433
19412
19466
19478
19435
19452
19450
19487
19388
19401
19414
19409
19309
19336
19401
19340
19300
19349
19395
19256
19278
19326
19353
19276
19284
19289
19286
19204
19265
19300
19260
19217
19243
19260
19190
19196
19196
19246
19153
19163
19184
19215
19097
19142
19154
19142
19072
19098
19110
19088
19038
19066
19099
19020
19034
19026
19016
18941
18972
18996
18964
18894
18932
18977
18899
18878
18895
18913
18887
18830
18853
18870
18756
18753
18828
18811
18712
18730
18807
18721
18681
18715
18728
18687
18659
18657
18706
18613
18627
18648
18671
18566
18639
18666
18659
18591
18646
18666
18590
18563
18604
18668
18599
18591
18624
18633
18523
18567
18587
18518
18420
18489
18494
18417
18361
18396
18423
18328
18291
18377
18381
18264
18315
18356
18337
18284
18295
18371
18286
18272
18329
18385
18322
18337
18377
18441
18378
18433
18493
18538
18455
18555
18611
18614
18637
18703
18809
18815
18914
18985
19108
19110
19207
19342
19402
19373
19446
19514
19512
19497
19543
19579
19515
19535
19564
19551
19462
19492
19503
19506
19413
19462
19483
19435
19387
19410
19471
19383
19380
19406
19462
19363
19350
19402
19413
19316
19334
19399
19340
19312
19363
19379
19347
19313
19330
19364
19275
19270
19312
19336
19205
19245
19285
19256
19189
19219
19280
19223
19217
19189
19223
19114
19155
19153
19173
19081
19091
19130
19102
19060
19076
19134
19050
19020
19045
19062
18976
18956
18986
19035
18896
18945
18974
18992
18888
18945
18963
18904
18884
18885
18945
18862
18885
18886
18929
18865
18864
18913
18900
18822
18889
18908
18858
18821
18879
18898
18837
18794
18815
18842
18749
18732
18732
18748
18642
18617
18636
18601
18530
18508
18561
18506
18467
18512
18553
18460
18453
18485
18509
18436
18491
18522
18511
18473
18532
18586
18558
18539
18608
18654
18641
18646
18749
18793
18739
18805
18923
18987
18974
19077
19209
19244
19331
19409
19528
19540
19574
19664
19724
19658
19686
19751
19741
19683
19699
19755
19671
19627
19684
19689
19645
19616
19647
19665
19567
19592
19629
19624
19536
19584
19593
19560
19533
19549
19580
19516
19490
19512
19523
19451
19461
19508
19506
19418
19440
19506
19437
19410
19425
19474
19401
19369
19407
19442
19356
19335
19381
19409
19309
19318
19366
19332
19240
19289
19322
19239
19225
19238
19265
19175
19176
19216
19209
19098
19124
19176
19134
19061
19101
19115
19076
19032
19029
19083
19001
18970
18989
19027
18924
18948
18984
18972
18892
18939
18930
18876
18877
18886
18932
18861
18844
18913
18912
18810
18783
18886
18892
18774
18846
18876
18826
18777
18806
18806
18757
18703
18713
18759
18643
18618
18607
18645
18501
18517
18513
18473
18431
18466
18502
18413
18421
18435
18444
18390
18398
18417
18455
18398
18423
18471
18453
18421
18443
18529
18485
18485
18537
18641
18554
18594
18698
18743
18720
18792
18848
18897
18915
19030
19154
19174
19220
19312
19435
19449
19508
19609
19685
19622
19650
19701
19700
19664
19693
19711
19685
19667
19689
19684
19647
19676
19688
19700
19606
19652
19667
19674
19604
19648
19662
19629
19612
19637
19669
19586
19624
19638
19688
19592
19618
19651
19631
19538
19600
19622
19608
19554
19558
19617
19528
19538
19557
19581
19507
19513
19558
19547
19477
19542
19562
19519
19490
19528
19565
19497
19491
19497
19538
19457
19441
19489
19490
19387
19438
19450
19397
19377
19387
19463
19383
19341
19374
19410
19325
19317
19377
19382
19284
19322
19341
19298
19282
19306
19350
19271
19281
19326
19327
19252
19251
19288
19330
19227
19240
19279
19280
19199
19245
19253
19218
19174
19179
19207
19145
19092
19124
19099
18998
18987
18977
18965
18903
18900
18939
18875
18847
18842
18900
18835
18815
18836
18893
18815
18828
18862
18906
18830
18866
18903
18887
18850
18928
18951
18953
18944
19015
19053
18985
19052
19102
19174
19128
19217
19303
19283
19330
19421
19554
19573
19648
19701
19764
19730
19809
19873
19884
19825
19874
19931
19863
19838
19869
19910
19861
19820
19870
19888
19845
19833
19849
19841
19771
19778
19799
19815
19729
19765
19804
19755
19741
19742
19778
19702
19702
19731
19781
19643
19714
19735
19718
19644
19668
19715
19661
19604
19673
19670
19620
19588
19624
19634
19555
19554
19584
19626
19496
19553
19575
19490
19458
19481
19543
19444
19431
19437
19468
19378
19401
19418
19403
19312
19347
19378
19334
19281
19334
19356
19293
19303
19331
19358
19279
19304
19284
19301
19203
19240
19292
19234
19208
19249
19257
19222
19211
19195
19266
19209
19193
19216
19233
19159
19172
19212
19161
19080
19080
19135
19062
19034
19038
19026
18966
18927
18944
18932
18818
18851
18899
18880
18827
18858
18898
18852
18829
18867
18920
18860
18850
18889
18956
18861
18894
18949
18979
18880
18974
19043
19037
19042
19118
19196
19208
19271
19375
19495
19485
19575
19683
19774
19740
19885
19915
19901
19893
19957
19964
19925
19931
19953
19978
19889
19929
19936
19988
19863
19904
19950
19912
19856
19907
19949
19878
19889
19876
19918
19853
19841
19876
19899
19783
19830
19888
19806
19755
19819
19874
19811
19782
19796
19799
19718
19716
19743
19776
19688
19707
19728
19687
19639
19705
19702
19660
19606
19655
19666
19584
19600
19597
19613
19544
19541
19570
19580
19469
19493
19510
19480
19461
19453
19488
19434
19410
19414
19421
19347
19347
19357
19357
19266
19289
19343
19246
19225
19285
19285
19228
19200
19241
19245
19173
19190
19232
19229
19164
19219
19239
19193
19142
19179
19239
19159
19161
19154
19192
19097
19088
19109
19106
18974
19003
19040
18991
18905
18938
18925
18889
18813
18841
18858
18747
18784
18791
18828
18731
18751
18818
18778
18692
18721
18774
18729
18721
18764
18811
18768
18764
18816
18856
18813
18851
18942
18988
18918
19025
19075
19083
19122
19173
19259
19269
19361
19445
19578
19542
19656
19720
19807
19759
19846
19872
19846
19849
19869
19900
19854
19818
19866
19870
19795
19792
19828
19854
19743
19801
19848
19784
19744
19752
19800
19764
19711
19777
19800
19704
19724
19748
19793
19669
19702
19767
19725
19666
19709
19738
19670
19651
19689
19704
19651
19627
19671
19702
19601
19614
19632
19641
19557
19596
19634
19565
19569
19582
19657
19569
19578
19580
19607
19505
19557
19579
19541
19471
19540
19560
19492
19465
19470
19491
19437
19419
19435
19450
19379
19382
19422
19416
19330
19353
19411
19327
19329
19338
19358
19326
19286
19321
19358
19277
19314
19309
19342
19258
19292
19335
19267
19231
19260
19304
19227
19216
19241
19257
19170
19158
19191
19218
19096
19089
19108
19077
18996
19018
19022
18936
18916
18928
18942
18839
18865
18891
18920
18831
18819
18855
18826
18820
18851
18885
18829
18809
18847
18912
18834
18837
18884
18925
18839
18912
18956
19012
18961
19099
19186
19172
19186
19311
19393
19419
19459
19592
19698
19692
19774
19868
19910
19846
19916
19929
19913
19880
19898
19968
19858
19875
19896
19929
19830
19848
19856
19887
19808
19796
19852
19811
19751
19773
19826
19730
19737
19742
19793
19696
19704
19727
19747
19622
19674
19742
19657
19637
19677
19736
19669
19644
19645
19681
19588
19598
19617
19627
19537
19566
19595
19543
19487
19531
19575
19513
19509
19485
19511
19433
19434
19467
19498
19385
19383
19413
19391
19351
19347
19412
19363
19299
19325
19358
19259
19285
19312
19357
19224
19248
19324
19299
19236
19259
19295
19212
19225
19251
19283
19236
19201
19265
19321
19238
19245
19297
19303
19243
19226
19276
19208
19139
19166
19105
19028
18969
18959
18945
18868
18847
18848
18834
18755
18798
18790
18767
18725
18777
18796
18749
18736
18747
18839
18768
18808
18847
18833
18778
18820
18917
18898
18903
18966
19035
19003
19053
19121
19205
19182
19243
19350
19425
19432
19527
19662
19706
19748
19864
19927
19931
19956
20005
20065
20004
20006
20066
20088
20016
20041
20073
20058
20018
20052
20088
20033
20041
20077
20066
20015
20003
20048
20068
19964
19998
20031
20024
19952
19981
19997
19945
19894
19932
19970
19907
19890
19887
19972
19861
19853
19868
19853
19801
19803
19853
19814
19769
19806
19808
19756
19757
19788
19826
19708
19717
19767
19783
19680
19704
19770
19714
19695
19709
19758
19690
19647
19698
19707
19644
19655
19651
19674
19569
19604
19623
19564
19527
19519
19539
19461
19432
19429
19486
19397
19349
19387
19393
19309
19333
19382
19291
19261
19257
19311
19245
19217
19232
19289
19211
19190
19249
19269
19195
19208
19215
19225
19166
19191
19197
19163
19099
19105
19125
19065
19044
19076
19090
18992
19008
19045
19041
18989
19020
19076
19070
19022
19096
19110
19098
19104
19117
19189
19113
19114
19149
19199
19134
19192
19219
19223
19191
19252
19286
19278
19293
19381
19428
19434
19501
19598
19692
19667
19765
19872
19934
19949
20046
20085
20101
20065
20125
20175
20058
20072
20097
20129
20004
20065
20086
20096
20045
20063
20103
20048
20017
19982
20061
19983
19968
19988
19990
19934
19955
19984
19972
19898
19903
19961
19901
19879
19881
19924
19831
19865
19842
19867
19794
19840
19852
19815
19770
19770
19780
19750
19704
19717
19741
19662
19660
19698
19706
19590
19580
19624
19589
19476
19517
19530
19527
19491
19487
19509
19439
19419
19431
19468
19375
19352
19402
19400
19289
19337
19339
19329
19293
19283
19318
19291
19242
19242
19286
19187
19205
19231
19225
19145
19162
19216
19180
19144
19176
19222
19164
19157
19178
19187
19170
19149
19201
19218
19141
19174
19199
19185
19142
19148
19174
19132
19075
19062
19075
18973
18965
18930
18934
18814
18820
18858
18828
18721
18763
18831
18775
18767
18803
18846
18792
18790
18836
18841
18769
18805
18885
18874
18802
18856
18929
18897
18904
18936
19021
19001
19044
19123
19207
19217
19261
19367
19424
19377
19521
19614
19656
19662
19753
19840
19810
19777
19792
19828
19786
19803
19796
19819
19719
19739
19793
19748
19680
19735
19787
19782
19719
19753
19786
19701
19753
19748
19809
19717
19723
19786
19762
19676
19760
19774
19726
19703
19732
19743
19659
19662
19683
19727
19649
19662
19722
19739
19647
19658
19714
19699
19672
19698
19729
19655
19641
19648
19683
19596
19604
19625
19612
19554
19560
19643
19564
19581
19583
19601
19506
19483
19510
19511
19434
19418
19441
19476
19372
19383
19417
19394
19339
19383
19405
19313
19305
19347
19367
19289
19260
19278
19297
19200
19255
19260
19211
19189
19222
19244
19201
19196
19243
19290
19191
19183
19223
19230
19120
19156
19144
19120
19085
19085
19127
19027
18992
19012
19050
18979
18950
18988
19013
18939
18935
18972
18984
18898
18933
18976
18889
18913
18927
19000
18925
18925
18984
19040
18945
19029
19072
19116
19112
19186
19281
19274
19342
19427
19523
19491
19554
19646
19740
19742
19839
19929
19961
19922
19964
19997
19973
19947
19997
20021
19965
19938
20016
20014
19936
19982
19992
19988
19865
19887
19926
19902
19869
19903
19943
19873
19878
19886
19900
19858
19863
19914
19887
19815
19900
19879
19838
19743
19782
19820
19781
19713
19713
19763
19685
19688
19723
19748
19667
19685
19740
19664
19657
19681
19707
19634
19631
19642
19673
19590
19578
19608
19597
19484
19527
19565
19520
19449
19484
19527
19437
19439
19423
19477
19395
19394
19419
19463
19307
19340
19360
19354
19286
19321
19336
19245
19199
19256
19290
19227
19207
19244
19286
19193
19216
19269
19246
19172
19187
19229
19187
19134
19192
19217
19161
19102
19129
19159
19045
19042
19102
19084
18935
18979
19024
18952
18896
18930
18950
18885
18863
18896
18909
18846
18870
18932
18920
18866
18858
18932
18924
18879
18946
18992
18925
18905
18950
19046
18970
19029
19045
19096
19054
19119
19194
19218
19178
19271
19376
19322
19385
19446
19565
19527
19625
19720
19808
19731
19784
19858
19855
19771
19819
19878
19759
19731
19745
19791
19713
19702
19734
19746
19663
19658
19709
19693
19602
19653
19685
19637
19592
19588
19642
19574
19514
19581
19600
19494
19473
19510
19535
19407
19446
19466
19410
19375
19390
19412
19356
19269
19298
19324
19202
19231
19257
19240
19131
19177
19215
19159
19086
19120
19161
19117
19066
19116
19111
19017
19014
19075
19065
18969
19004
19043
18996
18952
18999
19019
18953
18901
18918
18955
18866
18870
18865
18916
18781
18837
18885
18877
18767
18838
18897
18828
18800
18854
18903
18831
18841
18853
18929
18841
18890
18919
18929
18853
18883
18955
18907
18873
18905
18938
18872
18851
18900
18872
18777
18807
18839
18795
18696
18743
18740
18667
18615
18638
18675
18593
18606
18654
18686
18567
18610
18623
18658
18561
18618
18688
18629
18590
18662
18724
18665
18641
18737
18781
18724
18751
18842
18899
18846
18909
19017
19043
19041
19099
19252
19251
19241
19339
19418
19369
19403
19446
19508
19383
19438
19449
19443
19394
19418
19492
19437
19401
19451
19492
19386
19437
19441
19463
19359
19383
19398
19399
19278
19327
19374
19275
19298
19288
19350
19269
19287
19308
19364
19213
19269
19303
19308
19221
19279
19341
19249
19266
19285
19289
19234
19221
19270
19283
19203
19231
19271
19257
19155
19177
19210
19170
19110
19158
19201
19107
19084
19122
19164
19023
19069
19098
19113
18992
19045
19081
18995
18944
19026
19067
18973
18948
18988
19021
18913
18901
18911
18895
18802
18844
18878
18808
18763
18813
18856
18762
18761
18825
18823
18747
18746
18810
18817
18709
18745
18757
18765
18667
18702
18724
18639
18599
18649
18682
18537
18513
18555
18575
18464
18491
18565
18512
18421
18484
18533
18485
18468
18531
18576
18499
18524
18583
18649
18580
18609
18705
18713
18647
18750
18849
18820
18864
18927
19018
18980
19058
19107
19218
19221
19304
19437
19531
19485
19582
19668
19683
19688
19754
19803
19766
19775
19810
19845
19796
19783
19853
19867
19771
19827
19860
19802
19746
19773
19825
19760
19700
19746
19744
19687
19710
19729
19743
19644
19711
19729
19715
19654
19692
19758
19683
19690
19706
19731
19641
19638
19672
19673
19580
19597
19608
19612
19513
19566
19559
19516
19474
19510
19565
19455
19410
19468
19519
19445
19427
19455
19463
19336
19369
19382
19296
19254
19269
19269
19203
19141
19194
19199
19098
19099
19103
19101
19005
19045
19043
19015
18957
18982
19043
18956
18939
18988
19009
18928
18926
18997
19020
18926
18948
19016
18961
18915
18978
19047
18992
18985
19058
19090
19027
19070
19104
19142
18997
19022
19065
19020
18939
18950
18983
18906
18834
18875
18858
18749
18746
18769
18801
18659
18679
18704
18715
18624
18703
18772
18678
18663
18741
18774
18700
18712
18786
18847
18706
18807
18846
18882
18816
18889
18941
18977
18957
19025
19100
19127
19124
19244
19316
19310
19401
19492
19557
19520
19613
19707
19662
19692
19701
19752
19699
19696
19672
19728
19649
19694
19711
19726
19586
19651
19679
19639
19584
19644
19668
19595
19572
19614
19665
19590
19584
19636
19652
19539
19626
19635
19629
19557
19580
19647
19548
19560
19572
19608
19521
19525
19551
19565
19453
19490
19538
19534
19433
19538
19525
19461
19439
19493
19522
19457
19402
19455
19451
19375
19357
19411
19428
19334
19347
19378
19340
19312
19322
19382
19281
19292
19299
19328
19217
19204
19269
19266
19199
19218
19270
19185
19154
19211
19251
19186
19158
19181
19234
19119
19145
19196
19174
19103
19099
19178
19143
19098
19142
19235
19137
19124
19148
19169
19111
19098
19130
19160
19043
19095
19110
19072
18994
19031
19075
18985
18965
18984
19009
18920
18908
18936
18976
18878
18912
18942
18938
18877
18926
18997
18957
18919
18990
19010
18982
18981
19036
19094
19016
19059
19113
19179
19135
19190
19300
19268
19339
19402
19495
19503
19577
19644
19726
19662
19697
19798
19834
19767
19835
19885
19832
19805
19868
19892
19827
19837
19841
19885
19782
19781
19828
19832
19726
19777
19807
19775
19723
19773
19811
19739
19698
19757
19797
19713
19729
19746
19746
19653
19701
19730
19703
19648
19707
19731
19699
19680
19718
19738
19679
19648
19687
19714
19616
19644
19652
19639
19616
19625
19659
19610
19553
19602
19622
19584
19572
19591
19634
19535
19552
19570
19618
19505
19575
19596
19522
19490
19527
19574
19509
19476
19543
19543
19439
19470
19512
19524
19409
19506
19524
19497
19427
19486
19529
19465
19456
19499
19526
19428
19437
19489
19511
19433
19487
19523
19469
19432
19449
19471
19394
19371
19380
19437
19300
19298
19326
19327
19222
19221
19261
19180
19142
19194
19219
19150
19172
19170
19225
19129
19163
19183
19226
19157
19201
19239
19249
19166
19244
19307
19240
19259
19343
19391
19386
19437
19521
19596
19573
19643
19758
19807
19814
19877
19992
19958
19958
20022
20061
19991
19979
20033
20051
19969
19970
20001
19998
19920
19970
19988
19924
19895
19926
19988
19901
19890
19927
19933
19855
19858
19904
19912
19772
19835
19901
19815
19803
19806
19854
19795
19801
19793
19822
19727
19755
19768
19784
19696
19734
19774
19731
19676
19741
19775
19698
19698
19708
19730
19630
19649
19683
19732
19607
19631
19716
19664
19584
19625
19657
19575
19578
19573
19623
19536
19552
19568
19549
19476
19486
19525
19511
19431
19490
19504
19445
19410
19427
19506
19394
19389
19415
19441
19323
19357
19386
19364
19288
19301
19350
19302
19253
19274
19302
19254
19251
19283
19301
19208
19249
19266
19289
19180
19240
19307
19212
19207
19212
19233
19161
19125
19137
19149
19044
19057
19069
19087
18979
18974
18994
18967
18925
18975
18965
18931
18895
18931
18972
18889
18894
18933
18969
18872
18915
18987
18962
18918
18976
19021
18985
18965
19044
19094
19056
19082
19177
19245
19141
19244
19326
19388
19411
19494
19628
19628
19629
19728
19825
19752
19819
19847
19932
19793
19860
19861
19919
19810
19869
19915
19823
19793
19813
19872
19765
19754
19796
19820
19711
19772
19774
19815
19705
19763
19784
19735
19703
19743
19767
19688
19688
19751
19749
19698
19661
19714
19733
19635
19664
19730
19680
19648
19669
19731
19637
19633
19684
19715
19627
19635
19649
19644
19591
19590
19648
19603
19558
19603
19660
19584
19588
19608
19645
19540
19536
19585
19631
19499
19522
19582
19565
19461
19499
19552
19496
19437
19477
19542
19441
19463
19518
19509
19427
19459
19498
19472
19391
19427
19443
19434
19389
19418
19455
19382
19367
19402
19447
19340
19373
19432
19429
19366
19406
19447
19376
19359
19377
19465
19385
19387
19449
19435
19354
19354
19363
19367
19279
19283
19310
19261
19213
19226
19272
19199
19168
19183
19215
19117
19136
19205
19176
19111
19142
19198
19174
19141
19176
19254
19157
19172
19206
19233
19210
19200
19265
19313
19230
19312
19396
19388
19381
19469
19526
19530
19561
19622
19695
19684
19714
19790
19883
19857
19890
19976
19968
19919
19967
20085
19977
19948
19994
20013
19952
19977
19960
20023
19896
19917
19975
19947
19828
19906
19946
19900
19832
19903
19940
19875
19839
19917
19955
19855
19881
19943
19922
19848
19888
19936
19880
19891
19898
19961
19883
19885
19888
19955
19856
19848
19897
19906
19813
19825
19867
19841
19831
19821
19893
19831
19802
19838
19898
19809
19805
19865
19895
19766
19802
19839
19772
19740
19781
19823
19761
19735
19782
19822
19736
19745
19766
19791
19694
19718
19767
19769
19664
19726
19756
19710
19660
19753
19767
19709
19700
19732
19797
19693
19727
19758
19758
19682
19725
19769
19704
19715
19711
19765
19659
19643
19666
19692
19594
19567
19609
19617
19558
19552
19560
19510
19447
19478
19529
19440
19447
19448
19489
19411
19413
19415
19487
19363
19441
19494
19451
19422
19450
19519
19478
19445
19509
19570
19490
19541
19589
19689
19594
19723
19785
19813
19798
19944
20038
19992
20048
20116
20178
20112
20143
20167
20160
20089
20129
20141
20145
20061
20123
20161
20090
20074
20102
20117
20049
20041
20094
20096
19993
20021
20076
20067
19989
20023
20051
19967
19975
19990
20023
19966
19921
19968
20026
19917
19925
19967
19971
19889
19908
19955
19888
19850
19903
19926
19861
19827
19888
19888
19795
19821
19887
19896
19794
19803
19871
19805
19763
19779
19826
19771
19738
19801
19812
19693
19712
19774
19739
19651
19690
19728
19683
19613
19673
19696
19608
19637
19635
19690
19609
19606
19626
19637
19529
19581
19581
19572
19502
19528
19585
19526
19521
19566
19563
19502
19513
19532
19549
19461
19466
19503
19492
19434
19453
19513
19471
19441
19454
19496
19391
19383
19425
19440
19344
19323
19383
19375
19248
19302
19343
19278
19219
19294
19299
19204
19198
19244
19267
19192
19199
19252
19251
19131
19197
19274
19193
19161
19248
19250
19222
19235
19307
19316
19269
19290
19357
19428
19358
19425
19518
19508
19510
19569
19681
19658
19709
19792
19899
19882
19933
20003
20077
19993
20043
20084
20106
20037
20110
20161
20078
20052
20109
20115
20013
20029
20046
20105
19962
19990
20043
19981
19929
19958
19965
19926
19881
19946
19985
19912
19906
19925
19975
19897
19879
19941
19979
19878
19946
19988
19915
19872
19923
19956
19882
19859
19916
19954
19862
19879
19918
19904
19825
19889
19922
19874
19835
19849
19880
19830
19811
19832
19831
19743
19763
19765
19798
19666
19750
19775
19750
19687
19784
19755
19721
19710
19709
19737
19671
19692
19706
19718
19603
19649
19651
19630
19563
19642
19644
19594
19563
19567
19637
19543
19503
19560
19552
19468
19492
19570
19510
19446
19459
19535
19461
19429
19440
19486
19406
19424
19452
19499
19398
19422
19450
19447
19361
19392
19410
19334
19319
19354
19339
19230
19175
19250
19220
19082
19114
19099
19118
19014
19065
19119
19042
19029
19030
19102
19034
19065
19100
19150
19059
19078
19110
19161
19089
19149
19211
19188
19211
19267
19342
19328
19359
19415
19522
19491
19546
19637
19735
19699
19811
19898
19967
19959
20032
20141
20082
20083
20134
20156
20071
20065
20116
20144
20000
20065
20137
20066
20031
20053
20102
20027
20001
20023
20090
19980
20009
20042
20069
20007
20006
20039
20054
19977
20038
20051
19995
19987
20006
20040
19986
19976
20022
20034
19945
19940
20007
20017
19937
19957
20004
19988
19928
19943
20002
19931
19890
19945
19969
19919
19931
19951
19947
19834
19884
19908
19877
19848
19867
19902
19860
19837
19848
19881
19816
19839
19869
19877
19763
19805
19835
19799
19711
19733
19777
19693
19666
19690
19730
19657
19621
19675
19672
19562
19607
19640
19632
19535
19582
19625
19540
19533
19542
19586
19518
19507
19503
19573
19480
19500
19570
19541
19458
19501
19550
19490
19449
19481
19497
19416
19394
19447
19437
19373
19384
19418
19403
19333
19341
19420
19335
19321
19349
19394
19309
19297
19353
19409
19315
19347
19376
19433
19352
19409
19465
19463
19434
19508
19622
19602
19599
19687
19762
19771
19817
19922
20001
19920
20025
20082
20077
20028
20080
20118
20068
20036
20067
20086
20020
20047
20038
20069
19950
19958
19989
20001
19899
19909
19984
19869
19854
19874
19882
19789
19775
19816
19829
19719
19773
19793
19780
19737
19729
19782
19737
19711
19757
19773
19710
19675
19725
19735
19652
19677
19687
19681
19600
19652
19684
19613
19603
19627
19625
19564
19558
19558
19626
19516
19541
19556
19569
19450
19506
19536
19505
19443
19459
19522
19464
19407
19476
19471
19385
19368
19427
19400
19309
19294
19321
19270
19231
19293
19313
19248
19217
19239
19275
19166
19202
19231
19214
19136
19159
19232
19229
19131
19152
19206
19143
19154
19170
19220
19104
19134
19152
19231
19085
19100
19192
19156
19057
19116
19120
19060
19004
19038
19053
18927
18956
18980
18978
18855
18876
18909
18908
18839
18890
18943
18854
18846
18878
18943
18863
18889
18921
18959
18885
18927
18986
18995
18948
19023
19059
19067
19025
19143
19190
19137
19183
19263
19367
19332
19347
19495
19563
19505
19642
19702
19744
19767
19839
19933
19888
19897
19922
19978
19874
19892
19928
19934
19827
19906
19960
19903
19859
19865
19908
19861
19865
19904
19911
19833
19834
19896
19921
19819
19868
19903
19858
19803
19857
19916
19849
19828
19863
19893
19843
19815
19840
19864
19758
19808
19810
19823
19747
19741
19789
19744
19699
19752
19786
19695
19697
19711
19701
19624
19643
19660
19700
19611
19638
19691
19619
19577
19643
19624
19607
19572
19570
19642
19551
19577
19606
19625
19518
19562
19588
19535
19449
19490
19523
19436
19401
19393
19480
19348
19356
19352
19405
19266
19321
19371
19360
19275
19310
19364
19324
19265
19319
19372
19267
19270
19305
19346
19262
19254
19295
19223
19197
19215
19261
19152
19120
19150
19144
19085
19041
19036
19069
18959
18969
19012
18983
18897
18921
18979
18925
18904
18960
18969
18904
18929
18983
19010
18912
18942
18979
19019
18942
19016
19064
19043
19017
19093
19153
19113
19123
19229
19314
19276
19316
19455
19518
19479
19565
19673
19680
19691
19797
19841
19834
19847
19904
19917
19846
19873
19914
19925
19820
19845
19912
19844
19785
19815
19864
19768
19762
19786
19824
19726
19726
19794
19805
19695
19744
19784
19775
19714
19756
19769
19716
19706
19727
19794
19687
19699
19751
19747
19684
19704
19741
19742
19647
19688
19751
19697
19685
19662
19710
19635
19645
19663
19703
19582
19624
19663
19654
19562
19609
19643
19590
19556
19585
19641
19570
19554
19583
19600
19500
19526
19570
19574
19463
19517
19529
19491
19470
19493
19520
19455
19427
19470
19496
19403
19386
19452
19438
19354
19392
19462
19427
19325
19380
19402
19370
19359
19400
19456
19352
19364
19385
19408
19303
19358
19419
19404
19292
19345
19343
19288
19251
19249
19233
19139
19149
19171
19164
19072
19106
19083
19108
18981
19077
19073
19031
19011
19050
19104
19047
19010
19070
19101
19054
19068
19093
19127
19060
19104
19162
19118
19135
19185
19263
19207
19234
19310
19381
19361
19421
19544
19593
19582
19656
19768
19770
19796
19899
19992
19964
19963
20010
20069
20003
19996
20037
20023
19947
19963
20016
19981
19934
19950
20006
19929
19926
19953
19991
19895
19910
19934
19947
19845
19872
19911
19903
19830
19894
19888
19838
19835
19875
19907
19820
19815
19839
19884
19770
19824
19866
19835
19759
19829
19893
19792
19749
19792
19811
19767
19742
19762
19797
19682
19736
19750
19792
19678
19713
19748
19716
19677
19706
19728
19668
19663
19683
19702
19596
19595
19670
19645
19556
19598
19610
19577
19543
19554
19618
19528
19540
19579
19596
19487
19513
19548
19548
19464
19502
19553
19521
19487
19545
19574
19470
19485
19507
19539
19479
19476
19510
19548
19445
19510
19559
19538
19466
19495
19562
19456
19433
19439
19498
19385
19356
19353
19368
19225
19238
19252
19270
19180
19233
19244
19201
19188
19200
19256
19186
19186
19207
19244
19120
19164
19236
19219
19158
19233
19290
19266
19248
19293
19385
19353
19370
19465
19544
19500
19561
19661
19718
19672
19762
19863
19883
19931
20007
20101
20068
20070
20087
20125
20055
20071
20081
20133
20010
20048
20094
20068
20039
20062
20081
20028
19997
20041
20075
19982
20004
20026
20016
19958
19997
20024
19970
19948
19983
20027
19956
19945
19981
20017
19905
19957
19933
19996
19895
19932
19966
19944
19880
19908
19944
19867
19859
19892
19895
19806
19830
19811
19848
19766
19779
19829
19826
19721
19783
19813
19765
19723
19760
19782
19695
19699
19715
19770
19645
19644
19678
19691
19589
19667
19663
19652
19595
19654
19694
19590
19601
19638
19659
19622
19562
19605
19645
19517
19554
19604
19550
19514
19545
19582
19527
19505
19548
19576
19492
19480
19516
19543
19405
19485
19458
19442
19356
19386
19399
19297
19273
19300
19321
19260
19258
19295
19319
19220
19244
19308
19319
19242
19253
19336
19283
19259
19288
19347
19294
19323
19333
19414
19322
19450
19464
19522
19455
19556
19653
19634
19669
19749
19855
19850
19909
20014
20115
20128
20138
20229
20245
20182
20269
20282
20244
20210
20251
20298
20221
20200
20226
20249
20135
20133
20207
20191
20043
20145
20138
20071
20025
20083
20132
20089
20028
20076
20133
20038
20021
20065
20098
20008
20035
20068
20012
19959
19998
20029
19948
19941
19954
19966
19915
19896
19898
19911
19820
19841
19880
19852
19740
19784
19831
19758
19745
19744
19796
19688
19694
19698
19746
19600
19654
19672
19668
19565
19599
19632
19570
19525
19573
19576
19477
19443
19504
19520
19398
19420
19428
19404
19294
19349
19379
19292
19299
19291
19341
19253
19239
19269
19266
19192
19171
19217
19211
19132
19143
19191
19140
19061
19134
19174
19115
19121
19141
19207
19097
19112
19148
19132
19023
19015
19065
19001
18931
18992
18987
18942
18874
18914
18923
18856
18857
18924
18931
18830
18880
18904
18917
18866
18914
18956
18936
18895
18957
19001
18917
18922
19009
19035
18942
19013
19064
19084
19036
19123
19209
19160
19176
19273
19347
19377
19426
19532
19612
19591
19679
19807
19834
19792
19862
19941
19906
19876
19918
19950
19879
19841
19894
19914
19820
19815
19879
19858
19771
19773
19859
19808
19766
19800
19853
19746
19754
19748
19818
19734
19703
19759
19768
19663
19703
19742
19696
19666
19697
19750
19679
19657
19677
19715
19607
19615
19661
19666
19576
19622
19638
19612
19551
19590
19631
19546
19530
19577
19594
19507
19499
19539
19575
19439
19482
19510
19516
19431
19457
19519
19439
19415
19463
19474
19393
19386
19421
19467
19315
19373
19430
19435
19309
19357
19407
19312
19271
19299
19360
19249
19258
19249
19300
19189
19232
19284
19283
19191
19234
19321
19244
19201
19254
19301
19227
19247
19244
19272
19194
19200
19214
19231
19126
19136
19137
19106
19045
19070
19085
18979
18992
19007
19023
18942
18940
18993
19022
18902
18957
18988
18993
18909
18966
18997
18982
18982
19014
19082
18994
18996
19088
19121
19061
19099
19172
19182
19148
19221
19320
19284
19307
19389
19514
19500
19571
19671
19744
19684
19749
19793
19856
19791
19863
19911
19885
19834
19850
19906
19820
19816
19853
19886
19797
19792
19848
19853
19741
19792
19834
19792
19729
19789
19828
19737
19720
19747
19791
19729
19700
19761
19750
19675
19712
19762
19736
19644
19727
19743
19695
19687
19731
19768
19676
19686
19715
19719
19637
19656
19697
19711
19638
19649
19684
19657
19605
19633
19681
19616
19585
19636
19659
19581
19570
19593
19623
19523
19568
19601
19542
19518
19518
19560
19470
19493
19503
19552
19470
19456
19508
19504
19433
19512
19525
19474
19445
19470
19521
19471
19450
19497
19505
19441
19435
19479
19532
19427
19441
19483
19431
19393
19420
19458
19368
19364
19364
19368
19282
19278
19316
19306
19179
19198
19221
19207
19128
19189
19191
19155
19130
19171
19206
19100
19114
19160
19199
19076
19155
19222
19221
19146
19217
19271
19226
19240
19304
19375
19340
19335
19477
19555
19508
19628
19695
19760
19725
19839
19930
19929
19965
19985
20057
20012
19985
20034
20088
19939
19988
20033
20004
19946
20005
20061
19991
19954
19978
19996
19918
19906
19924
19935
19867
19869
19911
19936
19776
19872
19934
19849
19824
19875
19914
19818
19805
19866
19873
19805
19793
19819
19846
19751
19768
19846
19783
19728
19772
19798
19759
19720
19746
19786
19677
19710
19736
19766
19670
19703
19736
19697
19669
19679
19688
19665
19639
19657
19675
19587
19575
19659
19624
19540
19559
19593
19577
19502
19534
19603
19521
19462
19534
19544
19482
19451
19485
19503
19417
19426
19432
19452
19356
19409
19454
19374
19390
19378
19429
19379
19372
19376
19382
19289
19282
19359
19339
19236
19278
19283
19230
19172
19187
19203
19154
19100
19106
19125
19017
19022
19073
19074
18945
18997
19051
19001
18947
19026
19053
18980
18977
19020
19049
18976
18982
19068
19072
18969
19050
19112
19079
19050
19115
19203
19171
19190
19248
19336
19295
19368
19483
19567
19535
19614
19713
19762
19715
19806
19871
19833
19819
19830
19881
19783
19801
19825
19866
19730
19798
19804
19837
19742
19729
19829
19729
19729
19730
19785
19679
19706
19716
19746
19626
19655
19671
19695
19603
19643
19682
19639
19607
19620
19662
19593
19572
19628
19662
19544
19576
19604
19595
19491
19586
19594
19559
19497
19536
19573
19499
19490
19492
19568
19462
19480
19520
19494
19408
19451
19495
19441
19355
19419
19446
19388
19349
19361
19380
19317
19280
19332
19319
19208
19266
19311
19288
19214
19239
19298
19237
19234
19212
19241
19196
19179
19229
19234
19131
19153
19193
19204
19100
19150
19204
19155
19157
19165
19237
19121
19102
19151
19199
19100
19123
19148
19140
19028
19072
19126
19054
19006
19017
19044
18969
18964
18969
18988
18902
18900
18928
18917
18848
18940
18967
18910
18873
18923
18934
18897
18870
18948
18986
18896
18944
18982
19017
18945
19018
19084
19048
19066
19117
19180
19139
19158
19240
19318
19302
19365
19435
19574
19532
19637
19689
19721
19722
19819
19921
19863
19874
19907
19945
19875
19893
19916
19943
19815
19890
19919
19916
19800
19903
19914
19872
19825
19815
19880
19815
19819
19810
19835
19758
19787
19793
19815
19705
19782
19791
19765
19749
19747
19801
19722
19702
19773
19776
19695
19713
19737
19746
19667
19687
19738
19661
19616
19645
19679
19630
19608
19672
19703
19602
19605
19628
19664
19550
19597
19642
19607
19506
19568
19575
19544
19498
19532
19539
19467
19452
19474
19502
19402
19414
19461
19412
19377
19424
19468
19380
19368
19386
19434
19326
19358
19379
19395
19317
19324
19378
19373
19302
19351
19377
19312
19301
19326
19364
19294
19313
19368
19389
19300
19308
19379
19357
19247
19320
19339
19259
19193
19261
19297
19185
19164
19181
19186
19100
19126
19144
19119
19036
19072
19123
19078
19058
19102
19127
19063
19081
19123
19144
19029
19095
19133
19172
19086
19177
19229
19250
19207
19255
19368
19333
19340
19403
19486
19449
19513
19577
19697
19650
19742
19852
19877
19841
19923
19980
19940
19915
19981
19990
19942
19952
19964
20004
19949
19941
19973
19946
19901
19920
19989
19900
19879
19884
19949
19850
19854
19876
19910
19827
19882
19882
19918
19846
19879
19909
19850
19850
19835
19896
19837
19823
19851
19891
19782
19785
19859
19867
19728
19781
19822
19759
19749
19733
19770
19744
19716
19737
19753
19668
19660
19717
19730
19629
19631
19678
19657
19629
19643
19691
19594
19547
19595
19586
19502
19523
19549
19550
19458
19502
19543
19494
19446
19497
19518
19464
19411
19442
19496
19394
19378
19441
19461
19341
19394
19430
19389
19347
19388
19437
19346
19352
19361
19421
19286
19326
19311
19347
19264
19244
19249
19250
19123
19167
19168
19113
19078
19084
19066
18983
18971
18988
19009
18926
18945
18970
19005
18935
18961
19012
18949
18872
18915
18988
18896
18893
18965
19042
18953
18991
19033
19079
19030
19109
19213
19170
19216
19323
19430
19371
19418
19542
19657
19604
19681
19787
19820
19757
19835
19879
19873
19802
19897
19881
19833
19796
19853
19906
19811
19787
19844
19835
19738
19747
19795
19755
19682
19728
19763
19698
19722
19739
19727
19646
19639
19677
19694
19622
19636
19715
19646
19621
19648
19695
19634
19606
19606
19662
19586
19576
19574
19605
19505
19548
19570
19544
19467
19487
19554
19484
19428
19497
19526
19405
19429
19445
19517
19392
19411
19430
19471
19368
19411
19431
19356
19310
19346
19353
19288
19255
19301
19295
19182
19163
19212
19205
19078
19105
19111
19065
19039
19051
19093
19031
19034
19041
19100
19018
19005
19054
19095
19003
18997
19042
18977
18978
19025
19033
18970
18951
18997
19015
18949
18945
18977
19009
18893
18889
18969
18894
18831
18825
18875
18789
18736
18723
18778
18688
18642
18694
18705
18627
18662
18699
18698
18630
18678
18744
18707
18710
18723
18774
18736
18727
18760
18808
18756
18820
18857
18864
18834
18914
18998
18936
18955
19046
19117
19110
19160
19259
19344
19335
19392
19548
19602
19569
19644
19760
19706
19702
19741
19796
19731
19725
19740
19785
19698
19724
19740
19716
19650
19677
19728
19701
19623
19701
19721
19629
19632
19650
19689
19604
19615
19641
19652
19566
19593
19656
19615
19577
19627
19658
19601
19579
19606
19618
19544
19554
19596
19602
19517
19566
19602
19588
19532
19524
19567
19534
19520
19557
19561
19486
19459
19486
19497
19430
19436
19470
19436
19382
19444
19443
19411
19359
19434
19425
19344
19370
19406
19359
19280
19303
19319
19329
19245
19258
19300
19217
19188
19176
19236
19159
19138
19146
19181
19104
19123
19176
19187
19077
19110
19146
19104
19047
19069
19107
19057
19054
19099
19116
19020
19054
19088
19108
19014
19041
19052
19040
18949
18998
18984
18922
18893
18862
18897
18803
18775
18807
18833
18700
18763
18765
18773
18729
18752
18791
18732
18762
18784
18816
18766
18741
18781
18825
18753
18779
18872
18856
18834
18914
18957
18955
18957
19013
19106
19063
19138
19206
19312
19274
19361
19477
19507
19467
19542
19650
19637
19628
19653
19695
19655
19668
19673
19686
19593
19621
19664
19650
19576
19613
19653
19595
19552
19582
19645
19561
19559
19593
19637
19517
19538
19580
19552
19487
19492
19565
19518
19468
19511
19544
19467
19462
19487
19559
19457
19481
19516
19507
19418
19445
19463
19433
19404
19456
19468
19419
19354
19405
19405
19305
19364
19385
19361
19278
19354
19387
19315
19234
19300
19344
19221
19218
19214
19252
19132
19149
19174
19183
19100
19110
19138
19139
19053
19075
19103
19021
19023
19040
19065
19016
18989
19001
19038
18932
18953
19027
19013
18934
18957
19036
18981
18956
18978
19019
18906
18937
18966
18975
18872
18877
18934
18891
18803
18799
18859
18772
18739
18728
18746
18672
18670
18672
18727
18624
18624
18674
18690
18598
18664
18704
18656
18640
18680
18719
18671
18655
18681
18739
18668
18714
18779
18796
18729
18776
18920
18870
18877
18939
18999
18970
19040
19128
19218
19166
19230
19317
19414
19359
19429
19520
19523
19496
19554
19591
19565
19554
19603
19640
19555
19576
19629
19653
19560
19594
19632
19584
19535
19588
19652
19585
19571
19610
19616
19542
19535
19593
19627
19509
19553
19603
19584
19497
19554
19575
19526
19497
19510
19552
19469
19496
19516
19543
19449
19506
19522
19486
19410
19475
19514
19414
19420
19428
19474
19402
19395
19415
19441
19353
19343
19396
19374
19311
19322
19374
19333
19257
19272
19313
19240
19221
19219
19242
19132
19128
19185
19163
19054
19074
19129
19047
19023
19043
19107
19002
19003
19027
19061
18969
18975
19031
19011
18920
18953
18994
18987
18928
18987
18981
18928
18880
18923
18972
18882
18891
18918
18927
18840
18896
18919
18859
18792
18840
18890
18780
18776
18747
18822
18682
18722
18705
18731
18626
18641
18696
18670
18610
18690
18720
18652
18633
18689
18714
18650
18634
18699
18733
18651
18727
18769
18777
18724
18789
18852
18818
18834
18866
18979
18907
18951
19006
19088
19064
19144
19233
19298
19279
19371
19482
19528
19527
19615
19650
19618
19627
19667
19695
19626
19653
19698
19732
19624
19666
19686
19609
19589
19626
19640
19573
19550
19580
19622
19512
19528
19561
19574
19489
19531
19582
19511
19492
19548
19537
19514
19479
19498
19550
19460
19454
19503
19529
19451
19480
19526
19453
19440
19452
19503
19423
19416
19432
19481
19378
19394
19436
19474
19342
19379
19406
19372
19324
19357
19388
19342
19317
19338
19369
19268
19292
19295
19324
19234
19217
19280
19270
19193
19248
19268
19233
19183
19248
19242
19196
19190
19223
19232
19150
19184
19189
19199
19096
19149
19180
19140
19096
19132
19163
19100
19077
19096
19157
19096
19080
19132
19138
19042
19076
19161
19112
19064
19106
19134
19076
19058
19043
19060
18975
18993
18990
18994
18932
18932
18943
18882
18854
18877
18891
18860
18867
18875
18916
18845
18841
18908
18923
18838
18867
18910
18915
18875
18933
18965
18914
18938
18960
19045
18958
18986
19074
19091
19049
19097
19172
19218
19234
19321
19381
19404
19436
19539
19612
19577
19618
19710
19755
19686
19731
19784
19784
19718
19762
19816
19733
19702
19785
19809
19695
19712
19753
19751
19663
19677
19728
19718
19603
19662
19692
19633
19600
19671
19684
19619
19610
19639
19657
19573
19567
19625
19633
19571
19583
19629
19594
19562
19598
19610
19540
19578
19583
19605
19519
19542
19587
19588
19504
19498
19568
19513
19494
19502
19546
19471
19447
19478
19514
19440
19435
19508
19506
19405
19440
19452
19441
19388
19408
19450
19367
19380
19392
19437
19354
19323
19376
19416
19299
19332
19403
19369
19291
19312
19366
19284
19285
19300
19350
19297
19275
19303
19338
19260
19257
19337
19314
19247
19287
19339
19285
19271
19307
19326
19234
19207
19244
19225
19171
19141
19174
19133
19041
19109
19110
19019
19020
19085
19108
19024
19020
19030
19070
18972
19028
19048
19029
18963
19012
19048
19014
19015
19041
19078
19041
19049
19113
19179
19110
19137
19225
19270
19261
19363
19453
19442
19464
19551
19595
19602
19660
19699
19795
19720
19736
19798
19814
19739
19761
19830
19792
19719
19755
19811
19742
19717
19733
19786
19714
19727
19748
19748
19690
19717
19717
19702
19663
19673
19700
19680
19623
19681
19712
19640
19661
19667
19694
19612
19646
19670
19658
19617
19655
19671
19629
19614
19652
19682
19600
19617
19647
19681
19532
19580
19612
19586
19546
19582
19596
19545
19502
19570
19586
19512
19479
19546
19570
19469
19479
19513
19539
19431
19479
19504
19453
19421
19420
19454
19430
19406
19449
19442
19389
19382
19429
19415
19349
19371
19398
19394
19354
19358
19413
19333
19339
19354
19419
19327
19336
19390
19378
19296
19310
19342
19284
19229
19266
19278
19204
19148
19159
19165
19066
19052
19043
19068
18981
19000
19027
18971
18938
18962
19010
18950
18937
18956
19030
18908
18949
18993
19014
18925
18987
19023
18987
19013
19044
19083
19057
19070
19125
19178
19117
19177
19226
19309
19266
19402
19499
19511
19514
19601
19676
19656
19712
19748
19767
19761
19806
19817
19836
19725
19770
19800
19802
19716
19783
19793
19738
19711
19739
19753
19684
19677
19716
19741
19633
19687
19705
19708
19627
19671
19729
19612
19624
19643
19680
19625
19615
19632
19677
19584
19601
19628
19662
19562
19590
19624
19598
19548
19583
19607
19553
19533
19550
19621
19512
19506
19542
19565
19478
19519
19532
19476
19450
19504
19561
19477
19440
19474
19522
19433
19440
19454
19497
19389
19422
19451
19431
19338
19374
19418
19366
19330
19355
19372
19322
19286
19361
19326
19264
19315
19359
19328
19267
19300
19318
19258
19248
19260
19274
19231
19193
19258
19268
19199
19243
19300
19244
19218
19243
19254
19214
19199
19199
19253
19158
19108
19135
19182
19023
19064
19077
19086
18949
19007
19025
18986
18954
19000
19025
18915
18924
18965
18997
18875
18945
18997
18968
18923
18981
19043
18989
18994
19014
19095
19022
19060
19097
19148
19066
19110
19219
19259
19169
19295
19338
19350
19375
19457
19559
19555
19575
19698
19754
19731
19798
19864
19923
19869
19929
19945
19873
19884
19899
19965
19876
19861
19885
19937
19837
19839
19841
19867
19761
19844
19864
19806
19794
19831
19840
19789
19760
19807
19812
19724
19747
19802
19796
19694
19743
19786
19771
19723
19757
19795
19711
19697
19741
19726
19677
19691
19707
19727
19637
19657
19728
19694
19635
19684
19706
19640
19636
19644
19686
19595
19569
19640
19629
19524
19547
19596
19561
19514
19535
19598
19522
19504
19543
19538
19487
19467
19516
19543
19435
19465
19506
19489
19384
19407
19466
19392
19382
19399
19459
19362
19336
19390
19399
19304
19339
19393
19398
19286
19333
19399
19319
19309
19314
19358
19289
19283
19306
19324
19261
19246
19291
19284
19204
19218
19287
19215
19164
19215
19217
19110
19097
19102
19148
19070
19057
19109
19077
19042
19058
19116
19061
19050
19089
19144
19094
19077
19121
19179
19115
19136
19198
19225
19130
19204
19248
19249
19262
19335
19410
19380
19398
19486
19587
19558
19608
19699
19802
19747
19847
19922
19923
19912
19977
20042
19973
19958
19995
20023
19947
19952
19963
19997
19904
19934
19982
19930
19886
19921
19994
19920
19897
19920
19958
19879
19869
19910
19921
19795
19855
19861
19857
19792
19852
19909
19862
19801
19845
19888
19800
19808
19827
19858
19762
19778
19822
19809
19726
19753
19820
19752
19709
19773
19768
19726
19707
19754
19761
19656
19679
19710
19704
19636
19657
19724
19652
19618
19659
19670
19582
19592
19590
19648
19569
19590
19627
19627
19535
19567
19595
19501
19467
19506
19546
19481
19470
19489
19531
19434
19421
19477
19416
19348
19381
19427
19404
19336
19358
19404
19333
19359
19387
19431
19363
19373
19406
19413
19339
19373
19392
19346
19291
19333
19323
19264
19228
19243
19267
19161
19188
19212
19212
19137
19166
19197
19183
19156
19185
19215
19188
19138
19186
19239
19174
19174
19232
19256
19176
19222
19286
19282
19270
19328
19401
19400
19406
19470
19574
19510
19593
19656
19774
19718
19790
19890
19922
19902
19955
19993
19952
19963
19982
20008
19938
19944
19988
19996
19908
19924
19961
19980
19891
19954
19952
19915
19858
19924
19948
19868
19875
19889
19938
19805
19832
19857
19866
19779
19826
19875
19809
19787
19802
19856
19769
19773
19775
19818
19746
19752
19783
19777
19692
19730
19754
19707
19655
19712
19747
19670
19670
19693
19722
19645
19655
19681
19684
19588
19631
19673
19666
19583
19621
19670
19597
19587
19597
19635
19539
19548
19581
19572
19471
19502
19489
19493
19428
19469
19465
19410
19399
19421
19450
19368
19359
19392
19405
19326
19367
19418
19373
19319
19327
19394
19294
19284
19318
19371
19294
19289
19310
19344
19238
19280
19301
19325
19238
19270
19300
19242
19197
19203
19221
19121
19155
19145
19170
19054
19053
19129
19057
18981
19043
19053
19000
18981
19009
19022
18949
18966
19023
19005
18926
18989
19034
19047
18970
19057
19068
19024
19042
19080
19131
19078
19074
19142
19207
19146
19226
19319
19331
19305
19419
19528
19512
19554
19636
19708
19707
19746
19836
19884
19806
19884
19918
19938
19829
19859
19941
19855
19844
19798
19887
19836
19799
19839
19852
19758
19776
19802
19814
19720
19746
19787
19745
19718
19754
19789
19703
19698
19727
19788
19688
19670
19747
19790
19659
19699
19742
19705
19682
19685
19709
19658
19631
19658
19710
19618
19636
19678
19659
19602
19621
19688
19634
19591
19637
19663
19602
19573
19618
19634
19583
19550
19620
19617
19546
19578
19593
19564
19526
19542
19593
19495
19485
19521
19522
19489
19448
19506
19483
19397
19427
19447
19477
19397
19422
19457
19430
19369
19402
19438
19385
19348
19397
19442
19319
19359
19380
19395
19314
19340
19378
19321
19323
19368
19379
19285
19280
19296
19335
19244
19228
19275
19292
19170
19191
19204
19143
19108
19091
19146
19053
19056
19060
19101
19012
19020
19068
19093
18973
19013
19057
18989
18981
19026
19076
19010
19026
19057
19090
19010
19044
19108
19111
19045
19122
19168
19181
19173
19239
19354
19322
19355
19423
19552
19523
19580
19680
19745
19669
19777
19830
19843
19834
19883
19930
19880
19830
19863
19919
19853
19824
19918
19897
19794
19820
19848
19847
19787
19817
19852
19789
19787
19810
19858
19783
19767
19826
19809
19736
19771
19787
19791
19727
19799
19815
19748
19733
19759
19779
19724
19726
19758
19790
19671
19716
19719
19698
19676
19686
19728
19680
19659
19694
19713
19644
19643
19684
19711
19617
19652
19654
19671
19606
19627
19662
19599
19581
19607
19638
19534
19542
19558
19583
19507
19503
19595
19581
19472
19536
19557
19519
19471
19511
19543
19472
19488
19522
19529
19434
19434
19498
19490
19381
19471
19478
19480
19399
19476
19510
19443
19441
19458
19478
19434
19426
19487
19482
19384
19406
19434
19370
19357
19360
19355
19318
19292
19302
19327
19235
19224
19262
19268
19172
19227
19258
19184
19160
19206
19220
19173
19161
19218
19272
19176
19196
19262
19276
19211
19268
19367
19352
19302
19366
19463
19439
19433
19520
19626
19545
19656
19716
19793
19757
19866
19973
19994
19997
20067
20129
20073
20045
20088
20113
20072
20027
20081
20110
20025
20063
20100
20092
19982
20020
20059
19966
19980
19998
20053
19958
19972
20006
20023
19944
19974
20004
20006
19926
19964
20022
19931
19921
19942
19973
19914
19926
19933
19932
19829
19881
19882
