35980
35871
35764
35658
35554
35451
35352
35255
35158
35063
34972
34887
34813
34752
34700
34654
34616
34589
34571
34560
34555
34567
34600
34649
34708
34777
34858
34946
35036
35126
35210
35290
35369
35446
35515
35571
35614
35651
35680
35697
35701
35692
35666
35617
35548
35462
35367
35270
35179
35099
35029
34964
34903
34842
34781
34714
34638
34552
34459
34363
34268
34174
34078
33984
33899
33824
33758
33701
33654
33616
33585
33557
33526
33493
33454
33404
33345
33281
33213
33142
33069
33000
32939
32888
32845
32812
32788
32777
32773
32773
32777
32784
32792
32797
32799
32796
32790
32782
32774
32768
32778
32818
32896
33021
33197
33427
33710
34036
34391
34760
35126
35480
35813
36119
36400
36657
36881
37063
37202
37302
37364
37386
37379
37352
37309
37257
37198
37135
37064
36988
36909
36826
36743
36663
36590
36524
36461
36405
36352
36298
36242
36183
36122
36061
36000
35939
35878
35816
35752
35687
35625
35573
35535
35518
35523
35547
35582
35627
35686
35755
35824
35895
35971
36052
36135
36215
36290
36355
36406
36444
36470
36479
36466
36436
36397
36357
36315
36271
36222
36166
36103
36033
35958
35878
35794
35710
35623
35531
35436
35340
35240
35138
35037
34936
34835
34738
34652
34582
34527
34483
34445
34405
34356
34294
34220
34134
34038
33938
33835
33733
33631
33531
33437
33354
33282
33223
33178
33144
33120
33104
33089
33071
33048
33016
32980
32937
32889
32837
32784
32732
32681
32635
32602
32582
32583
32606
32654
32730
32838
32973
33126
33295
33477
33670
33874
34084
34297
34510
34716
34912
35095
35255
35384
35487
35566
35624
35661
35679
35682
35678
35668
35650
35628
35608
35591
35573
35552
35532
35518
35509
35500
35494
35490
35487
35484
35482
35479
35477
35473
35468
35466
35465
35462
35458
35453
35446
35438
35431
35423
35414
35407
35405
35414
35433
35458
35485
35516
35554
35596
35638
35679
35717
35753
35785
35808
35821
35824
35815
35795
35766
35734
35697
35655
35612
35572
35537
35507
35480
35458
35442
35428
35414
35397
35374
35342
35303
35254
35195
35133
35074
35022
34973
34927
34889
34859
34827
34793
34763
34739
34716
34695
34676
34656
34635
34613
34587
34560
34533
34511
34492
34474
34463
34462
34472
34486
34506
34527
34543
34551
34548
34541
34533
34521
34504
34484
34466
34449
34434
34421
34411
34400
34392
34391
34401
34428
34474
34545
34647
34787
34967
35178
35411
35658
35913
36168
36417
36651
36865
37057
37220
37353
37458
37538
37597
37640
37667
37681
37684
37678
37664
37651
37639
37627
37613
37596
37572
37542
37511
37482
37456
37434
37417
37402
37387
37372
37357
37341
37322
37304
37289
37276
37262
37249
37239
37226
37208
37187
37164
37139
37113
37088
37068
37055
37049
37054
37073
37102
37137
37174
37208
37241
37274
37306
37335
37355
37365
37364
37357
37342
37323
37302
37277
37252
37230
37212
37197
37181
37164
37144
37121
37097
37066
37029
36988
36947
36904
36857
36804
36747
36687
36630
36579
36529
36478
36429
36381
36334
36286
36237
36188
36137
36083
36025
35965
35907
35846
35787
35732
35682
35642
35610
35586
35572
35566
35563
35565
35573
35586
35598
35605
35602
35586
35559
35526
35491
35456
35422
35388
35354
35321
35289
35257
35231
35207
35187
35175
35172
35187
35223
35285
35375
35494
35641
35812
36006
36217
36442
36675
36910
37142
37364
37568
37757
37926
38073
38198
38303
38387
38449
38487
38501
38496
38479
38448
38410
38368
38324
38279
38234
38191
38152
38115
38084
38058
38038
38023
38013
38008
38005
38001
37994
37981
37961
37936
37910
37883
37854
37823
37787
37745
37699
37654
37615
37580
37550
37529
37518
37514
37517
37526
37540
37557
37579
37603
37627
37648
37668
37688
37708
37721
37729
37732
37728
37718
37702
37682
37659
37633
37606
37577
37542
37505
37467
37425
37376
37322
37267
37210
37151
37091
37037
36996
36963
36935
36912
36892
36872
36852
36834
36817
36799
36782
36768
36753
36737
36720
36702
36680
36652
36618
36584
36554
36527
36499
36469
36439
36410
36386
36361
36332
36301
36272
36243
36213
36182
36151
36122
36099
36085
36075
36067
36059
36052
36043
36032
36016
35992
35963
35933
35908
35890
35879
35870
35860
35845
35829
35820
35819
35826
35849
35898
35975
36081
36214
36372
36552
36749
36960
37178
37396
37615
37831
38038
38230
38407
38571
38717
38840
38935
39003
39049
39074
39078
39060
39026
38983
38939
38897
38858
38824
38797
38780
38767
38755
38742
38732
38724
38718
38711
38701
38691
38683
38677
38667
38652
38637
38623
38608
38589
38568
38548
38531
38521
38514
38512
38513
38515
38518
38527
38540
38556
38578
38605
38634
38666
38703
38741
38775
38804
38828
38845
38855
38856
38850
38837
38822
38808
38793
38776
38755
38731
38708
38684
38655
38626
38597
38568
38536
38505
38474
38443
38414
38385
38353
38322
38288
38250
38207
38156
38098
38038
37979
37923
37876
37840
37815
37795
37779
37767
37759
37750
37737
37722
37705
37683
37661
37645
37634
37620
37604
37592
37576
37556
37530
37502
37472
37443
37420
37405
37400
37399
37396
37393
37391
37390
37390
37388
37379
37357
37325
37284
37241
37200
37160
37123
37088
37058
37033
37020
37023
37044
37089
37165
37279
37432
37622
37845
38097
38367
38643
38909
39161
39394
39604
39788
39950
40090
40206
40298
40371
40425
40460
40475
40471
40452
40424
40392
40353
40307
40252
40186
40115
40041
39966
39892
39821
39755
39697
39643
39590
39538
39488
39440
39396
39353
39312
39273
39237
39205
39174
39146
39124
39106
39093
39086
39085
39088
39095
39109
39135
39175
39226
39286
39351
39415
39473
39521
39561
39589
39603
39604
39594
39577
39558
39539
39524
39511
39494
39472
39445
39413
39374
39327
39276
39220
39162
39107
39057
39011
38965
38915
38863
38806
38744
38680
38615
38549
38483
38416
38348
38283
38224
38174
38127
38081
38035
37991
37945
37900
37863
37833
37807
37784
37766
37753
37741
37727
37707
37686
37668
37651
37636
37622
37611
37603
37596
37586
37573
37556
37532
37497
37456
37414
37370
37327
37284
37241
37193
37142
37087
37032
36979
36922
36860
36795
36732
36681
36646
36636
36656
36713
36818
36976
37187
37443
37734
38049
38381
38719
39055
39381
39692
39977
40224
40433
40605
40743
40848
40922
40970
40993
40990
40967
40926
40870
40800
40716
40623
40530
40439
40347
40256
40165
40080
40001
39926
39849
39771
39699
39634
39569
39501
39438
39379
39320
39266
39219
39176
39136
39100
39075
39058
39047
39047
39056
39074
39097
39129
39171
39220
39276
39336
39398
39457
39508
39550
39578
39595
39605
39613
39614
39607
39598
39588
39573
39550
39521
39486
39446
39401
39348
39288
39225
39163
39099
39035
38969
38901
38838
38780
38720
38657
38591
38523
38458
38395
38333
38273
38218
38166
38120
38078
38038
37996
37950
37899
37845
37787
37733
37689
37656
37629
37604
37584
37566
37548
37529
37511
37493
37473
37451
37433
37420
37413
37409
37407
37404
37396
37381
37363
37342
37318
37290
37261
37235
37214
37197
37178
37157
37135
37113
37091
37064
37034
37001
36965
36929
36893
36855
36817
36784
36766
36772
36810
36888
37015
37192
37413
37675
37976
38306
38654
39012
39364
39698
40002
40268
40496
40685
40837
40956
41045
41106
41141
41155
41150
41127
41087
41032
40965
40891
40813
40734
40657
40582
40512
40446
40382
40316
40250
40186
40125
40074
40033
39998
39965
39926
39883
39839
39795
39746
39693
39645
39604
39572
39551
39542
39544
39556
39574
39600
39633
39668
39706
39746
39789
39833
39878
39923
39964
39998
40020
40034
40042
40043
40034
40016
39988
39953
39915
39877
39836
39792
39747
39698
39645
39589
39536
39488
39443
39401
39358
39311
39257
39200
39139
39074
39010
38948
38885
38820
38755
38693
38632
38570
38506
38440
38373
38305
38245
38197
38159
38128
38105
38088
38076
38062
38047
38032
38020
38005
37986
37965
37944
37921
37899
37881
37866
37855
37845
37835
37824
37810
37791
37770
37748
37722
37698
37676
37655
37632
37607
37582
37555
37525
37491
37454
37415
37377
37341
37308
37279
37254
37232
37207
37175
37136
37094
37051
37012
36983
36972
36988
37043
37142
37288
37484
37730
38021
38342
38681
39029
39373
39702
40005
40282
40527
40737
40912
41053
41162
41241
41288
41307
41301
41277
41240
41193
41135
41068
40992
40910
40827
40745
40664
40581
40499
40425
40362
40308
40260
40215
40171
40127
40082
40034
39985
39934
39885
39839
39797
39761
39731
39711
39699
39692
39689
39691
39700
39719
39746
39775
39805
39838
39878
39922
39967
40009
40045
40074
40098
40120
40138
40150
40155
40151
40140
40120
40093
40059
40023
39985
39942
39894
39843
39789
39732
39673
39611
39546
39477
39409
39342
39275
39212
39153
39097
39043
38991
38942
38889
38830
38767
38703
38638
38572
38508
38450
38398
38350
38307
38273
38250
38231
38213
38191
38164
38135
38108
38079
38046
38015
37988
37966
37945
37922
37898
37874
37851
37826
37796
37763
37730
37692
37655
37626
37603
37585
37566
37543
37519
37491
37459
37428
37397
37365
37333
37297
37255
37209
37161
37113
37066
37019
36975
36934
36896
36857
36815
36771
36726
36685
36654
36636
36639
36674
36751
36878
37066
37316
37624
37972
38350
38741
39127
39498
39847
40170
40463
40722
40943
41126
41269
41378
41453
41497
41514
41505
41475
41426
41359
41279
41188
41089
40990
40895
40801
40706
40612
40521
40432
40346
40265
40188
40114
40042
39968
39893
39814
39731
39651
39577
39514
39466
39430
39404
39384
39371
39365
39367
39376
39395
39424
39464
39515
39573
39635
39697
39754
39803
39845
39882
39909
39925
39936
39945
39951
39954
39956
39954
39948
39938
39926
39910
39888
39855
39812
39760
39703
39641
39569
39488
39405
39320
39230
39141
39056
38976
38899
38825
38755
38684
38609
38533
38462
38396
38336
38284
38234
38183
38129
38076
38022
37962
37897
37830
37761
37687
37614
37549
37494
37449
37414
37384
37360
37340
37324
37311
37300
37287
37274
37258
37236
37211
37185
37158
37132
37108
37083
37052
37014
36974
36937
36900
36863
36829
36796
36762
36726
36692
36660
36627
36593
36557
36515
36467
36414
36359
36307
36256
36207
36166
36135
36121
36133
36180
36272
36411
36603
36851
37152
37499
37878
38270
38660
39034
39384
39703
39990
40245
40469
40661
40819
40945
41046
41120
41161
41171
41153
41111
41048
40967
40871
40765
40651
40532
40410
40290
40176
40069
39964
39856
39746
39632
39514
39393
39267
39137
39012
38892
38782
38685
38604
38540
38491
38453
38425
38406
38400
38411
38439
38482
38542
38619
38706
38798
38892
38986
39075
39156
39229
39294
39348
39394
39433
39467
39495
39512
39517
39514
39501
39474
39435
39388
39335
39276
39213
39152
39094
39035
38975
38914
38849
38777
38700
38620
38537
38450
38361
38271
38181
38092
38010
37936
37870
37809
37751
37694
37637
37579
37522
37468
37417
37365
37309
37247
37184
37121
37058
36995
36938
36889
36849
36816
36786
36757
36733
36713
36698
36684
36677
36672
36666
36659
36656
36655
36651
36645
36640
36632
36616
36592
36563
36530
36496
36466
36438
36415
36393
36374
36356
36336
36315
36294
36269
36238
36204
36171
36150
36147
36174
36238
36345
36501
36713
36980
37295
37648
38026
38413
38796
39169
39525
39858
40160
40427
40655
40842
40990
41103
41182
41226
41236
41218
41180
41125
41055
40970
40876
40777
40669
40553
40432
40305
40178
40057
39943
39834
39728
39628
39534
39446
39359
39271
39186
39105
39026
38953
38887
38831
38784
38744
38708
38678
38657
38646
38647
38664
38700
38757
38833
38922
39021
39128
39235
39331
39412
39479
39536
39583
39624
39655
39674
39682
39680
39671
39654
39628
39592
39551
39506
39458
39405
39347
39283
39216
39148
39079
39007
38930
38845
38758
38672
38589
38513
38447
38387
38328
38267
38205
38144
38080
38013
37941
37868
37797
37727
37657
37588
37529
37480
37440
37404
37372
37340
37307
37271
37233
37196
37163
37134
37109
37085
37063
37043
37025
37007
36990
36967
36942
36916
36890
36865
36842
36819
36795
36768
36742
36719
36696
36671
36644
36615
36589
36565
36537
36502
36465
36425
36377
36328
36284
36248
36220
36205
36208
36236
36302
36418
36590
36821
37106
37437
37803
38193
38592
38988
39365
39716
40037
40325
40578
40794
40972
41115
41222
41295
41338
41353
41341
41307
41257
41192
41117
41034
40945
40851
40756
40661
40566
40467
40367
40268
40167
40065
39962
39860
39760
39664
39572
39482
39394
39310
39234
39167
39105
39043
38986
38935
38890
38858
38845
38852
38878
38918
38971
39036
39106
39180
39255
39329
39403
39473
39530
39578
39620
39659
39691
39718
39741
39758
39767
39769
39763
39745
39717
39678
39626
39563
39492
39412
39323
39227
39132
39037
38944
38852
38760
38666
38573
38480
38386
38292
38200
38105
38013
37929
37854
37787
37724
37664
37608
37556
37510
37465
37419
37375
37333
37291
37242
37192
37142
37091
37040
36995
36957
36925
36903
36890
36879
36869
36858
36847
36833
36813
36788
36757
36721
36686
36655
36628
36604
36585
36570
36557
36545
36532
36518
36502
36481
36455
36424
36391
36352
36307
36258
36208
36156
36105
36062
36032
36022
36041
36099
36207
36368
36583
36850
37157
37496
37864
38253
38650
39041
39410
39751
40058
40329
40559
40746
40892
40996
41061
41093
41094
41071
41029
40973
40905
40824
40736
40642
40544
40442
40332
40216
40098
39976
39851
39724
39593
39459
39324
39191
39065
38945
38827
38714
38604
38496
38393
38295
38204
38126
38067
38028
38008
38004
38021
38058
38110
38176
38255
38345
38441
38541
38644
38749
38853
38956
39059
39159
39250
39329
39393
39437
39462
39471
39468
39454
39427
39391
39348
39299
39245
39187
39124
39056
38981
38902
38823
38741
38653
38561
38466
38369
38272
38180
38096
38020
37949
37883
37822
37767
37716
37666
37612
37555
37498
37447
37401
37361
37322
37286
37249
37215
37185
37159
37131
37101
37073
37048
37026
37008
36991
36978
36967
36956
36942
36921
36890
36854
36817
36779
36746
36716
36687
36660
36635
36614
36595
36572
36546
36521
36498
36473
36448
36428
36414
36410
36416
36436
36476
36542
36645
36796
36999
37251
37543
37865
38209
38564
38918
39257
39573
39858
40112
40333
40519
40667
40779
40861
40917
40948
40958
40953
40935
40900
40849
40783
40701
40600
40485
40362
40235
40106
39975
39850
39733
39623
39518
39417
39315
39213
39108
38999
38889
38779
38674
38573
38477
38393
38324
38270
38234
38216
38214
38226
38252
38298
38364
38444
38536
38638
38749
38864
38981
39100
39213
39314
39399
39468
39521
39561
39586
39597
39595
39580
39553
39517
39477
39434
39390
39344
39299
39251
39196
39135
39064
38984
38897
38808
38717
38623
38525
38432
38348
38271
38200
38134
38072
38009
37942
37878
37818
37755
37686
37616
37547
37482
37422
37365
37312
37261
37214
37173
37141
37112
37085
37061
37035
37003
36967
36933
36902
36874
36851
36836
36826
36818
36807
36792
36770
36742
36714
36685
36653
36620
36592
36570
36548
36528
36512
36499
36486
36476
36468
36459
36462
36487
36548
36656
36821
37045
37323
37642
37994
38367
38747
39120
39476
39810
40123
40407
40655
40867
41041
41174
41268
41331
41365
41373
41358
41322
41269
41204
41129
41044
40948
40846
40738
40631
40527
40426
40330
40235
40138
40037
39929
39816
39697
39575
39455
39343
39242
39150
39067
38992
38922
38859
38809
38774
38753
38747
38757
38780
38818
38871
38937
39016
39104
39196
39291
39385
39476
39565
39653
39734
39801
39851
39888
39913
39922
39913
39893
39865
39831
39792
39750
39703
39649
39591
39533
39471
39409
39351
39296
39241
39184
39121
39047
38961
38867
38767
38663
38561
38461
38363
38268
38179
38100
38030
37963
37899
37839
37781
37727
37681
37641
37605
37571
37537
37502
37465
37428
37390
37353
37317
37280
37245
37212
37184
37159
37134
37111
37089
37068
37043
37016
36989
36965
36943
36925
36908
36888
36866
36845
36821
36793
36755
36714
36677
36647
36625
36615
36620
36644
36694
36786
36927
37122
37367
37660
37991
38353
38735
39124
39509
39881
40225
40532
40799
41028
41221
41378
41500
41590
41652
41687
41692
41667
41619
41551
41468
41372
41271
41168
41065
40961
40855
40748
40642
40536
40429
40321
40216
40119
40027
39939
39854
39773
39692
39612
39530
39448
39367
39290
39222
39166
39123
39094
39082
39081
39091
39118
39158
39208
39271
39341
39418
39501
39587
39674
39758
39829
39883
39918
39939
39949
39954
39955
39952
39948
39938
39919
39890
39849
39796
39740
39683
39623
39557
39487
39415
39339
39256
39163
39064
38967
38876
38787
38699
38614
38530
38448
38367
38283
38200
38122
38053
37992
37933
37871
37806
37740
37673
37608
37548
37497
37451
37410
37372
37336
37304
37273
37248
37228
37209
37190
37166
37135
37098
37053
36999
36934
36862
36797
36745
36703
36670
36649
36636
36624
36609
36588
36561
36529
36495
36464
36444
36431
36425
36434
36471
36546
36665
36832
37049
37312
37617
37956
38313
38675
39032
39385
39725
40040
40323
40571
40787
40969
41110
41205
41255
41268
41252
41214
41156
41077
40982
40876
40762
40635
40502
40367
40231
40096
39967
39848
39739
39637
39536
39429
39315
39197
39079
38965
38858
38761
38672
38590
38516
38450
38392
38342
38305
38283
38273
38271
38279
38305
38341
38380
38418
38455
38492
38532
38573
38614
38653
38689
38718
38735
38742
38744
38740
38728
38712
38690
38656
38613
38564
38504
38432
38355
38278
38205
38137
38072
38007
37945
37884
37822
37757
37688
37617
37548
37479
37414
37357
37307
37261
37216
37171
37125
37080
37036
36998
36966
36940
36918
36899
36882
36863
36839
36807
36768
36729
36694
36667
36649
36634
36620
36606
36594
36581
36568
36557
36551
36547
36541
36535
36530
36525
36520
36513
36500
36482
36457
36431
36408
36391
36378
36373
36377
36393
36428
36495
36603
36756
36955
37202
37492
37817
38165
38520
38875
39221
39547
39848
40121
40361
40566
40738
40879
40987
41056
41089
41091
41060
41001
40918
40818
40706
40590
40476
40362
40247
40134
40021
39909
39795
39679
39565
39455
39347
39240
39132
39025
38918
38814
38715
38622
38533
38455
38390
38344
38314
38299
38298
38307
38329
38363
38409
38466
38531
38603
38678
38750
38818
38883
38947
39009
39069
39126
39176
39216
39250
39279
39299
39306
39300
39282
39253
39217
39176
39131
39078
39017
38951
38879
38802
38723
38643
38565
38492
38421
38351
38280
38205
38128
38053
37976
37905
37845
37792
37739
37684
37630
37579
37534
37497
37465
37438
37413
37387
37358
37325
37289
37248
37202
37155
37113
37080
37054
37031
37008
36984
36962
36945
36934
36930
36928
36920
36905
36886
36871
36858
36844
36829
36818
36818
36834
36878
36958
37079
37249
37473
37746
38053
38378
38717
39066
39415
39759
40087
40386
40644
40860
41040
41187
41300
41378
41425
41449
41449
41423
41375
41311
41236
41152
41062
40965
40867
40769
40668
40564
40456
40345
40228
40105
39980
39858
39738
39622
39511
39406
39310
39217
39132
39061
39002
38955
38921
38897
38884
38882
38890
38912
38949
38996
39055
39121
39193
39272
39356
39443
39527
39608
39687
39764
39833
39894
39942
39975
39993
39998
39987
39962
39926
39877
39820
39755
39690
39628
39568
39508
39447
39386
39321
39252
39177
39098
39017
38932
38845
38758
38671
38588
38515
38450
38393
38345
38301
38254
38202
38149
38100
38053
38008
37967
37932
37904
37882
37865
37846
37826
37804
37779
37750
37722
37699
37683
37673
37666
37663
37660
37653
37640
37619
37595
37571
37547
37521
37495
37468
37439
37412
37388
37376
37380
37412
37485
37606
37777
38005
38284
38605
38955
39322
39694
40065
40427
40768
41075
41353
41599
41807
41973
42099
42192
42254
42288
42294
42273
42223
42150
42064
41967
41866
41767
41666
41566
41468
41372
41276
41178
41079
40986
40905
40831
40758
40686
40616
40546
40473
40399
40328
40262
40201
40147
40103
40071
40053
40048
40051
40065
40089
40125
40169
40219
40272
40332
40397
40463
40528
40593
40659
40721
40770
40805
40825
40834
40837
40833
40821
40801
40777
40748
40713
40670
40618
40559
40495
40435
40380
40329
40278
40227
40175
40122
40068
40015
39964
39912
39859
39805
39751
39695
39637
39576
39513
39447
39378
39305
39235
39171
39114
39066
39028
38997
38966
38933
38899
38865
38833
38805
38781
38762
38746
38732
38717
38699
38677
38654
38630
38605
38581
38559
38538
38513
38482
38451
38423
38395
38360
38324
38291
38263
38248
38251
38285
38359
38478
38649
38876
39152
39467
39810
40172
40543
40917
41284
41633
41955
42248
42510
42736
42924
43080
43205
43296
43352
43375
43370
43340
43289
43223
43144
43056
42963
42869
42775
42684
42596
42516
42447
42388
42336
42290
42246
42198
42148
42096
42038
41978
41919
41862
41804
41749
41699
41656
41618
41586
41562
41551
41555
41570
41592
41624
41664
41713
41765
41818
41871
41925
41976
42018
42050
42072
42085
42084
42073
42056
42035
42012
41990
41966
41937
41901
41858
41812
41764
41711
41650
41580
41507
41430
41353
41274
41194
41114
41031
40942
40850
40755
40658
40563
40476
40393
40318
40252
40193
40142
40096
40053
40007
39957
39904
39850
39798
39748
39698
39650
39606
39567
39534
39509
39486
39463
39441
39421
39403
39384
39360
39333
39306
39279
39255
39233
39214
39195
39176
39158
39137
39109
39076
39042
39009
38977
38951
38934
38926
38927
38941
38971
39026
39115
39248
39433
39673
39963
40291
40646
41015
41390
41759
42110
42435
42727
42984
43206
43391
43537
43644
43712
43740
43738
43711
43662
43596
43522
43441
43353
43262
43168
43072
42976
42884
42802
42731
42667
42606
42548
42488
42422
42349
42270
42189
42109
42035
41967
41908
41853
41801
41755
41715
41681
41656
41645
41647
41665
41698
41743
41799
41863
41929
41994
42055
42108
42159
42213
42267
42315
42360
42400
42432
42453
42462
42458
42437
42400
42354
42303
42246
42183
42112
42034
41953
41866
41777
41690
41605
41522
41435
41351
41271
41192
41107
41016
40922
40827
40737
40650
40564
40482
40406
40336
40276
40226
40183
40147
40115
40086
40061
40042
40025
40012
40000
39982
39952
39914
39877
39845
39818
39800
39788
39778
39769
39760
39751
39740
39724
39704
39681
39658
39635
39613
39590
39564
39533
39500
39466
39431
39398
39369
39348
39340
39353
39389
39452
39550
39690
39877
40116
40401
40718
41055
41407
41760
42106
42436
42739
43007
43239
43436
43597
43723
43820
43887
43923
43930
43911
43868
43806
43728
43642
43554
43467
43383
43302
43220
43132
43037
42939
42842
42744
42640
42533
42424
42311
42198
42086
41975
41871
41775
41693
41628
41576
41534
41504
41491
41499
41523
41562
41614
41678
41748
41821
41893
41963
42030
42094
42155
42217
42276
42329
42371
42397
42409
42411
42401
42373
42329
42269
42197
42120
42044
41964
41881
41798
41715
41629
41541
41456
41377
41304
41239
41180
41122
41065
41010
40955
40899
40843
40787
40728
40669
40609
40548
40487
40429
40375
40327
40283
40241
40200
40162
40126
40090
40053
40018
39986
39956
39924
39891
39866
39849
39837
39829
39822
39818
39813
39805
39793
39775
39752
39728
39703
39675
39644
39609
39572
39533
39498
39469
39443
39418
39394
39371
39351
39341
39342
39357
39390
39449
39547
39688
39879
40122
40414
40746
41111
41497
41890
42278
42652
43000
43313
43590
43831
44035
44200
44326
44416
44472
44501
44506
44485
44442
44379
44301
44213
44116
44013
43909
43805
43707
43618
43541
43473
43414
43365
43319
43269
43211
43149
43087
43024
42959
42895
42835
42779
42731
42694
42669
42652
42641
42634
42637
42655
42690
42737
42793
42852
42915
42980
43040
43091
43134
43170
43196
43210
43216
43220
43216
43204
43188
43169
43142
43103
43055
43000
42936
42866
42794
42725
42658
42595
42534
42469
42396
42315
42226
42130
42034
41938
41842
41746
41655
41570
41491
41419
41349
41280
41215
41156
41102
41052
41004
40957
40912
40869
40829
40787
40745
40705
40668
40633
40597
40561
40527
40494
40466
40440
40418
40400
40383
40368
40355
40339
40318
40293
40267
40240
40208
40173
40139
40108
40080
40055
40032
40006
39977
39943
39903
39860
39813
39765
39718
39679
39651
39631
39622
39633
39671
39744
39862
40034
40268
40562
40903
41281
41680
42087
42493
42891
43270
43620
43929
44189
44403
44572
44696
44777
44820
44830
44818
44788
44745
44690
44623
44544
44455
44363
44273
44183
44093
44006
43927
43857
43800
43756
43723
43695
43664
43623
43569
43505
43432
43353
43276
43209
43155
43112
43082
43059
43041
43024
43015
43013
43023
43042
43068
43099
43135
43178
43225
43271
43310
43339
43359
43369
43367
43353
43330
43302
43271
43241
43215
43192
43164
43127
43087
43046
43003
42957
42905
42847
42781
42708
42629
42541
42443
42338
42236
42147
42066
41985
41902
41819
41736
41658
41584
41513
41440
41366
41296
41230
41171
41125
41086
41049
41014
40980
40944
40907
40868
40830
40794
40762
40728
40693
40656
40613
40562
40511
40458
40405
40352
40301
40252
40205
40162
40122
40084
40040
39988
39932
39879
39829
39786
39751
39721
39695
39670
39646
39620
39588
39550
39509
39463
39410
39354
39299
39245
39197
39158
39124
39097
39085
39099
39147
39238
39384
39593
39866
40192
40559
40958
41378
41805
42226
42629
43005
43343
43640
43897
44113
44288
44422
44517
44576
44602
44599
44570
44522
44461
44388
44304
44215
44124
44033
43944
43858
43773
43689
43610
43536
43469
43407
43347
43290
43235
43179
43123
43066
43004
42940
42875
42814
42759
42716
42683
42660
42648
42646
42653
42665
42682
42705
42734
42767
42805
42848
42895
42942
42984
43020
43048
43066
43072
43066
43049
43023
42992
42960
42926
42888
42845
42792
42726
42651
42574
42496
42416
42336
42256
42176
42095
42011
41924
41833
41738
41640
41538
41438
41343
41252
41165
41085
41012
40946
40887
40830
40773
40720
40670
40620
40571
40522
40474
40432
40396
40361
40324
40284
40245
40209
40177
40148
40121
40092
40059
40025
39996
39970
39946
39918
39889
39866
39848
39831
39814
39795
39776
39761
39748
39731
39711
39688
39662
39635
39608
39580
39547
39512
39478
39445
39415
39393
39380
39369
39360
39357
39359
39370
39394
39436
39505
39616
39783
40010
40295
40624
40982
41355
41738
42123
42500
42858
43188
43485
43745
43967
44147
44288
44395
44467
44505
44514
44497
44458
44396
44313
44216
44110
43993
43870
43749
43634
43522
43417
43318
43219
43119
43023
42933
42842
42746
42647
42549
42453
42362
42275
42197
42125
42059
42004
41964
41935
41917
41917
41934
41962
41999
42048
42111
42180
42250
42320
42391
42461
42523
42574
42615
42651
42681
42701
42715
42723
42721
42709
42686
42651
42606
42551
42486
42413
42332
42248
42162
42072
41977
41881
41784
41686
41586
41483
41380
41275
41174
41083
41003
40935
40875
40819
40761
40700
40634
40568
40507
40455
40405
40358
40317
40279
40240
40200
40159
40118
40079
40045
40020
40006
40001
40003
40007
40009
40006
39999
39989
39975
39957
39937
39913
39890
39870
39851
39828
39804
39781
39762
39743
39722
39699
39679
39665
39655
39645
39632
39615
39588
39552
39511
39469
39426
39382
39338
39293
39250
39218
39212
39242
39314
39435
39611
39848
40141
40474
40832
41208
41595
41982
42357
42712
43035
43322
43575
43792
43963
44088
44172
44222
44242
44236
44208
44160
44091
44006
43911
43807
43697
43584
43471
43363
43261
43164
43073
42986
42900
42813
42726
42638
42547
42452
42358
42265
42173
42086
42010
41945
41887
41832
41786
41751
41729
41716
41717
41736
41768
41816
41878
41949
42025
42102
42171
42233
42288
42335
42378
42421
42463
42500
42531
42553
42562
42558
42535
42491
42431
42363
42288
42207
42124
42039
41954
41863
41763
41657
41552
41453
41363
41278
41197
41116
41035
40953
40870
40788
40709
40637
40572
40509
40447
40389
40336
40287
40243
40205
40176
40149
40118
40076
40030
39989
39951
39914
39881
39853
39832
39815
39798
39777
39751
39720
39688
39656
39626
39603
39584
39566
39545
39523
39497
39468
39437
39404
39375
39353
39336
39322
39307
39292
39276
39252
39221
39189
39156
39124
39093
39061
39027
38991
38956
38923
38885
38835
38776
38715
38657
38606
38567
38543
38537
38556
38617
38736
38921
39176
39501
39886
40311
40757
41210
41652
42075
42477
42851
43188
43483
43734
43940
44101
44222
44304
44348
44357
44336
44291
44228
44151
44065
43974
43877
43775
43673
43572
43475
43381
43287
43190
43093
42994
42895
42798
42699
42599
42496
42387
42275
42162
42051
41947
41858
41787
41729
41681
41645
41623
41616
41626
41649
41678
41709
41741
41776
41814
41853
41894
41935
41974
42006
42026
42037
42039
42032
42024
42015
42001
41982
41962
41937
41902
41856
41803
41745
41679
41600
41511
41417
41321
41223
41129
41041
40956
40877
40804
40735
40666
40599
40533
40467
40398
40324
40249
40174
40102
40031
39962
39895
39836
39779
39721
39666
39614
39563
39512
39464
39419
39374
39333
39296
39264
39233
39199
39160
39115
39067
39022
38986
38959
38940
38927
38918
38912
38908
38900
38890
38878
38866
38853
38836
38815
38791
38760
38728
38700
38671
38637
38594
38547
38497
38444
38388
38331
38274
38218
38165
38113
38062
38014
37967
37921
37873
37827
37782
37746
37728
37738
37788
37888
38047
38268
38549
38887
39275
39699
40140
40582
41014
41425
41808
42156
42462
42721
42931
43096
43217
43299
43345
43364
43358
43331
43287
43224
43141
43042
42929
42808
42682
42554
42426
42299
42170
42043
41921
41804
41688
41573
41463
41355
41247
41136
41028
40931
40846
40774
40712
40654
40602
40559
40526
40497
40474
40460
40454
40456
40464
40481
40508
40544
40585
40628
40676
40728
40779
40823
40855
40880
40898
40914
40925
40928
40922
40905
40878
40840
40793
40740
40680
40614
40540
40462
40381
40299
40220
40147
40078
40007
39929
39846
39761
39679
39604
39539
39481
39426
39371
39310
39246
39183
39125
39071
39018
38964
38910
38859
38814
38776
38748
38726
38707
38690
38673
38652
38628
38605
38584
38562
38543
38527
38510
38496
38484
38474
38463
38452
38442
38431
38417
38398
38375
38350
38321
38289
38257
38225
38197
38171
38145
38122
38102
38082
38062
38040
38015
37990
37969
37954
37942
37931
37920
37909
37897
37881
37864
37854
37857
37879
37931
38030
38186
38400
38669
38989
39352
39747
40157
40561
40942
41293
41616
41914
42180
42415
42617
42785
42917
43013
43075
43104
43098
43061
43001
42922
42827
42716
42592
42462
42327
42188
42045
41897
41752
41611
41476
41347
41218
41089
40959
40830
40705
40585
40475
40374
40279
40192
40116
40055
40006
39969
39945
39935
39940
39960
39995
40046
40107
40176
40248
40325
40406
40488
40569
40643
40706
40760
40805
40838
40859
40869
40870
40862
40840
40811
40779
40744
40704
40654
40592
40521
40445
40365
40275
40179
40083
39986
39888
39792
39700
39613
39530
39447
39368
39297
39234
39176
39117
39055
38993
38933
38873
38812
38755
38704
38658
38620
38584
38551
38520
38489
38457
38423
38390
38357
38325
38298
38274
38251
38233
38219
38205
38189
38175
38163
38154
38146
38134
38118
38099
38080
38058
38035
38013
37993
37975
37958
37944
37934
37920
37902
37882
37855
37819
37775
37730
37691
37657
37624
37590
37556
37524
37497
37480
37480
37510
37585
37718
37920
38190
38515
38887
39294
39721
40152
40566
40950
41300
41617
41896
42136
42337
42503
42636
42733
42792
42818
42810
42774
42713
42623
42507
42376
42240
42101
41954
41804
41652
41502
41358
41221
41086
40956
40829
40706
40587
40471
40360
40257
40161
40069
39982
39903
39833
39772
39723
39684
39660
39654
39667
39697
39744
39804
39869
39934
39995
40054
40113
40177
40239
40296
40349
40399
40445
40481
40505
40518
40522
40514
40492
40461
40426
40388
40348
40300
40242
40176
40110
40041
39968
39890
39810
39732
39660
39598
39542
39486
39425
39359
39292
39230
39171
39115
39061
39008
38957
38905
38852
38801
38753
38707
38661
38615
38576
38546
38519
38493
38466
38436
38406
38379
38354
38332
38315
38301
38289
38279
38274
38271
38269
38265
38259
38247
38233
38216
38196
38173
38148
38128
38113
38104
38095
38085
38071
38054
38033
38009
37980
37950
37922
37896
37869
37841
37813
37783
37752
37722
37690
37652
37605
37556
37514
37489
37494
37539
37633
37784
37996
38266
38586
38954
39364
39799
40241
40674
41081
41459
41810
42129
42409
42643
42831
42973
43073
43132
43153
43146
43115
43064
42996
42915
42817
42702
42571
42427
42274
42115
41954
41800
41657
41527
41408
41296
41191
41096
41010
40923
40833
40741
40654
40575
40510
40455
40411
40377
40354
40335
40317
40308
40311
40324
40347
40381
40422
40463
40508
40558
40608
40655
40700
40742
40775
40802
40820
40829
40832
40833
40828
40821
40811
40789
40756
40713
40661
40603
40541
40480
40421
40362
40299
40235
40168
40097
40021
39944
39865
39782
39694
39608
39525
39442
39361
39285
39215
39150
39087
39024
38963
38904
38845
38787
38735
38688
38647
38612
38579
38539
38493
38446
38401
38359
38320
38286
38256
38232
38211
38196
38183
38172
38161
38148
38136
38127
38117
38106
38096
38083
38063
38039
38012
37976
37932
37888
37841
37791
37742
37700
37668
37642
37616
37590
37562
37532
37499
37461
37416
37369
37321
37276
37243
37224
37222
37245
37300
37399
37552
37765
38036
38357
38716
39108
39525
39953
40377
40780
41145
41461
41728
41949
42131
42278
42391
42468
42506
42505
42471
42408
42320
42213
42093
41963
41824
41680
41532
41386
41240
41098
40955
40813
40677
40553
40438
40333
40238
40151
40069
39987
39905
39827
39759
39702
39656
39620
39595
39584
39590
39607
39631
39665
39706
39754
39808
39867
39930
39998
40069
40141
40216
40288
40350
40397
40433
40459
40472
40468
40450
40422
40387
40345
40297
40245
40190
40134
40075
40012
39945
39871
39789
39700
39613
39532
39456
39384
39317
39256
39198
39143
39088
39028
38963
38893
38819
38746
38677
38611
38548
38491
38439
38390
38342
38298
38255
38211
38162
38109
38060
38018
37985
37961
37943
37927
37910
37894
37877
37860
37842
37824
37809
37800
37795
37793
37789
37781
37771
37757
37738
37716
37690
37665
37639
37611
37585
37560
37535
37507
37475
37441
37407
37372
37339
37313
37293
37281
37277
37281
37297
37338
37415
37539
37714
37942
38220
38540
38887
39247
39613
39979
40339
40685
41005
41293
41544
41748
41896
41991
42041
42057
42042
41997
41922
41826
41717
41594
41455
41305
41148
40989
40828
40669
40514
40365
40226
40098
39974
39852
39730
39610
39496
39389
39288
39196
39114
39039
38972
38915
38866
38827
38799
38787
38788
38805
38842
38896
38965
39043
39129
39216
39296
39368
39433
39495
39558
39622
39685
39744
39795
39834
39858
39867
39862
39840
39807
39762
39706
39640
39569
39497
39426
39352
39276
39196
39113
39029
38942
38857
38775
38695
38618
38548
38486
38428
38369
38311
38256
38200
38142
38084
38032
37986
37945
37904
37864
37825
37786
37744
37698
37649
37604
37565
37529
37494
37468
37450
37435
37422
37413
37406
37393
37376
37363
37353
37347
37347
37351
37355
37358
37359
37353
37342
37327
37311
37293
37276
37259
37241
37223
37202
37176
37143
37106
37071
37041
37020
37012
37025
37066
37145
37270
37445
37671
37945
38260
38607
38979
39367
39760
40149
40518
40851
41138
41376
41571
41730
41854
41939
41988
42010
42003
41965
41898
41808
41699
41576
41445
41310
41171
41032
40890
40748
40609
40472
40342
40223
40110
40001
39901
39810
39727
39648
39570
39490
39415
39348
39295
39258
39237
39229
39234
39250
39278
39316
39362
39412
39464
39520
39579
39640
39705
39770
39833
39891
39944
39993
40035
40066
40084
40089
40083
40066
40039
40004
39959
39904
39843
39782
39724
39667
39605
39537
39462
39379
39294
39211
39133
39060
38989
38919
38851
38785
38723
38664
38611
38562
38520
38482
38446
38408
38367
38325
38284
38240
38197
38163
38135
38111
38087
38062
38034
38004
37976
37951
37928
37904
37881
37862
37846
37831
37817
37805
37794
37782
37773
37767
37762
37753
37739
37723
37706
37688
37673
37659
37644
37626
37602
37573
37539
37504
37470
37436
37402
37371
37349
37334
37327
37330
37349
37394
37474
37602
37787
38029
38315
38639
39001
39396
39810
40226
40628
41003
41346
41653
41924
42156
42346
42496
42607
42682
42723
42734
42716
42669
42598
42512
42412
42301
42181
42051
41915
41778
41644
41512
41380
41251
41130
41020
40922
40831
40743
40655
40567
40481
40397
40317
40240
40169
40109
40061
40026
40004
39994
39994
40001
40019
40050
40091
40143
40204
40268
40330
40391
40449
40500
40543
40574
40592
40598
40593
40581
40561
40537
40511
40483
40448
40405
40353
40295
40237
40181
40124
40070
40019
39973
39922
39864
39797
39724
39651
39584
39519
39454
39391
39327
39259
39190
39120
39049
38980
38912
38847
38786
38730
38674
38616
38560
38511
38468
38433
38406
38387
38373
38360
38347
38331
38314
38298
38285
38277
38271
38267
38261
38253
38240
38224
38206
38185
38164
38145
38130
38119
38106
38091
38066
38033
37995
37958
37924
37894
37864
37834
37801
37761
37716
37672
37631
37595
37564
37538
37522
37527
37560
37630
37747
37913
38131
38396
38699
39030
39379
39747
40130
40517
40897
41253
41573
41847
42075
42260
42403
42509
42584
42626
42634
42611
42561
42485
42386
42267
42132
41985
41836
41694
41559
41428
41298
41168
41044
40930
40826
40733
40653
40585
40524
40463
40401
40339
40276
40209
40140
40077
40027
39994
39973
39959
39953
39955
39965
39981
40004
40037
40078
40122
40168
40218
40271
40322
40364
40397
40425
40447
40462
40470
40472
40467
40454
40432
40400
40362
40320
40275
40227
40174
40123
40071
40012
39946
39872
39795
39715
39632
39546
39464
39389
39321
39258
39196
39132
39065
38996
38925
38857
38799
38749
38704
38659
38614
38574
38537
38503
38470
38438
38408
38384
38370
38369
38375
38381
38384
38382
38375
38363
38348
38332
38318
38306
38297
38287
38271
38249
38227
38209
38195
38182
38169
38161
38155
38145
38126
38097
38059
38019
37984
37956
37928
37900
37871
37839
37804
37769
37742
37729
37737
37773
37842
37951
38102
38294
38532
38814
39133
39478
39844
40223
40603
40968
41305
41603
41857
42066
42233
42364
42462
42526
42556
42555
42522
42463
42382
42283
42171
42048
41917
41775
41625
41471
41317
41170
41031
40902
40784
40671
40564
40462
40366
40273
40180
40093
40013
39940
39878
39827
39790
39766
39753
39749
39756
39772
39796
39829
39869
39917
39979
40053
40135
40214
40284
40342
40392
40439
40484
40526
40562
40588
40597
40588
40561
40519
40466
40409
40349
40284
40219
40161
40109
40057
40001
39942
39878
39807
39735
39666
39597
39531
39469
39407
39347
39286
39225
39166
39114
39067
39020
38971
38921
38872
38829
38793
38759
38728
38698
38665
38629
38591
38553
38521
38497
38479
38470
38464
38459
38451
38438
38420
38399
38384
38373
38362
38352
38338
38321
38305
38288
38269
38250
38229
38206
38183
38165
38152
38138
38124
38113
38100
38082
38056
38024
37984
37939
37899
37873
37865
37880
37928
38017
38148
38325
38551
38823
39135
39482
39855
40246
40647
41044
41422
41763
42062
42323
42545
42724
42859
42951
43006
43028
43024
42996
42945
42873
42783
42679
42562
42433
42297
42160
42022
41881
41743
41615
41495
41384
41279
41181
41085
40992
40902
40817
40735
40656
40584
40523
40474
40434
40404
40387
40384
40388
40401
40425
40460
40503
40551
40603
40655
40707
40754
40795
40832
40865
40896
40927
40956
40981
40998
41004
40998
40981
40957
40926
40885
40833
40772
40707
40640
40570
40497
40425
40352
40279
40206
40131
40051
39968
39883
39801
39721
39647
39581
39522
39468
39419
39371
39324
39275
39228
39184
39141
39097
39050
39007
38968
38932
38901
38872
38845
38818
38793
38766
38738
38710
38687
38670
38651
38631
38606
38581
38560
38541
38521
38506
38496
38486
38477
38468
38458
38446
38430
38409
38385
38359
38329
38296
38264
38235
38210
38190
38173
38157
38137
38113
38087
38057
38026
38001
37987
37991
38022
38089
38205
38376
38604
38885
39209
39571
39965
40382
40807
41222
41611
41967
42286
42561
42790
42970
43106
43200
43256
43280
43276
43241
43178
43097
43003
42898
42783
42665
42550
42437
42319
42200
42083
41967
41849
41735
41627
41527
41436
41350
41265
41183
41108
41043
40986
40934
40884
40841
40808
40783
40767
40760
40758
40761
40770
40787
40813
40844
40879
40920
40966
41010
41049
41078
41099
41111
41115
41109
41096
41080
41061
41040
41016
40992
40968
40940
40900
40850
40794
40738
40679
40617
40554
40490
40425
40359
40296
40237
40176
40108
40035
39957
39875
39789
39698
39609
39524
39443
39366
39292
39224
39162
39107
39059
39019
38985
38956
38931
38907
38882
38856
38830
38805
38785
38770
38756
38741
38724
38704
38686
38668
38649
38628
38607
38589
38574
38563
38553
38543
38534
38523
38506
38487
38465
38439
38409
38380
38353
38326
38293
38255
38215
38176
38138
38098
38055
38009
37964
37927
37900
37888
37897
37938
38020
38149
38334
38573
38859
39186
39545
39923
40314
40708
41095
41461
41794
42088
42339
42541
42698
42811
42883
42917
42917
42888
42834
42758
42662
42549
42422
42289
42153
42014
41876
41744
41619
41505
41401
41305
41217
41133
41054
40978
40899
40811
40719
40624
40526
40434
40353
40286
40229
40181
40142
40112
40093
40087
40096
40117
40148
40189
40240
40296
40354
40411
40467
40518
40563
40602
40636
40666
40691
40714
40734
40746
40744
40729
40706
40673
40631
40580
40519
40449
40376
40298
40217
40132
40041
39950
39867
39791
39721
39656
39595
39539
39485
39431
39376
39319
39262
39207
39154
39102
39047
38992
38934
38877
38824
38778
38737
38701
38672
38650
38629
38605
38576
38545
38513
38478
38446
38420
38398
38379
38362
38350
38343
38342
38340
38337
38331
38318
38300
38277
38252
38228
38206
38186
38166
38147
38128
38108
38087
38062
38034
38006
37977
37948
37922
37902
37895
37913
37960
38046
38172
38341
38556
38814
39113
39448
39801
40155
40500
40833
41150
41444
41713
41950
42153
42319
42449
42545
42607
42632
42618
42572
42499
42405
42296
42178
42053
41926
41799
41671
41540
41410
41279
41147
41013
40879
40744
40607
40469
40335
40209
40092
39984
39885
39795
39715
39647
39589
39546
39522
39515
39526
39556
39605
39671
39751
39839
39933
40030
40124
40212
40290
40358
40413
40456
40489
40510
40525
40534
40536
40529
40511
40483
40446
40399
40344
40281
40210
40137
40066
40000
39939
39877
39815
39755
39696
39638
39581
39524
39464
39399
39334
39267
39198
39129
39060
38994
38932
38877
38828
38784
38741
38697
38653
38607
38565
38532
38509
38492
38480
38466
38453
38440
38426
38413
38401
38390
38381
38373
38366
38363
38359
38355
38354
38354
38355
38355
38352
38347
38335
38318
38297
38275
38253
38227
38196
38163
38129
38096
38063
38029
37994
37969
37955
37958
37986
38048
38153
38305
38507
38759
39063
39411
39793
40193
40594
40987
41366
41726
42060
42356
42611
42823
42989
43108
43185
43223
43227
43202
43153
43080
42988
42879
42761
42638
42509
42377
42245
42118
42000
41889
41784
41687
41593
41496
41398
41304
41217
41134
41056
40981
40908
40840
40781
40730
40692
40663
40642
40632
40636
40650
40675
40713
40764
40823
40888
40955
41018
41076
41128
41174
41217
41258
41297
41333
41363
41383
41389
41377
41350
41315
41277
41230
41173
41110
41045
40978
40910
40844
40782
40719
40653
40582
40509
40441
40378
40316
40254
40191
40128
40065
40002
39940
39879
39816
39751
39685
39623
39566
39515
39468
39424
39380
39337
39296
39255
39218
39185
39157
39131
39109
39094
39085
39081
39079
39079
39082
39085
39088
39090
39090
39088
39081
39072
39061
39050
39040
39029
39017
39001
38982
38961
38942
38924
38902
38877
38848
38814
38779
38744
38712
38681
38649
38618
38593
38580
38586
38624
38707
38846
39047
39311
39628
39983
40365
40762
41164
41565
41955
42327
42674
42989
43261
43486
43666
43804
43900
43958
43981
43973
43936
43877
43801
43713
43615
43509
43398
43286
43176
43069
42966
42869
42781
42699
42621
42549
42483
42423
42367
42314
42265
42217
42166
42110
42048
41985
41923
41867
41819
41785
41763
41754
41754
41760
41774
41794
41820
41851
41886
41925
41965
42003
42041
42080
42111
42132
42140
42139
42133
42115
42083
42046
42006
41965
41921
41876
41834
41794
41748
41696
41639
41578
41517
41456
41390
41317
41241
41169
41101
41034
40966
40898
40833
40773
40718
40667
40620
40573
40524
40473
40422
40370
40316
40264
40216
40170
40127
40091
40060
40033
40008
39989
39975
39966
39958
39953
39947
39941
39934
39924
39912
39902
39893
39880
39862
39838
39815
39794
39772
39747
39721
39692
39661
39625
39587
39553
39521
39491
39462
39433
39400
39363
39323
39277
39228
39182
39145
39114
39089
39071
39065
39078
39117
39193
39324
39516
39767
40071
40421
40808
41222
41650
42076
42482
42857
43197
43501
43764
43981
44155
44291
44389
44451
44481
44482
44455
44397
44314
44212
44098
43978
43859
43742
43626
43512
43401
43295
43197
43103
43012
42922
42837
42753
42674
42601
42529
42458
42392
42332
42271
42214
42165
42126
42097
42075
42061
42052
42052
42061
42075
42091
42108
42126
42146
42168
42193
42219
42249
42279
42301
42313
42318
42314
42304
42288
42267
42243
42215
42187
42159
42128
42093
42052
41999
41933
41859
41784
41710
41636
41563
41489
41415
41339
41262
41183
41106
41030
40956
40884
40817
40756
40697
40640
40586
40535
40486
40436
40386
40339
40295
40258
40231
40213
40200
40191
40182
40172
40161
40148
40131
40108
40081
40056
40035
40017
40005
39996
39982
39965
39945
39922
39896
39868
39841
39817
39795
39778
39763
39751
39739
39723
39702
39675
39642
39608
39571
39533
39492
39448
39400
39356
39318
39287
39266
39255
39258
39284
39342
39439
39584
39782
40029
40320
40645
41000
41377
41771
42169
42559
42927
43258
43545
43785
43981
44136
44257
44349
44409
44433
44427
44392
44334
44261
44174
44071
43953
43824
43690
43550
43403
43254
43114
42989
42875
42771
42677
42589
42503
42415
42327
42239
42153
42074
42003
41941
41890
41853
41828
41813
41811
41822
41842
41872
41912
41957
42005
42053
42102
42154
42208
42259
42303
42340
42373
42398
42416
42429
42430
42417
42391
42358
42317
42271
42221
42173
42124
42074
42023
41971
41916
41860
41807
41754
41696
41631
41562
41492
41421
41349
41278
41209
41140
41071
41004
40942
40883
40826
40770
40714
40657
40602
40549
40498
40452
40412
40377
40350
40326
40303
40284
40269
40250
40224
40196
40170
40148
40131
40119
40113
40107
40100
40094
40087
40075
40056
40035
40011
39985
39959
39930
39900
39868
39834
39803
39779
39764
39757
39748
39731
39707
39676
39638
39592
39539
39485
39434
39390
39359
39348
39373
39445
39572
39763
40016
40323
40674
41057
41463
41879
42296
42702
43081
43421
43722
43985
44211
44396
44542
44651
44720
44755
44763
44750
44714
44654
44575
44478
44368
44247
44123
44000
43877
43758
43645
43534
43424
43319
43221
43127
43032
42938
42844
42750
42656
42563
42477
42396
42322
42264
42224
42200
42188
42187
42191
42197
42210
42234
42267
42309
42358
42408
42459
42510
42559
42599
42630
42651
42665
42672
42673
42667
42655
42641
42624
42603
42577
42545
42507
42461
42407
42350
42290
42229
42166
42102
42040
41979
41916
41849
41780
41711
41642
41572
41502
41430
41357
41288
41222
41156
41092
41033
40981
40933
40884
40835
40789
40743
40698
40659
40625
40596
40573
40554
40536
40520
40505
40491
40478
40466
40454
40442
40429
40416
40403
40387
40365
40338
40309
40284
40261
40237
40211
40190
40173
40158
40139
40116
40090
40066
40044
40022
39997
39967
39931
39892
39852
39810
39767
39722
39677
39638
39610
39599
39613
39665
39764
39916
40128
40399
40722
41084
41477
41894
42323
42751
43159
43539
43885
44192
44456
44674
44846
44973
45057
45103
45115
45094
45045
44970
44873
44755
44623
44483
44337
44190
44046
43902
43758
43619
43494
43385
43285
43190
43099
43013
42930
42848
42766
42684
42605
42530
42463
42402
42350
42309
42282
42268
42268
42283
42309
42345
42388
42434
42483
42536
42591
42648
42703
42751
42790
42823
42848
42864
42870
42864
42848
42826
42800
42772
42739
42702
42660
42613
42561
42501
42431
42354
42268
42182
42098
42016
41934
41853
41775
41703
41633
41565
41501
41437
41368
41294
41215
41136
41057
40984
40918
40859
40809
40761
40716
40677
40644
40616
40593
40575
40559
40542
40526
40510
40492
40472
40451
40426
40398
40366
40336
40309
40288
40274
40263
40254
40247
40242
40241
40240
40235
40229
40222
40212
40195
40170
40140
40106
40064
40013
39958
39902
39846
39795
39751
39716
39688
39662
39635
39610
39595
39600
39633
39704
39822
39997
40233
40528
40866
41236
41628
42032
42442
42848
43236
43593
43908
44176
44399
44574
44703
44789
44838
44854
44841
44801
44738
44658
44564
44456
44334
44200
44055
43904
43747
43587
43427
43272
43123
42979
42840
42709
42584
42469
42360
42254
42153
42059
41977
41906
41851
41817
41801
41802
41819
41849
41889
41936
41991
42050
42113
42181
42248
42314
42377
42441
42503
42564
42626
42687
42744
42789
42821
42836
42836
42824
42798
42760
42715
42666
42615
42559
42498
42435
42372
42307
42238
42165
42088
42011
41935
41857
41781
41707
41633
41559
41485
41411
41340
41274
41210
41148
41089
41034
40984
40936
40891
40850
40812
40776
40742
40712
40685
40656
40627
40597
40567
40540
40518
40504
40498
40496
40494
40491
40490
40490
40489
40485
40475
40459
40441
40419
40392
40362
40334
40307
40277
40245
40216
40186
40149
40109
40070
40033
39996
39960
39932
39913
39908
39925
39973
40062
40201
40392
40638
40940
41288
41666
42064
42475
42887
43283
43650
43980
44269
44519
44734
44915
45061
45173
45249
45286
45289
45263
45209
45128
45020
44888
44739
44581
44421
44259
44097
43937
43781
43631
43487
43351
43223
43105
42991
42878
42770
42664
42564
42476
42406
42353
42314
42285
42267
42259
42262
42276
42303
42338
42385
42442
42503
42565
42627
42694
42767
42841
42910
42967
43012
43044
43063
43072
43074
43071
43061
43044
43019
42986
42948
42905
42857
42802
42741
42677
42608
42535
42457
42376
42294
42211
42126
42044
41970
41901
41832
41766
41704
41639
41572
41503
41430
41355
41276
41193
41110
41033
40963
40901
40850
40809
40777
40755
40740
40728
40719
40712
40701
40684
40664
40643
40621
40597
40576
40558
40539
40518
40500
40486
40476
40470
40468
40468
40467
40464
40457
40443
40425
40408
40387
40360
40331
40303
40274
40243
40212
40184
40161
40138
40114
40089
40065
40043
40024
40012
40017
40057
40152
40312
40537
40824
41170
41569
42010
42476
42946
43403
43838
44238
44595
44906
45174
45398
45576
45716
45818
45885
45921
45932
45921
45888
45839
45779
45705
45618
45519
45412
45298
45178
45055
44934
44817
44704
44596
44499
44411
44328
44246
44164
44082
43998
43911
43823
43737
43658
43588
43529
43480
43442
43419
43414
43425
43447
43483
43535
43601
43677
43761
43850
43936
44016
44088
44153
44211
44259
44296
44324
44344
44352
44351
44344
44328
44301
44263
44216
44155
44083
44007
43929
43849
43770
43690
43610
43529
43447
43362
43276
43191
43106
43018
42926
42834
42748
42666
42584
42502
42424
42351
42283
42219
42159
42099
42034
41970
41912
41864
41826
41792
41756
41719
41684
41654
41627
41599
41572
41546
41519
41492
41466
41448
41437
41431
41428
41426
41424
41417
41405
41389
41363
41330
41293
41257
41222
41186
41150
41116
41086
41054
41020
40983
40940
40890
40838
40787
40737
40688
40638
40589
40542
40499
40462
40431
40407
40391
40394
40432
40523
40681
40910
41205
41561
41974
42426
42893
43358
43806
44228
44620
44973
45284
45555
45787
45978
46130
46240
46310
46341
46338
46305
46247
46170
46081
45985
45880
45766
45648
45528
45406
45280
45152
45026
44897
44770
44648
44533
44423
44317
44212
44107
44000
43892
43790
43695
43610
43539
43489
43461
43453
43461
43486
43526
43578
43634
43695
43761
43829
43901
43972
44038
44101
44163
44222
44273
44312
44337
44354
44366
44371
44371
44369
44360
44338
44299
44244
44177
44103
44023
43938
43849
43760
43670
43580
43493
43413
43337
43267
43201
43132
43061
42988
42915
42842
42769
42695
42622
42555
42496
42443
42398
42362
42329
42295
42262
42230
42196
42158
42115
42074
42039
42011
41986
41964
41943
41923
41904
41887
41875
41859
41840
41820
41801
41780
41757
41731
41706
41683
41667
41659
41654
41647
41637
41623
41605
41580
41546
41505
41458
41407
41354
41301
41248
41197
41146
41096
41048
41002
40956
40911
40866
40820
40776
40737
40707
40697
40724
40802
40942
41148
41420
41752
42137
42568
43024
43480
43920
44331
44707
45044
45344
45603
45821
45995
46125
46215
46269
46288
46276
46244
46193
46123
46034
45931
45821
45707
45591
45471
45339
45196
45047
44898
44750
44604
44464
44332
44210
44097
43986
43877
43771
43672
43586
43514
43458
43418
43396
43389
43392
43402
43420
43443
43473
43511
43562
43627
43699
43773
43848
43925
44000
44067
44128
44180
44219
44244
44255
44254
44247
44234
44215
44188
44155
44111
44054
43988
43913
43830
43743
43657
43574
43493
43414
43337
43260
43180
43096
43008
42913
42817
42723
42632
42543
42462
42394
42334
42281
42237
42200
42168
42137
42109
42080
42048
42014
41981
41950
41920
41888
41855
41825
41799
41778
41762
41750
41739
41728
41715
41697
41677
41659
41644
41630
41619
41610
41599
41586
41572
41555
41538
41521
41500
41473
41443
41408
41372
41336
41301
41266
41233
41202
41168
41132
41095
41063
41045
41045
41075
41151
41283
41474
41724
42028
42381
42772
43187
43613
44032
44428
44796
45132
45433
45693
45911
46087
46222
46318
46380
46413
46418
46394
46346
46279
46197
46106
46005
45894
45774
45651
45526
45398
45266
45135
45004
44869
44730
44586
44443
44306
44176
44054
43940
43834
43735
43647
43568
43502
43448
43407
43381
43375
43389
43418
43462
43518
43583
43655
43735
43821
43911
44000
44087
44174
44256
44327
44388
44439
44477
44500
44509
44501
44479
44445
44400
44343
44277
44204
44128
44049
43968
43891
43815
43730
43639
43547
43456
43367
43280
43195
43115
43039
42968
42902
42839
42782
42728
42673
42614
42551
42487
42429
42378
42333
42293
42257
42223
42187
42153
42123
42102
42082
42064
42051
42039
42025
42009
41997
41984
41970
41951
41927
41901
41874
41849
41822
41792
41765
41748
41738
41731
41723
41713
41701
41689
41673
41654
41632
41609
41584
41555
41519
41475
41426
41370
41311
41252
41197
41151
41119
41107
41121
41167
41258
41405
41620
41901
42245
42651
43098
43562
44026
44478
44906
45295
45642
45949
46219
46448
46633
46778
46886
46958
46998
47010
46997
46961
46905
46835
46755
46666
46574
46476
46370
46261
46150
46038
45933
45837
45746
45658
45570
45483
45394
45303
45211
45117
45016
44915
44822
44742
44678
44629
44594
44573
44567
44576
44595
44621
44657
44705
44764
44832
44910
44994
45081
45165
45243
45314
45375
45426
45462
45486
45498
45495
45482
45462
45435
45398
45353
45303
45248
45188
45118
45036
44939
44834
44728
44627
44531
44435
44342
44254
44171
44086
43998
43911
43826
43747
43671
43595
43517
43442
43372
43306
43244
43185
43131
43082
43040
43004
42969
42931
42892
42855
42818
42781
42745
42715
42691
42670
42650
42634
42624
42615
42601
42585
42568
42549
42524
42495
42463
42426
42386
42348
42319
42294
42269
42246
42221
42189
42152
42109
42065
42024
41979
41928
41876
41829
41785
41742
41699
41660
41632
41620
41626
41658
41726
41838
42001
42221
42505
42850
43245
43670
44115
44570
45021
45459
45871
46240
46564
46847
47086
47279
47426
47531
47598
47630
47635
47618
47580
47522
47448
47364
47272
47177
47082
46985
46884
46784
46686
46592
46505
46425
46348
46274
46199
46124
46046
45965
45882
45802
45724
45656
45601
45559
45523
45492
45465
45446
45435
45436
45452
45481
45522
45577
45641
45706
45772
45836
45898
45955
46005
46043
46067
46083
46096
46106
46112
46113
46107
46090
46065
46032
45988
45933
45869
45799
45722
45640
45551
45456
45356
45250
45143
45039
44939
44839
44737
44638
44543
44452
44365
44284
44205
44127
44051
43980
43914
43849
43786
43725
43668
43618
43574
43541
43517
43496
43474
43455
43439
43423
43404
43393
43393
43395
43400
43408
43416
43423
43430
43436
43439
43438
43434
43432
43432
43429
43423
43415
43403
43388
43375
43364
43354
43348
43344
43342
43340
43336
43330
43323
43318
43314
43313
43319
43337
43372
43432
43523
43651
43819
44028
44273
44547
44842
45150
45467
45787
46100
46399
46675
46923
47142
47331
47485
47603
47691
47749
47775
47774
47754
47721
47673
47612
47544
47473
47395
47314
47231
47144
47052
46958
46865
46771
46675
46582
46489
46393
46294
46197
46103
46012
45927
45853
45789
45735
45694
45668
45660
45667
45683
45709
45746
45794
45852
45914
45980
46048
46117
46185
46248
46300
46337
46364
46387
46408
46425
46436
46439
46436
46428
46412
46386
46353
46316
46275
46228
46174
46114
46054
45996
45936
45870
45800
45727
45650
45571
45494
45418
45344
45272
45203
45137
45073
45014
44960
44909
44859
44810
44761
44711
44658
44606
44560
44522
44494
44472
44451
44428
44402
44374
44344
44314
44281
44245
44205
44159
44110
44063
44019
43977
43938
43903
43877
43857
43841
43822
43797
43771
43745
43715
43682
43644
43601
43554
43507
43460
43409
43357
43311
43270
43234
43208
43195
43203
43245
43337
43488
43698
43961
44271
44619
44993
45375
45754
46124
46474
46791
47068
47305
47500
47651
47762
47837
47877
47891
47882
47853
47808
47746
47669
47579
47480
47382
47286
47191
47098
47010
46926
46843
46762
46686
46608
46528
46446
46361
46271
46180
46090
46005
45929
45863
45810
45770
45743
45729
45731
45747
45775
45815
45865
45920
45976
46033
46092
46149
46204
46260
46316
46369
46415
46454
46488
46512
46525
46528
46519
46499
46467
46425
46373
46313
46246
46179
46113
46048
45984
45922
45860
45796
45729
45658
45582
45504
45423
45342
45258
45171
45082
44995
44914
44840
44777
44720
44666
44615
44566
44519
44476
44437
44400
44364
44333
44304
44276
44250
44223
44194
44164
44136
44113
44092
44067
44037
44003
43969
43937
43910
43887
43864
43845
43829
43811
43791
43768
43743
43712
43680
43645
43605
43564
43522
43475
43419
43358
43298
43244
43196
43151
43113
43088
43082
43102
43160
43273
43449
43690
43988
44334
44711
45103
45502
45895
46274
46634
46962
47247
47481
47668
47812
47915
47975
47997
47995
47972
47931
47876
47813
47743
47671
47598
47524
47450
47377
47305
47234
47161
47086
47014
46945
46881
46824
46771
46716
46658
46599
46544
46490
46436
46382
46332
46286
46242
46206
46179
46160
46153
46160
46180
46215
46262
46313
46361
46408
46451
46488
46522
46557
46589
46616
46637
46652
46661
46660
46653
46644
46630
46615
46598
46578
46551
46518
46476
46427
46374
46321
46267
46210
46148
46081
46015
45949
45883
45818
45750
45679
45606
45533
45460
45387
45318
45254
45190
45126
45065
45010
44962
44920
44884
44852
44823
44794
44764
44733
44700
44661
44616
44573
44536
44502
44474
44455
44439
44425
44413
44398
44375
44347
44320
44292
44258
44220
44179
44138
44103
44074
44049
44025
44001
43978
43954
43925
43890
43853
43810
43760
43705
43647
43595
43560
43547
43567
43635
43760
43944
44186
44478
44809
45164
45533
45906
46270
46610
46918
47188
47413
47598
47749
47865
47942
47984
47995
47978
47940
47888
47829
47765
47696
47622
47546
47467
47385
47302
47223
47148
47076
47003
46929
46856
46788
46723
46660
46599
46538
46474
46412
46357
46312
46276
46247
46224
46207
46196
46193
46198
46210
46229
46252
46277
46304
46333
46365
46397
46429
46460
46492
46524
46556
46582
46602
46614
46615
46611
46606
46596
46580
46557
46527
46484
46432
46376
46316
46251
46181
46110
46039
45968
45901
45836
45769
45700
45627
45552
45480
45410
45342
45278
45214
45150
45088
45030
44975
44924
44875
44828
44782
44738
44694
44651
44608
44560
44511
44464
44418
44372
44332
44301
44278
44258
44243
44229
44213
44195
44178
44158
44134
44104
44069
44028
43983
43936
43887
43838
43791
43748
43708
43667
43626
43589
43554
43521
43492
43468
43448
43432
43421
43425
43449
43495
43573
43695
43868
44087
44348
44640
44954
45281
45614
45942
46260
46556
46825
47061
47257
47408
47519
47598
47649
47666
47658
47634
47596
47542
47475
47400
47320
47234
47143
47048
46951
46853
46756
46660
46568
46487
46416
46352
46292
46234
46179
46122
46062
46000
45937
45876
45821
45779
45754
45744
45747
45761
45784
45818
45864
45917
45978
46044
46111
46176
46241
46307
46369
46424
46470
46504
46523
46531
46527
46512
46483
46445
46405
46367
46329
46289
46245
46190
46124
46051
45969
45883
45801
45726
45658
45592
45526
45455
45380
45303
45223
45144
45066
44989
44918
44858
44806
44761
44721
44679
44634
44587
44542
44504
44473
44446
44421
44403
44390
44377
44361
44347
44337
44328
44317
44302
44288
44275
44260
44243
44226
44206
44181
44149
44114
44078
44043
44013
43990
43972
43956
43936
43909
43878
43844
43813
43788
43768
43755
43763
43802
43881
44003
44171
44384
44633
44907
45202
45510
45825
46136
46433
46709
46956
47165
47335
47468
47566
47631
47666
47674
47659
47625
47579
47524
47465
47401
47330
47250
47158
47058
46955
46854
46757
46661
46568
46477
46391
46311
46235
46161
46089
46018
45947
45882
45826
45773
45725
45687
45665
45658
45663
45674
45692
45716
45745
45782
45828
45884
45948
46016
46080
46137
46190
46239
46285
46323
46349
46363
46367
46360
46343
46317
46282
46242
46201
46157
46100
46028
45949
45868
45790
45714
45637
45558
45478
45398
45318
45241
45170
45102
45036
44970
44904
44844
44792
44745
44697
44648
44599
44546
44491
44436
44383
44335
44297
44266
44239
44210
44179
44145
44111
44079
44049
44018
43986
43959
43937
43919
43905
43891
43871
43844
43811
43772
43727
43679
43631
43581
43532
43486
43444
43404
43365
43323
43278
43235
43194
43154
43110
43071
43043
43031
43042
43083
43163
43293
43484
43739
44050
44404
44794
45205
45623
46033
46425
46787
47108
47384
47612
47790
47919
48003
48045
48048
48020
47970
47907
47833
47753
47672
47592
47514
47438
47366
47297
47231
47171
47115
47067
47028
46999
46974
46954
46941
46927
46908
46882
46848
46806
46760
46709
46655
46600
46548
46505
46475
46459
46453
46463
46488
46522
46559
46597
46636
46671
46698
46718
46734
46745
46750
46750
46745
46738
46731
46723
46710
46691
46665
46632
46592
46549
46503
46452
46393
46329
46264
46198
46131
46065
46000
45937
45876
45816
45757
45703
45650
45599
45552
45505
45455
45399
45338
45272
45202
45127
45048
44969
44894
44826
44763
44703
44650
44603
44564
44530
44500
44470
44438
44410
44389
44374
44361
44356
44354
44347
44335
44320
44302
44276
44243
44208
44169
44120
44063
44001
43940
43884
43834
43788
43746
43709
43674
43639
43603
43570
43541
43513
43491
43484
43505
43563
43667
43822
44036
44305
44626
44993
45391
45803
46212
46604
46968
47292
47569
47798
47979
48114
48207
48262
48287
48283
48259
48217
48155
48078
47991
47901
47811
47723
47639
47559
47482
47413
47355
47304
47254
47208
47162
47115
47068
47025
46985
46945
46905
46864
46823
46784
46746
46708
46673
46641
46617
46603
46597
46597
46605
46621
46645
46676
46710
46744
46775
46803
46831
46857
46884
46910
46934
46953
46964
46963
46952
46933
46904
46864
46817
46764
46707
46648
46585
46522
46458
46389
46312
46228
46144
46063
45985
45908
45829
45748
45669
45595
45525
45448
45360
45270
45185
45109
45043
44983
44920
44851
44778
44706
44641
44584
44532
44490
44460
44434
44410
44384
44354
44325
44301
44280
44258
44235
44216
44206
44196
44182
44165
44144
44116
44082
44043
44006
43970
43934
43900
43868
43836
43804
43774
43744
43711
43674
43638
43601
43563
43530
43503
43482
43471
43476
43508
43581
43709
43905
44169
44491
44856
45251
45663
46080
46486
46866
47212
47515
47774
47986
48148
48264
48340
48381
48390
48371
48325
48261
48183
48095
47997
47892
47785
47684
47589
47500
47416
47340
47272
47210
47147
47082
47018
46955
46894
46834
46776
46721
46671
46624
46581
46539
46499
46463
46436
46420
46417
46425
46442
46467
46500
46543
46590
46639
46690
46742
46793
46843
46888
46926
46955
46974
46981
46975
46956
46927
46891
46852
46812
46771
46728
46684
46640
46596
46547
46490
46428
46362
46290
46212
46130
46045
45960
45880
45806
45733
45659
45585
45510
45435
45360
45288
45223
45160
45100
45042
44986
44934
44889
44852
44824
44801
44783
44767
44750
44731
44708
44681
44651
44621
44595
44573
44556
44544
44537
44530
44525
44516
44501
44482
44459
44430
44398
44364
44328
44288
44250
44211
44170
44129
44090
44052
44016
43981
43945
43908
43876
43858
43865
43909
44001
44148
44356
44624
44946
45311
45701
46101
46497
46873
47222
47533
47797
48011
48181
48310
48398
48457
48492
48500
48480
48438
48377
48298
48207
48106
48002
47900
47799
47702
47608
47517
47430
47353
47289
47236
47193
47158
47123
47082
47035
46984
46930
46875
46819
46766
46719
46683
46658
46641
46634
46634
46642
46661
46688
46723
46766
46811
46857
46902
46942
46975
47002
47020
47033
47044
47054
47063
47069
47071
47066
47056
47037
47009
46973
46928
46879
46825
46767
46706
46644
46584
46524
46466
46406
46343
46276
46201
46118
46027
45934
45848
45769
45691
45614
45540
45467
45398
45331
45265
45205
45152
45105
45065
45031
45003
44978
44957
44938
44919
44903
44888
44870
44850
44834
44825
44818
44811
44801
44786
44764
44737
44704
44670
44638
44606
44574
44545
44526
44505
44472
44432
44389
44347
44305
44261
44220
44182
44147
44116
44088
44061
44034
44005
43976
43945
43908
43872
43846
43844
43876
43950
44076
44263
44510
44811
45153
45523
45910
46302
46684
47045
47375
47667
47919
48132
48307
48442
48540
48602
48629
48623
48590
48537
48472
48398
48315
48231
48147
48062
47976
47895
47817
47745
47679
47617
47561
47511
47466
47422
47378
47336
47299
47265
47231
47195
47156
47111
47062
47012
46964
46925
46895
46871
46855
46853
46864
46883
46909
46942
46982
47026
47070
47109
47141
47169
47196
47220
47240
47254
47261
47259
47247
47229
47205
47176
47138
47091
47036
46978
46916
46853
46794
46742
46692
46644
46592
46531
46458
46381
46301
46219
46136
46052
45970
45892
45819
45750
45687
45630
45578
45527
45478
45431
45380
45322
45262
45206
45154
45111
45080
45055
45037
45023
45012
45003
44990
44976
44960
44943
44925
44906
44887
44870
44854
44836
44814
44786
44748
44704
44656
44606
44561
44521
44484
44449
44413
44371
44324
44275
44226
44176
44124
44072
44023
43978
43935
43895
43854
43808
43754
43698
43643
43600
43581
43598
43662
43785
43978
44240
44563
44934
45337
45752
46170
46583
46980
47350
47685
47977
48222
48413
48549
48635
48677
48682
48658
48612
48550
48474
48390
48298
48202
48104
48008
47913
47819
47726
47639
47557
47480
47407
47339
47276
47218
47159
47097
47034
46968
46897
46824
46753
46688
46633
46587
46547
46513
46487
46473
46471
46479
46499
46533
46580
46635
46691
46746
46799
46846
46887
46920
46942
46956
46963
46963
46959
46952
46941
46923
46896
46862
46822
46777
46723
46660
46592
46516
46433
46340
46240
46136
46028
45920
45812
45705
45600
45499
45404
45317
45232
45152
45077
45004
44933
44862
44787
44709
44629
44554
44489
44429
44368
44306
44243
44183
44128
44079
44038
44007
43984
43969
43957
43943
43927
43906
43883
43857
43829
43797
43762
43728
43694
43661
43630
43602
43576
43552
43531
43511
43491
43472
43452
43430
43405
43375
43338
43296
43251
43207
43164
43120
43079
43042
43010
42987
42975
42982
43023
43108
43240
43425
43672
43979
44333
44722
45138
45567
45993
46401
46779
47120
47420
47677
47889
48055
48173
48248
48285
48288
48262
48214
48148
48069
47976
47870
47754
47634
47511
47387
47260
47132
47005
46880
46755
46627
46499
46374
46255
46140
46029
45916
45802
45691
45588
45494
45415
45350
45300
45270
45267
45289
45328
45382
45449
45531
45624
45724
45822
45913
45995
46071
46138
46196
46244
46285
46322
46351
46369
46375
46368
46344
46307
46264
46213
46153
46085
46014
45939
45860
45780
45698
45612
45520
45427
45336
45246
45155
45067
44985
44904
44820
44736
44656
44582
44514
44448
44379
44309
44242
44181
44125
44071
44020
43974
43932
43894
43859
43825
43791
43757
43725
43697
43671
43648
43626
43605
43585
43569
43559
43554
43548
43535
43515
43487
43454
43421
43391
43363
43338
43316
43295
43274
43249
43218
43181
43141
43101
43062
43028
42999
42977
42969
42984
43032
43122
43262
43460
43718
44026
44370
44744
45141
45549
45948
46330
46687
47012
47298
47540
47735
47886
47995
48067
48106
48116
48104
48068
48015
47947
47865
47769
47660
47543
47426
47307
47188
47074
46964
46857
46751
46643
46533
46423
46311
46197
46083
45975
45871
45774
45690
45620
45564
45524
45498
45485
45482
45488
45506
45539
45583
45641
45713
45793
45871
45947
46023
46101
46177
46247
46308
46360
46401
46431
46452
46462
46455
46432
46397
46350
46289
46218
46141
46065
45992
45924
45859
45797
45735
45670
45600
45523
45439
45350
45256
45158
45059
44962
44871
44787
44703
44616
44533
44457
44384
44311
44240
44172
44105
44043
43987
43935
43888
43847
43813
43782
43755
43730
43702
43671
43641
43615
43596
43578
43559
43541
43524
43506
43486
43462
43436
43413
43390
43361
43326
43286
43246
43205
43164
43125
43090
43058
43026
42997
42972
42952
42930
42905
42880
42856
42833
42819
42826
42873
42977
43152
43399
43707
44067
44472
44906
45353
45798
46225
46622
46981
47298
47564
47778
47944
48068
48149
48191
48202
48184
48139
48073
47993
47896
47783
47662
47542
47429
47327
47238
47154
47069
46985
46905
46828
46751
46673
46594
46515
46440
46368
46297
46231
46171
46120
46077
46042
46016
45999
45993
45999
46017
46046
46080
46122
46174
46233
46295
46358
46416
46462
46498
46525
46546
46565
46576
46577
46571
46558
46542
46522
46498
46470
46443
46416
46388
46352
46303
46245
46184
46120
46053
45985
45914
45838
45756
45669
45581
45493
45406
45319
45232
45141
45046
44951
44858
44766
44677
44593
44515
44444
44382
44329
44281
44233
44183
44136
44092
44047
44002
43960
43925
43892
43863
43840
43821
43805
43787
43768
43747
43723
43697
43672
43649
43623
43597
43574
43552
43527
43502
43479
43456
43434
43407
43370
43324
43272
43223
43178
43134
43091
43051
43018
42999
42999
43020
43069
43155
43288
43475
43721
44018
44359
44742
45157
45586
46011
46420
46800
47144
47449
47711
47926
48091
48210
48287
48330
48343
48331
48297
48242
48169
48079
47973
47852
47721
47588
47462
47343
47227
47114
47006
46905
46809
46714
46615
46511
46405
46298
46192
46096
46008
45927
45856
45794
45744
45707
45684
45673
45669
45676
45697
45731
45774
45822
45875
45936
46008
46086
46164
46242
46318
46388
46446
46491
46526
46554
46574
46588
46597
46598
46584
46554
46509
46449
46375
46288
46192
46091
45991
45894
45797
45699
45599
45498
45400
45303
45206
45109
45015
44927
44845
44771
44706
44646
44588
44531
44470
44405
44339
44273
44208
44147
44097
44054
44016
43983
43954
43925
43894
43859
43823
43789
43755
43722
43696
43675
43656
43636
43616
43594
43567
43538
43512
43492
43475
43458
43440
43419
43394
43364
43327
43282
43233
43189
43151
43119
43091
43068
43052
43044
43047
43066
43112
43196
43328
43514
43759
44059
44404
44782
45181
45588
45987
46366
46718
47041
47334
47596
47822
48008
48147
48239
48290
48306
48287
48238
48166
48079
47981
47876
47763
47647
47529
47407
47283
47153
47020
46886
46750
46618
46495
46379
46268
46154
46040
45926
45814
45705
45601
45509
45434
45377
45338
45318
45315
45326
45353
45395
45449
45515
45594
45680
45771
45862
45958
46057
46154
46240
46312
46370
46413
46446
46469
46481
46480
46464
46436
46398
46354
46306
46250
46186
46114
46041
45963
45873
45777
45681
45584
45482
45378
45278
45183
45091
44997
44903
44815
44731
44648
44567
44491
44425
44369
44315
44261
44204
44146
44092
44047
44012
43986
43959
43932
43906
43884
43866
43851
43836
43819
43799
43778
43753
43725
43698
43676
43657
43641
43630
43623
43615
43603
43585
43561
43532
43499
43465
43429
43391
43351
43315
43285
43263
43253
43257
43279
43323
43397
43512
43678
43899
44174
44492
44842
45223
45629
46042
46446
46829
47180
47496
47770
48001
48186
48325
48421
48476
48496
48487
48453
48395
48318
48226
48122
48011
47893
47769
47640
47514
47390
47266
47141
47020
46906
46805
46708
46610
46511
46416
46329
46248
46172
46098
46026
45965
45916
45879
45856
45852
45864
45890
45930
45983
46047
46121
46198
46277
46359
46443
46523
46602
46678
46747
46807
46858
46898
46925
46942
46949
46942
46919
46880
46827
46761
46686
46603
46518
46436
46356
46277
46199
46124
46049
45971
45890
45806
45715
45621
45526
45429
45334
45244
45159
45079
45007
44945
44890
44840
44788
44734
44678
44617
44556
44495
44437
44382
44334
44294
44260
44231
44204
44176
44154
44136
44117
44097
44076
44056
44038
44019
43999
43985
43977
43969
43957
43942
43927
43909
43883
43851
43817
43781
43742
43698
43652
43610
43574
43543
43514
43485
43456
43430
43413
43413
43444
43520
43656
43860
44133
44464
44844
45264
45705
46150
46583
46995
47376
47718
48016
48269
48473
48629
48737
48806
48842
48850
48830
48782
48715
48633
48539
48432
48314
48194
48075
47955
47840
47730
47627
47537
47457
47385
47319
47256
47192
47125
47052
46974
46902
46842
46789
46743
46705
46674
46649
46632
46624
46624
46632
46647
46670
46701
46744
46798
46860
46923
46985
47046
47104
47157
47204
47243
47271
47287
47293
47289
47274
47247
47214
47179
47145
47108
47066
47017
46959
46889
46814
46735
46653
46563
46467
46370
46278
46190
46104
46019
45933
45844
45754
45663
45575
45487
45399
45317
45237
45156
45078
45008
44944
44884
44828
44775
44725
44680
44642
44612
44587
44561
44536
44515
44495
44475
44452
44427
44405
44387
44373
44360
44348
44337
44326
44312
44291
44263
44232
44201
44170
44139
44108
44078
44045
44011
43978
43947
43918
43888
43856
43823
43785
43739
43692
43648
43607
43571
43547
43544
43568
43629
43735
43897
44125
44417
44764
45155
45575
46013
46448
46864
47251
47608
47930
48209
48442
48629
48771
48871
48932
48960
48961
48935
48883
48809
48717
48611
48496
48374
48246
48118
47996
47879
47767
47661
47560
47464
47370
47279
47194
47113
47038
46968
46902
46835
46769
46709
46655
46606
46561
46523
46495
46479
46478
46490
46514
46549
46597
46654
46720
46790
46857
46920
46979
47033
47077
47108
47128
47139
47149
47159
47166
47167
47159
47137
47101
47054
46997
46929
46854
46774
46692
46610
46526
46441
46357
46277
46197
46111
46021
45926
45826
45724
45623
45525
45434
45351
45280
45216
45149
45082
45020
44962
44909
44862
44818
44776
44736
44699
44663
44623
44580
44537
44493
44448
44408
44372
44342
44319
44302
44290
44279
44268
44255
44241
44226
44212
44197
44180
44160
44137
44113
44089
44063
44038
44014
43993
43974
43952
43924
43890
43849
43806
43763
43721
43677
43629
43578
43525
43477
43439
43414
43407
43426
43487
43600
43770
44005
44308
44666
45066
45493
45933
46371
46794
47184
47536
47846
48116
48339
48517
48656
48759
48830
48868
48874
48848
48793
48712
48612
48502
48389
48276
48162
48045
47925
47803
47683
47564
47441
47317
47193
47074
46957
46840
46725
46617
46516
46423
46343
46276
46225
46184
46155
46139
46133
46135
46147
46172
46210
46258
46316
46385
46464
46547
46632
46719
46806
46892
46970
47038
47092
47129
47151
47160
47155
47137
47110
47076
47031
46973
46906
46831
46744
46650
46549
46443
46334
46224
46118
46020
45929
45846
45764
45683
45600
45515
45428
45341
45257
45176
45099
45024
44954
44889
44829
44775
44729
44690
44654
44620
44589
44561
44534
44506
44481
44460
44442
44426
44413
44400
44387
44379
44376
44374
44369
44360
44349
44333
44309
44277
44240
44200
44157
44118
44085
44058
44036
44015
43989
43959
43928
43896
43861
43827
