46900
50120
49943
45802
45650
49115
48452
45281
46638
49816
48695
47139
49717
50895
47355
45956
49013
49239
45807
46472
50441
50019
47406
49252
51752
49166
46506
49085
50976
47667
45973
49300
50778
48626
49096
51964
50806
47686
49337
51772
48599
45876
49365
52400
50043
48427
50905
51308
48229
48399
51009
49296
46228
48590
52326
50746
48075
50025
51558
48863
48130
50821
49875
46214
47658
51907
50810
47252
48475
50996
49228
47466
49358
49596
46369
46672
51087
51390
47525
47508
50722
50257
47919
49344
50627
47355
45882
49884
51769
48271
46457
49113
50141
47936
47929
49767
48338
46207
48410
51045
48873
46398
48692
50554
47956
46837
49169
48903
46305
47360
50183
48665
45607
47203
49936
48448
46742
48390
48836
46436
46728
49986
49263
45298
45871
49347
48335
45640
47247
48921
46270
45216
48708
49516
45654
44813
48316
48858
45929
46186
48739
47942
46449
48536
49691
46550
44847
47852
49372
46668
46089
49014
49100
46634
47627
50269
48517
45684
47936
50372
47508
45743
48941
50293
47736
47719
50510
49693
46483
47502
50147
48244
45726
48170
50948
49201
47995
50919
51480
47622
47239
50777
49935
46172
47662
51626
50559
48175
50265
51779
48604
47191
50479
51225
47650
47701
52014
52638
49770
49949
51689
50016
47916
49617
50721
47780
46686
50141
51608
49135
48603
50891
50748
48889
50268
51936
48953
46520
49765
52689
50000
47501
49897
51369
48969
48926
51311
49672
46634
48772
52197
50619
48173
50234
52077
49845
48881
51121
50750
47777
48637
52166
51451
48261
49040
51473
50338
48586
49828
50315
48048
48229
51589
51604
48200
48205
51301
51214
48651
48985
50404
48620
47345
50136
51505
48220
46740
50052
51156
48131
48037
50673
49678
47849
50404
52641
49882
47647
50300
51864
48809
47538
49992
50038
47790
49206
52287
50459
46794
48524
51960
50545
48449
50457
51792
49489
49075
52054
51750
47910
47990
51330
50681
47674
48810
51650
50673
49455
52012
53002
49651
48820
52248
52356
48613
48890
52180
51140
48600
50834
53163
50060
47412
50546
52891
49821
48416
51904
53147
50617
50855
53436
51805
48516
50490
53105
50015
47778
51220
53407
51464
51505
54128
53448
50488
51298
53530
51377
48456
50709
54058
52417
49976
52101
53520
50506
49721
52879
52555
49161
50493
54662
53722
50435
51833
54134
51829
49941
52307
52696
48864
48590
53072
53928
50647
50683
53291
52235
49796
51456
53161
50219
48568
52149
54024
50976
49650
52418
53013
50420
50607
52508
50523
48221
51080
54151
51798
49410
52314
54462
51616
50274
52261
51462
49136
51165
54273
52514
49554
50930
52961
51455
50217
51765
51916
49626
50071
53363
52793
48962
49527
53203
52574
49725
50741
52502
50503
49463
52494
53394
49929
48972
52128
52817
50325
50569
52535
51096
49406
51851
53464
50293
48201
51034
52606
49845
49040
51571
51260
48886
50460
53261
50843
47648
50575
53456
50101
48061
51254
52089
49511
50426
53517
52235
48999
50095
52617
51191
49153
50951
52982
51647
51134
53866
53886
50068
49892
52967
51533
48108
50318
54155
52611
50669
53802
55872
52452
50041
52215
52932
50043
49928
53433
53982
51748
52379
54077
52122
49963
51906
53062
49959
49058
52900
54268
51505
51210
53706
52647
49314
50304
52779
50432
47940
51175
54530
52334
50159
52508
53179
49932
50152
53026
50822
47399
50366
54240
51809
48522
50428
52249
50085
49454
51821
51026
47560
48504
52546
52069
48787
49641
52193
51018
49592
51317
51274
47779
47694
51725
51926
48160
48177
51429
51103
48722
50011
51704
49236
47942
51348
52765
49360
47827
50639
51559
48850
48341
50395
49663
47805
49959
52798
50621
47621
49821
52337
49930
48071
49968
50198
48021
49015
51911
50370
47031
48902
51975
49964
48227
51042
51908
48765
48861
52583
52102
48119
48392
51650
51044
48421
49368
51337
49970
49107
51740
52312
48913
48485
52279
52877
49620
49758
52842
52590
51129
53240
54579
51161
49019
52261
53965
50404
48923
52177
53373
51762
53034
55559
53480
50152
51980
54466
51740
49478
52011
53346
51069
51333
54636
53857
49812
50500
53782
52018
48823
50950
54017
52498
51131
53720
54253
50582
49904
52923
52163
48520
49564
53361
52558
50048
52085
54305
51708
50048
52931
53540
49764
49657
54067
54372
50576
50551
53198
51948
49296
50775
52080
48782
47340
51459
53515
50359
49208
52042
51951
48964
50044
52619
50044
47428
50640
53447
50770
48728
51355
52613
49871
49359
51781
51013
48357
49985
53278
51701
48320
49534
51758
49993
48622
50596
50620
47554
47626
50938
50508
47072
47651
50595
49629
47386
48685
49747
47343
46910
50391
50977
47390
46736
49786
50057
47596
48088
49974
48497
47061
49473
50863
48153
46782
49335
50120
47516
47373
49699
48782
46599
48541
50991
48401
45597
48301
50639
47737
46453
49620
50061
47143
48040
51503
49901
45758
47254
50859
49013
46079
47998
49967
48216
48056
51078
50677
46796
46953
50262
49450
46571
48305
51542
50125
48139
50501
51684
48025
46449
49765
50651
47498
47612
50884
50595
48771
50988
53054
50038
47675
50599
52004
48306
47272
50887
51434
48785
49535
52032
50327
47396
48981
51009
48318
46401
49751
52243
49866
48574
51114
51040
47497
47933
51003
49208
45980
48256
51535
49839
47915
50231
51357
48730
48581
51487
50671
47386
49002
53278
52431
49144
50302
52284
49923
48315
50673
50445
46416
46799
51327
51150
47510
48538
52056
51073
48548
50279
51868
48639
46865
50469
52269
48935
47098
49520
50496
48461
48465
50158
48898
47269
49805
52543
50608
48386
50578
52287
50003
49223
51147
50251
47892
49652
52542
50799
48105
50087
52404
50525
49421
51764
51883
48890
49344
52998
52299
48366
49106
52578
51505
48793
50316
52102
49865
49029
52349
53056
49377
48605
51964
52724
50467
50942
52803
51347
50135
52903
54189
50780
49018
52068
53384
50513
50020
52759
52417
50118
51562
53855
51286
48126
50596
53646
51487
49669
52145
53320
51325
51751
54609
53686
50230
51015
53516
51495
48852
50888
53061
51432
51100
54362
54564
50576
50137
53406
52757
49376
50393
53576
52580
50875
53415
54867
51253
49320
52238
52886
49483
49565
53276
53112
50409
51727
54142
52066
49695
51884
53142
49739
48774
52883
54136
50945
50884
54323
53894
50683
51825
54230
51463
48975
52404
55171
52272
50319
53219
54104
50904
51030
53899
52115
48904
51419
54980
52893
50050
52114
54022
51956
51236
53302
52124
48353
49544
54431
54222
50145
50637
53900
52903
50558
51954
52795
49906
49556
53558
54139
50130
49558
53120
53583
51016
51381
52772
50591
49255
52489
54106
50762
48950
51746
52902
50451
50383
52653
51768
50127
52407
54431
51722
49317
51788
53778
51393
50285
52655
52819
50376
51238
54489
53591
50308
51458
54096
52314
50346
52395
53290
50744
50832
54324
53976
50199
50902
54702
53869
50686
52151
55311
54216
52684
54875
55438
51808
50907
54422
54813
51210
51272
54743
54652
52736
54480
56082
53093
51097
54245
55676
52020
50910
54169
54476
52123
53322
55758
53637
50716
52827
55129
52271
50269
53464
55495
53168
52702
55631
55040
51124
51773
54857
52606
49164
51763
55294
53426
51383
53983
55297
52147
51110
53988
54145
51122
51580
54854
53967
50901
52473
54989
52474
50488
53505
54353
50330
50080
54728
55264
51761
52175
55030
53719
51180
53034
54519
51019
49410
53590
55601
52173
50822
53823
54203
51486
52403
54911
52560
50071
53638
57202
54499
51451
53608
55118
52498
52268
54968
53721
50614
52407
55509
53577
50745
52794
55270
53519
51938
53480
53812
51883
52662
55722
54705
51109
52119
55320
53946
51497
53320
54652
51838
51307
55248
55877
51749
50894
54393
55051
52419
52421
53852
52244
51104
53727
54947
52235
51109
53789
54785
52230
51497
53534
53187
51142
52577
55222
53193
50194
52621
55251
52466
50853
53846
54528
51939
52737
55753
54202
50705
52346
55267
52963
50350
52714
54546
52059
51366
54733
54815
50788
50929
54697
53807
50194
51380
54282
52645
50984
53882
55067
51158
49644
53071
53623
49745
49375
52840
52904
50823
52379
54374
52041
49910
52323
53687
50282
48887
52579
54173
51516
51194
53763
52615
49122
50350
53122
50925
48844
51990
54186
51434
49916
52323
52408
49311
49771
52393
50387
47266
49832
53461
51429
48751
51299
52992
49879
49342
52544
51142
46952
49003
53626
51770
47924
49945
52861
50673
48834
51182
51411
47631
47677
52230
52797
49319
49363
52340
52210
50239
51171
52297
49670
48079
51461
53763
50931
48934
51521
53020
50793
50197
51849
50855
49174
51470
54042
51815
49084
51036
52997
50839
49875
52113
51920
49476
50777
54208
53151
49818
51109
54210
53060
51107
52831
54045
51701
51092
54417
54990
51446
51146
54151
53609
51381
53023
54690
52255
51378
54642
55053
51152
50516
54092
54571
51409
51406
54210
54027
52692
54507
55622
52576
50661
53412
54896
51968
50830
53471
53935
52053
53264
55750
53664
50443
52522
55142
52462
50485
53180
54244
51928
52377
55257
53933
50019
50830
53958
52548
49897
52080
55202
53837
52241
54607
55269
51690
51086
54308
53631
50175
51645
55499
54449
51992
53960
55621
52619
50864
53682
54552
51129
50649
54519
55416
52833
52992
54930
53571
51416
53043
54481
51705
50310
53828
55746
53162
52452
55365
55449
52841
54057
56188
52906
50098
53958
57478
54535
51602
53980
55717
53352
52878
54933
53318
50040
51964
56061
55109
52069
53425
55508
53425
51782
53450
53285
50711
51466
54539
53644
50640
51482
53882
52951
51331
52613
53501
51295
50758
54082
54958
51487
50744
54101
54649
51962
52094
53617
51847
50679
53607
54809
51487
50201
53445
54403
51371
51217
53988
52990
50224
52116
55209
52978
49786
52115
54730
52224
50638
52988
53125
50748
51917
54644
52385
48555
50456
53973
52250
49778
51930
53764
51514
50873
54134
54172
50194
50525
54370
53097
49123
50611
54087
52628
50792
53502
54770
51201
49742
52818
53352
49961
49939
53431
53277
50831
52495
54845
51892
48759
51314
53255
49844
48474
52106
53092
50378
50824
53624
52223
49026
50571
52955
50449
48743
52181
54207
51678
50858
53327
52804
49412
50091
53205
51676
48302
50026
53587
52454
50232
52299
53483
49995
48775
52013
52042
48499
49244
53148
52304
49077
50713
53467
51262
49196
51637
52136
48188
47998
52830
53694
49989
49831
52758
52089
49742
51164
52347
49086
47833
52003
53920
50735
49598
52541
53048
50420
50861
53192
51566
49284
51735
54343
51860
49261
51479
53247
50792
49900
52372
52324
49914
50973
53958
52892
50119
51542
53878
52154
50469
52189
52606
50176
50633
54228
53735
49775
50421
54321
53810
51170
52608
54606
52555
51575
54711
55343
51555
50791
54285
54724
51680
51895
54336
53397
52177
55002
56658
53422
51616
54960
56709
53724
52677
55055
54855
52890
54118
55765
53302
50896
53325
55659
53344
51837
54524
55732
53406
53633
56949
55853
51219
51987
55774
53970
50567
52579
55046
53158
52557
55805
55859
51728
51401
54719
53886
50557
52068
55584
54333
52089
54180
55608
52463
50751
53291
53704
50350
50291
54101
54448
51798
52759
55189
53238
50743
52828
53762
49689
48432
52822
54547
51851
51727
54273
53294
50428
51692
53734
51083
49028
52261
54583
51915
50288
52643
52834
49687
49995
52819
51206
48082
50472
54344
52526
49207
50935
52928
50430
49198
51636
51210
47964
49345
53832
53120
49091
49484
52171
51209
49518
50870
50986
47877
47893
52036
52517
48689
48345
51623
51603
49085
50095
52220
50314
48688
51611
53273
50016
48199
51135
52393
49728
49373
51495
50437
48640
51160
53727
51181
48328
50398
52629
50853
49956
51828
51471
49319
50801
53814
52030
48586
50477
53516
51408
49348
51801
52795
50010
50164
53839
53338
49219
49583
53231
52656
49750
50956
53511
51889
50249
53073
54450
50745
49213
52777
53834
50458
50117
53126
52646
50412
52369
54557
51513
48809
51673
53452
50254
49663
53389
53628
50827
51875
54590
52693
49574
51291
53486
50848
48923
51806
53508
51227
50997
54067
53652
49956
50547
53468
51509
48565
51069
54135
52359
50579
52543
53109
50516
50434
52917
51833
48376
49314
53078
52589
49885
51348
53668
51463
49328
51418
52242
49081
48677
52508
52974
49639
50015
53003
51584
48744
50825
52542
48814
47342
52046
54198
50772
49570
52487
52782
50285
51041
52790
50050
47832
51362
54216
51176
48854
51853
53318
50350
50399
53626
52249
48607
50483
54283
52632
49377
51009
53429
51806
50575
52498
52440
49433
50038
54435
54416
50082
50133
53933
53722
51210
52280
53622
51106
50156
53598
54261
50177
49446
53333
53857
50748
51048
53023
51207
49993
53434
55161
51845
50220
53235
54339
51521
51183
53658
52827
50454
52276
54955
52708
49895
52317
54721
52187
50771
53298
53470
50803
51812
55144
53568
49513
50763
53923
52003
49530
52004
54046
51684
50811
53871
54104
50453
50189
53213
52597
49767
51155
54204
52811
50822
53507
55217
51527
49641
52923
53496
49719
49924
53860
53730
51483
53190
55051
52306
49958
52257
53458
50124
49013
52640
53794
51070
51243
54231
53218
49870
51113
53512
50836
48662
52139
54597
51764
50363
53372
53666
49984
50222
53494
51821
48157
50278
54309
53059
50450
52229
53699
51056
50072
52707
52574
49407
50014
53527
52877
50028
51552
53943
51640
49805
52404
52832
49094
49313
53810
53940
50290
50420
53051
52383
50529
51916
52935
50192
49134
52482
53813
50998
50114
52688
53148
50891
51146
53073
51841
50190
52633
54924
52172
49430
51978
54361
52081
50820
52811
52547
50481
52250
55471
53805
50476
52240
55192
53310
51065
52873
53861
51463
51224
54280
54065
50616
51041
54280
53620
51113
52166
53530
51260
50437
53790
54408
50260
49252
52908
53475
50396
50800
53499
52454
50855
53222
54394
50937
49293
52549
53556
50010
49504
52891
52753
50034
51326
54070
52021
48903
50812
53031
50363
48652
51438
52440
49874
50231
53621
52709
48619
49377
52472
50628
48039
50515
52802
50832
50236
53151
53180
49718
49560
52225
51213
48196
49669
53181
51980
49295
51322
53423
50448
48604
51657
52296
48458
48455
52709
52722
49482
50561
53301
51143
48305
50591
52145
48347
46940
51480
53445
50229
49495
52466
52171
49203
50222
52455
49696
47110
50454
53419
50626
48542
51530
52628
49292
49194
52087
50160
46613
49454
54009
52251
48781
50601
52849
50523
49125
51294
50930
47786
48799
52791
52146
48536
49014
51694
51145
49842
51449
52287
49624
48867
52344
53176
49346
48389
51693
52099
49581
50363
52170
50079
48798
51876
53042
49840
48911
52125
52829
49907
49766
52009
50856
48880
51235
53700
51184
48792
51522
53560
50822
49806
52614
52608
49809
50863
54004
52141
48278
50132
53773
51990
49284
51149
52747
50783
50595
53440
52838
49029
49337
52704
52001
49012
50047
52623
51444
50221
52840
53711
49903
48485
51874
52649
49184
48828
51850
51503
49400
51358
53424
50073
46986
49806
51904
48683
47620
51518
52745
50258
50558
52738
50907
47828
49494
51701
49047
47235
50398
52104
49478
49037
52184
51894
48254
48952
52126
50263
47092
49679
53265
51292
48696
50906
52376
49405
48318
51015
50740
47348
48097
52178
52090
49342
50578
53003
51247
49479
51485
51762
48104
47864
52437
53674
50726
50965
53774
52721
50326
52409
54337
51265
49866
53911
55802
52724
51594
54150
54230
51742
52464
54290
51926
49971
53187
55591
52595
50385
53380
55610
53430
52416
54174
53486
51028
52328
55344
53958
50971
52754
55538
53755
51972
54007
54656
51993
52065
55486
55129
51446
52013
55186
53972
51417
52960
54132
51571
51516
55398
55624
51729
51287
54375
54394
51716
52286
54766
53544
51365
53481
55444
52309
49958
53115
54825
51535
50771
53927
53787
51532
53374
55827
52891
49663
52473
55303
52571
51015
54018
54711
52197
53199
56434
54733
50719
52092
55271
53174
50340
52696
55254
53510
52681
55440
55402
51579
51429
54604
53567
50094
51356
54588
53372
51481
53778
54983
51544
49947
52771
53004
49137
48934
53032
53632
51032
51921
54276
52316
49696
51789
53494
50197
48444
51922
53485
50630
50171
53089
52530
49435
50752
53162
50315
48092
51787
54413
51705
50385
53278
53704
50574
50935
53711
51756
48169
50384
54551
53242
50297
52202
54360
52161
51209
53537
52653
49113
50251
54210
53557
50644
51614
53565
52146
51012
52969
53454
50622
50278
53606
54066
51208
51523
54465
53869
51072
51750
53466
51460
49788
52298
53664
50855
49759
52767
53576
50888
51125
53663
52511
50481
52571
54483
51878
49757
52196
53922
51517
50421
52573
52651
50451
51557
54497
52521
48499
50444
54210
52085
49220
51469
52905
50031
49616
53295
53233
49185
49499
53221
52337
49058
50486
53287
51452
49592
52219
53282
49593
48313
51744
52505
49271
49125
51827
51168
49416
51576
53107
49596
47129
50008
51384
48080
47500
50815
50883
48832
50600
52875
50085
46819
48794
50776
47580
45367
48485
50769
48972
48759
51505
50947
47377
47980
50912
49136
46131
48571
52092
50441
48285
50691
51733
47979
46762
49885
49703
46565
47943
51614
50325
47542
49501
51630
48963
47004
49562
50446
46818
45891
49811
50975
48038
48003
50716
50000
47804
49519
50980
47814
46591
50944
52972
49464
47937
50783
51105
48352
49118
51387
49177
47276
50807
53399
50334
48027
50654
52170
49713
49168
51130
49976
47545
49612
52863
51098
47968
49577
52020
50378
48866
50520
50722
48361
48946
52348
51805
48118
48478
51544
50831
48442
49429
50721
48777
48193
51125
51447
48001
47796
51209
51146
48101
48800
51223
49360
47103
49629
51579
48508
46485
49610
51420
48441
47285
50103
50470
48057
48870
51407
49515
46473
48827
51662
48863
46641
49482
50828
48239
48315
51522
50657
46871
48135
51670
49790
46762
49170
51912
49889
48649
51486
51691
47695
47293
50687
50208
47388
49119
52204
50646
48983
51653
52753
49267
48155
51549
52136
48616
48701
52726
52973
50157
51139
53648
51754
49333
51643
53143
49590
48170
52018
53305
50141
49828
52807
52038
48723
49830
52243
49588
47200
50623
53374
50532
48703
51729
52640
49404
49607
52614
50781
47364
49856
53770
52205
49769
51937
53455
50798
50011
52449
51561
48284
49975
54401
53519
49923
50909
53377
51764
50190
52257
52580
49295
49388
53461
53650
50074
50163
53231
52938
50528
51242
52622
50437
48990
51899
53599
50887
49421
51920
52818
50380
50052
51876
50698
48653
50777
53439
51277
48765
51233
53191
50351
49228
51950
51968
49606
50874
53367
51179
47865
49556
52312
50860
49261
50949
51561
49607
50190
53231
52237
48353
49007
52498
51748
49018
50057
51725
49749
48926
52190
52788
48690
48057
52196
52543
48779
49230
52634
51632
49417
51914
53933
50541
48233
51479
52972
49318
48448
52110
52578
50055
51186
53734
51497
48444
50670
52683
49392
47922
51585
52820
50282
50955
53981
52261
48115
49144
52219
50373
47581
49694
52184
50398
49177
51693
52126
48761
48260
51213
50909
47943
48999
52524
51567
48538
49973
52313
50118
48216
50476
50953
47563
47633
51808
52078
48874
49695
52699
51184
48488
50558
52323
49135
47960
51982
53188
49583
48776
51930
52220
49673
50454
52575
50251
47704
50660
53815
51321
48667
51298
53463
51181
50473
52421
51164
48825
51300
54523
52419
49473
51392
53500
51472
50265
52273
52129
49330
50041
53652
53123
49678
50323
53304
52605
50652
51931
52946
50374
49421
52680
53422
49708
49146
52781
52913
49761
50483
52920
51141
49499
52380
53652
49994
48222
51370
52656
49717
48996
51192
50395
48293
50485
53373
50912
47769
50354
53279
50876
49101
51433
51914
49615
50453
53261
51649
48109
49659
52867
51084
48432
50382
52553
51059
50485
52821
52349
48620
48464
51556
51162
48395
49199
51545
50288
48859
51389
52573
48967
47240
50202
50898
47813
48060
51421
51035
48848
50814
53184
50602
47949
50292
52020
49116
48144
51694
52711
50039
50332
53256
52237
49090
50342
52447
49652
47603
50973
53118
50308
49158
52116
52277
48642
48598
51393
50009
47170
49463
52891
51159
48769
51026
52238
48894
48091
51112
49985
45829
47312
51942
50966
47500
49039
51652
49636
47966
50519
51113
47364
47103
51773
52530
48389
47869
51307
51412
49018
49960
51271
48583
47370
50981
52712
49921
48743
51035
51462
49427
49950
51907
50344
48282
50663
53293
50894
48073
50179
52344
50233
49100
51159
51129
49087
50497
53586
52216
49075
50688
53366
51362
49251
51007
51526
49094
49585
52869
51818
47852
48894
52622
51444
48528
49983
51602
49238
48679
52151
52310
48060
47454
51213
51720
48657
48899
51676
51057
49516
51839
53316
49678
47267
50362
51792
48241
47461
51017
51295
48750
50020
52649
50337
47214
49807
52798
50129
48000
50795
52177
49782
49837
52678
51534
47726
48780
51889
49837
46880
49330
52190
50408
49335
52307
52727
48868
48444
51791
51057
47491
48615
52082
51189
49273
51330
52577
49547
48307
51257
51660
48122
48175
52304
52697
49736
50406
52738
50702
48142
50533
52194
48693
47458
51674
53250
50214
49850
52743
52278
49586
50970
53144
50196
47708
51177
54158
51539
49381
51855
53238
51113
51289
53556
51892
48938
51400
55608
54195
50702
52055
54336
52467
51212
52981
52196
49302
50897
54837
53780
50315
51261
54126
53484
51722
52640
53446
51445
50784
53525
54102
50841
49939
52567
52854
50590
50926
52354
50753
49835
52803
54143
51128
49956
53183
54279
51250
50619
52940
52142
49709
51206
53784
51989
49361
51167
53242
51311
50321
52668
53097
51069
51815
54198
52518
49155
50534
53351
51433
48719
50425
52403
50795
50202
52929
52816
48999
49066
52606
51897
48814
50164
52708
51017
49891
52976
53589
49414
48568
52386
52239
48036
48548
52340
51462
49128
51714
54083
50848
48136
50979
52860
49651
48391
51836
52818
50254
50853
53921
52581
49003
50351
53135
50786
48375
51366
53973
51854
50904
53859
54025
50506
50957
53937
51852
48597
51335
54887
52930
51049
54008
55049
51161
50291
53707
53050
49086
50506
55327
54830
51394
52288
54474
52861
51680
54043
54334
50757
50525
54674
55212
51738
51786
54706
54073
52014
53681
54618
50966
49850
54325
55867
51942
50768
54281
54938
52090
52538
54530
51935
49365
52670
55814
52910
49997
52479
54387
51827
50881
52723
51497
49051
51330
54679
52888
49971
51858
54346
52653
51005
52365
52380
50081
50637
53653
52612
48806
49474
52644
51606
49243
50808
52222
49708
48803
51941
52536
49205
48788
51818
51775
48875
49145
51222
49973
48511
50993
52433
49208
47444
50572
51844
48732
48248
51097
50600
48210
49718
51891
49327
46517
48899
51137
48448
46822
49346
50125
48159
49147
52041
50552
47174
48802
51559
49146
46796
49444
51232
49085
49131
52250
51190
46763
47211
50774
49509
46381
48368
51350
49536
48049
50802
51442
47497
46177
49497
50358
47013
46505
50073
50911
48702
49345
51242
49236
47108
49703
51303
47978
46980
50797
51847
49221
49500
52044
50939
48101
49295
51517
49447
47546
50579
53090
50450
48518
51301
52285
49079
49046
52026
50525
47364
50029
54257
52683
49853
52131
54091
51157
49825
52308
51476
47799
49001
52966
51918
48716
50000
52457
51077
49524
51144
51669
49016
48866
52416
52551
48612
48371
52070
52341
49648
50257
51945
49749
48239
51452
53129
49704
47838
50850
52266
49791
49490
51524
50415
48506
50512
52416
49958
48117
51037
53049
50379
48981
51250
51394
48761
49329
52417
51412
48055
49392
52278
50505
48623
50826
51510
48787
49064
52396
51502
47532
48112
51532
50852
48291
49378
51066
49282
48625
51799
52365
48496
47814
51442
51503
47806
48100
51280
50473
48465
50700
52447
49213
47066
50179
51695
48295
47388
50798
51228
48751
49905
52676
50570
47115
49027
51594
48856
46829
49898
51661
49504
49595
52574
51795
48114
48812
51700
49948
47205
49464
52131
50140
48721
51787
52941
49485
48557
51407
50833
47378
48509
52536
51738
48749
50568
52945
50050
48007
51244
52186
48006
47507
52108
52947
49870
50428
52973
51206
48565
50565
51966
48415
47260
51888
53798
50245
49184
52329
52358
49342
50085
51913
48934
46793
50382
52738
49768
48017
50642
51875
49739
49464
51254
50212
47905
49554
52597
51167
48232
49773
52066
50203
48712
50540
50546
47951
48630
51932
51281
48240
49358
52397
51506
49350
50436
51428
49157
48521
51659
51906
47881
47536
51588
51861
48671
49484
51943
49840
47785
50589
52217
49079
47550
50525
51615
48816
48478
51097
50585
48353
49991
52362
49769
46628
49026
51794
49492
47875
50448
51241
48843
49409
52442
51022
47353
49290
52878
50431
47293
49814
51966
49433
48770
52213
52072
47865
48158
51976
50839
47259
48959
52199
50494
48847
51888
53056
49217
48065
51637
51938
48200
48590
52353
51742
49183
51320
53886
50973
47928
50196
51790
48561
47471
51071
51906
49063
49665
53008
51938
48683
50285
52621
49519
47266
50711
52831
50223
49411
52058
51874
48812
49327
51879
50210
47399
49826
53476
51569
48756
51533
53710
50190
48787
52133
51550
47460
48916
53504
52603
49510
51067
53273
51196
49308
50914
51174
48288
48406
52282
52560
49157
49609
53064
52467
49856
51404
53171
50195
48507
51951
53571
50469
48986
51275
51957
50094
50391
51821
50046
48311
50805
53058
50799
48854
51335
53077
50665
49525
51441
51155
48838
49934
52833
51398
48157
49736
52535
50582
48446
50487
51630
49550
49798
52804
51930
48113
48752
52120
51217
48524
49665
51233
49414
49140
52427
52685
48901
48518
52251
52862
49829
49775
52361
51833
50030
51623
52808
49715
47972
51278
52700
49311
48686
52013
51961
49583
51339
54267
52048
48649
50494
53103
50875
48997
51373
52607
50658
51057
54049
53176
49429
50044
52769
51041
48746
51221
53571
51848
51174
53759
53863
50792
50718
53267
52192
48653
49349
53072
52818
50288
51905
54270
51797
49725
52281
52902
49218
49077
53262
53672
50699
51261
53406
51515
49138
51065
52163
48917
48317
52600
53670
50236
49949
52936
52057
49009
50676
52963
49522
47000
51092
54176
51111
48906
51442
52244
49595
50129
52710
50419
46843
49355
53445
51678
48431
50215
52338
50288
49459
51843
51202
47831
48915
52894
51991
48412
49462
52380
51143
49209
51064
52276
49518
48666
52156
52855
49065
48499
52131
52517
49589
49808
51456
49576
48311
51289
52444
48958
47674
51091
52173
49215
49104
51814
50877
48495
50558
53175
50573
47753
50390
52522
49655
48742
51863
51656
48474
49690
53273
51817
48267
49976
53248
51576
49126
50730
51940
49972
49889
52650
51952
48253
48807
52276
51490
48510
49757
52507
51324
50121
52903
53750
49736
48534
52201
52457
48691
49305
53022
52119
49730
52099
54255
51159
48980
52091
53462
49868
49152
52936
53443
50973
52300
55157
52989
49322
50850
53345
50874
48740
51601
53630
51440
50998
54115
53929
50048
50238
53282
51652
48417
50609
54028
52133
49636
51974
53247
49823
49048
52530
52057
48013
49080
53687
53173
49848
51027
53001
50290
48534
51471
51889
47881
48146
53031
53409
49849
50246
53029
52013
49940
51650
52607
49017
47482
51261
53155
50520
49477
51734
52163
50175
50287
51492
49585
47659
50240
53158
51184
48553
50357
52128
50318
50103
52398
51495
48877
50619
53877
52209
48935
50462
52946
51058
49146
50669
50878
48438
48905
52151
51545
48214
49112
52025
50541
48119
49970
51549
49177
48703
52130
52393
48553
48062
51293
51437
48929
49592
51386
49765
48842
51861
52977
49643
48180
50985
51933
49208
48758
51235
51016
49128
50767
53162
50797
47906
50472
53128
50662
49488
52689
53229
50043
50396
53725
52283
48036
49351
52887
50990
48361
50779
52577
50194
49904
53313
53389
49837
49782
52520
51615
48923
50185
52722
51612
50595
53142
53854
50328
49222
52251
52483
49182
49662
53482
53178
50349
51835
54444
51991
49182
51575
52988
49377
48534
52719
53546
50289
50345
53074
51963
48875
49951
52170
49952
47736
50411
52895
50882
49404
51643
52149
49477
49778
52042
49895
46695
48971
52427
50878
48625
50700
52262
49944
49232
51633
50959
47303
48050
52561
52346
48392
49152
52596
51398
49178
51117
51686
48057
47810
52032
52325
48583
48509
51689
51867
49883
50544
51705
49695
48627
51496
52646
49409
47836
50456
51398
48963
48688
50536
49414
47677
50180
52713
49878
46946
49689
52060
49287
48078
50617
50106
47231
48779
52078
50167
46703
48643
51542
49495
47740
50321
51300
48572
48742
52429
52244
48470
48545
51650
51193
48602
49403
51487
50256
49141
51711
52683
49319
48382
51767
52269
49423
50374
53471
52017
49593
51825
53587
50269
47953
50897
52599
49621
48734
51845
52273
50067
51387
54139
51933
48569
50831
53459
50270
48030
51462
53180
50120
49920
53905
53546
49066
49808
53650
51765
48419
51208
54561
52394
50649
53477
54152
50358
49482
52424
51959
48765
49791
53058
51849
49388
51526
53528
50713
49204
52231
52552
48471
48471
53019
53322
49899
50521
53304
51678
48924
50836
52653
49586
48136
52191
54228
51138
50134
53103
53113
50300
51465
53611
50263
47316
50834
53927
51170
49070
51876
53264
50554
50158
52484
51307
48564
50466
53656
51815
48760
50511
52822
50933
49419
51054
50911
48372
49308
52904
51915
48018
49119
52885
52021
49593
50921
51638
48615
48150
51797
52052
48283
48016
51358
51554
48961
49411
51396
50098
48797
51409
52989
50167
48668
51589
52719
49599
48657
51151
51159
49332
50813
53032
50792
48098
50549
53141
50754
49064
51318
51793
49576
50489
53488
52020
48342
49825
53315
51621
48434
49916
52330
51148
50534
53107
52971
49209
49386
52974
52052
48773
50319
53164
51583
50475
53522
54254
50416
49454
52871
53133
49547
49742
53419
53397
51219
52818
54795
52100
49662
52139
53436
49809
48490
52109
53342
51067
51674
54261
52518
49238
50941
53059
49882
48074
52011
54141
51259
50452
53436
53368
50042
50294
52556
50610
48060
50710
53756
51663
49505
51944
53212
50112
49089
51573
50884
47562
48814
52991
52366
48993
49852
52239
50949
49831
51765
51254
47473
48126
53002
53312
49503
49519
52315
51454
49027
50321
51689
48928
47599
51117
52807
49818
48566
51234
51866
49548
49757
51291
49296
47560
50455
52698
49935
47622
49974
51769
49618
48577
50283
49941
47915
49347
52351
50716
47206
48787
51704
49816
47918
50007
50488
47893
48547
51985
51110
47548
48553
52032
51397
48910
49853
51430
49514
48467
51526
52309
48258
47383
51473
52048
48668
49177
51631
49689
48065
51502
53135
49097
46985
50477
52097
48983
48318
51240
51204
49319
51118
53310
50572
47807
50617
53041
49922
48038
51123
52399
50030
50740
54334
53158
48889
50111
53740
51719
48628
51069
53640
51630
50742
53572
53610
50055
49983
52796
51640
48667
50444
53716
52276
50300
52788
54285
51018
49466
52354
52767
49088
48885
52666
52634
49560
50772
53595
51071
47732
50386
52981
49734
48062
52122
53926
50905
50322
53018
52227
49142
50503
52895
49974
47435
50918
53765
51068
49264
51931
52520
49300
49377
52199
50585
47307
49472
53033
51033
48049
50386
52605
49868
48432
50939
50500
46856
47728
52043
51593
48122
49133
52005
50577
48484
50186
50914
47897
47514
51291
51833
48328
47897
50678
50541
48219
48923
50444
48424
47081
50239
52104
49041
47262
50116
51402
48993
48939
51047
49516
47129
49421
52195
49972
47364
49541
51537
49243
48175
50568
50692
48226
49113
52217
51035
47677
49045
51963
50242
48049
49945
50996
48508
48393
51963
51999
48203
48411
51840
51097
48360
49905
52158
50181
49064
52172
52900
49032
48093
51640
52146
48789
48840
51878
51204
48853
50621
52766
50284
48250
51063
52451
49198
48524
51833
51817
49079
50142
52813
51004
47871
49294
51395
49224
47768
50529
51926
49789
49836
52852
52435
48829
49052
51793
50545
47966
49872
52678
51107
49299
51491
52206
48867
48520
51889
51054
47144
48361
52418
51420
48514
50321
52523
49938
47998
50420
50956
47404
47115
51107
51679
48784
49179
51332
49608
47377
49538
50717
47010
45864
50278
51873
48388
47477
50451
50484
47750
48617
50861
48459
45800
48613
51632
49395
47052
49217
50676
48511
48317
50383
48946
46324
48605
52082
50385
47448
49208
51352
49318
47975
50098
50273
47477
48039
51925
51680
47980
48551
51938
51162
48652
49705
50669
48197
47751
51203
51854
48634
48199
50987
51083
48747
49206
50862
49085
47493
50526
52787
49552
46796
49501
51765
49371
48012
50119
50352
48609
49931
52334
50346
47592
50017
52505
49685
47932
50749
51466
48882
49566
52645
51057
46995
48214
51705
50182
47355
49232
51693
50291
49587
52133
51867
47942
47931
51484
50750
47374
48623
51679
50231
48475
51275
52640
48761
47002
50521
51631
48153
47830
51426
51611
49286
50717
52747
49868
47333
50202
51375
47007
45856
50287
51441
48668
49317
52006
50205
46888
48561
51183
48709
46408
49498
52096
49679
48148
50782
51169
47893
48225
51264
49712
46755
49187
52328
49984
47578
50414
52132
48846
47736
50852
50528
46665
47469
51944
51670
48257
49140
51651
49924
47998
49989
50530
47239
47116
51235
51712
48245
48215
51140
50837
48775
50034
51398
48530
46808
50375
52495
49182
47379
50470
51480
48656
48858
51134
49085
46650
49662
52535
49770
47363
50301
52312
49560
48606
51113
50634
47900
49314
52500
50905
47794
49722
52632
50841
48899
50686
51224
48716
48969
52275
51677
47984
48759
52344
51559
48852
50088
51876
49942
49195
52345
52792
48811
48011
51511
51860
48956
49583
51958
50256
48373
51037
52746
49626
47790
50616
51740
48677
48001
50779
50714
48590
49955
52115
49603
46813
49592
52264
49485
47826
50695
51259
48359
48975
52505
51435
47444
48355
51341
49389
46679
48943
51218
49296
48586
51581
51818
48278
48128
51040
49929
46673
48177
51535
50252
48080
50297
52004
49105
47321
49766
50480
47466
47306
50893
51149
48266
49077
51786
50012
47306
49453
50934
47282
46078
50444
52145
49287
48915
51500
50968
48265
49128
51119
48647
45879
48617
51953
49887
47531
50094
51532
48510
48193
50886
49099
45746
48468
52712
51007
47985
49994
52030
49654
48554
50985
50572
47118
47925
52152
51864
48409
49134
51842
50603
48819
50582
51118
48169
48241
52185
52424
48905
48992
52071
51652
49055
49971
51919
50156
48809
51682
53140
49878
48053
50833
52206
49918
49557
51385
50386
48768
50978
52984
50319
48064
50795
52711
50099
49365
52032
51549
48697
49955
52970
51265
47982
49530
52170
50366
48362
50379
51772
49601
49227
52469
52512
48572
48491
51993
51589
49048
50485
52464
50472
49644
52685
52900
48784
47917
51379
51863
48873
49306
52441
51773
49491
51315
53249
50198
47735
50650
52226
48823
47878
51020
51038
48745
50402
53052
50632
47348
49357
51725
49127
47435
50309
51466
48969
49151
52257
51389
47651
48614
51839
49996
46821
48992
52154
50577
48932
51598
52823
49528
48280
50946
50976
47941
48335
51453
50774
48373
50338
52703
50066
48084
50828
51367
47515
47643
52387
52943
49720
50360
52919
50992
48185
50294
52159
48972
47599
51768
53694
50559
49649
52744
53153
50644
51460
53574
51197
48867
52009
54818
51995
49525
52196
53994
51771
51796
54259
52703
49822
52356
56137
54260
50966
52568
54732
52791
51435
53280
53102
50178
50760
54585
54300
50696
51135
53980
52948
51044
52962
54066
50923
49916
53515
54275
50622
50258
53841
53991
50946
51285
53207
51468
50099
53117
54605
51232
49613
52719
53738
50630
50208
52794
52133
50212
52419
54773
51971
49151
51836
54275
51610
50178
53123
53964
51389
51897
55120
53966
50053
51084
54236
52423
49683
51697
53597
51325
50524
53674
53677
49404
49089
52750
52406
49568
51031
53645
51966
50681
53465
54145
50416
49413
52676
52985
49552
49550
52709
52525
50859
53082
55223
52322
49556
51738
53215
50564
50376
54203
54681
51718
52283
55034
53238
49846
51662
54125
51065
48867
52579
55058
52342
51365
54472
54349
50452
50860
54159
52399
49010
51609
55679
54063
51572
54113
55779
52410
51065
53886
53333
49591
50648
54899
54289
51228
52547
54678
52485
50949
53554
54053
50496
50659
55268
55582
51528
51441
54677
54154
51648
52908
54213
51196
49904
53726
55527
52659
51567
54002
54270
51873
52151
53919
52116
49956
52423
55108
52756
50113
52253
54057
51814
51247
53474
52514
49804
51412
54446
52836
49983
51704
54207
52634
50902
52225
52577
50601
51095
54077
53372
49860
50443
53408
52307
49909
51436
52995
50778
50198
53660
54161
50093
49202
52612
53076
50492
51165
53155
51169
49525
52603
54245
50654
48785
52190
53681
50710
50483
53518
52896
50345
51990
54543
52336
49445
51355
53548
51216
49467
51874
53233
51334
51445
54174
53296
49633
50514
53724
52229
49613
51647
53875
52121
51525
54609
54842
50966
50451
53510
52987
50221
51683
54623
53296
51825
54677
55983
52207
50468
53610
54400
51305
51614
55013
54402
51799
53419
55709
53397
51089
53357
54532
51090
50153
54355
55925
53072
52883
55740
54832
51596
52799
54906
52027
50129
53844
56119
53313
51965
54340
54423
51810
52524
54654
52262
49489
52514
56142
53854
50723
52704
54536
52046
51061
53456
52778
49271
50200
54375
54178
51167
51872
53724
51828
50259
52468
53059
49743
49226
52794
53167
49877
49683
52188
51726
49752
51047
52530
50072
48604
51718
53143
49626
47773
50631
51769
49197
48980
51004
49819
48049
50408
52586
50044
47673
49975
51994
50045
49052
50674
50070
47854
49352
52371
50589
47018
48661
51727
49989
48040
50153
50792
47619
47267
50912
50911
47087
47489
51229
50719
47977
49222
51130
49043
47936
50940
51625
47961
47086
50337
50697
47532
47692
50721
50146
47951
49936
52079
49030
46653
50027
51805
48119
47305
51131
51335
48529
49944
52985
50915
47553
49480
52062
49612
47824
50839
52505
50213
50077
52927
52024
48153
48917
51961
49911
46679
48885
51914
50381
49201
52055
52884
49586
49164
52195
51455
47979
48973
52404
51483
49118
50731
52081
49233
47812
50526
50804
47094
47125
51560
52101
48817
49387
52347
50855
47965
49751
51382
48149
46921
51062
52588
49166
48377
51439
51313
48465
49540
51721
48983
46731
50290
53021
50070
47900
50535
51875
49541
49463
51215
49019
46241
49109
52847
50800
47665
49600
51951
50269
49464
51624
51068
47657
48290
52329
51905
48002
48312
51221
50258
48186
49858
51210
48876
48412
51802
52298
48827
48395
51440
51533
48934
49255
50838
49005
47501
50408
52118
48813
47087
50435
51626
48464
48454
51485
50555
48355
50678
52936
50003
47357
50006
52309
50055
48879
50908
50723
48583
49910
52684
50996
47586
48790
51732
50732
48675
49948
51470
50054
49509
51888
51724
48195
48270
51554
50804
47841
49262
51975
50436
49135
52115
53179
49412
48248
51715
51979
48174
48450
52337
51922
49046
50513
52663
49756
47292
50533
52530
49137
48303
52227
52767
49855
50842
53851
51839
48207
50039
52735
49894
47528
50779
52988
50287
49472
52823
52823
49000
49689
53001
50813
47501
50507
54242
52347
50294
52468
53032
49849
49413
52034
51003
47871
49904
54520
53832
50567
51631
53624
51411
49623
51743
52039
48548
48515
52898
53602
50177
50033
52573
51665
49555
51354
52561
48995
47555
51895
54105
50899
49288
51858
52594
50124
49936
51724
50361
48225
50317
52841
50523
48007
50692
53199
50896
49578
51609
51120
48397
49800
53295
51635
47779
49624
53411
51947
49564
51271
52106
49609
49601
52724
52242
48808
49537
52907
52239
49703
50735
52275
50201
49154
52141
52997
49618
49113
52762
53194
49907
49861
52158
51070
49641
52320
53985
50765
48750
51771
53448
50627
49786
52561
52759
50707
51951
54319
52137
48847
50558
53153
51354
50025
52296
52959
51121
52042
54672
53128
49647
50960
54177
52710
49802
51180
53535
52400
51635
54235
54503
50644
49952
53250
53080
49934
50636
53494
52633
51217
53710
54873
51261
49835
53162
53666
50345
51062
54780
53939
51234
52876
54813
52230
49944
52009
53057
50008
49294
53121
54288
51463
51736
54940
53588
49844
51701
54769
51626
48856
52344
54803
52136
51080
53766
53696
50514
51045
54056
52701
49513
51395
55264
54182
51291
52667
54234
51917
51241
53806
52890
49273
50622
54925
54216
50917
51930
54411
53143
51516
52958
53175
50085
49767
53813
54905
51559
50862
53471
53278
51239
52563
53997
51272
50038
53752
55293
51667
49962
52948
54188
51876
51705
53367
51790
49953
52696
55345
52811
50425
53324
55686
53124
51772
54028
53822
51135
52430
55930
54082
49645
51013
54609
52998
50669
52644
53452
50712
50980
54809
54496
50613
51153
54541
53514
50882
52476
54157
51685
50646
53671
54257
51016
50475
53208
53348
51055
51725
54047
52977
51281
53411
54908
51892
50272
53465
54182
49948
49065
52668
52824
50343
51880
54565
52188
49094
51373
53472
50190
48434
51825
53016
50124
50497
54221
53256
48780
49451
52880
51180
48171
50283
52825
51195
50678
53822
53919
50017
49934
53448
52636
48982
50124
53659
52566
50229
52280
53946
50983
49441
52476
53206
49335
48716
52983
53889
50603
50761
53480
51879
48895
50778
52421
48829
47337
51684
53516
50302
49877
53092
52287
48736
50272
53177
50031
46998
50535
53603
50882
48974
51684
52680
49973
49945
52182
50483
47734
50267
53911
52119
49068
50604
52347
50396
49848
52269
51636
48327
49398
53601
53220
49880
50697
53259
51779
49806
51506
52184
49337
49199
52905
53202
49713
49529
52628
52912
50757
51217
52751
51001
49421
52262
54401
51541
49680
52710
53856
50715
50477
53053
51812
49715
52240
54615
52038
49666
51821
53482
51348
50618
52954
53029
50685
51504
54364
52959
49592
51349
54671
52717
49826
51338
52626
50668
50945
54437
53818
49401
49822
53753
52578
48841
50116
52902
51522
50583
53248
53493
49844
49184
52470
53037
50198
50157
52747
52374
50809
52964
54917
51912
49435
52179
53627
50265
49447
52738
52829
50406
51934
54646
52243
48976
51271
53726
50717
48956
52433
53964
51316
51564
55109
54368
50179
50634
53819
52287
49330
51609
54797
52787
50616
53441
54753
50887
49765
53151
52617
48692
49883
54099
53267
50406
51926
53588
50805
49155
51841
52429
49024
49156
53548
53986
50620
51124
54004
52482
49611
51296
52644
49184
48031
52402
54068
50748
50067
53249
53388
50761
51709
53643
50692
48093
51621
55121
52904
50553
52734
54037
51639
51424
53797
52666
49810
51399
54647
53618
51186
52470
54320
53083
52305
54063
54162
51619
51712
54939
54699
51235
52012
55770
55116
52264
53344
54969
52530
51152
54233
55270
51859
51198
54646
54900
51710
52030
54501
53226
51620
54312
56127
53150
51033
53299
54378
51950
51663
53878
53051
51098
53278
56043
53851
50894
52803
54987
52809
51606
54109
54603
52183
52775
55754
54529
50949
52282
55376
53443
50811
52898
54822
53016
52767
55631
55121
51383
51903
55178
53762
50611
52553
55488
53482
51724
54551
55388
51379
50280
53896
54147
50410
50784
54288
53353
50842
53309
55835
52450
49356
52271
54264
50740
49389
53100
54114
51496
52084
54655
52500
48665
50403
53544
51221
48807
51949
54584
52128
50681
53387
53674
50373
50862
53768
51631
48329
51104
54838
52829
50292
52569
53889
50897
50234
53222
52543
48634
49387
53568
53308
50379
51403
53490
51687
50310
52547
52648
49039
49265
53971
54798
51292
50724
53029
52676
50617
51176
52036
49927
49223
52679
54305
51406
50248
53193
53993
51485
51783
53858
51902
49410
51878
54575
52129
49494
51648
53500
51415
50740
52561
51569
49487
51928
55346
53387
50092
52049
54890
53033
51168
52954
53311
50619
50695
53881
53627
50600
51371
54162
52859
50187
51411
53222
51574
50923
53804
54076
50217
49585
53122
53375
50203
50482
52754
51324
49825
52689
54240
50674
48682
52046
53788
50629
49383
51848
51817
49727
51093
53277
50631
47626
50324
52769
49587
48052
51634
52674
49834
50541
54053
52567
48276
49523
52959
51014
48226
50475
52452
50337
49970
53142
52977
49133
49024
51991
51027
48007
49552
52997
52164
50479
52694
53760
50295
49009
52276
52583
48739
48721
52370
52177
49950
51953
54333
51583
48970
51597
53084
49286
47954
52266
54002
51052
50845
53839
52943
49739
51243
53544
50403
48369
52673
55503
52330
50600
53470
53693
50270
50903
53982
51756
48264
51115
55079
52971
50139
52586
54493
51759
50838
53617
53080
49425
50439
54890
54563
51226
52204
54689
52905
51104
53334
53955
50634
50537
54545
54747
51058
50737
53474
53516
51657
52539
54184
52390
50633
52891
54455
51713
50155
53083
54491
52058
51740
53687
52407
50481
52960
55428
52670
49834
52143
54004
51370
50462
52909
52327
49641
51321
54753
53139
49581
50786
53368
51963
50535
52590
53406
51035
51077
54291
53761
49746
50063
53653
53093
50441
51572
53103
50938
50196
53360
53877
50260
49574
52897
53645
51102
51139
53251
52093
50058
52197
54125
50949
48657
52007
53708
50036
49178
53065
53647
51016
52005
54509
52349
49379
51661
53850
50746
49112
52373
53527
51292
52210
55250
53507
49496
50801
54072
52214
49334
51444
54062
52508
51612
54365
54588
50920
50757
53994
53006
49548
51052
54616
53389
51255
53605
55141
51768
49905
52698
53346
49882
49813
53974
54544
51674
52441
55186
53701
51162
53057
54511
51165
49841
53896
55620
52536
51722
54466
54248
51569
52746
55011
52456
50102
53115
55618
53306
51913
54456
55007
52314
52714
54871
52524
49748
52868
56439
54179
51448
53733
55736
53515
52284
54007
53327
50245
51229
55404
54931
51006
51699
55202
54445
52234
53707
54652
51862
51323
54742
55032
51442
51096
54235
54592
52445
52934
54312
52413
51004
53690
55361
52804
51195
53181
53720
51516
51795
53973
52773
50827
53206
55651
52808
50047
53025
55409
52274
50770
53782
54065
51041
51756
54970
53497
49794
51401
55021
53752
51316
52809
54045
51950
51587
54427
54013
50292
50754
54215
53236
50292
51927
54487
52718
51661
54863
55648
51756
51005
54746
54876
51079
51461
54940
54021
51423
53494
55838
53091
50749
53519
55040
51815
51002
54370
54779
52515
53827
56384
54080
50728
52748
55346
52570
50310
53395
55630
53462
52914
55808
55457
51794
52436
55514
53571
50437
52921
56131
54114
52023
54436
55495
52525
52177
55042
54009
50539
52126
56161
55116
52214
53760
55625
53269
52019
54780
55045
51073
50661
54782
55310
52243
53017
56057
54590
51636
53390
55270
52146
50544
54603
56531
52904
51457
54796
55501
52582
52939
54822
52235
50147
53706
56279
53175
50935
53564
55053
52904
52914
55037
53427
50481
52482
55853
53949
50846
53060
55683
53276
51449
53681
53920
50965
51460
54985
54221
50625
51521
54823
54007
51570
52571
53833
51737
50871
53644
54135
51012
51005
54480
54412
51137
51386
53573
51878
49765
52211
54319
51745
49796
52313
53817
51451
50793
52992
52651
50807
52568
54900
52253
49289
52129
54778
51813
50266
53240
53558
50815
51891
55056
53444
50066
51877
54811
52568
49952
51934
53503
51550
51524
54609
53973
49815
50038
53679
53168
50428
51805
54197
52604
51613
54654
55437
51522
50212
53504
54184
50910
50670
53699
53609
51751
53487
55340
52514
50119
52772
54250
51006
50343
54166
54753
51903
52734
55712
53829
50168
51945
54665
51683
49065
52284
54773
52347
51226
53975
54281
51279
51625
54088
52126
49083
51549
55177
53400
50710
52826
54498
51597
50303
52928
52848
49710
50612
54662
54406
51590
52925
55238
52975
50869
53139
53768
49990
49386
53677
54534
50996
50783
53659
53034
50819
52644
54255
50815
48871
52677
54779
51633
50153
53009
53915
51549
51581
52999
50613
48319
51497
54868
52498
49508
51482
53407
51345
50650
52473
51356
49016
51201
54341
52098
48692
50682
53427
51402
49576
51386
51528
49012
49908
53408
52347
48493
49360
52767
51844
49073
50104
51860
49787
48569
52021
53548
49675
48045
51450
52282
49237
49458
52048
50850
49194
51960
53535
49723
47432
50922
52917
49869
49002
51948
51771
49283
50973
53907
51295
47587
50108
53460
51036
49039
51916
53180
50767
51229
54397
52964
48768
50003
53453
51540
49005
51877
54124
51233
50047
53678
54358
50389
50070
53656
53048
49577
50787
54142
52950
50986
53406
54827
51388
49706
52647
53159
49566
49501
53391
53467
50670
52103
54724
51846
48488
51165
53411
50176
49194
53118
53716
50531
50954
53801
52473
49433
50859
52987
50257
48171
51779
54735
52172
50223
52809
53653
50619
50493
52887
51140
48251
50668
53941
51968
49556
51854
53460
50854
50104
52724
51996
48242
49145
53650
53452
49957
50769
53498
51967
49942
51776
52327
49219
49377
53605
53741
49795
49761
53055
52736
50170
51321
53319
50869
48703
51673
53636
50259
48491
52226
53974
50811
49983
52127
50832
48615
51262
54053
51181
48430
51589
54109
51123
49785
52694
52591
49388
50338
53736
52127
48224
49680
53115
51839
49694
51214
51890
49464
49558
52947
52759
49271
49881
53389
52798
50161
51202
52774
50614
49764
53311
54239
50133
49169
53086
53501
49698
49796
53045
52455
50714
53192
54924
51461
49274
52465
53762
50376
50165
53760
53491
51067
52973
55541
52918
49852
52124
54578
52072
50334
53246
54689
51959
51622
55094
54688
50478
51169
54626
52530
49235
51758
54499
52251
51039
54104
54750
51356
50855
53461
52645
49804
51257
54459
53258
51223
53520
55085
51808
50069
53072
53832
50276
50122
54301
54790
51693
52287
54813
52942
50421
52832
54274
50430
49192
53387
54500
51111
50683
53399
52946
50502
51700
53627
51085
48893
51968
54649
52228
50396
53021
54026
51177
51124
53483
51554
48463
50995
54485
52103
48923
51420
54182
51953
50266
52292
52327
49495
50121
53617
52996
49685
50458
53312
52476
50459
51636
52682
50264
49430
52932
53862
49873
49076
53055
53544
50377
50902
52726
50213
48693
52270
53972
50765
49528
52596
53512
50868
50773
53128
52456
50864
52944
54924
52463
50253
52705
54701
52483
51446
53562
53409
50978
51997
55048
53648
50207
51849
55093
53362
51048
53054
54453
52428
52358
55163
54587
51101
51531
54755
54241
51517
52361
54816
53834
52461
54659
55508
51989
50780
54212
54966
51736
51759
54603
53768
51868
54400
56439
52925
50291
53404
54896
51159
50421
54322
54709
52084
53370
56004
53623
50235
52182
54472
51513
49562
52977
55118
52801
52092
54529
54099
50925
51504
54160
52480
49463
51335
54567
53303
51281
53302
54500
51685
50949
53575
52850
49532
50828
54707
53722
50722
52278
54286
51552
49714
52602
53358
49525
49189
53572
54154
50693
50924
53889
53012
50533
52116
53795
50689
48727
52291
54401
51308
49960
53053
53599
50683
51252
53526
50959
48271
51523
54675
52113
49755
52268
53720
50983
50402
52910
52074
49116
50590
54018
52699
49620
51284
54141
52871
51382
52763
52654
50491
51765
55396
54399
50571
51389
54694
53774
51388
52914
54639
52224
50963
54371
55434
51318
50243
54218
54966
52045
52772
54839
52556
51201
54789
56117
52162
50298
53398
54890
52544
52202
54479
53843
51589
53007
55193
52638
49658
52121
54556
51957
50657
53191
53175
51034
52994
56173
53776
49746
51416
54498
52415
49841
51991
53863
51663
51026
54402
54752
50876
50825
54448
53653
50024
50854
53503
52215
51121
54076
55019
51200
49833
52956
53341
50182
50654
53937
53413
51553
53629
55354
52377
50029
52369
53557
50362
49400
52858
53842
51400
51848
54490
52994
49759
51386
53776
50823
48542
52116
54724
52037
50664
53433
53305
49369
49606
52881
51310
48096
50530
54212
52564
50193
52218
53308
50594
50521
53433
51862
47692
49277
53821
53016
49993
51501
53610
51425
49867
52192
52520
48912
48673
53002
53900
50628
50453
53113
52552
50402
51734
52963
49831
48125
51732
53775
50833
49639
52796
53657
50934
50991
52842
50770
48587
51510
54282
51907
49769
52375
54271
51920
50852
52706
52181
49802
51012
53982
52993
50497
52114
54455
52651
50774
52313
52867
50701
51003
54217
53780
49974
49963
52866
52280
50248
51792
53439
51364
50475
53355
54005
50807
50116
52953
53377
50952
51038
52815
51592
50079
52477
54279
51398
49292
52078
53895
51481
50875
53459
53263
51007
52186
54397
52224
49490
51797
54013
51058
49076
51554
52553
50996
52440
55454
53655
49709
50908
54099
52515
49881
51790
53897
51709
50460
53670
54511
50453
49443
52788
52619
49385
50329
53482
52438
50621
53063
54651
51456
49732
52412
52879
49571
49702
53373
53175
50442
51938
54479
51928
49196
51983
53721
49837
48584
53204
54858
51505
50953
53767
52923
49566
50535
53070
51157
49378
52380
54447
52009
51038
53796
53813
50599
51365
54264
52002
48729
51613
55271
52792
49750
52232
54406
52075
51533
54348
53542
49957
51342
55493
54202
50373
51725
54995
53813
51716
53029
53520
50879
50917
54621
55177
52239
52170
54581
54163
52114
52910
54111
52135
51289
54531
55965
52761
51080
53657
54631
52341
52506
54851
53689
51321
53289
55941
53598
50850
53367
55525
52627
51161
53543
53453
51256
52746
55277
53090
49991
51913
54593
52896
51235
53118
53822
51508
51723
55058
54571
50715
51328
54981
54013
50883
52114
54197
52112
50922
54144
55093
51249
50167
53555
53958
50863
51321
54084
53020
51319
53623
54800
51237
49289
52578
54399
51503
50462
53065
53109
51003
52613
55518
53253
49350
50819
53457
51003
48745
51459
53345
51067
50601
53611
53203
49371
50013
53187
51450
48952
51822
54433
52103
50818
53511
53713
50198
49916
52984
52601
49597
50502
53788
53157
50926
52423
54101
51966
50873
53339
53398
49919
50205
54392
54639
51568
52278
54933
53434
50914
52710
54124
50822
49407
53484
55515
52526
51495
54202
54092
51336
52409
54652
51877
49365
52972
56193
53379
51011
53777
54921
51742
51760
54844
53225
49768
52257
56297
54253
50915
53217
55879
53673
52337
54394
53544
50194
51605
55669
54483
50787
51917
54948
53927
51896
53161
54126
51699
50908
54119
55003
51719
51052
54147
54572
52196
52749
54602
52828
51079
53504
55009
52224
50902
53754
54519
51683
51735
54096
52531
50068
52426
55008
52339
49843
52747
54846
51781
50428
53254
53491
50936
52087
55202
53499
49922
51604
54683
52686
50178
52214
53814
51612
51187
54274
53955
49948
50281
54048
53225
49923
51274
54128
52717
51452
54220
54902
51006
49917
53253
53503
50320
51080
54318
53195
51107
53806
55877
52277
49692
52796
54136
50260
49473
53544
54141
51436
52812
56053
53926
50146
52069
54813
51857
49523
52853
55014
52428
51561
54321
54282
51215
51816
54450
52727
50079
52515
55646
53918
52027
54396
55273
51852
51059
54094
53629
50224
51410
55399
54561
51622
53423
55926
53574
51762
54137
53991
49898
50215
54850
55119
51919
52359
54668
53654
51872
53229
53960
50985
49886
53542
55126
51868
50722
53965
54653
51838
52069
53784
51299
49381
53124
56080
53184
50665
53056
54645
52407
52143
54642
53810
50784
52142
55706
54329
50562
51682
54686
53361
51212
52562
53263
50881
50786
54259
54335
50604
50935
54712
54221
51124
51814
53458
51479
50582
53774
54581
50925
50146
53584
54028
51257
51813
53966
52331
50954
53945
55468
52164
50336
53131
54350
51469
50464
52442
52035
50357
52224
54602
52313
49307
51330
54179
52359
50204
51957
53305
51623
51898
54876
53553
49138
50732
54920
52541
49118
51921
54064
50995
50416
54510
54674
50242
49998
53463
52695
49676
51183
53879
52341
51300
54276
54861
50893
49885
53314
53692
50415
50831
54191
53570
51309
53311
55258
51961
49308
52273
53949
50362
49431
53623
54674
51765
52513
55916
54385
50477
52004
55051
52519
49991
53279
55980
53417
51884
54394
54200
50374
50757
54215
52883
49834
52157
55446
53444
51005
53183
54501
51706
50919
53316
52302
48743
49981
54147
53457
50424
52076
54683
52569
50959
53742
54189
50126
49747
53881
54084
50694
51221
54240
53507
51264
52457
53343
50234
49159
53277
55093
51553
49980
53000
53822
51241
51593
53666
51690
49494
52106
54373
51783
49568
51820
53653
51914
51215
52853
52350
50262
51402
54039
52696
49773
51106
53485
51827
50084
51813
52458
50165
50581
54326
54037
49984
50599
54532
53455
49989
51242
53321
50900
49551
52893
53970
50358
49525
53010
53609
50685
50982
53653
52575
50614
53221
55304
51726
49243
52776
54376
50448
49713
53552
53742
51465
53232
55529
52842
50246
53127
55557
52630
50929
54055
55355
52750
52865
56169
55381
51439
52238
55229
53231
50634
53264
55636
53575
53065
56334
56229
52042
51802
55283
54660
51277
52501
56010
54811
52289
54472
56547
53577
51530
54029
54433
50750
50566
54554
55086
52722
53873
56111
53976
51492
53735
55285
51756
50072
53888
55624
52529
51764
54760
54563
51677
52898
55132
52354
50446
54253
56495
53289
51913
54992
55143
51423
51646
54648
53034
50286
53064
56225
53594
50789
53261
55212
52803
51928
54163
53249
49710
50761
54953
54263
50580
51566
54623
53445
51633
53422
53893
50861
51031
55062
55103
51403
51648
54749
53857
50967
52047
53693
51174
49898
53520
55163
51821
50439
53612
54669
51746
51282
53879
53472
51197
52666
55102
52694
49648
52111
54698
52264
51129
53722
53501
50967
52425
55349
53651
50750
52562
55287
53804
51868
53118
53694
51629
51893
55299
54884
50658
51018
55201
54928
51988
53111
55108
53130
52217
55429
55928
51751
50762
54473
55246
52267
52429
54996
54305
53229
55949
57218
53489
51368
54607
56247
53081
52185
55343
55727
53399
54418
56727
54317
51084
53371
55677
52265
50219
53763
55440
52790
52786
55892
54942
50940
51555
54621
52977
49983
51956
54926
53574
52085
54145
54377
50896
50539
54011
53962
50662
51382
55046
54523
51933
53512
55240
52018
49984
52978
53521
49610
49823
54330
54485
51399
52213
54383
52466
50473
52936
54292
50794
49632
53833
55421
52052
51145
54064
53951
51042
51773
53686
51242
49559
53163
55535
52679
50858
53305
54306
51924
51570
53177
51644
49166
51248
54536
52808
49729
51482
53639
51524
50629
53014
52122
48570
50029
54551
53930
50282
50779
53236
52434
51044
52323
52623
50018
49817
53191
53505
50102
50007
53226
53104
50469
51294
53339
51626
50308
53326
54687
51003
49209
52462
53536
50512
50584
53247
51773
49473
52385
55439
52757
49708
52010
54540
52475
50783
52405
52500
50273
51248
54515
53076
49170
51007
54804
52832
50390
53223
54875
51883
51318
54597
54029
50094
50958
54710
53332
49872
51541
54437
52630
51177
54158
54865
50602
49388
53229
53960
50400
50329
53428
52841
50846
53066
55211
52462
50279
52895
53975
50490
49787
53385
53741
51059
52149
55043
53166
50008
52108
54395
51008
48770
52468
54839
52324
51596
54375
53859
50133
50639
53674
52224
49640
51952
54583
52437
50773
53503
54224
50373
49371
52652
52677
49307
49915
53579
53091
50465
51999
53988
51271
49318
52087
52909
49226
48876
53126
53774
50642
50978
53367
51776
49539
51891
53214
49009
47237
52029
54507
51000
49679
53216
53995
50774
50588
52428
50162
47757
50886
54007
51433
48746
50940
52349
49797
49494
51888
50720
48257
50466
53321
51142
48541
50722
52859
51048
50173
52095
51595
48820
49868
53467
52578
49000
49821
52946
52160
49871
51022
52684
51007
50175
53050
53833
50344
49401
52444
52663
49974
50790
53168
51500
49804
52596
54255
51056
49266
52338
53997
51730
51384
53160
51706
49521
51458
53422
50866
48643
51137
53002
50490
49421
52122
52645
50167
50773
53830
52496
48618
49923
53455
51897
49204
51279
53315
50914
49806
53138
53784
49788
49209
52713
52405
49231
50189
52866
51505
50165
52974
53907
50015
48768
52227
52543
49023
49650
53304
52448
50078
52552
54843
51263
48050
50836
53048
50185
49383
53246
54061
50848
50968
53899
52508
48992
50532
53155
50173
47435
50737
53636
51382
49974
52360
52310
48906
49262
52312
50767
47523
49866
53850
52199
49288
51557
53318
49903
48684
52206
52188
48401
49380
53676
53021
49874
51142
53313
51329
49956
52423
52597
48717
48615
53259
54162
50766
50534
53060
52420
50456
51941
53061
50133
49280
53463
55111
51534
50053
53013
53822
51315
51525
53606
52042
50021
52527
54869
52162
49752
52471
54623
52215
51130
53298
52993
50625
51995
55026
53440
50203
51890
54716
52898
50884
52762
53544
50984
50827
53918
53440
49831
50614
54199
53335
50737
52259
53885
51443
50575
53814
54126
50145
49601
53259
53641
50541
50547
52426
51031
49865
52833
54468
51362
49507
52311
53958
51427
50256
52307
52358
50422
51621
53999
51753
48699
51370
54189
51127
49241
52681
54052
51432
51845
54983
53568
49543
50727
53855
51673
48666
50761
52800
50663
50194
53679
53835
49778
49765
53415
52481
48773
50050
53541
52505
50633
52758
53680
50162
48725
51623
51849
48239
48344
52263
52510
49998
50983
52941
50785
48633
51005
52329
48885
47707
51592
52900
49863
49625
52640
51943
48607
49517
51817
49440
47458
50867
53488
51185
50069
52865
53062
49744
50179
53031
50941
47492
49991
53858
52139
49308
51153
53004
51053
50395
52449
51504
48369
49919
54370
53848
50363
51257
53796
52071
50071
52073
52840
49664
49409
53610
54264
50561
50493
53942
53656
51044
52135
53403
50583
49727
53434
54232
50596
49648
52608
53471
51432
51429
53006
51808
50138
52293
54620
52321
49863
52227
54091
51420
50352
52739
52430
49995
51279
53977
52401
49752
51499
53655
51681
50205
52296
52847
50312
50460
53652
53074
49259
49547
52812
52270
49737
50818
52778
51088
50014
52978
53704
49527
48342
52367
53405
50102
50000
52462
51044
48962
51682
53765
50249
47770
51028
52691
49152
48376
52183
52585
49650
50467
53249
51445
48332
50388
53105
50744
48901
51545
52654
50195
50333
53337
52472
48851
49773
52674
50745
48105
50621
53185
50951
49561
52491
52938
48997
48560
52056
51491
48177
49807
53645
52398
49996
52483
54234
50551
48761
52337
53010
48910
49063
53651
53749
50515
51418
53839
51877
49455
51649
53264
49884
48209
52200
54288
51184
50403
53743
53304
49603
50911
53816
50731
48167
52386
55436
52187
50125
53005
53998
51082
50888
53187
51574
48542
50701
54532
53225
50001
50886
52748
51433
50473
52046
51984
49609
50120
53452
53179
50030
50823
53672
52403
50377
52098
52595
49368
49296
53292
53384
49618
49858
53352
53020
50268
51091
52642
50187
48613
51693
53182
49914
48173
50765
51904
49739
49534
51295
50201
48585
51043
53382
50435
47330
49651
51746
49049
47861
50384
50186
47579
48868
51934
50372
47175
48807
51689
50189
48252
49859
50722
48662
48626
51377
50897
47527
47915
50960
50442
48300
49639
51486
49829
49074
51978
52352
48332
47473
51144
51501
47920
48069
51284
50614
48342
50233
52186
49373
47340
50402
51885
48517
47851
51527
51969
49398
50404
52952
50919
47742
49574
51915
49179
47197
50687
53281
50967
49762
52296
52330
49070
49517
52509
51125
48320
50446
53408
51471
49427
51931
52802
49198
48896
52564
51651
47854
49701
53753
52122
49338
51663
53588
50696
49372
52243
52266
48654
49477
53975
53676
50238
51058
53533
51851
49661
51589
52561
49075
48027
52227
53978
50935
49849
52233
52372
50153
50716
52261
50018
47984
50888
53609
51251
49201
51978
53694
50998
50261
52544
51542
48810
50781
54224
52280
48718
50447
53340
51614
49671
51183
51403
49090
49932
53523
52831
49072
49708
52959
52020
49362
50480
52029
49839
48590
51179
51708
48411
47941
51207
51519
48794
49252
51508
50153
48485
50992
52572
49358
47513
50646
52004
48893
48263
50913
50302
48103
50257
53116
50628
47536
50092
52810
50147
48170
50432
51028
48904
49786
52633
51317
48019
49271
52145
50707
48547
50483
52443
50771
50144
52909
52893
49145
49208
52734
51926
48572
49833
52759
51390
50027
52850
53704
49676
48435
52207
52948
49420
49621
53287
53105
51130
53358
55651
52663
49663
51737
53142
50058
49167
52741
53599
51053
51895
55056
53504
49755
51178
53970
51497
49243
52504
54890
52264
51105
54108
54224
50382
50438
53574
52291
49567
52218
55839
54087
51521
53288
54442
51992
51669
54069
52850
49744
51818
55933
54384
50874
52534
55212
53390
51924
54060
53707
49690
50179
55362
56032
52184
52110
55193
54799
52633
53976
55292
52275
50756
54673
56766
53246
51332
54173
54819
51915
52352
54863
52814
50150
52952
55864
53178
50450
52773
54491
51951
51176
53424
52643
49991
51424
54204
52421
49525
51338
54042
52632
50907
52257
52626
50232
50215
53456
53275
49573
49930
53468
52854
50157
51486
53459
51394
50404
53792
54647
50613
49747
53635
54143
50850
51184
53425
51501
49724
52849
54766
51552
49618
52423
53754
51086
50721
53777
53795
51175
52156
54856
53001
50195
52722
54924
51348
49573
53306
54490
51521
52065
55507
53951
49749
51442
55317
53291
50163
52515
54853
52473
51443
54653
54959
50996
50558
53703
53047
50166
51550
54064
52258
50876
54074
55620
52144
50376
53105
53921
50922
50678
54016
54164
51422
52123
54440
52643
50062
51929
53441
50491
49499
53235
54316
51262
51376
54707
53713
49908
50959
53421
50544
48328
52366
55370
52517
50731
53472
53961
50553
50446
53203
51705
48395
50274
53895
52604
50134
52060
53697
51155
50190
52699
52084
48362
49217
53806
53687
50080
50782
53462
51819
49888
52068
52547
48799
48530
52847
53053
48968
48988
52430
52024
49598
51138
52821
49924
48600
52520
54004
50105
48645
52069
52932
49963
50172
52719
51065
48489
51055
53983
51375
48714
51623
53995
51153
49559
51681
51461
49254
50879
53821
51997
48901
50709
53318
51470
49773
51974
52919
50298
50177
53733
53388
49132
49662
53690
52616
49253
50912
53302
51013
50071
53823
54565
50299
49667
54005
54780
51267
51301
54206
53352
51511
54016
55921
52583
50154
53005
54414
51071
50216
53444
53587
51076
52280
54684
51973
48349
50608
53490
50783
48748
51819
53415
51067
51245
54386
53371
49307
50222
53790
52271
49072
50780
53426
52012
50882
53168
53362
50057
49828
52670
51745
48541
49938
53523
52609
50213
51733
53098
50422
48913
51226
51449
48101
48222
52473
53193
50408
51192
53885
52108
49433
51627
53018
48995
47476
52089
54052
50690
49930
52960
52416
49083
50277
52953
50069
47017
50426
53974
51525
49130
51736
53142
50098
49242
51473
50216
47206
49265
53129
51570
48145
49830
52786
51412
49876
51607
51778
48990
49254
52852
52461
48550
48871
52023
51112
49019
50889
52025
49012
48404
52247
53066
49700
49280
52255
52486
50231
50615
52006
50330
49289
52214
53535
50196
48608
51708
52916
50424
50748
53440
52120
49645
52029
54696
51631
48623
51639
53798
50471
49631
53081
52524
49074
50638
54121
52184
48751
50634
53603
51801
49482
51436
53428
51667
50865
53662
53804
50023
49963
53385
52480
49258
50802
53579
51651
49994
52898
53897
50149
49212
52811
53004
49260
49706
53389
52564
49876
52080
54592
51326
48253
51147
53233
50021
48978
52455
52834
50083
51297
54561
52764
49056
50481
52784
50124
48489
52042
53862
51164
50733
53808
53463
49899
50431
53338
51696
48776
50916
53979
52260
50141
52104
52944
49983
49515
52551
52228
48998
50096
54039
53100
49746
51373
53853
50988
49063
52220
52195
47389
47712
52613
52285
48790
50115
52972
51332
49198
51240
52447
49210
48149
52253
53826
50296
49124
52138
52300
49352
50048
52393
50163
47858
51106
54070
51464
49303
52173
53809
50944
50077
52123
50941
48478
50899
54291
51996
48534
50689
53750
52035
50388
52505
53071
50227
50135
53432
52832
48807
49293
52785
51839
49107
50408
51656
48882
48187
52125
53022
49186
48733
52436
52476
49231
49927
52411
50452
48397
51470
53566
50127
47954
51169
52789
49945
49610
52343
51407
48804
50704
53268
50440
47055
49361
52176
49997
48323
50764
51756
49732
50399
53317
51812
47958
49484
52756
50452
47775
50575
52694
50182
49636
53013
52890
48844
48766
52019
51043
47605
48781
52054
51032
49276
51839
53362
49797
48008
51296
52338
48936
48444
51493
51451
49672
51576
53539
50680
48042
50407
52007
49094
48356
52016
52852
50177
50850
53820
52069
48344
49933
52423
49459
47600
51695
53958
50587
49163
52231
52457
48983
49348
52354
50650
47342
49537
53335
52132
49661
51050
52044
49730
49348
51581
50399
47167
48838
53054
52237
49007
50116
52327
50606
49393
51857
52056
48198
47849
52004
52606
49267
49165
51823
51302
48975
49937
51559
49416
47967
51326
53376
50024
48137
51567
53064
50053
49685
52053
50675
48480
51153
53746
50819
48264
51374
53717
51067
50190
52680
51777
48775
50533
54080
52526
49295
50905
53684
52343
50803
52665
53606
51557
51678
54855
54472
50565
50636
53784
52962
50361
51769
53537
51267
50288
53625
54428
50439
49154
52679
54090
51657
51389
53632
53214
51747
53604
55050
52034
49772
52486
54258
51551
50597
53211
53214
50868
51842
53953
51552
48654
51253
53670
50359
48470
52127
53834
51218
51603
55347
54418
50023
50837
53950
51616
48876
51809
53960
51162
50504
54125
53969
49423
48979
52075
50751
47173
48856
52486
51061
48840
51487
53444
50344
48657
51416
51734
48111
48234
52217
51937
48510
49592
52616
50657
47668
49801
51543
48079
46779
51169
52890
49517
48980
52329
51897
48425
49346
51621
48836
46840
50826
53442
50252
48348
51234
52514
50256
50368
52163
49884
46765
49131
52747
50930
47931
49899
52220
50421
49752
52298
51956
48758
49800
53849
52960
49004
49835
53009
51780
49393
50858
51882
49255
48925
52813
53841
50705
50212
52983
53167
51005
51379
52595
50902
50149
53241
54456
51167
49767
52871
54023
51333
51019
53193
52069
49834
51888
54454
52067
49423
52086
54658
52294
50742
52606
52244
49904
51721
55423
53713
49659
51270
54799
52848
49799
51505
53255
51232
50767
53850
53792
49907
49793
53196
52811
49967
50858
53011
51561
50541
53279
53916
50195
49204
52438
52577
49218
49707
52905
51834
49386
51728
54115
50942
48219
51194
53007
49711
48963
52700
53088
50207
51080
53868
52006
48764
50518
52709
49851
48004
51210
52850
50459
50637
54060
53439
49445
49990
52953
51089
48370
51060
53897
51469
49411
51890
52710
49483
49075
52085
51246
47638
49128
53791
53167
49447
50341
52951
51299
49544
51672
52151
48773
48752
53038
53448
49957
50433
53490
52174
49852
52450
53917
49536
48029
53176
55247
51233
49877
53180
53637
50989
51877
53950
51200
48752
52142
55004
52211
50057
52862
54465
51967
51638
54132
53123
50141
51838
55346
53438
49578
51257
54521
53069
51335
53220
53583
50939
51317
54554
53757
50460
51983
55669
54389
51453
52843
54605
52361
51393
54584
55403
51973
51123
53821
53736
51146
51937
54127
52475
50922
53888
55656
52285
50330
53549
55049
51945
51265
54128
53851
51529
53155
55898
53887
50976
52994
55221
52634
50940
53625
54832
52748
52866
55196
54023
50987
52455
55354
53576
51243
53281
54975
52950
52558
55502
54923
50607
50741
54281
52923
49227
50879
54188
52645
51027
54001
55433
52000
50515
53206
53359
50174
50575
53851
53318
51161
52982
54936
52305
50064
52586
54088
50840
49570
53182
54585
51907
51611
54021
52817
49621
51167
53972
51494
49073
52429
55273
52530
50494
53176
54035
50799
50647
53470
51916
48366
50308
54436
53532
50894
52449
54121
52056
51425
53618
52392
48653
50018
54571
53745
49941
51352
54583
52701
50491
52988
53918
50288
50030
54491
55026
51326
51281
54234
53674
51408
52798
54297
51603
50356
54049
55839
52833
51623
54453
55123
52447
52394
54581
53505
51504
53488
55877
54026
52097
54294
55779
53487
53060
55563
55118
52624
53835
56452
54744
51908
53688
56022
53872
51943
53989
55027
52830
52819
55901
55648
52207
52593
55801
55189
52529
53274
54902
53525
53050
55694
55797
52257
51922
55218
55137
52065
52676
55154
53732
52085
54787
56386
53091
51258
54381
55682
52493
51862
54911
54807
52383
53753
56222
53692
50311
52571
55360
52803
50963
54020
55714
53646
53661
56247
55324
51867
52336
54383
52290
50091
52729
55224
53395
52519
55366
55523
51799
51689
54866
53599
49945
51725
55770
54335
51370
53545
55703
52538
50430
53316
54180
50849
51094
55248
55271
52184
53114
55777
54157
51449
52997
54775
52408
51231
54601
56149
53414
52861
55901
55879
52847
53537
55779
53342
50903
54076
57030
54610
52522
54972
56245
53828
53867
56343
54780
51508
53483
57409
56108
52880
54238
56370
54463
53244
55511
55743
52991
53587
57238
56690
53141
54065
57435
56414
53742
54771
55937
53682
53256
56817
57587
54188
53825
57069
57103
54407
55054
56763
54561
52990
56023
57554
54324
52787
55901
57320
54734
54135
56257
55620
53807
56023
58706
56043
52846
55442
58112
55485
54165
57026
57209
54476
55559
58621
56710
53008
54888
58268
56477
54192
56267
57506
55182
55368
58978
58308
53660
53803
57641
56739
53231
54531
57539
56094
54583
57412
58290
54270
53290
56987
56734
52615
53437
57113
55802
53542
56166
57823
54278
52304
55424
56450
52843
52345
56164
56569
53940
55133
58036
55985
52369
53963
56442
53845
51800
54894
56967
54713
54101
56803
56372
52734
53213
56445
55339
52678
54761
57804
56186
54088
55983
56780
53890
53619
56597
55721
52131
53585
58031
57338
54011
55223
57490
55412
54014
56742
56916
52751
52712
57599
58432
55011
55086
57694
56654
54415
56174
57699
54748
53469
57194
58815
55800
54743
57328
57585
55115
55546
57378
55216
52738
55305
58348
56487
54233
56299
57830
55634
55259
57493
56525
53911
55646
58882
57487
54736
56375
58399
56272
54776
56874
57244
54550
54943
58587
58052
54083
54794
58606
57902
55202
56601
58322
55804
54560
57863
58707
54816
53883
57218
57396
54526
55379
57667
55732
54269
57551
58963
55164
53536
57230
58711
55251
54166
56912
56890
54728
56134
58422
55902
52909
55502
58101
55247
53479
56315
57176
54859
55558
58307
56684
53138
54590
57461
55301
52621
54775
56782
54676
54036
57390
57713
53648
53150
56415
55805
52793
54274
57344
55967
54310
56841
57835
54087
52473
55496
56198
53051
53173
56678
56337
53561
55145
57812
55189
52163
54710
56495
52883
51750
55999
57182
54081
54291
57236
55747
52165
53827
56813
54131
51287
54327
57211
54979
53423
55963
56525
53548
53715
56230
54419
51435
53866
57374
55581
52926
54820
56387
54086
53510
55974
55099
51425
52198
56145
55770
53005
54557
57285
55632
53875
55911
56302
52927
52970
57340
57778
53918
53642
56776
56658
54289
55136
56583
54194
52525
55231
56650
53994
53027
55672
56049
53374
53541
55564
54064
52473
55633
58199
54892
51650
54207
56743
54467
53209
55390
55343
53147
54422
57262
55643
52563
54474
57494
55804
53804
55537
56305
54230
54447
56998
55917
52609
53608
56688
55585
53009
54250
56134
54567
53841
56602
56839
52990
52359
55591
54987
51071
51679
55008
54060
52170
54695
56394
53103
51377
54712
55552
51553
51147
55123
55176
52329
53675
56408
54146
51187
53649
55905
52624
50775
54294
55992
53526
53536
56399
55306
51554
52475
55277
53163
50466
53018
55660
53734
52640
55432
55825
52298
51887
55015
54634
51355
52169
55853
55509
53205
54886
56691
53865
52264
55316
55791
51887
51974
56283
56306
53052
53827
56227
54408
52201
54431
55581
51958
50983
55406
57030
53919
53346
56144
55878
53157
53904
55608
53028
51052
54451
57078
54194
51922
54542
56089
53740
53556
55771
54391
51776
54013
57294
55342
52169
53682
55728
53854
52580
54450
54487
51888
52374
55697
55273
52019
52599
55544
54935
52671
53327
54340
52426
51855
54982
55418
51305
50515
54369
54775
51577
52124
54381
52483
51022
54266
55742
52253
50852
54172
55037
51840
51758
54611
53743
51424
53193
55282
52971
50870
53311
55172
52759
51595
53993
54491
52368
53171
56028
54499
50799
52371
55602
53400
50656
52950
54856
52913
52542
55028
54667
51745
51988
54508
54169
52054
52636
54523
53495
52268
54714
55740
51818
50308
54085
54761
50997
51314
54870
54206
52389
54967
56761
53367
50920
53598
55090
51971
50946
54256
55181
52952
53574
56130
54755
51973
53827
56181
53275
50885
54093
56703
54473
53168
55532
55578
52416
52753
55395
53678
50890
53581
57303
55563
53047
55345
56819
53682
52771
55619
54746
51149
52893
57423
56374
52931
54415
56981
55148
53701
55974
55988
52312
52482
56525
56266
52708
53433
56603
55661
52902
53880
55390
53014
51800
55583
57876
55004
53451
56228
56897
54019
54103
56326
54677
52562
55150
57478
54830
52509
54926
56881
54806
53832
55717
55436
53204
54499
57660
56099
52326
53827
57253
55672
53124
54780
56119
54101
53953
56905
56450
52820
53475
57118
56484
53933
55542
57641
55313
53853
56999
57952
54130
53451
57480
58023
54702
55163
57782
56358
54942
57930
59202
55403
53366
56453
58082
55252
54237
56958
57557
55781
56768
58728
56352
53440
56012
58689
55703
53622
56599
57710
54743
54842
58493
57756
53574
54568
58050
56140
53455
56123
58218
55699
55271
59019
59126
54816
54332
57534
56866
53811
55262
58638
57600
55776
58166
59578
56309
54911
57950
58253
54577
54756
58760
58898
56408
57649
