16413
17703
18019
17733
16732
17928
17937
16925
17245
18055
18026
16922
17655
18055
18034
16872
17899
17936
17839
16808
17874
18082
17185
17248
18262
18230
17091
17865
18298
18479
17123
18240
18605
18557
17154
18605
18780
18294
17741
18783
18884
17882
18321
18832
18845
17445
18335
18829
18858
17316
18585
18667
18564
17416
18608
18781
17713
18067
18672
18781
17630
18294
18565
18757
17437
18487
18619
18425
17095
18580
18477
17687
17798
18477
18691
17388
18175
18648
18621
17406
18296
18645
18563
17251
18466
18537
17981
17529
18510
18669
17581
18026
18429
18589
17267
18154
18447
18485
17233
18322
18631
18395
17207
18286
18477
17601
17735
18361
18426
17161
17937
18359
18449
17249
18208
18547
18132
17014
18266
18323
17556
17453
18350
18485
17342
17939
18422
18485
17056
18136
18273
18292
17045
18322
18349
17618
17198
18177
18267
17148
17746
18164
18317
17059
17984
18295
18211
17018
18094
18345
18083
16958
18124
18395
17218
17565
18170
18275
16970
17771
18124
18086
16757
18110
18079
18266
16604
17935
18021
16989
17162
18001
18086
16903
17560
17892
18118
16918
17860
17914
18063
16636
17991
18241
17595
17038
18236
18361
17167
17758
18148
18328
17259
18219
18538
18380
17169
18415
18685
18620
17597
18701
18848
17686
17999
18865
19049
17633
18491
18787
18897
17582
18587
18872
18797
17250
18678
18763
17855
17849
18711
18878
17642
18273
18754
18701
17513
18399
18716
18644
17227
18635
18669
18256
17503
18549
18778
17722
17862
18513
18703
17328
18562
18583
18658
17031
18465
18625
18507
17079
18404
18712
17575
17865
18389
18594
17503
18146
18717
18616
17481
18383
18646
18490
17012
18352
18525
17616
17474
18402
18477
17220
17892
18242
18358
17078
18117
18201
18396
17046
18319
18553
17982
17259
18330
18508
17438
17967
18363
18378
17189
17950
18388
18276
17019
18084
18205
17947
16789
17985
18369
17173
17498
18090
18191
17043
17802
18159
18250
16843
17942
18203
17912
16781
17952
18257
17188
17210
18036
18244
16954
17497
17959
18052
16638
17676
17949
17892
16395
17781
17943
17571
16655
17779
18056
16848
17353
17767
18015
16569
17597
18074
18041
16591
17691
17994
17730
16732
17942
18053
17054
17313
17947
18228
16904
17754
18239
18318
17072
18080
18584
18476
16942
18431
18623
17777
17682
18861
18898
17715
18203
18750
18920
17641
18569
18897
18931
17332
18690
18874
18549
17753
18671
19024
17747
18225
18754
18849
17519
18393
18742
18796
17436
18661
18708
18590
17228
18664
18934
17621
18033
18539
18737
17435
18179
18684
18563
17380
18360
18577
18461
17054
18406
18761
17839
17480
18615
18758
17491
18084
18404
18520
17237
18337
18674
18507
17176
18333
18304
18256
17118
18361
18626
17412
17624
18259
18541
17211
18025
18606
18352
17130
18227
18429
18232
16902
18216
18453
17433
17510
18256
18384
17192
17904
18351
18166
16860
17940
18299
18112
16785
18113
18367
17447
17018
18179
18235
16996
17715
18084
18178
16949
17890
18257
18204
16520
17946
18044
17926
16913
18067
18308
16904
17446
17951
18113
16825
17708
17974
17979
16853
17835
18013
17721
16525
17777
17839
16910
17082
17861
17934
16854
17409
17954
17949
16700
17672
17829
17853
16507
17840
18062
17154
16738
17902
17989
16985
17426
18152
18104
16835
17667
18056
18039
16732
18046
18352
18043
17160
18216
18606
17300
17857
18515
18537
17480
18235
18520
18622
17382
18403
18685
18651
17314
18634
18949
17856
17894
18708
18806
17600
18323
18672
18634
17336
18565
18745
18563
17303
18402
18634
18085
17390
18558
18618
17682
17961
18540
18632
17312
18316
18763
18537
17273
18378
18577
18435
17255
18523
18868
17505
18186
18490
18637
17534
18178
18686
18461
17166
18304
18251
18328
17122
18452
18695
17567
17713
18338
18607
17377
18096
18575
18620
17239
18328
18563
18547
17013
18371
18393
17878
17339
18394
18449
17294
17874
18307
18352
17172
18072
18426
18257
17247
18081
18449
18068
16918
18274
18382
17237
17527
18205
18295
16910
17736
18241
18180
17008
17884
18168
17840
16717
17952
18155
17268
17108
18129
18223
16999
17648
18274
18190
16898
17896
18131
18075
16564
17997
18167
17454
16848
17881
18221
16837
17374
17797
18085
16822
17652
18009
18111
16672
17816
18042
17938
16715
18046
18198
17116
17368
18087
18096
16915
17684
18130
18244
16889
17971
18288
18044
16873
18049
18497
17400
17421
18489
18588
17598
18185
18746
18972
17648
18655
18878
18825
17263
18909
18857
18341
17691
18869
18984
17666
17891
18896
18813
17484
18487
18715
18768
17536
18571
18655
18703
17524
18723
18950
17840
18181
18617
18861
17591
18322
18645
18840
17411
18389
18682
18358
17325
18538
18646
17774
17580
18564
18720
17517
18103
18671
18641
17351
18380
18624
18703
17089
18596
18750
18210
17561
18721
18684
17437
17998
18660
18565
17313
18187
18614
18443
17131
18367
18604
18257
17222
18497
18883
17553
17904
18457
18563
17316
18151
18503
18464
17327
18206
18569
18219
16787
18299
18387
17301
17273
18231
18405
17234
17750
18154
18364
16969
17984
18243
18322
16850
18106
18229
17938
16949
18129
18403
17233
17634
18154
18367
16861
17808
18073
18023
16731
17920
18281
17959
16604
18014
18164
16990
17413
17920
18044
16887
17579
17818
17940
16746
17758
17937
17808
16541
17835
18016
16990
16889
17828
17984
16811
17425
17949
18077
16679
17791
17945
18077
16687
18011
18126
17694
16980
18054
18318
17134
17798
18260
18351
17211
18030
18497
18447
17272
18412
18584
18427
17361
18661
18975
17682
18046
18714
18801
17505
18352
18754
18835
17292
18482
18578
18571
17388
18621
18793
17857
17720
18646
18723
17505
18212
18646
18678
17341
18398
18635
18595
17265
18572
18660
18266
17519
18642
18687
17615
18148
18551
18751
17438
18336
18649
18588
17313
18456
18745
18489
17229
18425
18733
17521
17811
18591
18635
17345
18102
18679
18499
17199
18426
18535
18323
17103
18465
18514
17464
17574
18407
18718
17343
18015
18389
18460
17219
18054
18439
18278
16901
18140
18411
17941
17231
18266
18466
17324
17731
18240
18489
17111
18074
18176
18309
17039
18129
18632
18130
17087
18224
18464
17176
17475
18105
18274
17075
17669
18047
18308
17002
18038
18116
18012
16650
18058
18295
17333
17085
18145
18253
16893
17618
18044
18030
16684
17675
17833
17878
16447
17847
17976
17305
16686
17794
17986
16812
17292
17889
17891
16717
17643
18020
17972
16546
17889
18065
17934
16716
18059
18159
16988
17218
18189
18258
16802
17815
18162
18289
17072
18178
18386
18196
17118
18429
18591
17627
17769
18676
18744
17603
18279
18699
18783
17517
18488
18730
18700
17315
18710
18691
18321
17540
18598
18793
17535
18081
18690
18687
17224
18199
18722
18594
17251
18377
18671
18365
17280
18483
18714
17578
17858
18538
18821
17413
18183
18607
18603
17295
18482
18542
18398
17230
18414
18608
17473
17545
18353
18466
17080
18011
18378
18548
17230
18174
18428
18433
17091
18356
18651
17951
17347
18487
18657
17312
17781
18360
18431
17226
18191
18371
18316
17041
18218
18563
18072
16950
18296
18468
17296
17723
18097
18429
17052
17983
18343
18382
16959
18141
18313
18170
16909
18088
18184
17212
17269
18190
18213
16950
17621
18153
18212
16800
17832
18226
18144
16914
18060
18334
17634
17004
18110
18265
17195
17640
18098
18130
16875
17696
17993
17910
16555
17741
17895
17639
16668
17816
17906
16758
17160
17822
17964
16709
17542
17870
17815
16655
17671
17941
17831
16522
17898
18032
17045
17076
18043
18254
16915
17557
18089
18195
16709
17932
18198
18307
16994
18396
18630
17942
17504
18698
18806
17713
18240
18802
18834
17678
18440
18735
18669
17374
18572
18811
18606
17389
18459
18939
17442
17784
18456
18733
17535
18369
18545
18682
17572
18496
18792
18552
17269
18507
18765
17736
17814
18733
18756
17471
18148
18593
18747
17285
18476
18570
18542
17168
18387
18595
17954
17385
18504
18651
17408
18000
18572
18638
17263
18227
18414
18511
16824
18390
18666
18322
17120
18489
18734
17561
17739
18664
18491
17144
18090
18302
18435
17181
18335
18482
18408
16907
18276
18509
17342
17602
18388
18383
17134
17946
18365
18298
16895
18100
18320
18314
16804
18157
18213
17575
17150
18040
18320
17070
17529
18062
18190
16806
17825
18086
18124
16691
18026
18157
17965
16895
18076
18338
16991
17467
18093
18161
16819
17639
17975
17958
16851
17654
18362
17656
16407
17760
17746
16794
17065
17784
17831
16694
17405
17730
17857
16477
17508
17793
17767
16334
17759
17912
17354
16782
17923
17949
16803
17376
17843
18007
16769
17637
18021
18030
16737
17966
18099
18152
17142
18325
18596
17534
17941
18447
18762
17538
18443
18971
18744
17423
18498
18893
18572
17230
18620
18704
17665
17713
18756
18958
17580
18254
18640
18729
17546
18475
18618
18626
17188
18568
18728
18023
17484
18635
18686
17437
18023
18552
18637
17261
18274
18648
18683
17314
18532
18662
18438
17357
18548
18753
17539
17875
18548
18633
17267
18167
18583
18637
17350
18326
18513
18362
17034
18260
18544
17449
17722
18332
18484
17392
17903
18336
18458
17246
18266
18503
18414
17021
18478
18434
17606
17371
18369
18419
17058
17766
18251
18342
17003
17789
18300
18281
16813
18234
18146
17988
16986
18146
18272
17127
17609
18211
18239
16849
17796
18113
18118
16795
17899
18244
17851
16614
18001
18093
17116
17220
17914
18081
17006
17575
17960
17991
16574
17902
18125
17843
16457
17869
18009
17022
16809
17798
17861
16793
17202
17715
17767
16421
17418
17776
17765
16215
17561
17742
17523
16539
17820
18112
16868
17302
17709
18180
16734
17615
17808
18015
16561
17734
18199
17860
16504
17874
18022
17088
17319
18106
18361
17082
17881
18373
18437
17157
18337
18618
18602
17163
18591
18565
17720
17684
18562
18917
17602
17998
18703
18744
17392
18334
18521
18565
17083
18380
18457
18252
17193
18398
18773
17427
17961
18522
18681
17291
18300
18554
18583
17343
18410
18584
18347
17095
18546
18528
17432
17629
18392
18535
17273
17902
18349
18440
17079
18071
18571
18415
16938
18386
18518
17476
17507
18342
18544
17215
17881
18362
18491
17188
18110
18195
18238
16765
18231
18311
17935
16986
18152
18312
17105
17694
18314
18303
17082
17891
18278
18301
16756
18082
18307
18000
16839
18201
18508
17160
17405
18121
18218
16809
17660
18042
18107
16781
17771
18066
17953
16517
17807
17838
16954
16929
18076
18003
16879
17531
17959
17917
16670
17803
18085
17936
16537
17878
18058
17463
16604
17778
17889
16868
17184
17662
17920
16525
17355
17756
17633
16402
17557
17776
17524
16557
17643
17908
16738
17129
17737
17935
16773
17495
17933
17978
16535
17685
17883
17824
16575
17886
18111
17084
17280
18028
18152
17140
17865
18368
18513
17196
18323
18602
18650
17064
18498
18651
18135
17409
18509
18805
17429
18011
18488
18519
17286
18086
18590
18486
16724
18262
18348
18196
17038
18223
18648
17457
17659
18530
18476
17278
17983
18382
18451
17161
18281
18479
18365
17044
18180
18495
17400
17354
18283
18383
17080
17741
18130
18287
16794
17953
18358
18352
16624
18208
18324
17640
17161
18260
18300
17315
17684
18161
18380
16897
17963
18145
18152
16680
18063
18166
17896
16855
17935
18164
17017
17288
18094
18146
16894
17766
18045
18209
16754
17883
18120
17913
16542
18005
18053
17159
17187
17986
18108
16934
17531
17955
17887
16729
17687
17948
17784
16408
17709
17925
17227
16665
17873
18079
16938
17360
17856
18131
16609
17573
17832
17838
16418
17599
17781
17636
16560
17653
17720
16625
16957
17577
17598
16520
17235
17636
17536
16255
17447
17660
17593
16289
17695
17848
16809
17038
17808
18067
16782
17422
18022
17877
16576
17737
18117
17922
16573
17982
18218
17356
16934
18154
18261
17197
17795
18447
18478
17422
18354
18392
18504
17093
18546
18576
18335
17532
18680
18843
17435
18158
18684
18680
17350
18202
18592
18505
17320
18288
18512
18273
17155
18392
18679
17616
17663
18607
18579
17450
18017
18500
18507
17144
18385
18574
18408
17129
18437
18671
17782
17550
18530
18623
17375
17887
18539
18502
17087
17996
18402
18373
16953
18304
18506
18147
17304
18343
18525
17360
17729
18454
18625
17232
18057
18430
18424
17024
18229
18462
18160
16895
18324
18444
17247
17453
18162
18270
16957
17847
18261
18193
16749
18013
18171
18092
16773
18119
18223
17241
17051
18141
18196
17012
17605
18097
18145
16732
17805
18118
18040
16674
17775
17936
17792
16839
17943
18037
16940
17416
17885
18128
16683
17551
17966
17872
16429
17739
18036
17745
16626
17766
18111
16884
16994
17675
17885
16762
17461
17807
17829
16395
17444
17858
17559
16212
17627
17948
16827
16853
17754
17960
16775
17382
17862
18003
16690
17893
18035
18046
16546
18060
18058
17854
17205
18128
18581
17169
17797
18474
18535
17029
18100
18509
18605
17211
18444
18799
18549
17316
18625
18844
17595
17970
18618
18905
17472
18327
18682
18646
17371
18355
18640
18540
16732
18553
18571
17648
17760
18309
18715
17372
18060
18535
18614
17207
18219
18816
18519
17077
18587
18698
18091
17457
18570
19006
17485
17869
18581
18639
17355
18266
18539
18514
17156
18350
18504
18242
17125
18349
18641
17438
17701
18572
18623
17485
18095
18577
18511
17300
18361
18528
18487
17035
18280
18286
17440
17632
18383
18456
17396
17699
18356
18393
17148
18008
18274
18355
16801
18197
18335
17772
17209
18256
18416
17244
17679
18253
18318
17139
17943
18143
18282
16959
18125
18220
18062
16903
18094
18419
17099
17462
18174
18207
17110
17791
18193
18207
16849
17992
18118
17944
16616
17931
18252
17226
17164
17946
18115
16895
17458
17882
18009
16888
17732
18000
17950
16694
18022
18056
17520
17143
18188
18354
17198
17457
18317
18274
17175
18075
18407
18420
16869
18323
18558
18356
17426
18540
18759
17689
18048
18776
18737
17371
18372
18800
18892
17732
18583
18964
18697
17362
18804
19014
17836
17994
18770
18904
17692
18334
18845
18740
17441
18544
18783
18620
17434
18509
18750
17967
17727
18679
18726
17718
18183
18580
18780
17574
18489
18726
18759
17186
18542
19008
18423
17567
18694
18972
17586
18092
18549
18619
17297
18091
18465
18516
17197
18375
18611
18319
17270
18538
18695
17549
17777
18590
18559
17493
18001
18614
18507
17426
18229
18648
18273
17028
18287
18460
17548
17412
18293
18520
17260
17804
18215
18453
16975
18041
18495
18353
17003
18358
18394
17881
17061
18313
18472
17328
17672
18297
18299
16958
17855
18156
18208
16812
17938
18188
18072
16818
18123
18353
17161
17438
18051
18144
16879
17662
18142
18154
16808
17780
18019
18071
16354
17749
18037
17045
16859
17701
17942
16723
17212
17839
17916
16649
17614
17892
17853
16360
17834
18036
17399
16840
17923
18022
17073
17486
18034
18248
16848
17662
18090
18077
16795
18095
18217
18064
16930
18232
18401
17489
17776
18618
18717
17440
18236
18670
18710
17453
18545
18888
18645
17260
18717
18912
17770
17846
18630
18822
17741
18217
18796
18756
17392
18451
18538
18610
17110
18667
18677
17830
17310
18468
18892
17315
18495
18499
18705
17286
18454
18666
18725
17186
18590
18718
18557
17486
18522
18799
17616
17870
18708
18696
17373
18161
18581
18597
17247
18423
18616
18383
17060
18465
18747
17591
17836
18537
18685
17345
18177
18497
18528
17408
18232
18663
18311
16870
18372
18505
17632
17340
18322
18328
17190
17706
18270
18352
16917
17985
18402
18235
16730
18180
18502
17989
17228
18265
18550
17311
17718
18310
18405
16937
17831
18188
18372
16910
17975
18187
18017
16761
18074
18279
17262
17252
18165
18220
16954
17631
18280
18432
16864
17968
18250
18129
16561
18109
18212
17222
16912
18080
18164
16961
17318
18059
18145
16756
17773
17958
17909
16410
17858
18073
17768
16833
18061
18351
17090
17469
18074
18170
16992
17948
18554
18333
16972
18158
18505
18171
17092
18638
18600
17441
17813
18668
18867
17572
18265
18717
18854
17474
18606
18730
18670
17409
18626
18806
17938
17937
18788
18805
17641
18309
18953
18891
17649
18618
18806
18705
17344
18754
18930
18326
17767
18770
18880
17726
18028
18720
18736
17469
18308
18766
18608
17255
18470
18825
18477
17240
18595
18887
17565
17982
18681
18870
17699
18383
18692
18795
17346
18615
18547
18393
17131
18439
18670
17422
17652
18619
18606
17480
17954
18548
18653
17307
18243
18669
18494
17087
18518
18741
17848
17401
18536
18509
17489
17930
18450
18683
17151
18069
18399
18254
17055
18203
18451
18189
17103
18279
18646
17315
17630
18372
18284
17139
17998
18328
18416
17086
18154
18355
18140
16751
18115
18385
17267
17242
18174
18089
17021
17714
18158
18178
16684
18016
18304
18146
16676
17966
18234
17406
17030
17984
18114
17048
17466
18064
18352
16903
17836
18063
17908
16629
17910
18067
17937
16847
18007
18045
17067
17421
18127
18262
16960
17740
18314
18389
17190
18207
18459
18319
16976
18421
18559
17489
17978
18622
18899
17689
18302
18764
18868
17388
18652
18888
18790
17386
18775
19086
18086
17915
18779
18982
17772
18451
18811
18990
17658
18678
18739
18919
17436
18797
19056
18594
17639
18872
19008
17787
18112
18758
18882
17607
18493
18643
18823
17408
18582
18984
18572
17215
18692
18937
17697
17938
18659
18845
17614
18245
18716
18767
17525
18496
18673
18666
17158
18394
18847
17621
17599
18504
18744
17538
18123
18695
18599
17242
18235
18629
18542
17161
18457
18576
18179
17414
18690
18849
17552
18038
18586
18575
17256
18203
18577
18590
16986
18232
18413
18266
16951
18208
18445
17249
17551
18331
18454
17311
17981
18355
18486
17221
18211
18518
18326
16934
18393
18518
17424
17467
18342
18405
17111
17712
18277
18190
16830
18057
18204
18202
16716
18086
18213
17617
17078
18080
18356
17088
17417
18138
18100
16807
17774
18391
18156
16793
17929
17966
17956
16799
17932
18184
17113
17265
17991
18164
17028
17751
18211
18347
16958
18063
18355
18128
16932
18306
18584
17473
17501
18415
18698
17512
18300
18750
18800
17643
18498
18965
18800
17465
18808
19029
18223
17768
18936
19052
17882
18424
19117
18964
17757
18665
18950
18894
17469
18835
18909
18855
17534
18888
18952
17777
18140
18846
18872
17569
18367
18626
18728
17639
18572
18671
18670
17243
18646
18934
17732
17830
18659
18885
17740
18197
18754
18818
17478
18570
18890
18604
17433
18675
18898
17954
17493
18618
18604
17462
18165
18595
18749
17335
18325
18702
18707
17181
18498
18774
18558
17516
18618
18812
17697
18039
18763
18761
17350
18257
18557
18445
17206
18452
18272
18373
17015
18398
18623
17305
17668
18328
18615
17330
18044
18454
18547
17197
18221
18554
18360
17035
18359
18825
17321
17595
18594
18402
17329
17825
18418
18478
17108
17947
18388
18355
16796
18117
18337
18037
17141
18221
18347
17164
17715
18179
18347
17051
17946
18203
18279
16767
18060
18145
17922
16823
17960
18218
17160
17386
18024
18318
16850
17756
18125
18218
17067
18049
18166
18363
16652
18294
18363
17533
17527
18423
18638
17375
18113
18682
18624
17393
18520
18829
18791
17432
18710
19015
18353
17798
18859
18934
17916
18290
18922
19051
17728
18589
18992
18978
17520
18801
19080
18802
17678
18878
19049
17896
18216
19001
18976
17708
18441
18781
18755
17734
18656
18781
18783
17251
18693
18834
17833
17918
18876
18974
17625
18299
18899
18822
17537
18656
18773
18812
17382
18706
18896
18188
17430
18685
18717
17596
18113
18589
18641
17305
18295
18734
18551
17260
18438
18943
18409
17263
18698
18788
17606
17892
18580
18670
17452
18156
18595
18683
17423
18297
18656
18387
17099
18337
18632
17441
17694
18465
18398
17229
17973
18512
18506
17209
18198
18535
18231
16849
18440
18673
17782
17449
18488
18641
17331
17906
18521
18432
17274
18229
18345
18460
17041
18323
18341
18133
17070
18255
18527
17402
17552
18283
18354
17100
17838
18384
17981
17056
18145
18437
18171
16830
18379
18350
17466
17300
18216
18299
17096
17882
18346
18383
17105
18113
18323
18208
16906
18253
18522
17631
17444
18538
18695
17419
18073
18658
18757
17669
18565
18867
18831
17480
18871
19134
18897
17877
18870
19340
18062
18341
18949
19160
17805
18762
19059
19011
17831
18863
19185
18865
17653
19083
19062
18048
18376
19018
19149
17732
18598
19043
19037
17659
18703
18743
18744
17273
18620
19025
18019
17941
18761
18854
17707
18112
18708
18822
17487
18475
18822
18750
16825
18792
18733
18346
17613
18651
18801
17743
18103
18848
18732
17316
18194
18463
18591
17141
18442
18740
18556
17268
18448
18696
17701
17926
18746
18777
17360
18292
18598
18615
17194
18396
18618
18386
16906
18227
18544
17338
17357
18348
18438
17253
17873
18318
18567
16986
18162
18345
18409
16866
18227
18433
17973
17411
18303
18487
17394
17780
18497
18425
16967
17968
18173
18115
16890
18043
18283
18186
16832
18162
18277
17226
17599
18320
18359
17174
17902
18202
18274
16956
17950
18263
17941
16662
17944
18060
17145
17256
18333
18072
17140
17641
18184
18151
16935
17969
18362
18278
16824
18161
18408
17743
17391
18369
18506
17314
17913
18391
18683
17276
18296
18579
18639
17281
18594
18631
18562
17631
18781
19141
17944
18387
19010
19105
17887
18622
19104
19224
17957
18803
19161
18915
17560
19019
19176
18104
18134
19077
19098
17823
18586
19096
19035
17649
18831
18978
18930
17512
18821
19156
18257
17820
19027
19032
17855
18373
18998
19033
17750
18744
19001
18919
17345
18748
18966
18652
17672
18802
19027
17825
18126
18950
19002
17720
18441
18903
18862
17437
18522
18824
18738
17405
18770
18893
17856
18008
18880
18964
17652
18339
18789
18860
17452
18546
18699
18653
17300
18538
18741
17904
17601
18622
18768
17510
18198
18615
18697
17424
18447
18649
18651
17169
18506
18708
18296
17617
18441
18692
17507
17991
18526
18580
17312
18158
18592
18678
17272
18392
18718
18363
17214
18495
18755
17548
17749
18492
18600
17429
18163
18447
18475
17251
18186
18383
18329
17031
18273
18384
17467
17392
18400
18633
17180
17887
18428
18428
17230
18191
18595
18385
17000
18454
18580
18044
17343
18673
18599
17678
18114
18757
18955
17606
18502
18764
18879
17672
18959
19234
18982
17684
19129
19243
18099
18423
19055
19423
18145
18839
19113
19099
17987
18906
19253
19065
17659
19194
19226
18278
18257
19146
19289
18014
18625
19236
19041
17713
18825
19126
19021
17408
19003
19050
18365
17847
18996
19166
18078
18435
18997
19087
17840
18713
19350
19319
17734
18859
19120
18847
17604
18943
19243
17924
18222
18903
18929
17649
18558
18934
18929
17699
18795
18938
18765
17473
18759
19037
17996
17979
18789
18861
17711
18314
18791
18972
17293
18836
18882
18668
17310
18529
18782
17897
17642
18544
18796
17727
18110
18737
18752
17474
18319
18793
18737
17237
18529
18612
18436
17519
18712
18745
17553
18099
18850
18782
17496
18339
18220
18524
17195
18487
18629
18472
17198
18313
18555
17579
17866
18546
18661
17461
18109
18582
18725
17365
18261
18665
18509
17091
18520
18717
17682
17546
18523
18603
17393
17930
18537
18791
17602
18273
18679
18707
17196
18473
18727
18369
17636
18822
18986
17811
18361
18918
19036
17767
18790
19145
19090
17974
18978
19267
19027
17850
18965
19232
18175
18358
19041
19240
17986
18703
19125
19177
17997
18825
19211
19044
17737
18972
19085
18058
18182
19093
19139
17946
18652
19003
19087
17602
18785
18946
19114
17501
18829
19023
18436
17784
18900
19080
17983
18554
18946
19107
17708
18628
19025
18954
17618
18875
18963
18786
17751
18783
19046
17875
18106
18948
19015
17505
18406
18924
18890
17682
18764
19004
18760
17628
18693
18992
17917
18028
18922
18832
17755
18378
18734
18850
17474
18572
18654
18682
17282
18588
18835
17958
17682
18654
18803
17515
18126
18756
18733
17414
18343
18585
18668
17311
18576
18608
18477
17312
18548
18576
17633
17853
18734
18652
17311
18183
18495
18551
17328
18403
18481
18347
17080
18444
18568
17597
17469
18412
18460
17141
17832
18352
18427
17004
18112
18429
18256
16796
18318
18345
17437
17377
18062
18468
17144
17842
18418
18314
17167
18127
18413
18244
17175
18388
18533
18310
17379
18498
18738
17660
18230
18849
18828
17750
18528
19178
18804
17548
18658
19094
18827
17463
18848
18897
17905
18095
18934
18973
17778
18512
18945
18960
17732
18827
18939
18900
17589
18819
18986
17953
17728
18979
18971
17820
18371
18710
18934
17524
18704
18852
18814
17262
18743
18888
18549
17694
18821
18909
17784
18333
18822
18875
17608
18563
18773
18724
17400
18683
18849
18585
17299
18520
18965
17729
17923
18738
18636
17584
18358
18612
18669
17481
18573
18696
18673
17313
18664
18918
17734
17829
18573
18869
17589
18320
18737
18770
17335
18522
18625
18543
17110
18424
18735
18078
17432
18511
18751
17483
17883
18505
18478
17210
18144
18336
18555
16906
18353
18506
18351
17155
18349
18396
17260
17755
18491
18426
17272
17944
18483
18388
17109
18132
18362
18258
17012
18215
18445
17362
17385
18228
18384
17083
17860
18202
18244
16899
18027
18202
18154
16811
18134
18420
17425
16977
18151
18465
17137
17592
18233
18239
16814
17998
18383
18305
16798
18182
18466
18322
17174
18350
18577
17670
18022
18735
18896
17592
18589
18930
18795
17664
18847
19100
18856
17587
18876
18929
17976
18049
18904
18976
17631
18411
18895
18951
17481
18709
18906
18881
17452
18863
18906
18102
17814
18822
18936
17837
18279
18768
18850
17711
18568
18803
18769
17339
18690
18867
18557
17512
18707
18994
17735
18275
18778
18881
17495
18409
18811
18684
17504
18617
18831
18562
17243
18592
18843
17652
17930
18566
18655
17542
18174
18524
18694
17380
18364
18592
18525
17230
18400
18726
17774
17628
18581
18788
17426
17985
18470
18608
16990
18274
18609
18311
16831
18214
18478
17995
17063
18229
18591
17316
17644
18393
18249
17168
17897
18344
18276
17062
18143
18308
18253
16872
18248
18495
17204
17433
18226
18362
17164
17761
18134
18183
16689
17889
18115
17891
16650
17957
18088
17178
17098
17919
18115
16918
17922
18047
18099
16605
17698
18113
17952
16639
17949
18189
17526
16835
18108
18149
16940
17407
17870
18036
16743
17728
18116
18105
16898
18075
18460
18132
17055
18253
18493
17524
17833
18551
18702
17598
18285
18656
18713
17584
18585
18792
18524
17396
18586
18864
17850
17824
18745
18878
17600
18322
18753
18806
17510
18528
18806
18654
17215
18623
18765
18177
17648
18694
18773
17591
17991
18738
18810
17391
18236
18606
18533
17209
18484
18705
18502
17440
18509
18691
17596
18009
18619
18792
17392
18222
18495
18530
17154
18386
18569
18366
17152
18352
18482
17506
17519
18383
18510
17234
17915
18451
18471
17196
18261
18519
18354
17019
18401
18462
17692
17091
18429
18421
17627
17869
18295
18733
17174
18233
18041
18411
16653
17895
18172
18178
16707
18249
18353
17136
17536
18091
18195
16913
17891
18146
18209
16731
18040
18505
18164
16650
18121
18134
17163
17295
18064
18178
16870
17673
17930
18050
16786
17900
18009
18061
16679
18094
18292
17100
16933
18022
18077
16830
17265
17843
18062
16713
17708
17824
17796
16306
17534
17674
17438
16540
17722
18082
16780
17182
17823
17888
16553
17638
17823
18016
16552
17768
18122
18133
16425
18108
18203
17181
17460
18161
18363
17010
17887
18246
18352
17063
18355
18553
18258
16989
18437
18687
17567
17567
18536
18707
17623
18262
18749
18777
17434
18402
18650
18658
17140
18630
18743
18204
17476
18624
18569
17476
18112
18606
18604
17317
18169
18542
18433
17227
18464
18570
18450
17227
18531
18689
17658
17902
18587
18706
17579
18177
18526
18698
17474
18461
18680
18354
17161
18415
18568
17610
17574
18498
18607
17570
18033
18460
18558
17364
18298
18781
18547
17089
18394
18537
17967
17541
18453
18639
17667
17914
18426
18422
17104
18066
18299
18387
16904
18266
18468
18266
17275
18133
18433
17296
17704
18287
18346
17194
17801
18372
18493
17115
18121
18342
18125
16928
18186
18405
17297
17396
18191
18252
17047
17722
18200
18273
16999
18010
18361
18334
16964
18276
18275
17449
17290
18231
18395
17201
17630
18131
18301
17043
17810
17952
18045
16553
18006
18114
17936
16884
18047
18081
17013
17415
18019
18206
16780
17676
18033
18160
16916
17910
18101
18077
16907
18174
18241
17220
17641
18183
18317
17101
17749
18163
18342
17199
18096
18601
18533
17207
18649
18993
17970
17873
18909
19075
17860
18376
18966
19028
17895
18685
18975
18922
17396
18740
18937
18449
17765
18888
19045
17886
18328
18798
18877
17831
18421
18861
18854
17567
18756
18937
18773
17473
18864
19068
17934
18308
18874
18864
17767
18491
18868
18848
17821
18554
18752
18779
17579
18767
18843
17994
17906
18792
18776
17632
18385
18809
18889
17443
18504
18864
18799
17174
18642
18840
18008
17485
18640
18764
17643
18055
18548
18656
17279
18190
18554
18612
17166
18419
18687
18402
17215
18592
18748
17531
17903
18471
18714
17383
18087
18470
18537
17415
18330
18230
18330
16969
18349
18627
17466
17660
18369
18598
17379
17987
18422
18525
17141
18244
18548
18445
16912
18247
18519
17734
17451
18375
18440
17234
17778
18407
18378
17172
17830
18265
18312
16643
18041
18360
18037
16934
18017
18153
17108
17437
18031
17994
17101
17824
18112
18201
16998
18037
18344
18261
16987
18151
18335
17254
17567
18250
18384
17170
17894
18365
18604
17438
18231
18559
18598
17191
18683
18892
18009
17877
18915
19147
17948
18426
18849
19039
17721
18718
19182
18886
17508
18955
19073
18568
17586
18809
18813
17973
18419
18735
18955
17605
18454
18743
18813
17371
18686
18870
18611
17443
18686
18918
17762
18011
18622
18853
17506
18370
18816
18863
17611
18499
18871
18651
17403
18555
18733
17833
17784
18631
18818
17588
18122
18628
18683
17132
18266
18636
18640
17090
18469
18554
18078
17430
18520
18588
17488
18006
18473
18618
17296
18200
18535
18495
17109
18337
18564
18279
17046
18433
18549
17392
17649
18503
18389
17117
17874
18270
18289
17070
18394
18148
18082
16856
18240
18345
17319
17488
17977
18301
17192
17500
18168
18179
16839
17826
18220
18028
16418
17914
18109
17264
16876
17999
18091
17038
17432
18021
18084
16788
17721
17958
17922
16632
17746
17919
17716
16567
17807
17934
16729
17145
17605
17897
16597
17395
17829
18041
16511
17792
18004
17833
16515
17931
18204
17120
17156
18039
18202
17162
17818
18306
18273
16861
17990
18360
18198
16703
18190
18346
17511
17399
18576
18681
17624
18132
18665
18793
17469
18467
18563
18775
17245
18647
18666
18380
17626
18563
18772
17608
18028
18672
18655
17403
18212
18519
18438
17124
18405
18552
18289
17036
18302
18653
17515
17790
18549
18606
17493
18091
18626
18617
17141
18353
18550
18480
16954
18369
18567
17534
17512
18404
18553
17254
17856
18638
18382
17199
17789
18456
18474
16963
18295
18544
17887
17272
18389
18592
17444
17869
18482
18642
17290
18039
18254
18451
17135
18185
18429
18137
16875
18287
18322
17436
17563
18126
18343
17395
17776
18166
18264
16887
18011
18203
17976
16801
18102
18368
17180
17186
18148
18165
17018
17619
18063
17958
16612
17668
18147
18012
16468
17813
17974
17319
17003
17962
18124
16939
17437
17833
17932
16719
17596
17789
17754
16442
17631
18045
17644
16536
17743
17728
16648
16970
17976
17803
16753
17501
17704
17764
16749
17512
17921
17838
16658
17906
18038
16904
17113
18193
17986
16871
17631
18059
18248
16698
17950
18252
18152
16626
18128
18369
17495
17424
18371
18659
17362
18014
18528
18640
17467
18435
18541
18663
17069
18515
18676
18458
17530
18569
18773
17714
17997
18790
18708
17213
18252
18673
18522
17307
18474
18493
18439
17240
18407
18618
17602
17751
18579
18777
17554
18171
18686
18687
17411
18299
18564
18569
17262
18446
18716
17855
17669
18462
18810
17392
18071
18554
18560
17104
18277
18514
18588
17039
18449
18811
18157
17138
18434
18760
17515
18023
18411
18597
17239
18180
18484
18594
17119
18394
18735
18103
17020
18361
18553
17344
17630
18217
18399
17242
17836
18305
18342
17032
18025
18337
18144
16805
18135
18394
17419
17352
18250
18334
17076
17692
18064
18265
16908
17898
18254
18200
16734
18058
18293
17418
16992
18034
18153
17118
17437
18142
18109
16848
17825
17967
17922
16631
17786
18055
17840
16644
17866
18088
16924
17217
17931
17998
16745
17500
17828
17957
16685
17743
18274
17831
16341
17611
17981
16975
17152
18007
18070
16935
17525
17935
18152
16815
17979
18136
18163
16856
18288
18430
17677
17534
18501
18581
17567
18056
18657
18796
17394
18424
18617
18729
17132
18505
18793
18477
17270
18469
18959
17707
18012
18729
18766
17461
18301
18638
18759
17346
18506
18607
18472
17293
18412
18602
17507
17837
18583
18603
17512
18077
18666
18540
17333
18391
18569
18445
17142
18323
18556
17684
17488
18623
18756
17693
17904
18483
18397
17222
18180
18432
18311
16816
18334
18452
18052
17287
18365
18601
17407
17645
18251
18373
17110
18068
18414
18466
16993
18262
18439
18219
17030
18247
18309
17319
17546
18176
18447
17044
17821
18134
18243
17071
17996
18088
18044
16639
18036
18339
17235
17114
18101
18111
17139
17572
17881
18050
16768
17867
18063
18066
16498
17935
17904
17426
16812
17894
18123
16944
17426
18058
18062
16688
17601
18130
17959
16522
17804
17965
17727
16541
17665
18046
16648
16988
17677
17904
16624
17244
17872
17891
16755
17577
17904
17781
16428
17813
18047
16898
16992
18029
18099
16953
17360
17859
18116
16723
17952
18232
18163
16799
18046
18226
17620
17180
18344
18545
17441
17989
18558
18663
17397
18338
18781
18776
17374
18567
18774
18562
17577
18636
18873
17595
18032
18585
18775
17453
18168
18546
18630
17389
18334
18625
18350
17110
18434
18673
17779
17664
18555
18632
17453
18125
18386
18602
17253
18214
18450
18491
16954
18319
18540
17612
17409
18411
18551
17652
17796
18333
18734
17079
18120
18307
18414
16918
18336
18280
18138
17248
18304
18583
17387
17653
18353
18442
17244
17880
18454
18306
17189
18178
18461
18212
16730
18272
18503
17378
17392
18223
18308
17040
17690
17965
18068
16920
17905
18255
18035
16428
17948
18162
17213
17170
18079
18090
17001
17328
18001
18004
16762
17795
18017
18044
16548
17888
17982
17542
16834
17975
18031
16907
17424
17989
18019
16642
17506
17869
17969
16488
17799
17868
17692
16479
17721
17976
16785
17151
17623
17858
16486
17243
17835
17852
16363
17557
17896
17608
16462
17628
17830
16931
16858
17753
18132
16757
17414
18015
18210
16790
17897
18149
18245
16875
18160
18295
17945
17329
18458
18502
17496
17888
18520
18629
17316
18261
18605
18591
17379
18517
18646
18525
17229
18573
18971
17598
18045
18619
18842
17431
18110
18283
18657
16960
18226
18443
18445
17118
18434
18467
17493
17510
18461
18571
17258
17933
18298
18518
17034
18237
18305
18345
17231
18481
18506
17799
17397
18438
18649
17417
17915
18557
18487
17077
18078
18169
18333
16898
18152
18364
18079
17053
18258
18491
17293
17536
18355
18433
17114
17924
18416
18333
17066
18275
18363
18049
17018
18132
18231
17278
17300
18275
18256
17057
17631
18121
18131
16928
17726
18186
17998
16796
17869
18362
17209
16944
18159
18129
16946
17441
17845
18112
17148
17824
17773
18116
16402
17870
17970
17718
16675
17918
18203
16926
17094
17836
17938
16592
17469
17848
17840
16519
17562
17848
17745
16602
17712
17879
16917
17147
17783
18086
16622
17287
17681
17882
16668
17544
17994
17833
16470
17785
18135
17075
16939
17914
18118
16919
17497
18085
18239
16863
17813
18129
18306
16768
18257
18403
18067
17331
18501
18702
17594
17951
18578
18817
17587
18337
18635
18729
17271
18489
18774
18558
17416
18513
18722
17626
18020
18701
18744
17581
18305
18653
18674
17336
18125
18825
18098
16979
18265
18650
17546
17528
18376
18571
17366
17916
18387
18481
17093
18149
18503
18565
16904
18258
18667
17979
17184
18475
18600
17256
17675
18340
18535
17149
17945
18476
18384
16833
18203
18540
18228
17050
18310
18550
17313
17704
18481
18337
17189
17804
18353
18359
16929
18125
18245
18315
16685
18237
18487
17374
17506
18260
18283
17019
17644
18094
18149
16864
17988
18085
18007
16884
17989
18206
17335
16887
18074
18180
17121
17486
17958
18153
16999
17830
18150
18228
16712
17963
18229
18018
16990
18107
18356
17108
17450
18106
18082
16755
17617
17919
17931
16671
17708
17755
17694
16875
17913
17972
16681
17310
17797
17982
16677
17440
17998
17920
16651
17696
18203
17857
16539
17721
17986
17007
16877
17890
18065
16954
17425
18098
18207
16745
17957
18212
18227
16705
18406
18457
18300
17333
18451
18767
17510
18097
18722
18806
17507
18383
18698
18903
17303
18550
18912
18473
17164
18645
18828
17664
18008
18713
18827
17292
18345
18696
18801
17632
18417
18721
18614
17154
18602
18890
17703
17604
18698
18768
17611
18120
18858
18419
17299
18310
18860
18777
16862
18306
18607
18510
17417
18418
18631
17732
17850
18596
18808
17291
18148
18646
18523
17104
18291
18648
18382
17067
18183
18542
17522
17842
18296
18974
17434
17677
18329
18484
17185
18165
18668
18274
17359
18446
18810
17439
17478
18377
18725
17276
17842
18662
18175
16770
17994
18430
18277
16938
17928
18084
17733
17346
18426
18340
17135
18039
18499
18401
16990
18217
18113
18277
17066
18077
18310
18149
16795
18154
18338
17275
17766
18086
18005
17051
17644
18017
17930
17194
18206
18152
17722
16517
18009
18014
17107
17398
18084
17838
17186
17626
17834
18111
16515
17864
18140
18014
16898
17968
18155
17409
16879
18078
18333
16866
17619
18349
18244
17105
17937
18553
18568
17040
18005
18434
18522
17495
18592
18722
17625
18062
18878
19168
17540
18467
19153
18953
17751
18639
18677
18667
17321
18789
18848
17865
18081
18675
18850
17659
18327
18674
18836
17534
18641
18658
18756
17267
18676
18596
17940
17699
18608
18860
17796
18133
18767
18842
17455
18425
18571
18679
17251
18589
18789
18301
17361
18641
18792
17476
18183
18571
18755
17308
18258
18624
18749
17334
18567
18640
18428
17308
18505
18605
17479
17805
18423
18610
17250
18025
18446
18444
17062
18215
18517
18314
17322
18290
18375
17497
17357
18261
18501
17486
17604
18591
18099
17091
18102
18429
18225
16856
18191
18526
17833
17184
18217
18434
17232
17706
18157
18317
17025
17870
18296
18556
16644
18214
18496
18143
17098
18131
18225
17240
17483
18059
18129
16937
17488
18088
17920
16694
17722
18054
18018
16495
17884
18289
17078
17010
17943
18041
17083
17592
18193
18141
16866
17858
18244
18151
16670
17929
18128
17706
17223
18195
17968
17135
17629
18435
18783
17027
18139
18551
18429
17233
18645
18715
18638
17595
18748
18935
17757
18305
18746
18723
17602
18259
18768
18801
17464
18629
18688
18570
17540
18617
18798
17639
17895
18707
18782
17554
18204
18674
18726
17370
18561
18725
18730
17358
18560
18609
17923
17647
18620
18761
17628
17912
18573
18583
17351
18009
18511
18410
17234
18265
18697
18355
17532
18433
18813
17743
17927
18706
18530
17496
18022
18399
18856
17207
18325
18530
18474
17108
18321
18435
17535
17629
18375
18497
17315
17913
18434
18476
17222
18115
18416
18315
16868
18360
18448
17469
17484
18206
18225
17119
17658
18199
18278
16964
17830
18076
18221
16777
18063
18288
17933
17008
18067
18328
17151
17550
18140
18144
17028
17856
18179
18080
16963
17921
18319
18203
16742
17939
18064
17061
17177
17930
17904
16796
17363
17905
17905
16815
17464
17942
17795
16619
17766
18186
17136
17131
17896
18053
16965
17457
18025
18102
16730
17787
17955
18004
16506
17952
17957
17720
16991
18016
18415
17221
17718
18259
18421
17234
18096
18423
18597
17385
18435
18806
18635
17529
18718
19023
17909
18058
18752
18803
17672
18231
18774
18811
17512
18536
18750
18487
16994
18553
18870
17763
17838
18509
18898
17497
17998
18584
18711
17419
18220
18623
18596
17343
18209
18502
18006
17476
18458
18675
17517
17895
18515
18593
17489
18081
18630
18560
17010
18295
18528
18341
17050
18400
18488
17578
17764
18411
18616
17291
17973
18340
18511
17146
18235
18412
18380
17179
18305
18426
17651
17754
18323
18638
17541
18182
18337
18332
17086
18031
18276
18212
16715
18086
18376
17532
17204
18252
18367
17301
17553
18137
18307
16862
17716
18144
18130
16756
17886
18154
17956
16878
18077
18291
17176
17704
18048
18328
17004
17801
18116
18243
16788
17799
18218
17840
16680
17937
18077
17100
17136
17815
18003
17006
17253
17818
17982
16445
17587
17708
17763
16528
17642
17940
17149
16910
18096
17986
16964
17464
18005
18072
16827
17812
17985
17991
16688
17928
18130
17766
16998
18164
18318
17388
17727
18378
18546
17365
18067
18513
18694
17344
18524
18823
18620
17417
18594
18988
17950
18035
18647
18835
17714
18249
18660
18741
17526
18347
18660
18451
17172
18484
18597
17744
17964
18485
18893
17726
18066
18564
18618
17034
18300
18646
18578
17094
18459
18678
18020
17423
18388
18679
17499
17787
18434
18607
17231
17874
18474
18792
17040
18222
18537
18282
17135
18222
18511
17413
17801
18420
18493
17262
17985
18335
18434
17233
18185
18364
18284
16860
18291
18374
17330
17337
18177
18264
17141
17739
18200
18254
17033
17999
18220
18171
16841
18118
18252
17389
17223
18227
18288
17267
17563
18086
18298
16947
17668
18118
18285
16534
18075
18428
17710
16877
17998
18165
17142
17363
18137
18161
16938
17674
18114
18227
17039
17669
18179
17856
16650
17920
18100
16984
17154
17751
18010
16831
17489
17825
17973
16756
17523
17839
17823
16652
17902
17994
17251
16839
17981
18288
16929
17622
18122
18200
16958
17804
18376
18175
16850
18067
18390
18173
17217
18394
18688
17659
17848
18434
18686
17554
18256
18651
18706
17403
18582
18833
18689
17430
18637
18776
17836
17902
18786
18952
17665
18177
18716
18751
17527
18521
18696
18690
17381
18664
18852
17825
17806
18627
18807
17633
17976
18656
18775
17445
18250
18692
18640
17178
18602
18783
18128
17517
18555
18825
17643
17789
18501
18676
17378
18214
18601
18624
17249
18326
18660
18455
17283
18396
18672
17562
17859
18405
18685
17362
18026
18482
18593
17236
18296
18418
18393
17046
18456
18563
17600
17651
18417
18534
17323
18057
18297
18449
17211
18189
18437
18342
16721
18308
18503
17582
17238
18306
18421
17244
17714
18262
18401
17223
17929
18285
18258
16883
18069
18271
18158
17127
18201
18364
17234
17435
18163
17953
16997
17700
18131
18287
16969
17853
18036
17998
16616
18047
18038
17066
17238
17892
18195
17015
17698
17976
18168
16807
17665
17969
17909
16525
17962
18091
17283
16958
18105
18198
17205
17496
18109
18238
16885
17856
18249
18269
16856
18222
18505
18256
17308
18529
18870
17615
18061
18621
18908
17635
18449
18768
18818
17595
18499
18852
18710
17457
18661
18958
17693
18058
18726
18852
17631
18317
18795
18816
17489
18542
18847
18755
17363
18756
18694
17782
17766
18602
18697
17402
18273
18632
18702
17375
18341
18576
18612
17028
18530
18718
18147
17572
18540
18945
17574
18063
18676
18723
17235
18323
18585
18634
17115
18440
18617
18369
17284
18416
18686
17399
17716
18533
18471
17147
18072
18544
18488
17304
18407
18591
18458
17114
18355
18453
17384
17576
18414
18507
17198
17844
18403
18333
17010
18002
18183
18235
16774
18100
18357
17501
17083
18158
18371
17130
17665
18282
18303
17041
17903
18114
18253
16805
17977
18354
18015
16947
18074
18280
17096
17392
18153
18073
16884
17659
18008
18054
16695
17785
17907
17803
16522
18001
18148
16839
17161
18039
18050
16624
17367
17973
17917
16603
17606
17770
17798
16543
17712
17930
17146
16811
17916
18048
16805
17496
18009
18175
16941
17868
18162
18139
16764
18385
18470
18149
17398
18384
18758
17460
18002
18566
18684
17296
18389
18711
18638
17388
18581
18837
18608
17347
18673
18821
17775
17845
18736
18948
17571
18399
18744
18791
17427
18539
18718
18464
17179
18358
18514
17598
17589
18524
18720
17428
17931
18724
18627
17486
18192
18655
18493
17261
18477
18778
18104
17379
18623
18716
17491
18006
18577
18538
17338
18198
18456
18463
17022
18369
18566
18312
17143
18486
18474
17557
17803
18436
18524
17316
18092
18515
18459
17225
18217
18405
18232
16984
18330
18407
17215
17408
18414
18345
17068
17669
18145
18377
16900
17913
18330
18266
16730
18145
18367
17604
17146
18083
18530
17344
17729
18280
18272
16837
17893
18305
18136
16744
18034
18360
18043
16749
18047
18370
16931
17366
18092
18230
16832
17750
18148
18104
16811
17794
18120
17896
16772
18016
18086
16883
17166
17976
18094
16764
17461
17977
18011
16464
17740
17839
17986
16579
17875
18082
17322
17013
18074
18302
17037
17550
18262
18246
16815
17901
18432
18382
16914
18456
18625
18294
17287
18590
18890
17619
18004
18666
18809
17437
18164
18800
18266
17439
18562
18820
18543
17072
18615
18773
17708
17840
18617
18795
17518
18255
18627
18721
17393
18405
18784
18468
17072
18571
18608
17715
17597
18472
18625
17340
17897
18515
18439
17163
18233
18596
18424
17098
18447
18580
18235
17435
18514
18770
17473
17828
18651
18573
17234
18140
18476
18500
17007
18169
18605
18233
17121
18410
18448
17291
17620
18362
18534
17323
17880
18537
18509
17236
18164
18604
18217
16945
18285
18497
17416
17267
18121
18313
17105
17717
18022
18292
16816
17941
18132
18165
16656
17980
18284
17589
16866
18127
18239
17056
17576
18113
18144
16914
17680
18042
18133
16752
18031
18263
17987
16777
17938
18259
16984
17229
17953
17941
16669
17477
18066
17844
16403
17548
17978
17696
16281
17713
17884
16810
16836
17899
17926
16694
17343
17802
17881
16413
17537
17797
17731
16312
17800
17913
17077
16687
17849
18004
16844
17440
17843
18089
16793
17867
18282
18191
17035
18276
18472
18262
17286
18579
18624
17612
17797
18421
18625
17361
18127
18714
18548
17202
18416
18675
18312
17145
18459
18636
17344
17710
18496
18576
17573
18089
18549
18648
17260
18359
18594
18488
17175
18383
18720
17571
17518
18508
18546
17230
17792
18399
18476
17106
18057
18459
18415
16887
18255
18451
18140
17204
18381
18817
17437
17667
18333
18466
17078
17992
18370
18382
17059
18189
18278
18105
16972
18194
18438
17148
17470
18203
18430
17125
17827
18283
18295
17059
18061
18285
18204
16933
18096
18358
17330
17425
18218
18166
17147
17549
18259
18284
16653
17882
18118
18032
16578
17938
18114
17600
16887
18137
18379
17055
17471
17924
18137
16822
17715
18089
18130
16828
17939
18068
17922
16809
17949
18094
16932
17227
17803
17971
16664
17405
17836
17850
16411
17595
17881
17702
16480
17657
17864
16845
16852
17857
17923
16833
17147
17953
17853
16533
17477
17982
17693
16204
17777
17969
17189
16763
17832
18047
16831
17360
17930
18092
16816
17851
18280
18181
16761
18208
18559
18258
17104
18446
18826
17439
18026
18759
18803
17477
18276
18666
18578
17310
18225
18590
18453
17175
18432
18710
17593
17747
18518
18685
17414
18019
18667
18587
17295
18503
18541
18576
17225
18510
18645
17783
17520
18584
18634
17390
17798
18451
18487
17090
18186
18567
18530
17030
18484
18565
18229
17315
18371
18922
17629
17833
18512
18538
17365
18155
18437
18447
17200
18229
18531
18324
16949
18267
18390
17351
17538
18445
18553
17258
17859
18517
18306
17020
18111
18255
18269
16921
18135
18438
17459
17381
18284
18513
17219
17653
18109
18256
16919
17923
18064
18002
16759
18044
18144
17670
16746
17997
18184
17149
17398
18086
18115
16858
17789
18181
18197
16619
17937
18138
17943
16684
17908
18208
16960
17069
18117
17940
16649
17402
18027
17893
16572
17509
17845
17687
16293
17720
17984
16881
16995
17697
17952
16681
17325
17925
17945
16551
17552
18010
17868
16453
17805
17876
17458
16940
18023
18277
16956
17449
18005
18117
16953
17868
18316
18338
16762
18198
18429
18321
17166
18515
18797
17568
17978
18623
18815
17454
18204
18587
18704
17327
18467
18736
18514
16968
18427
18678
17673
17640
18774
18683
17394
17907
18453
18634
17323
18256
18606
18585
17080
18136
18644
17787
17341
18323
18682
17388
17891
18574
18683
17125
18238
18496
18423
17040
18392
18484
18323
17104
18386
18390
17327
17799
18289
18460
17160
17947
18311
18344
17087
18147
18334
18210
16809
18232
18567
17463
17563
18202
18384
17097
17650
18186
18315
16975
18321
18267
18182
16720
18101
18323
17292
16916
18158
18287
17053
17503
18045
18266
16864
17957
18158
18109
16476
18106
18254
17825
16892
17954
18221
16920
17316
18100
18021
16570
17552
18144
18328
16746
17740
17946
17873
16557
17871
18053
17063
17197
17763
18009
16876
17336
17685
17899
16584
17532
17799
17634
16256
17602
17753
16866
16568
17641
17785
16586
17039
17623
17778
16423
17439
17802
17809
16211
17685
17830
17468
16556
17825
17998
16768
17201
17917
17954
16755
17515
18152
18073
16629
17931
18410
18252
16983
18277
18712
17624
17811
18598
18589
17530
18167
18652
18741
17522
18346
18667
18513
17277
18466
18752
17622
17517
18465
18545
17062
17956
18506
18556
17165
18207
18634
18434
17043
18446
18709
17896
17439
18421
18700
17404
17914
18583
18536
17185
18112
18489
18535
17070
18347
18408
18305
17329
18303
18664
17378
17640
18341
18585
17102
17948
18422
18441
17230
18199
18376
18236
16984
18338
18512
17427
17376
18364
18450
17250
17858
18393
18288
17051
18075
18208
18203
16698
18186
18289
17519
17079
18148
18306
17205
17586
18155
18207
16785
17825
18040
18155
16610
17964
18187
17964
16743
17854
17972
17004
17296
18003
18049
16757
17501
17865
18015
16718
17835
18034
17851
16554
17912
18096
16812
17192
17900
18105
16822
17493
18006
17925
16696
17561
17756
17681
16342
17723
17719
16862
16554
17587
17792
16619
17209
17694
17799
16534
17591
17778
17811
16344
17895
18050
17524
16776
17940
18183
16957
17327
17842
17998
16680
17482
18092
18031
16799
17883
18382
18101
16983
18293
18544
17514
17772
18584
18669
17572
18198
18732
18700
17284
18354
18665
18545
17204
18457
18701
17609
17740
18524
18604
17324
17990
18589
18599
17222
18226
18428
18436
17192
18424
18352
17934
17306
18405
18609
17400
17836
18401
18518
17126
18062
18394
18429
16934
18097
18380
18191
17351
18366
18460
17388
17564
18308
18406
17186
17879
18361
18333
17029
18288
18487
18189
16989
18311
18485
17320
17492
18278
18434
17213
17686
18343
18323
17093
17973
18207
18121
16649
18071
18229
17375
17025
18151
18387
17122
17607
18008
18284
17040
17720
18283
17980
16577
18088
18117
17854
16753
17939
18324
16986
17276
17863
17969
16695
17481
17943
17962
16612
17753
18028
17739
16532
18189
18114
17049
17147
18032
18101
16823
17461
17769
17933
16332
17514
17810
17629
16226
17736
17829
16783
16651
17656
17751
16604
17172
17615
17821
16558
17576
17761
17815
16228
17673
17825
17520
16721
17899
18154
16844
17274
17772
17991
16879
17642
18078
18197
16761
18047
18271
18159
16954
18287
18802
17571
17841
18629
18754
17586
18087
18706
18747
17712
18516
18751
18451
17154
18607
18730
17722
17728
18627
18791
17486
18020
18619
18610
17401
18339
18563
18622
17145
18551
18582
18091
17432
18542
18820
17577
18006
18758
18647
17471
18287
18709
18504
17212
18563
18665
18422
17207
18400
18708
17302
17724
18468
18545
17290
17927
18451
18476
17406
18268
18545
18183
17019
18324
18561
17421
17510
18465
18503
17248
17899
18429
18444
16942
17933
18281
18185
16825
18136
18217
17522
17092
18353
18393
17238
17547
18085
18399
16874
17897
18132
18207
16672
17965
18308
17998
16884
18088
18202
17128
17309
18048
18234
16731
17570
18134
17995
16663
17736
17932
17854
16354
17784
18109
17074
17106
17877
18090
16880
17495
18030
18088
16737
17324
18171
17950
16501
17648
17879
16998
16807
17926
17880
16737
17226
17781
17668
16504
17502
17895
17936
16536
17689
17925
17734
16795
17825
17941
16889
17364
17856
18163
16816
17544
17900
18013
16725
17980
18142
18098
16898
18156
18378
17339
17526
18389
18639
17383
17971
18661
18799
17435
18457
18820
18678
17261
18692
18889
17820
17845
18616
18734
17599
18020
18650
18707
17349
18187
18697
18486
16965
18416
18605
18041
17290
18408
18680
17648
17944
18543
18683
17494
18148
18630
18526
17189
18538
18485
18366
17108
18339
18653
17528
17631
18300
18499
17232
17879
18365
18410
17124
18100
18414
18206
16961
18212
18359
17555
17351
18303
18587
17246
17745
18424
18451
17157
18134
18326
18288
16916
18186
18381
17623
17297
18158
18422
17027
17415
18098
18337
16857
17794
18207
18204
16655
18009
18310
18055
16842
18161
18278
16946
17509
18216
18198
16984
17683
18119
18080
16820
17826
17970
17814
16390
17835
18043
17150
17178
18032
18061
16990
17548
17896
18162
16909
17748
17793
17943
16465
17762
18058
17085
16710
17859
17900
16705
17156
17660
17855
16350
17435
17904
17845
16291
17726
17917
17722
16644
17876
18140
17063
17219
18086
18025
16829
17552
18539
18243
16834
17975
18353
18149
17050
18206
18469
17371
17701
18440
18560
17504
18069
18539
18670
17329
18378
18692
18635
17387
18492
18643
17931
17756
18606
18715
17501
18176
18610
18639
17338
18132
18580
18463
16920
18397
18558
18035
17495
18270
18716
17468
17723
18433
18622
17286
17992
18440
18586
17265
18447
18583
18411
17223
18373
18583
17399
17571
18571
18436
17075
17988
18445
18467
17116
18099
18516
18297
16772
18344
18351
17438
17509
18408
18507
17280
17814
18344
18443
17158
18099
18394
18407
16833
18287
18512
17759
17040
18250
18419
17293
17601
18147
18198
16980
17806
18152
18207
16636
18038
18229
18201
16903
18067
18360
17247
17533
18238
18274
16964
17596
18165
18244
16902
17810
18193
18000
16784
17986
18283
17129
17059
18078
18119
16965
17540
18111
17899
16704
17702
18137
17973
16774
17681
17928
17076
16808
17817
17911
16834
17196
17855
17714
16509
17482
17632
17748
16183
17605
17845
17509
16672
17776
18126
16910
17286
18023
18131
16833
17665
18076
18258
16891
18061
18282
18299
17042
18357
18717
17511
17771
18329
18690
17366
18073
18616
18653
17361
18333
18746
18628
17018
18575
18793
17745
17604
18788
18824
17561
18074
18707
18697
17526
18285
18606
18631
17045
18527
18698
18142
17173
18436
18656
17545
17874
18481
18554
17170
17927
18429
18546
17095
18322
18551
18404
17246
18567
18640
17642
17850
18691
18697
17530
18030
18568
18497
17386
18279
18429
18313
16786
18179
18515
17472
17398
18276
18523
17332
17875
18470
18534
17178
18051
18328
18320
16943
18216
18565
17722
17230
18249
18473
17180
17573
18087
18277
16842
17677
18084
18011
16749
17992
18144
17971
16813
18117
18297
17039
17256
18096
18213
16696
17569
17936
18154
16710
17841
18001
17927
16563
17884
18193
16828
17006
17814
17988
16725
17287
17823
17839
16586
17491
17785
17739
16218
17702
17805
16976
16676
17822
17929
16666
17125
17675
17870
16514
17439
17765
17879
16087
17694
17725
17489
16479
17814
17919
16799
17156
17770
17865
16803
17538
17987
18110
16705
17806
18201
17913
16754
18191
18507
17370
17607
18548
18457
17276
17951
18568
18421
17145
18293
18547
18419
17026
18497
18524
17488
17518
18591
18548
17293
17970
18469
18643
17255
18212
18578
18510
16969
18371
18687
18036
17141
18382
18581
17253
17840
18434
18525
16961
18064
18531
18420
17085
18152
18689
18344
17025
18490
18731
17393
17723
18453
18496
17262
17908
18142
18152
17100
18240
18505
18308
16824
18113
18694
17407
17281
18232
18432
17265
17784
18279
18429
17056
18168
18221
18346
16815
18122
18405
17740
16961
18273
18388
17071
17992
18157
18252
16906
17764
18312
18099
16875
18054
18244
18057
16802
18113
18318
17132
17360
18197
18253
16941
17837
18220
18119
16810
17952
18168
17946
16617
17887
18271
17127
17268
18119
18167
16918
17426
18030
18035
16640
17648
18059
17945
16489
17849
17991
17052
16761
17816
17909
16686
17249
17802
17863
16629
17501
17753
17923
16352
17635
17927
17649
16635
17995
18112
16874
17122
18016
18132
16737
17510
18230
18273
16872
17948
18170
18202
16842
18217
18491
17422
17587
18572
18570
17605
18116
18765
18735
17456
18442
18775
18726
17128
18542
18762
17846
17570
18752
18864
17446
17913
18592
18593
17321
18239
18580
18578
16976
18522
18649
18284
17349
18529
18733
17533
17749
18612
18660
17220
18117
18608
18546
17137
18358
18689
18363
17058
18419
18643
17365
17654
18543
18713
17312
17999
18569
18504
17063
18232
18614
18450
16839
18348
18444
17363
17457
18390
18319
17323
17872
18492
18465
17024
18013
18400
18325
16732
18413
18356
18127
17157
18274
18536
17177
17606
18410
18442
17156
17919
18401
18265
16880
18100
18244
18060
16917
18053
18532
17099
17342
18161
18304
16932
17671
18111
18152
17213
18053
18212
18024
16676
18358
18350
17170
17402
18155
18272
17137
17572
18178
18178
16693
18089
18127
18065
16469
17914
18024
17328
16870
17896
18000
16808
17313
17842
18083
16592
17614
18047
17968
16486
17787
18176
17788
16714
17963
18265
16892
17305
18036
18326
16848
17758
18180
18109
16859
17983
18236
18158
16798
18370
18708
17545
17586
18525
18720
17389
18146
18546
18720
17378
18437
18750
18605
17198
18536
18527
17895
17390
18668
18778
17566
18009
18729
18668
17348
18239
18668
18681
17012
18451
18688
18215
17284
18532
18661
17491
17748
18562
18644
17231
18021
18578
18509
17024
18461
18599
18351
17078
18552
18669
17406
17572
18422
18564
17293
17992
18465
18557
17215
18281
18542
18551
16919
18487
18628
17551
17243
18511
18510
17194
17845
18481
18526
16876
18217
18312
18410
16811
18405
18475
18117
17321
18312
18530
17290
17680
18222
18344
16878
17750
18209
18219
16703
18073
18292
18121
16734
18096
18397
16948
17275
18117
18297
16882
17609
18078
18233
16815
17821
18171
17979
16315
18043
18081
17064
16977
18063
18160
16800
17417
17902
17963
16451
17604
17841
17911
16384
17744
17976
17470
16609
17927
18221
16828
17317
17993
18152
16750
17779
18060
17974
16520
17945
18116
17984
16860
17980
18222
17017
17332
18102
18266
17143
17889
18336
18520
17051
18346
18619
18584
17117
18587
18701
17711
17786
18783
18945
17620
18141
18655
18804
17383
18445
18729
18525
17080
18487
18719
17753
17401
18485
18679
17495
17940
18554
18622
16992
18216
18582
18577
17121
18461
18857
18335
17418
18532
18788
17524
17741
18654
18612
17141
18074
18625
18421
17214
18219
18400
18265
16802
18492
18740
17392
17543
18463
18593
17202
17994
18654
18624
17163
18250
18452
18559
17078
18464
18617
17527
17268
18409
18547
17223
17465
18398
18491
17111
18102
18414
18486
16911
18352
18513
18123
17000
18266
18550
17364
17688
18210
18473
17105
17889
18277
18238
16879
17959
18320
17923
16851
18236
18275
17151
17561
18150
18312
17024
17781
18273
18254
17003
18019
18228
18141
16578
18002
18177
17059
17012
18116
18126
16770
17283
18037
18037
16582
17729
17848
18006
16499
17980
18041
17648
16905
18073
18224
17072
17584
18064
18336
16769
17854
18137
18223
16855
18125
18432
18127
17074
18347
18423
17356
17537
18518
18644
17417
18175
18913
18816
17566
18691
18899
18730
17293
18705
19024
17832
17791
18797
18923
17624
18327
18677
18766
17291
18459
18806
18713
17236
18655
18895
17980
17503
18601
18829
17540
18105
18682
18853
17260
18316
18655
18632
17229
18585
18658
18507
17192
18593
18739
17475
17682
18557
18573
17378
17974
18504
18610
17252
18331
18643
18277
16995
18411
18616
17446
17484
18384
18566
17287
17859
18514
18556
17098
18230
18508
18338
16807
18177
18318
17592
17208
18268
18426
17088
17733
18297
18252
16880
17780
18159
18225
16653
18049
18313
18045
17062
18127
18236
17144
17443
18025
18165
16956
17585
18097
18030
16702
17855
18024
17851
16632
17894
18198
17013
17093
18093
18135
16787
17486
18004
18089
16945
17817
17947
17837
16420
17713
18025
16799
16764
17754
17846
16557
16982
17663
17842
16435
17382
17676
17960
16077
17732
17941
17694
16701
17838
18097
16785
17201
17870
18005
16663
17591
17854
17998
16665
17859
18030
17693
16468
18102
18343
17039
17397
18189
18428
17436
18052
18519
18659
17306
18382
18674
18598
17099
18627
18775
17737
17763
18648
18745
17406
17970
18674
18442
17134
18297
18644
18519
16976
18476
18703
18051
17246
18430
18628
17599
17985
18508
18599
17408
18057
18592
18604
17056
18180
18531
18499
17217
18450
18831
17692
17689
18476
18528
17087
17966
18304
18428
17118
18138
18398
18384
16868
18232
18466
17389
17577
18356
18547
17307
17885
18367
18497
17182
18215
18438
18374
16844
18256
18431
17634
17123
18301
18299
17212
17614
18168
18272
16970
17774
18328
18357
16757
17936
18324
18085
16935
18151
18359
17263
17446
18182
18267
16994
17649
17947
18190
16712
17789
18014
17920
16613
17957
18224
17105
17088
18001
18174
16951
17473
17998
18165
16980
17675
17685
18010
16124
17889
18072
16970
16731
17826
18112
16809
17165
18027
17930
16420
17328
18017
17875
16388
17788
18064
17664
16806
17894
18249
16906
17288
17895
18174
16913
17513
18159
18264
16817
17958
18185
18163
16954
18379
18457
17493
17566
18485
18712
17496
18135
18649
18701
17404
18458
18835
18784
17275
18651
18675
17857
17546
18698
18859
17599
18119
18674
18492
17392
18284
18701
18665
17135
18536
18682
18182
17313
18507
18781
17547
17825
18488
18687
17338
18174
18568
18554
17163
18397
18280
18417
17145
18435
18647
17486
17721
18415
18582
17219
17943
18399
18465
17142
18190
18479
18295
17004
18279
18437
17388
17442
18483
18556
17261
17824
18196
18333
17058
17996
18503
18344
16830
18269
18432
17678
17065
18157
18280
17127
17610
18305
18208
16878
17909
18202
18235
16747
18083
18196
18108
16870
18023
18311
17054
17447
18074
18231
17009
17519
18031
18202
16713
17870
18031
17949
16702
18066
18169
17105
17196
17945
18075
16825
17303
18034
17901
16451
17513
17994
17860
16374
17744
17788
17140
16846
17822
18040
16796
17207
18015
18032
16635
17626
17939
17959
16467
17947
18199
17786
16775
17919
18295
17005
17413
18093
18159
16845
17753
18258
18413
16957
18266
18642
18465
17054
18480
18845
17622
17816
18690
18778
17497
18111
18821
18782
17163
18365
18706
18505
17018
18572
18611
17678
17457
18504
18677
17363
17880
18616
18672
17124
18201
18503
18529
16830
18584
18708
18303
17259
18499
18794
17382
17742
18517
18547
17199
18042
18619
18449
17080
18262
18429
18243
17115
18270
18578
17460
17658
18409
18826
17253
17963
18521
18468
17214
18089
18556
18362
17049
18270
18531
17444
17381
18376
18595
17180
17753
18361
18499
16774
17940
18570
18398
16802
18347
18493
17755
17027
18274
18469
17133
17585
18301
18313
16905
17807
18312
18362
16654
17873
18283
17957
16809
17804
18365
16887
17391
18096
18197
16811
17505
18094
18143
16840
17904
18086
17918
16650
17984
18232
16973
16887
18000
18000
16698
17325
18062
17763
16559
17624
17925
17852
16318
17892
17938
17349
16818
17852
18067
16969
17294
17933
18177
16608
17562
18182
18055
16520
18006
18113
17874
16663
18000
18202
17019
17378
18222
18215
16915
17836
18290
18382
17187
18362
18711
18408
17142
18541
18916
17568
17806
18696
18717
17484
17962
18620
18682
17262
18381
18881
18577
17188
18558
18756
17683
17475
18622
18646
17637
18023
18503
18750
17314
18356
18697
18591
17208
18539
18942
18247
17159
18625
18723
17390
17832
18587
18537
17352
17964
18483
18597
17131
18263
18547
18531
17114
18522
18842
17548
17783
18498
18654
17319
17978
18520
18521
17240
18199
18468
18313
16911
18409
18529
17406
17409
18399
18517
17323
17736
18450
18612
16978
18177
18626
18397
16764
18441
18564
17849
17175
18401
18508
17307
17474
18278
18301
16840
17806
18269
18138
16830
18032
18219
18084
16739
18023
18298
17148
17375
18236
18229
16906
17627
18138
18191
16795
17998
18302
18077
16644
18012
18180
17180
17110
17920
18188
17007
17424
17853
18056
16551
17817
18039
17777
16425
17831
18060
17259
16687
17926
18053
16757
17370
17959
18073
16695
17595
18027
18119
16617
17946
18081
17906
16715
17928
18252
16977
17418
18061
18478
17059
17793
18339
18477
17201
18353
18565
18472
17178
18660
18808
17666
17945
18748
18950
17500
18111
18715
18793
17405
18549
18847
18609
17099
18496
18791
17865
17545
18635
18675
17599
17958
18543
18763
17329
18259
18795
18626
17016
18435
18672
18163
17272
18491
18761
17498
17972
18551
18669
17274
18138
18549
18570
17001
18271
18686
18489
17174
18424
18805
17440
17611
18345
18658
17310
17993
18456
18566
17131
18183
18621
18367
16919
18372
18647
17409
17440
18226
18455
16953
17813
18476
18445
16977
17963
18171
18408
16820
18402
18625
17792
17105
18367
18404
17182
17631
18444
18388
16889
17921
18261
18257
16788
18109
18283
18031
16802
18052
18325
17016
17470
18189
18243
16769
17647
18138
18092
16855
17902
18117
18017
16827
18031
18113
17024
17152
18014
18144
16655
17343
17762
18200
16742
17569
17958
17697
16405
17723
18006
17197
16646
17860
18015
16804
17162
18015
18090
16504
17539
18104
17966
16607
17854
18019
17849
16627
17880
18161
16980
17227
18162
18197
17051
17783
18298
18435
17128
18283
18509
18350
17277
18546
18960
17807
17729
18624
18781
17440
18020
18780
18611
17392
18270
18606
18518
17016
18440
18519
17667
17380
18385
18577
17387
17851
18405
18550
17148
18164
18557
18561
16837
18322
18549
18005
17067
18394
18662
17346
17825
18306
18374
17166
17933
18484
18480
16983
18240
18356
18292
16876
18203
18435
17334
17398
18246
18501
17213
17759
18309
18418
16999
17837
18158
18038
16621
18112
18232
17314
17085
18203
18338
17031
17587
18237
18239
16797
17817
18099
18154
16638
18146
18152
17620
16719
18116
18033
17002
17363
17970
18144
16726
17481
18031
18037
16648
17869
18018
17866
16477
17869
18326
16937
17192
17997
18111
16620
17457
18253
18056
16518
17650
17935
17676
16273
17784
17887
16781
16651
17607
17740
16399
16991
17651
17688
16323
17281
17706
17689
16105
17467
17734
16954
16539
17683
17706
16541
17059
17721
17670
16232
17113
17574
17524
16190
17705
17785
17533
16365
17742
18054
16856
17261
18074
18166
16699
17606
18338
18232
16934
18016
18286
18128
16754
18224
18377
17223
17411
18239
18384
17039
17844
18335
18302
16881
17926
18362
18144
16653
18205
18267
17394
17117
18191
18317
17198
17563
18252
18381
16862
17952
18223
18168
16561
17922
18160
17803
16643
17966
18305
17030
17419
18113
18254
16731
17559
18090
18148
16698
17867
18114
17840
16633
18031
18090
17072
17226
17988
18122
16796
17723
17949
17976
16687
17664
18091
17869
16184
17715
17894
16935
16682
17912
17987
16723
17253
18010
17904
16524
17498
17977
17811
16231
17677
17839
17357
16330
17665
17779
16444
16930
17590
17718
16347
17123
17617
17642
16212
17500
17777
17455
16263
17562
17808
16645
16897
17765
17804
16394
17060
17482
17617
16180
17358
17480
17359
15835
17188
17374
16319
16438
17343
17485
16261
16843
17509
17571
16068
17216
17608
17561
15906
17480
17665
16961
16257
17568
17773
16420
16967
17550
17753
16207
17136
17786
17698
16232
17691
17985
17823
16737
17972
18300
17057
17359
18089
18410
16887
17799
18377
18465
17163
18044
18248
18200
16691
18279
18193
17219
17335
18148
18628
17158
17560
18186
18393
16687
17819
18370
18038
16521
18077
18302
17312
16889
18186
18426
17070
17469
18245
18302
16881
17713
18103
18211
16508
18131
18293
17944
16811
18029
18267
16886
17171
17998
18108
16787
17531
18036
18232
16764
17822
18076
17979
16586
17916
18207
16979
17255
18119
18071
16850
17447
18038
18070
16572
17569
17998
17817
16547
17836
17950
16960
16748
17792
17875
16834
17064
17893
17991
16460
17524
18031
17910
16231
17812
17932
17436
16339
17572
17861
16621
16857
17754
17698
16313
17033
17719
17554
16202
17530
17793
17658
16242
17592
17841
16640
16888
17534
17762
16374
17040
17757
17642
16177
17233
17540
17321
15688
17290
17479
16251
16158
17271
17502
16255
16750
17388
17525
16130
17244
17576
17506
15984
17475
17657
17050
16332
17654
17747
16401
16845
17661
17382
16228
17178
17777
17693
16289
17722
18057
17822
16498
18009
18296
17067
17410
18371
18443
17131
17790
18533
18431
17259
18119
18478
18190
16897
18257
18557
17354
17383
18254
18434
17140
17769
18143
18371
16873
17799
18162
18155
16614
18116
18254
17305
16926
18133
18346
17086
17483
18211
18311
16903
17772
18209
18095
16659
18000
18204
18034
16886
18133
18380
17173
17410
18247
18335
16745
17559
18061
18226
16740
17920
18027
17955
16653
17992
18272
16915
16983
17954
18139
16825
17326
17963
18006
16655
17621
18072
17814
16304
17785
18062
16950
16749
17873
18193
16713
17174
17769
17971
16527
17456
17775
17737
16358
17615
17935
17341
16483
17611
17934
16515
16787
17778
17826
16511
17192
17858
17744
16371
17462
17641
17409
16457
17641
17787
16474
16714
17611
17640
16168
16998
17413
17512
16127
17264
17616
17295
15966
17406
17649
16408
16374
17468
17584
16311
16790
17461
17599
15999
17177
17650
17596
15825
17447
17774
17004
16324
17670
17860
16533
17070
17803
17914
16445
17501
17985
18150
16677
17972
18158
18062
16744
18216
18446
17246
17401
18304
18550
17012
17661
18272
18243
16850
18007
18347
18044
16666
18088
18712
17246
17284
18141
18272
17022
17440
18301
18243
16876
17829
18170
18101
16522
17918
18199
17245
16727
17958
18209
16856
17336
18009
18140
16769
17543
18119
18049
16514
18027
18249
17983
16595
18137
18409
16826
17216
18008
18007
16490
17332
17878
17909
16503
17607
17881
17608
16184
17765
18072
16825
16817
17808
17969
16554
17307
17893
17812
16313
17535
17916
17626
16201
17580
17977
16788
16479
17574
17875
16475
16932
17715
17783
16334
17204
17568
17679
16057
17541
17664
17416
16275
17559
17810
16390
16868
17624
17607
16237
16941
17502
17536
16163
17145
17522
17255
15693
17225
17381
16326
16426
17324
17471
16048
16791
17364
17561
16085
17212
17574
17377
15719
17331
17718
16499
16376
17470
17772
16391
16990
17533
17866
16202
17399
17803
17872
16145
17888
17970
17701
16787
18065
18469
17053
17353
18303
18449
16917
17765
18300
18237
16661
17993
18304
18033
16614
18141
18347
17118
17182
18169
18222
16776
17534
18133
18183
16644
17717
18298
17994
16386
18012
18225
17078
17144
18154
18165
16856
17413
17967
18040
16612
17683
18226
17904
16524
17915
18122
17396
16583
17925
18167
16759
17325
17943
17801
16481
17653
18214
18005
16515
17892
17908
17754
16457
17910
18046
16667
17021
17766
18009
16613
17170
17685
17769
16268
17450
17899
17565
15912
17620
17881
16627
16649
17867
17894
16639
17059
17757
17910
16361
17411
17725
17557
16103
17490
17522
16803
16244
17555
17599
16315
16844
17479
17490
16118
17020
17500
17458
15919
17281
17561
17155
16059
17316
17545
16214
16566
17499
17558
16094
16806
17336
17367
16020
17127
17552
17122
15713
17345
17499
16296
16435
17450
17826
16420
17079
17867
17868
16301
17565
17989
17914
16443
17914
18373
17221
16940
18250
18463
17130
17579
18355
18096
16836
17959
18448
18442
16757
18298
18543
18142
16999
18495
18663
17418
17740
18489
18740
17193
18088
18755
18579
17003
18317
18441
18315
16879
18354
18647
17267
17306
18415
18550
17006
17840
18522
18525
16895
18218
18640
18550
16556
18343
18547
17464
17346
18494
18540
17061
17830
18567
18517
16922
17994
18373
18313
16516
18180
18384
17734
16916
18142
18400
16972
17378
18334
18226
16726
17806
18232
18229
16537
18075
18207
17916
16603
18023
18329
16878
17232
17936
18122
16772
17326
18099
18091
16681
17568
18126
17887
16495
17938
18138
16839
17089
17944
18021
16886
17388
18024
18163
16459
17620
17982
17902
16212
17710
17914
17132
16393
17571
17867
16394
16923
17726
17704
16054
17250
17733
17616
16034
17529
17743
17459
16250
17589
17863
16508
16851
17703
17787
16277
17103
17635
17805
16243
17590
17872
17489
16274
17794
18176
16744
17069
18050
18264
16740
17678
18241
18338
16932
18178
18395
18327
16676
18183
18505
17305
17082
18351
18500
17010
17577
18384
18413
16853
17999
18261
18347
16752
18308
18461
18095
16814
18291
18639
16942
17620
18294
18437
16896
17708
18160
18322
16750
18037
18171
17856
16585
18259
18059
16845
17095
18183
18296
16924
17669
18198
18216
16622
17946
18241
18039
16482
18122
18399
17133
16781
17953
18245
16722
17234
18023
17951
16518
17601
17854
17843
16280
17758
17936
17489
16829
17817
18131
16710
17139
17871
17984
16577
17445
17807
17852
16172
17645
17898
17565
16049
17632
18002
16465
16801
17706
17880
16345
17068
17813
17704
16129
17391
17705
17569
15925
17488
17711
16362
16362
17547
17686
16212
16846
17488
17566
15914
17323
17580
17551
15842
17437
17742
16884
16163
17487
17782
16467
17016
17828
17851
16439
17359
18070
17995
16487
17968
18208
18156
16789
18148
18435
16944
17403
18432
18457
16938
17787
18422
18401
16843
18036
18418
18014
16592
18089
18366
17040
17210
18218
18294
16795
17533
18364
18255
16630
17851
18336
18151
16528
18088
18315
17249
16940
18098
18233
16885
17457
18193
18309
16508
17606
18137
18032
16314
17864
18235
17651
16683
18101
18316
16861
17111
18089
18175
16724
17456
18030
18108
16568
17704
18235
17943
16348
17908
17935
16733
16817
17923
17937
16470
17148
17814
17768
16259
17401
17783
17636
16066
17643
17913
16576
16481
17546
17871
16436
16945
17821
17756
16308
17338
17925
17685
16011
17570
17763
17192
16203
17401
17693
16224
16609
17444
17469
16013
16764
17415
17456
15942
17328
17606
17247
15894
17447
17589
16183
16536
17590
17618
16188
16942
17578
17421
15962
17154
17483
17370
15743
17444
17707
16525
16628
17842
17948
16592
17297
18099
17893
16570
17871
18196
18271
16644
18093
18232
17557
16956
18065
18398
16928
17348
18181
18215
16576
17491
18153
18105
16639
17891
18002
17854
16565
17866
18347
16908
17121
17989
18073
16686
17369
18219
18098
16640
17703
18222
17866
16361
17934
18203
16934
17124
18003
18215
16768
17371
17995
18180
16692
17808
18239
17957
16237
17812
18132
17274
16807
17942
18072
16668
17258
17873
17973
16479
17472
17678
18067
15922
17813
17888
17682
16418
17792
18008
16641
16929
17791
17890
16463
17156
17826
17688
16332
17477
17997
17507
16133
17705
17866
16714
16730
17717
17882
16244
17022
17543
17591
16097
17330
17457
17423
15760
17478
17689
16517
16354
17396
17720
16090
16715
17355
17496
16119
17023
17583
17469
15836
17299
17635
17232
16258
17576
17661
16204
16762
17621
17607
16225
17076
17761
17711
16134
17588
17902
17539
16344
17904
18224
16906
17115
18267
18296
16638
17543
18174
18207
16620
17967
18352
18086
16513
17941
18340
16952
16974
18118
18223
16738
17357
18121
17988
16635
17750
18027
17944
16273
17778
17817
17420
16736
17830
18105
16656
17224
17943
18071
16398
17328
18006
17904
16467
17774
18131
17801
16391
17966
18163
16759
17088
17900
18148
16546
17294
17926
17880
16303
17680
17885
17633
16079
17612
17810
16610
16460
17836
17786
16358
16952
17556
17645
16104
17237
17582
17573
15766
17461
17770
16818
16311
17669
17690
16373
16743
17431
17741
16115
17094
17650
17465
15941
17403
17370
17308
16037
17376
17728
16339
16672
17439
17586
16086
16921
17385
17448
15847
17291
17458
17245
15733
17364
17432
16281
16429
17362
17485
16062
16843
17528
17596
15909
17025
17465
17306
15808
17410
17760
16516
16484
17776
17784
16460
17016
17755
17946
16465
17464
18167
17947
16331
17840
18217
17819
16686
18248
18437
16866
17422
18118
18276
16750
17683
18332
18146
16629
17969
18273
17930
16436
18149
18287
16886
17259
17996
18122
16694
17426
17942
18091
16416
17610
18017
17768
16170
17786
17947
16773
16671
17858
18048
16553
17213
18014
18098
16460
17588
18063
18013
16425
17900
18175
17737
16659
17970
18250
16761
17263
18037
18100
16483
17407
17953
17917
16282
17736
17683
17525
16094
17751
17913
16544
16724
17799
17845
16222
17053
17836
17639
16234
17436
17710
17467
15900
17588
17542
16500
16435
17686
17637
16237
16884
17645
17615
16162
17272
17597
