30351
30394
30395
30382
30380
30417
30366
30425
30432
30467
30467
30482
30493
30529
30540
30565
30567
30618
30679
30788
30930
31060
31209
31426
31564
31646
31682
31720
31726
31713
31709
31696
31675
31661
31687
31669
31641
31618
31624
31589
31615
31561
31554
31554
31526
31518
31492
31522
31470
31454
31466
31449
31412
31419
31380
31401
31356
31357
31334
31313
31284
31267
31264
31230
31196
31185
31187
31147
31109
31096
31088
31067
31041
31048
31021
30984
30994
30969
30954
30903
30924
30905
30897
30835
30814
30862
30841
30806
30803
30804
30791
30801
30806
30813
30796
30774
30822
30781
30793
30763
30717
30713
30720
30700
30636
30620
30615
30561
30605
30538
30547
30508
30492
30506
30490
30472
30439
30456
30465
30472
30451
30466
30452
30468
30466
30483
30478
30470
30538
30509
30518
30548
30519
30539
30537
30586
30592
30608
30649
30647
30704
30794
30874
30999
31150
31292
31458
31618
31686
31713
31770
31801
31789
31792
31767
31766
31754
31741
31724
31700
31712
31688
31658
31656
31666
31614
31611
31595
31586
31537
31587
31551
31554
31544
31479
31507
31486
31433
31462
31420
31425
31411
31382
31341
31328
31315
31301
31284
31269
31264
31247
31231
31219
31191
31178
31147
31131
31102
31095
31105
31045
31050
31046
31033
31004
31028
30991
31011
30969
30965
30976
30989
30948
30948
30927
30942
30939
30923
30938
30895
30862
30870
30838
30816
30799
30788
30774
30737
30728
30687
30666
30654
30615
30624
30625
30610
30608
30562
30579
30565
30602
30582
30569
30564
30544
30571
30554
30570
30554
30582
30598
30581
30576
30614
30590
30617
30618
30629
30650
30658
30673
30706
30720
30772
30853
30975
31079
31205
31372
31561
31695
31792
31822
31846
31874
31916
31874
31858
31854
31850
31858
31830
31823
31786
31790
31779
31745
31739
31719
31706
31701
31695
31674
31649
31617
31615
31594
31576
31573
31549
31537
31541
31527
31497
31470
31459
31459
31437
31426
31383
31395
31348
31349
31308
31308
31278
31260
31232
31198
31199
31180
31146
31150
31095
31093
31068
31046
31053
31000
30979
30974
30971
30964
30950
30920
30942
30910
30913
30906
30907
30926
30913
30929
30890
30850
30839
30818
30816
30810
30777
30730
30720
30712
30706
30644
30648
30622
30636
30621
30568
30560
30580
30575
30557
30544
30543
30543
30550
30573
30557
30543
30564
30551
30578
30595
30577
30596
30592
30654
30600
30628
30653
30659
30642
30683
30688
30747
30760
30804
30862
30914
31063
31225
31365
31508
31687
31827
31856
31906
31922
31881
31932
31930
31917
31920
31890
31890
31866
31852
31858
31842
31816
31810
31807
31824
31793
31771
31759
31760
31739
31727
31682
31671
31648
31619
31610
31580
31600
31552
31536
31527
31489
31475
31439
31455
31421
31430
31400
31377
31330
31324
31285
31278
31259
31221
31214
31175
31170
31121
31120
31116
31118
31080
31056
31053
31038
31014
31031
31004
31024
31034
31004
31001
31013
30996
30991
30969
30991
30974
30953
30930
30901
30880
30867
30866
30811
30779
30753
30752
30684
30663
30631
30641
30599
30605
30602
30587
30584
30578
30559
30587
30575
30540
30557
30588
30561
30572
30550
30578
30577
30563
30584
30599
30587
30587
30623
30627
30636
30641
30641
30663
30674
30720
30790
30858
30974
31139
31266
31415
31598
31696
31836
31854
31883
31881
31883
31889
31876
31902
31863
31856
31826
31846
31825
31811
31828
31762
31768
31779
31785
31755
31723
31715
31675
31677
31696
31674
31652
31634
31634
31568
31583
31542
31533
31530
31524
31496
31482
31475
31431
31428
31395
31339
31340
31285
31261
31270
31229
31207
31196
31150
31127
31079
31070
31022
31026
31036
31029
30990
30984
30974
30944
30972
30940
30928
30933
30901
30886
30898
30918
30886
30883
30896
30913
30865
30824
30814
30787
30765
30772
30746
30700
30671
30646
30646
30655
30627
30584
30591
30598
30588
30603
30567
30538
30571
30549
30545
30583
30559
30560
30544
30561
30581
30581
30604
30563
30609
30609
30615
30622
30616
30653
30664
30688
30716
30756
30805
30859
30942
31067
31193
31325
31515
31597
31648
31737
31758
31744
31751
31714
31736
31713
31696
31690
31660
31663
31637
31640
31585
31569
31559
31523
31507
31486
31474
31481
31437
31413
31384
31372
31333
31335
31304
31282
31284
31223
31227
31246
31210
31216
31195
31167
31169
31135
31130
31100
31074
31088
31055
31066
31057
31017
30986
30998
30965
30944
30921
30971
30932
30949
30945
30919
30915
30933
30898
30906
30942
30898
30880
30898
30892
30889
30881
30905
30876
30840
30821
30820
30829
30773
30757
30790
30726
30744
30694
30664
30640
30664
30621
30633
30659
30617
30615
30635
30619
30607
30603
30609
30622
30605
30601
30626
30636
30615
30590
30620
30623
30633
30604
30654
30653
30638
30656
30682
30678
30699
30713
30706
30760
30776
30826
30910
31009
31136
31256
31383
31551
31666
31767
31845
31825
31881
31855
31863
31871
31841
31861
31853
31832
31881
31825
31841
31846
31816
31838
31822
31824
31803
31806
31796
31768
31775
31784
31764
31730
31707
31698
31669
31676
31668
31631
31644
31612
31566
31594
31586
31570
31558
31511
31532
31500
31455
31445
31446
31432
31387
31399
31382
31333
31317
31325
31306
31283
31284
31232
31255
31225
31234
31228
31199
31208
31203
31174
31180
31176
31175
31172
31128
31141
31116
31093
31111
31070
31078
31011
30976
30981
30956
30916
30923
30884
30854
30843
30785
30809
30794
30779
30785
30762
30738
30758
30742
30723
30736
30705
30746
30726
30691
30730
30711
30731
30728
30764
30720
30745
30761
30757
30760
30789
30800
30831
30856
30875
30917
31012
31133
31213
31351
31494
31683
31831
31936
31955
32015
32022
32027
32009
31985
31983
32015
31980
31992
31950
31943
31922
31891
31919
31910
31864
31873
31873
31854
31846
31820
31843
31826
31803
31798
31774
31755
31755
31764
31749
31725
31732
31704
31698
31660
31646
31636
31620
31600
31593
31568
31535
31515
31491
31472
31451
31450
31423
31407
31395
31400
31371
31359
31372
31327
31313
31296
31300
31287
31237
31241
31240
31244
31252
31217
31210
31245
31219
31195
31182
31135
31145
31124
31103
31072
31058
31040
31014
31011
30945
30957
30913
30877
30862
30842
30821
30820
30802
30809
30806
30792
30813
30784
30777
30781
30747
30764
30777
30774
30788
30778
30756
30773
30778
30773
30840
30823
30812
30800
30841
30886
30887
30916
30939
31016
31148
31258
31401
31572
31711
31892
31944
31994
32007
32023
31999
31972
31990
31980
31966
31935
31914
31898
31904
31883
31860
31831
31831
31816
31790
31795
31768
31766
31731
31741
31722
31718
31717
31701
31694
31682
31653
31637
31602
31604
31575
31556
31525
31497
31478
31450
31464
31396
31407
31395
31337
31299
31268
31245
31208
31199
31222
31189
31143
31164
31102
31112
31112
31111
31093
31048
31053
31036
31038
31026
31054
31019
31023
31001
31006
30979
31011
30978
30933
30976
30898
30903
30892
30839
30878
30844
30807
30786
30750
30785
30768
30723
30733
30691
30688
30711
30679
30654
30698
30689
30688
30696
30662
30654
30688
30668
30669
30690
30672
30678
30710
30688
30739
30733
30727
30732
30786
30773
30792
30834
30830
30884
30937
31001
31045
31204
31310
31446
31581
31763
31864
31958
32003
31997
32013
32030
32015
31972
31970
31995
31975
31980
31959
31952
31973
31983
31932
31921
31902
31890
31908
31850
31828
31855
31808
31837
31800
31810
31767
31768
31738
31722
31677
31699
31662
31684
31626
31630
31605
31585
31553
31507
31486
31467
31458
31467
31398
31379
31377
31341
31321
31281
31267
31266
31240
31214
31245
31187
31204
31182
31190
31176
31148
31182
31141
31152
31137
31130
31130
31109
31120
31085
31100
31092
31062
31057
31015
31002
31005
30959
30954
30916
30924
30908
30895
30876
30880
30851
30867
30858
30819
30843
30824
30814
30825
30828
30864
30831
30819
30858
30872
30840
30848
30862
30871
30877
30884
30910
30883
30908
30894
30942
30978
30961
31006
31048
31063
31141
31236
31349
31505
31618
31816
31948
32047
32111
32146
32121
32150
32147
32162
32174
32142
32130
32075
32122
32129
32103
32063
32083
32052
32051
32046
32034
32034
32037
32018
32015
31999
31964
31998
31953
31933
31935
31880
31878
31884
31860
31862
31793
31788
31806
31760
31736
31715
31700
31679
31665
31622
31606
31579
31577
31544
31524
31478
31492
31451
31444
31424
31384
31407
31369
31335
31327
31330
31311
31282
31307
31266
31304
31262
31263
31232
31242
31235
31226
31228
31186
31185
31210
31142
31133
31106
31052
31079
30995
30974
30963
30915
30888
30905
30903
30866
30854
30878
30873
30868
30827
30792
30850
30821
30808
30835
30829
30812
30858
30861
30854
30842
30862
30875
30864
30882
30884
30919
30944
30966
30966
30987
31073
31132
31254
31363
31458
31645
31770
31921
32023
32020
32090
32073
32112
32054
32052
32079
32076
32077
32079
32050
32024
32028
32003
31993
31984
31965
31962
31981
31951
31921
31924
31924
31891
31883
31874
31855
31830
31844
31821
31782
31775
31743
31729
31720
31712
31682
31677
31651
31604
31611
31592
31576
31559
31536
31530
31499
31504
31466
31457
31455
31445
31426
31394
31385
31355
31348
31318
31305
31304
31282
31283
31276
31268
31251
31248
31217
31230
31236
31223
31221
31191
31169
31158
31156
31121
31093
31073
31045
31022
31043
30982
30979
30960
30933
30952
30902
30925
30894
30905
30906
30894
30892
30879
30868
30897
30896
30903
30906
30872
30927
30914
30925
30917
30910
30913
30969
30966
30953
30964
30979
31005
31018
31061
31111
31141
31248
31388
31500
31621
31816
32002
32057
32130
32154
32169
32203
32199
32178
32184
32176
32167
32169
32156
32133
32133
32104
32121
32100
32086
32058
32055
32051
32025
31978
32001
31986
31987
31943
31960
31920
31915
31903
31908
31889
31846
31867
31848
31824
31813
31735
31768
31723
31707
31683
31688
31689
31637
31579
31584
31543
31536
31524
31498
31457
31421
31455
31399
31432
31386
31357
31369
31330
31343
31310
31327
31309
31291
31282
31276
31292
31269
31248
31246
31211
31200
31173
31142
31158
31112
31104
31079
31044
31032
31022
30976
30955
30926
30941
30912
30891
30910
30868
30877
30882
30866
30850
30869
30848
30857
30854
30847
30856
30881
30877
30871
30883
30871
30920
30933
30925
30900
30971
30937
30976
30979
31033
31044
31057
31115
31183
31287
31417
31572
31692
31839
31982
32078
32143
32170
32161
32163
32133
32127
32147
32132
32141
32110
32082
32101
32075
32055
32060
32027
32020
31999
31994
31965
31971
31976
31954
31959
31951
31887
31899
31890
31859
31836
31803
31806
31819
31776
31746
31738
31727
31693
31689
31656
31657
31597
31598
31585
31554
31505
31482
31468
31419
31406
31398
31354
31334
31328
31333
31312
31298
31294
31292
31263
31273
31219
31233
31260
31271
31253
31236
31224
31228
31238
31200
31187
31151
31136
31086
31087
31046
31043
31024
31019
31003
30964
30951
30910
30933
30912
30893
30883
30881
30893
30893
30894
30891
30872
30876
30861
30883
30851
30891
30875
30857
30867
30863
30890
30895
30920
30923
30941
30962
30948
30968
30987
31002
31034
31113
31179
31286
31421
31522
31661
31823
31959
32048
32072
32123
32154
32168
32124
32133
32171
32108
32128
32109
32078
32074
32089
32037
32036
32051
32017
32022
32013
31967
31958
31956
31938
31933
31910
31911
31884
31881
31876
31832
31810
31815
31816
31768
31760
31736
31741
31687
31631
31606
31604
31581
31546
31545
31505
31497
31461
31412
31421
31386
31360
31362
31324
31297
31295
31278
31259
31269
31231
31239
31214
31237
31238
31225
31209
31208
31223
31195
31208
31212
31207
31188
31141
31176
31151
31116
31096
31103
31043
31065
31006
31013
30955
30960
30978
30920
30902
30926
30899
30871
30886
30898
30893
30872
30857
30902
30857
30878
30885
30898
30913
30915
30947
30936
30966
30968
30946
30972
30989
31003
31031
31057
31116
31169
31210
31303
31407
31544
31660
31808
31989
32067
32127
32170
32188
32179
32175
32188
32128
32148
32143
32155
32096
32127
32077
32037
32064
32033
32043
32021
32018
31969
32002
31983
31949
31924
31904
31883
31893
31895
31849
31839
31891
31837
31826
31811
31787
31765
31729
31752
31687
31689
31691
31640
31639
31621
31647
31616
31573
31563
31533
31552
31523
31491
31460
31467
31458
31464
31418
31443
31357
31412
31419
31398
31389
31379
31395
31352
31378
31373
31343
31376
31346
31328
31307
31293
31269
31251
31226
31213
31183
31142
31150
31116
31082
31102
31079
31040
31044
31061
31000
31043
31014
31007
31001
31017
31001
30990
31030
30997
31023
31002
31016
31029
31027
31004
31033
31063
31072
31062
31048
31086
31099
31098
31100
31165
31170
31211
31252
31354
31485
31593
31737
31879
32064
32155
32261
32282
32295
32325
32341
32330
32296
32308
32271
32284
32293
32288
32282
32267
32260
32266
32235
32249
32254
32245
32194
32201
32201
32176
32166
32179
32121
32168
32109
32130
32116
32100
32089
32067
32045
32048
32025
32014
31999
31997
31947
31990
31937
31917
31915
31880
31866
31841
31842
31790
31788
31797
31735
31714
31700
31649
31695
31621
31621
31597
31587
31599
31550
31601
31575
31531
31566
31545
31531
31485
31501
31480
31450
31424
31385
31350
31357
31312
31288
31238
31224
31207
31187
31155
31174
31140
31151
31145
31109
31087
31110
31102
31102
31097
31117
31079
31057
31089
31077
31069
31088
31086
31117
31099
31091
31092
31091
31148
31142
31159
31159
31186
31185
31208
31225
31281
31333
31437
31547
31654
31801
31964
32127
32222
32367
32407
32395
32408
32399
32383
32382
32397
32396
32359
32370
32350
32358
32311
32331
32300
32269
32261
32287
32263
32260
32271
32246
32222
32212
32202
32209
32198
32156
32156
32173
32145
32144
32126
32111
32068
32075
32076
32079
32030
32031
32009
31979
31971
31939
31909
31897
31887
31877
31843
31811
31797
31774
31770
31723
31725
31668
31684
31678
31657
31626
31651
31616
31622
31622
31604
31613
31610
31594
31598
31583
31536
31546
31504
31473
31451
31431
31422
31350
31351
31300
31279
31271
31249
31198
31200
31167
31176
31152
31120
31139
31138
31139
31133
31122
31131
31132
31126
31117
31115
31131
31138
31143
31144
31164
31151
31178
31168
31198
31182
31223
31221
31262
31337
31380
31472
31585
31738
31861
32009
32193
32282
32343
32422
32441
32452
32456
32460
32447
32438
32419
32447
32443
32390
32387
32365
32401
32370
32343
32332
32318
32319
32321
32305
32288
32255
32281
32265
32208
32207
32198
32169
32204
32182
32184
32155
32132
32136
32118
32088
32097
32071
32014
32053
32029
31992
31993
31962
31928
31924
31902
31893
31847
31831
31811
31809
31793
31753
31718
31709
31682
31684
31663
31649
31644
31620
31603
31612
31612
31587
31575
31568
31537
31566
31508
31501
31465
31445
31410
31379
31370
31353
31284
31272
31258
31225
31221
31205
31167
31159
31145
31143
31155
31143
31151
31132
31119
31147
31106
31102
31121
31142
31121
31157
31167
31161
31160
31182
31181
31189
31224
31205
31234
31260
31267
31289
31325
31420
31485
31618
31726
31874
32036
32247
32316
32381
32475
32458
32492
32493
32488
32462
32501
32477
32491
32450
32415
32420
32402
32374
32374
32333
32332
32349
32348
32319
32316
32305
32320
32286
32278
32253
32236
32234
32212
32185
32188
32177
32169
32151
32109
32091
32092
32089
32068
32053
32021
31997
32014
31961
31950
31928
31948
31880
31892
31859
31830
31829
31789
31784
31774
31755
31748
31713
31706
31685
31663
31650
31631
31648
31629
31614
31604
31584
31575
31577
31535
31507
31509
31474
31435
31449
31370
31346
31330
31322
31285
31257
31214
31206
31196
31185
31172
31154
31179
31169
31136
31140
31133
31138
31134
31154
31140
31149
31115
31130
31167
31141
31154
31168
31166
31181
31168
31189
31205
31201
31234
31259
31264
31324
31366
31447
31521
31663
31790
31937
32069
32250
32320
32373
32425
32445
32441
32418
32433
32432
32412
32420
32387
32405
32385
32381
32369
32354
32361
32337
32338
32333
32323
32297
32313
32279
32305
32279
32257
32285
32252
32246
32242
32240
32202
32165
32181
32147
32133
32103
32124
32058
32074
32045
31994
32016
31998
31971
31952
31928
31909
31884
31863
31852
31824
31811
31766
31741
31763
31742
31737
31715
31693
31688
31628
31650
31643
31643
31652
31617
31645
31609
31610
31585
31563
31562
31512
31490
31481
31429
31430
31419
31376
31337
31292
31309
31277
31237
31245
31240
31246
31211
31182
31198
31231
31205
31194
31197
31180
31189
31182
31198
31151
31187
31188
31201
31180
31201
31186
31224
31215
31243
31252
31275
31280
31301
31353
31373
31475
31599
31685
31827
31972
32146
32310
32369
32407
32459
32482
32475
32497
32492
32491
32460
32479
32466
32439
32426
32411
32420
32422
32406
32413
32383
32395
32360
32370
32375
32333
32309
32331
32320
32296
32273
32293
32268
32288
32270
32245
32230
32216
32197
32188
32167
32142
32136
32116
32093
32084
32045
32024
32019
31973
31972
31939
31904
31911
31893
31871
31842
31804
31812
31790
31753
31755
31702
31738
31700
31691
31712
31692
31646
31682
31634
31632
31609
31596
31578
31551
31530
31492
31463
31417
31432
31378
31381
31334
31277
31260
31266
31251
31204
31200
31212
31209
31215
31194
31196
31202
31179
31167
31176
31177
31165
31163
31115
31169
31161
31134
31153
31183
31158
31212
31177
31186
31205
31219
31204
31269
31255
31332
31361
31490
31623
31719
31916
32038
32195
32248
32332
32355
32353
32383
32364
32335
32317
32325
32332
32317
32286
32256
32258
32257
32244
32239
32227
32199
32219
32202
32175
32141
32139
32159
32133
32096
32098
32076
32042
32030
32018
32016
31994
31946
31924
31922
31870
31886
31871
31852
31827
31807
31802
31765
31746
31721
31706
31708
31672
31649
31632
31578
31552
31527
31515
31543
31526
31484
31472
31468
31490
31456
31431
31419
31416
31450
31432
31404
31408
31419
31380
31402
31401
31372
31329
31322
31289
31291
31277
31251
31200
31198
31171
31183
31126
31124
31107
31089
31081
31090
31050
31045
31082
31037
31055
31051
31033
31036
31039
31039
31029
31037
31058
31061
31056
31020
31029
31075
31047
31093
31039
31074
31122
31133
31131
31163
31200
31251
31323
31397
31498
31623
31721
31869
31989
32067
32156
32172
32184
32224
32224
32185
32193
32199
32159
32130
32135
32149
32113
32126
32113
32083
32090
32101
32106
32059
32049
32065
32057
32028
32003
31977
31997
31979
31973
31963
31933
31917
31931
31917
31909
31877
31871
31824
31833
31835
31805
31791
31773
31757
31746
31705
31696
31679
31656
31641
31630
31632
31608
31584
31581
31545
31537
31515
31524
31477
31484
31463
31473
31456
31466
31462
31467
31481
31456
31469
31454
31456
31412
31397
31447
31386
31356
31349
31286
31304
31282
31248
31223
31218
31171
31198
31153
31190
31184
31156
31136
31146
31158
31136
31143
31142
31138
31177
31179
31176
31184
31194
31176
31181
31203
31217
31227
31234
31241
31255
31229
31249
31300
31302
31326
31364
31381
31450
31567
31688
31774
31939
32102
32260
32370
32388
32415
32440
32448
32444
32445
32445
32415
32418
32393
32454
32378
32392
32376
32344
32345
32357
32365
32352
32329
32315
32292
32300
32292
32283
32271
32254
32247
32248
32243
32224
32176
32201
32181
32139
32133
32116
32146
32100
32087
32084
32055
32002
31961
31957
31940
31917
31871
31845
31823
31819
31793
31775
31764
31744
31767
31741
31706
31713
31687
31675
31664
31649
31671
31668
31648
31650
31622
31631
31593
31551
31541
31562
31523
31511
31454
31424
31421
31388
31401
31379
31350
31294
31304
31304
31259
31238
31227
31210
31230
31226
31226
31234
31222
31215
31206
31208
31232
31194
31209
31196
31183
31200
31205
31214
31241
31231
31238
31253
31275
31296
31284
31287
31357
31412
31482
31584
31705
31833
31961
32107
32250
32331
32340
32396
32405
32402
32390
32348
32401
32369
32379
32348
32324
32310
32311
32316
32292
32274
32236
32252
32259
32247
32252
32225
32181
32205
32196
32147
32138
32135
32117
32102
32092
32072
32041
32026
32015
31999
31980
31967
31956
31928
31897
31917
31861
31868
31826
31827
31801
31769
31751
31757
31754
31725
31718
31658
31708
31684
31661
31635
31625
31630
31666
31612
31624
31623
31631
31595
31601
31570
31578
31571
31562
31544
31534
31536
31508
31503
31474
31468
31436
31410
31370
31377
31352
31318
31310
31278
31298
31267
31271
31257
31243
31259
31279
31236
31248
31268
31270
31245
31256
31260
31244
31242
31302
31272
31298
31298
31303
31332
31340
31361
31366
31367
31409
31438
31493
31546
31642
31721
31885
32049
32181
32367
32448
32522
32568
32594
32569
32604
32579
32580
32547
32552
32531
32509
32550
32496
32469
32482
32466
32473
32466
32447
32445
32437
32449
32424
32413
32374
32398
32378
32362
32395
32344
32345
32313
32329
32285
32284
32230
32232
32214
32200
32227
32175
32158
32154
32142
32131
32077
32075
32032
32024
32003
31997
31937
31937
31892
31886
31875
31870
31834
31847
31835
31826
31807
31810
31827
31787
31791
31807
31803
31791
31785
31783
31779
31738
31719
31747
31694
31670
31648
31638
31613
31575
31535
31519
31524
31497
31478
31440
31421
31438
31377
31402
31377
31379
31386
31378
31355
31367
31352
31387
31366
31365
31361
31357
31351
31354
31364
31382
31389
31386
31412
31437
31444
31445
31462
31469
31509
31547
31630
31698
31834
31914
32052
32219
32391
32493
32569
32588
32603
32654
32639
32630
32646
32609
32580
32584
32581
32570
32559
32526
32503
32490
32481
32479
32472
32463
32478
32452
32427
32405
32377
32357
32325
32320
32323
32299
32247
32248
32236
32226
32226
32165
32168
32148
32098
32083
32071
32098
32039
32043
32017
32004
31953
31958
31903
31872
31882
31854
31866
31813
31806
31814
31775
31796
31737
31750
31751
31773
31740
31712
31725
31711
31683
31687
31658
31650
31640
31635
31621
31607
31595
31576
31544
31525
31507
31483
31436
31444
31395
31361
31368
31349
31314
31320
31343
31301
31318
31297
31300
31300
31268
31273
31279
31291
31289
31301
31299
31326
31331
31316
31341
31343
31327
31335
31353
31362
31368
31424
31442
31464
31473
31507
31587
31670
31782
31919
32056
32210
32356
32463
32547
32537
32580
32569
32564
32596
32574
32588
32580
32539
32585
32549
32572
32542
32527
32510
32525
32492
32499
32464
32441
32471
32460
32457
32431
32418
32410
32394
32380
32411
32370
32341
32339
32322
32305
32291
32281
32277
32256
32231
32202
32187
32184
32186
32157
32132
32107
32098
32094
32061
32020
31999
32003
31958
31963
31961
31940
31917
31919
31908
31870
31868
31848
31858
31839
31800
31784
31753
31785
31755
31735
31677
31680
31654
31617
31614
31584
31571
31553
31504
31471
31486
31433
31437
31399
31392
31376
31373
31362
31366
31343
31318
31361
31338
31308
31323
31323
31310
31325
31308
31312
31305
31319
31296
31346
31321
31322
31326
31340
31366
31385
31363
31378
31412
31474
31584
31675
31787
31906
32007
32188
32256
32360
32374
32399
32389
32436
32399
32397
32397
32365
32355
32364
32343
32327
32313
32299
32249
32246
32261
32222
32242
32202
32196
32161
32174
32134
32146
32128
32094
32101
32091
32076
32076
32057
32012
32007
31968
31970
31926
31912
31931
31863
31860
31833
31791
31773
31752
31750
31715
31657
31655
31660
31642
31620
31634
31623
31591
31574
31569
31561
31540
31544
31505
31536
31528
31513
31520
31492
31493
31506
31487
31482
31492
31454
31446
31439
31433
31419
31430
31394
31389
31349
31325
31340
31302
31299
31297
31313
31274
31269
31277
31266
31289
31268
31267
31309
31311
31290
31295
31274
31296
31287
31288
31301
31294
31338
31332
31347
31377
31358
31391
31385
31450
31439
31446
31490
31560
31590
31690
31833
31941
32067
32284
32448
32543
32575
32598
32624
32669
32659
32654
32656
32653
32618
32622
32632
32598
32581
32553
32558
32568
32543
32531
32533
32523
32515
32498
32505
32485
32453
32453
32447
32416
32385
32386
32359
32305
32297
32299
32242
32250
32203
32195
32152
32138
32127
32102
32065
32062
32011
32014
32003
31985
31972
31948
31947
31939
31923
31904
31851
31860
31868
31811
31807
31786
31738
31744
31743
31711
31702
31719
31692
31683
31656
31681
31656
31639
31666
31602
31637
31620
31607
31605
31612
31585
31573
31529
31530
31537
31470
31495
31470
31493
31485
31483
31486
31449
31419
31470
31440
31457
31471
31451
31447
31464
31460
31469
31403
31448
31469
31469
31477
31447
31482
31511
31520
31553
31574
31567
31563
31624
31646
31666
31721
31771
31865
31997
32106
32228
32363
32438
32507
32571
32574
32582
32553
32544
32556
32503
32507
32482
32465
32465
32432
32396
32376
32369
32339
32322
32339
32294
32288
32243
32225
32207
32173
32143
32121
32105
32072
32049
32062
32035
32047
32025
31982
31954
31926
31953
31913
31928
31887
31859
31824
31821
31793
31752
31762
31729
31716
31708
31668
31676
31692
31669
31714
31696
31708
31698
31677
31669
31673
31668
31687
31668
31747
31737
31723
31691
31732
31753
31735
31721
31708
31743
31688
31693
31678
31617
31624
31595
31571
31606
31556
31519
31513
31496
31495
31509
31466
31510
31480
31456
31509
31480
31492
31493
31500
31505
31501
31512
31487
31503
31512
31515
31537
31489
31499
31521
31559
31577
31576
31589
31627
31684
31753
31875
31974
32130
32317
32492
32621
32704
32793
32834
32861
32874
32890
32893
32909
32869
32881
32859
32883
32889
32843
32854
32833
32838
32845
32820
32800
32772
32806
32771
32761
32726
32732
32728
32702
32709
32686
32652
32638
32653
32646
32609
32615
32568
32577
32559
32503
32511
32497
32488
32422
32432
32406
32386
32350
32323
32307
32242
32224
32205
32159
32158
32115
32076
32070
32057
32027
32044
32002
32033
31991
31966
31984
31978
31957
31982
31959
31960
31939
31934
31948
31938
31899
31892
31848
31826
31817
31791
31745
31733
31699
31686
31651
31606
31616
31599
31578
31585
31539
31531
31530
31501
31542
31506
31502
31516
31529
31549
31487
31494
31519
31523
31508
31527
31546
31531
31534
31526
31567
31583
31581
31588
31599
31598
31690
31720
31752
31866
32011
32111
32276
32447
32619
32730
32780
32808
32829
32832
32867
32814
32851
32809
32765
32778
32803
32771
32774
32775
32745
32753
32727
32704
32708
32697
32705
32665
32643
32613
32655
32631
32591
32595
32550
32558
32510
32523
32518
32464
32468
32434
32412
32399
32383
32358
32373
32358
32324
32287
32284
32262
32259
32210
32228
32152
32152
32138
32088
32066
32083
32028
32058
32059
32016
32018
31989
31959
31939
31936
31952
31953
31919
31911
31912
31931
31965
31917
31893
31866
31884
31842
31829
31770
31788
31740
31711
31694
31682
31658
31669
31650
31641
31645
31588
31596
31554
31575
31543
31559
31535
31558
31534
31573
31586
31562
31584
31562
31570
31570
31570
31596
31599
31607
31616
31640
31642
31645
31673
31680
31704
31718
31795
31869
31954
32052
32174
32346
32497
32684
32770
32852
32880
32947
32932
32951
32954
32959
32966
32926
32952
32925
32920
32941
32913
32889
32888
32908
32891
32860
32862
32837
32846
32853
32845
32849
32835
32817
32831
32832
32819
32781
32794
32751
32737
32736
32731
32705
32677
32662
32675
32667
32647
32592
32617
32581
32555
32585
32534
32511
32497
32488
32457
32435
32434
32406
32387
32380
32338
32308
32341
32287
32292
32307
32265
32281
32276
32261
32250
32262
32245
32223
32174
32185
32156
32153
32126
32102
32051
32043
32006
31983
31938
31902
31907
31852
31815
31813
31773
31761
31738
31721
31745
31751
31727
31667
31691
31647
31700
31691
31683
31689
31649
31666
31673
31692
31695
31679
31728
31657
31702
31730
31704
31727
31780
31802
31856
31914
31976
32063
32169
32303
32518
32694
32794
32883
32912
33001
33011
33008
32997
32992
33015
33016
33004
32996
32977
32938
32961
32952
32949
32933
32950
32932
32867
32912
32896
32905
32864
32842
32828
32844
32809
32804
32819
32786
32782
32770
32768
32753
32760
32735
32753
32706
32693
32695
32643
32671
32623
32612
32582
32605
32564
32563
32546
32551
32491
32507
32462
32460
32438
32393
32388
32358
32364
32346
32351
32343
32310
32291
32277
32318
32283
32263
32269
32251
32230
32212
32176
32152
32134
32128
32050
32054
32038
31970
31962
31923
31856
31860
31827
31831
31810
31784
31790
31763
31754
31741
31736
31738
31719
31710
31707
31741
31716
31710
31723
31710
31726
31716
31722
31750
31746
31736
31743
31764
31735
31780
31812
31846
31868
31931
32003
32142
32229
32362
32569
32754
32836
32900
32976
33053
33053
33055
33069
33049
33034
33067
33032
33024
33020
33006
32988
32968
32998
32994
32971
32959
32937
32940
32921
32901
32916
32882
32891
32866
32839
32831
32819
32842
32829
32802
32802
32791
32778
32756
32758
32775
32747
32729
32728
32705
32680
32663
32649
32664
32632
32640
32586
32543
32523
32512
32485
32469
32411
32435
32385
32387
32395
32352
32315
32314
32319
32303
32243
32259
32243
32253
32218
32220
32251
32220
32204
32204
32150
32125
32096
32076
32038
32033
31986
31968
31964
31912
31878
31889
31843
31828
31789
31764
31756
31777
31744
31740
31713
31734
31740
31740
31717
31724
31681
31713
31702
31724
31688
31697
31679
31736
31720
31719
31713
31756
31725
31768
31775
31824
31838
31858
31904
32014
32122
32193
32359
32530
32717
32850
32913
32999
33027
33034
33054
33053
33058
33059
33060
33023
33055
33010
32982
32986
32981
33003
32957
32938
32955
32930
32941
32915
32924
32878
32851
32839
32845
32829
32803
32824
32800
32749
32762
32736
32766
32731
32727
32722
32676
32663
32649
32634
32631
32621
32573
32527
32529
32530
32497
32482
32466
32419
32439
32403
32401
32366
32351
32303
32287
32258
32249
32255
32249
32244
32224
32213
32213
32223
32196
32198
32145
32166
32158
32169
32158
32130
32117
32076
32043
32001
31996
31946
31951
31904
31898
31869
31842
31837
31830
31811
31809
31809
31796
31749
31776
31737
31736
31722
31744
31748
31733
31748
31734
31725
31731
31745
31731
31733
31724
31741
31776
31759
31788
31787
31815
31828
31843
31891
31930
32013
32110
32220
32357
32556
32761
32875
32952
33021
33023
33064
33062
33075
33099
33093
33074
33050
33056
33070
33042
33059
33034
33030
33003
33006
32993
32992
32981
32967
32925
32960
32928
32922
32885
32915
32883
32874
32858
32842
32817
32801
32837
32798
32816
32757
32767
32759
32733
32735
32749
32693
32671
32621
32619
32621
32607
32574
32572
32561
32534
32483
32472
32482
32466
32435
32448
32416
32395
32408
32380
32366
32387
32345
32333
32299
32307
32306
32301
32284
32276
32259
32219
32206
32192
32187
32169
32114
32071
32078
31993
31978
31939
31923
31883
31916
31850
31824
31847
31833
31802
31769
31776
31763
31777
31780
31765
31747
31772
31758
31740
31753
31739
31729
31726
31757
31779
31773
31794
31798
31789
31824
31839
31870
31910
31964
32034
32166
32238
32377
32532
32749
32835
32930
32969
33029
33042
33016
33067
33039
33038
33023
33021
33023
32991
33028
33006
32987
32992
32960
32952
32952
32925
32936
32939
32898
32896
32874
32866
32873
32842
32859
32840
32838
32815
32788
32788
32760
32781
32762
32720
32722
32698
32723
32678
32673
32658
32644
32617
32608
32559
32561
32531
32499
32483
32473
32396
32426
32418
32365
32344
32338
32318
32311
32269
32228
32235
32270
32250
32248
32194
32235
32230
32193
32195
32215
32166
32122
32116
32107
32059
32041
32022
31997
31996
31971
31944
31907
31868
31861
31844
31814
31809
31803
31767
31787
31756
31765
31765
31739
31738
31738
31774
31739
31744
31755
31744
31742
31752
31754
31732
31740
31741
31743
31769
31776
31790
31796
31855
31842
31890
31960
31994
32129
32241
32314
32473
32682
32854
32929
32982
33020
33083
33095
33085
33078
33082
33078
33026
33029
33058
33037
33033
33001
33014
32991
33005
32974
32975
32964
32949
32914
32903
32942
32924
32913
32885
32873
32883
32856
32832
32844
32817
32816
32820
32794
32757
32788
32746
32751
32722
32700
32668
32664
32646
32600
32602
32575
32561
32528
32515
32493
32482
32479
32438
32450
32411
32377
32355
32320
32335
32312
32288
32257
32236
32223
32257
32203
32216
32207
32199
32179
32147
32169
32138
32097
32104
32049
32045
32004
31984
31952
31923
31878
31863
31841
31833
31803
31801
31807
31749
31751
31770
31739
31732
31718
31751
31742
31726
31734
31719
31729
31740
31736
31733
31707
31754
31734
31765
31759
31777
31756
31754
31787
31813
31816
31832
31892
31941
32009
32107
32215
32329
32460
32665
32816
32918
32968
33029
33076
33053
33083
33056
33064
33070
33014
33030
33055
33013
33004
32989
33003
32980
32959
32953
32940
32916
32931
32927
32909
32891
32881
32873
32869
32845
32866
32826
32797
32820
32795
32797
32771
32784
32771
32733
32706
32706
32689
32661
32653
32650
32640
32628
32593
32590
32557
32542
32510
32512
32456
32425
32428
32396
32368
32382
32353
32335
32318
32322
32310
32299
32289
32280
32250
32237
32196
32233
32209
32157
32132
32145
32146
32131
32094
32076
32051
32044
32004
31969
31959
31919
31901
31898
31870
31836
31857
31845
31819
31812
31801
31809
31824
31795
31781
31773
31785
31764
31754
31810
31788
31777
31811
31794
31801
31800
31797
31839
31843
31835
31884
31853
31910
31964
32042
32151
32236
32362
32462
32696
32844
32966
33034
33073
33094
33114
33118
33125
33133
33111
33097
33115
33068
33050
33074
33028
33039
33050
33011
33012
33025
32972
33007
32995
32977
32982
32980
32943
32938
32931
32926
32915
32917
32867
32879
32846
32877
32839
32813
32809
32786
32764
32755
32748
32750
32701
32694
32654
32654
32644
32627
32628
32605
32549
32562
32508
32516
32486
32509
32478
32480
32422
32418
32384
32382
32377
32362
32324
32318
32352
32332
32317
32314
32309
32341
32280
32263
32224
32231
32226
32190
32143
32105
32102
32061
32055
32005
31973
31920
31962
31906
31906
31890
31844
31847
31873
31840
31861
31848
31857
31821
31826
31815
31827
31796
31850
31817
31818
31837
31825
31856
31886
31853
31877
31903
31885
31918
31964
31961
32065
32148
32264
32371
32509
32741
32896
32973
33028
33073
33095
33116
33112
33112
33115
33100
33078
33091
33072
33020
33024
33029
32998
32990
33002
33005
32964
32987
32955
32943
32928
32906
32931
32872
32860
32860
32858
32819
32806
32824
32827
32807
32783
32786
32786
32723
32707
32699
32682
32641
32664
32632
32646
32606
32540
32576
32532
32490
32500
32472
32462
32458
32425
32413
32386
32392
32375
32354
32301
32308
32320
32271
32272
32270
32258
32259
32214
32234
32223
32233
32212
32185
32166
32131
32136
32110
32108
32068
32031
31996
31946
31947
31951
31928
31881
31901
31878
31856
31837
31827
31809
31835
31822
31811
31809
31782
31812
31812
31778
31776
31802
31800
31784
31786
31790
31818
31831
31811
31828
31830
31847
31846
31876
31883
31936
31949
32006
32098
32201
32327
32496
32649
32820
32905
32998
33053
33082
33074
33103
33110
33105
33063
33061
33084
33043
33063
33037
33015
33023
32994
32992
32985
32948
32936
32950
32926
32897
32880
32883
32894
32886
32871
32861
32828
32804
32789
32767
32784
32734
32740
32708
32700
32734
32688
32655
32630
32608
32570
32538
32525
32514
32480
32474
32488
32449
32443
32398
32376
32370
32338
32330
32311
32301
32290
32296
32306
32261
32285
32294
32267
32271
32242
32255
32240
32221
32236
32231
32195
32172
32122
32128
32078
32065
32077
32041
32007
32010
31962
31937
31919
31882
31871
31874
31871
31843
31808
31831
31820
31852
31819
31811
31806
31810
31791
31825
31809
31802
31831
31832
31826
31860
31847
31902
31895
31870
31900
31910
31909
31944
31984
32020
32105
32185
32295
32399
32554
32757
32919
33018
33076
33133
33169
33183
33214
33204
33200
33194
33184
33158
33164
33138
33136
33115
33140
33126
33112
33097
33078
33062
33059
33043
33012
33020
33004
33016
32988
32973
32966
32943
32975
32943
32923
32895
32882
32875
32862
32813
32838
32807
32807
32817
32814
32755
32772
32748
32726
32716
32709
32660
32683
32667
32648
32640
32634
32630
32576
32593
32550
32551
32519
32497
32542
32498
32496
32474
32474
32450
32446
32417
32420
32386
32398
32377
32329
32342
32312
32304
32269
32235
32200
32177
32140
32123
32097
32060
32020
32034
32002
31985
31974
31945
31943
31941
31970
31952
31929
31935
31934
31931
31895
31936
31932
31926
31944
31948
31943
31925
31953
31974
31979
31998
32027
32036
32084
32154
32198
32298
32458
32564
32750
32929
33049
33115
33142
33185
33222
33209
33212
33227
33191
33205
33151
33183
33169
33147
33138
33120
33118
33102
33102
33035
33073
33069
33046
33052
33017
32989
32975
32996
32955
32957
32930
32928
32933
32904
32890
32905
32894
32862
32827
32848
32820
32801
32770
32775
32737
32743
32694
32686
32710
32669
32659
32592
32600
32581
32579
32583
32527
32472
32503
32454
32431
32437
32418
32436
32437
32416
32413
32378
32369
32399
32378
32355
32344
32292
32308
32256
32223
32266
32215
32215
32159
32154
32118
32089
32067
32089
32045
32021
32018
31995
31989
31967
31978
31962
31953
31947
31940
31948
31943
31917
31940
31951
31956
31939
31915
31927
31928
31948
31960
31973
31965
31977
31993
32017
32002
32008
32111
32123
32234
32350
32472
32602
32779
32975
33087
33154
33206
33239
33230
33266
33278
33274
33245
33249
33222
33250
33237
33232
33214
33196
33202
33196
33167
33141
33145
33138
33126
33113
33148
33101
33103
33065
33051
33023
33034
33027
33020
33009
32966
32951
32955
32957
32913
32915
32890
32906
32895
32897
32834
32818
32796
32799
32738
32755
32722
32715
32691
32671
32644
32651
32588
32588
32562
32560
32519
32500
32493
32479
32508
32488
32479
32450
32464
32444
32418
32439
32389
32381
32363
32301
32317
32328
32303
32243
32239
32209
32162
32116
32089
32078
32079
32019
31985
31977
31961
31960
31982
31965
31988
31988
31967
31956
31954
31964
31971
31974
31950
31934
31957
31954
31955
31950
31937
31958
31971
31963
31992
32009
31999
32051
32065
32110
32158
32247
32309
32428
32600
32706
32909
33054
33144
33180
33207
33221
33259
33231
33245
33238
33262
33204
33253
33210
33210
33206
33166
33172
33157
33130
33143
33163
33134
33126
33102
33093
33067
33052
33023
33013
33039
32990
32989
32992
32974
32932
32960
32910
32896
32882
32911
32884
32842
32848
32822
32803
32773
32769
32741
32738
32715
32691
32652
32637
32634
32579
32591
32573
32563
32554
32541
32527
32531
32540
32516
32472
32472
32473
32457
32458
32444
32421
32428
32424
32416
32392
32368
32347
32319
32292
32266
32243
32218
32177
32188
32149
32099
32103
32087
32079
32069
32040
32007
32014
31973
31990
31989
31996
31985
31990
32000
31958
31979
31968
31975
31971
32006
31964
31993
32015
31976
31993
32029
32055
32037
32079
32124
32176
32214
32310
32439
32559
32686
32922
33056
33121
33185
33228
33260
33260
33266
33249
33257
33242
33202
33230
33186
33185
33204
33175
33165
33141
33136
33144
33111
33081
33090
33086
33072
33074
33071
33048
33013
33020
33045
33024
33012
32963
32959
32977
32917
32924
32925
32887
32886
32844
32809
32827
32800
32786
32737
32748
32705
32704
32625
32640
32636
32596
32591
32548
32541
32495
32534
32483
32469
32466
32449
32444
32442
32445
32453
32462
32475
32484
32482
32515
32480
32465
32451
32460
32466
32432
32394
32368
32325
32317
32276
32275
32246
32220
32194
32135
32138
32112
32101
32071
32075
32061
32041
32055
32056
32025
32046
32047
32046
32029
32049
32041
32075
32047
32050
32065
32077
32062
32063
32067
32121
32123
32164
32175
32237
32348
32407
32551
32697
32864
33058
33174
33267
33304
33364
33346
33382
33373
33394
33367
33346
33359
33354
33357
33331
33281
33302
33284
33290
33268
33296
33289
33279
33225
33221
33214
33246
33187
33185
33190
33200
33201
33181
33163
33142
33129
33108
33089
33089
33047
33055
33035
33017
33038
33019
33017
32972
32958
32948
32929
32934
32903
32903
32880
32863
32833
32819
32797
32792
32802
32767
32740
32726
32707
32707
32682
32658
32672
32631
32637
32632
32608
32632
32611
32620
32606
32560
32546
32519
32510
32458
32481
32454
32397
32371
32304
32281
32270
32188
32231
32179
32183
32162
32148
32108
32113
32100
32119
32098
32092
32098
32086
32071
32101
32070
32092
32080
32098
32072
32093
32073
32103
32112
32114
32123
32141
32141
32164
32195
32200
32281
32369
32467
32542
32675
32841
33012
33143
33236
33286
33372
33420
33424
33463
33442
33452
33452
33437
33443
33415
33387
33406
33376
33406
33407
33380
33379
33376
33330
33357
33352
33318
33311
33312
33301
33279
33289
33276
33264
33249
33241
33277
33249
33248
33218
33220
33221
33199
33179
33201
33173
33158
33177
33124
33111
33110
33088
33076
33068
33074
33047
33024
33003
32992
32982
32984
33006
32986
32948
32964
32925
32960
32951
32936
32961
32907
32952
32892
32914
32903
32889
32853
32868
32843
32819
32780
32770
32713
32682
32660
32649
32605
32571
32533
32503
32455
32445
32410
32371
32354
32355
32328
32339
32348
32333
32339
32336
32343
32349
32325
32360
32298
32318
32328
32309
32323
32331
32349
32351
32368
32370
32413
32455
32515
32556
32575
32668
32747
32845
32986
33121
33275
33366
33438
33482
33522
33558
33580
33581
33578
33531
33562
33522
33519
33497
33507
33447
33446
33459
33437
33417
33416
33397
33343
33345
33334
33306
33328
33284
33257
33247
33254
33220
33174
33185
33130
33080
33115
33071
33058
33048
33013
32984
32981
32932
32920
32886
32851
32834
32780
32712
32678
32663
32666
32645
32607
32596
32557
32572
32535
32543
32535
32521
32470
32501
32455
32449
32429
32443
32395
32389
32387
32350
32397
32403
32400
32397
32368
32377
32375
32384
32427
32394
32388
32384
32338
32318
32315
32293
32284
32282
32225
32222
32209
32228
32178
32184
32181
32165
32147
32160
32144
32161
32176
32169
32161
32154
32139
32125
32143
32114
32097
32126
32134
32132
32155
32122
32188
32197
32212
32224
32281
32303
32370
32401
32510
32581
32709
32827
33015
33173
33284
33354
33391
33457
33450
33450
33468
33435
33433
33443
33460
33418
33444
33405
33403
33367
33362
33382
33348
33365
33346
33332
33330
33344
33296
33326
33300
33295
33309
33290
33305
33270
33265
33238
33275
33277
33236
33244
33256
33195
33227
33237
33199
33178
33185
33149
33129
33124
33105
33100
33080
33065
33034
33027
33037
33010
32979
32973
32943
32912
32913
32891
32896
32857
32868
32830
32824
32788
32819
32763
32753
32745
32740
32720
32696
32651
32671
32636
32610
32570
32547
32512
32527
32471
32415
32401
32369
32343
32338
32279
32278
32248
32226
32192
32210
32209
32204
32210
32198
32202
32188
32173
32189
32176
32187
32186
32183
32175
32189
32157
32181
32163
32214
32224
32227
32236
32272
32281
32312
32348
32434
32495
32569
32702
32810
32995
33165
33297
33406
33414
33457
33537
33536
33514
33532
33522
33488
33472
33463
33545
33474
33478
33485
33485
33453
33446
33441
33436
33406
33383
33412
33407
33406
33407
33340
33360
33339
33343
33339
33345
33302
33311
33294
33255
33261
33241
33261
33232
33244
33220
33191
33209
33216
33151
33137
33164
33092
33106
33091
33055
33020
33038
33002
32973
32941
32956
32911
32880
32872
32856
32857
32855
32837
32818
32827
32784
32804
32790
32785
32745
32722
32720
32693
32675
32661
32649
32599
32583
32557
32531
32479
32445
32403
32374
32370
32345
32338
32345
32282
32253
32235
32232
32251
32221
32223
32217
32237
32204
32177
32202
32190
32208
32232
32227
32210
32219
32223
32223
32242
32243
32227
32253
32254
32288
32316
32345
32398
32469
32520
32621
32751
32891
33045
33214
33325
33423
33459
33514
33514
33550
33527
33506
33541
33527
33508
33506
33503
33487
33492
33512
33457
33438
33458
33429
33392
33418
33409
33407
33415
33383
33358
33368
33349
33349
33326
33339
33311
33284
33279
33274
33298
33256
33243
33248
33247
33198
33228
33192
33190
33143
33157
33135
33103
33100
33115
33069
33013
33009
32987
32991
32962
32917
32921
32881
32850
32865
32882
32858
32795
32781
32810
32789
32788
32739
32749
32735
32738
32729
32697
32673
32664
32640
32649
32613
32550
32512
32517
32468
32494
32461
32388
32393
32380
32335
32335
32307
32302
32307
32294
32282
32279
32264
32249
32268
32257
32249
32268
32276
32278
32272
32256
32275
32273
32260
32296
32286
32317
32315
32360
32348
32406
32421
32475
32545
32655
32783
32854
33013
33184
33334
33439
33487
33561
33578
33573
33584
33578
33588
33559
33529
33572
33542
33544
33535
33537
33499
33482
33448
33496
33488
33454
33429
33429
33452
33438
33412
33387
33383
33374
33392
33356
33362
33351
33317
33343
33322
33330
33283
33276
33250
33274
33272
33263
33240
33210
33207
33202
33160
33158
33141
33091
33097
33082
33089
33070
33028
33009
32979
33017
32975
32946
32939
32952
32917
32897
32897
32862
32868
32891
32859
32836
32847
32841
32797
32774
32764
32739
32734
32714
32685
32607
32615
32562
32514
32485
32469
32438
32421
32365
32380
32343
32343
32358
32323
32337
32340
32345
32338
32319
32313
32330
32306
32287
32313
32311
32328
32287
32344
32380
32374
32406
32354
32360
32397
32405
32436
32463
32488
32576
32664
32779
32858
32993
33100
33337
33419
33500
33592
33638
33672
33667
33680
33681
33690
33676
33670
33697
33676
33640
33634
33632
33635
33557
33598
33584
33575
33581
33587
33572
33579
33575
33538
33538
33535
33510
33487
33504
33482
33473
33442
33418
33485
33427
33465
33410
33457
33387
33384
33406
33376
33366
33363
33352
33336
33339
33293
33311
33256
33236
33260
33242
33195
33190
33162
33162
33117
33145
33091
33069
33083
33076
33013
33011
33008
33010
33001
32985
32965
32938
32953
32928
32884
32878
32848
32826
32799
32759
32741
32688
32658
32650
32589
32558
32521
32504
32498
32458
32435
32427
32441
32414
32415
32392
32388
32355
32377
32381
32370
32403
32363
32339
32395
32390
32404
32404
32392
32415
32420
32429
32425
32459
32439
32442
32482
32506
32558
32631
32741
32845
32942
33104
33320
33451
33518
33616
33637
33701
33725
33708
33723
33732
33688
33710
33714
33686
33674
33694
33658
33659
33697
33644
33619
33643
33640
33618
33598
33572
33586
33609
33585
33573
33583
33536
33525
33555
33530
33498
33489
33520
33495
33461
33514
33472
33429
33463
33434
33417
33421
33418
33385
33375
33372
33328
33310
33304
33290
33278
33265
33232
33208
33226
33190
33195
33129
33142
33149
33123
33098
33096
33080
33061
33033
33030
33063
33016
33009
32960
32954
32954
32920
32906
32851
32830
32837
32787
32791
32719
32708
32651
32665
32626
32574
32569
32538
32517
32473
32491
32501
32507
32501
32464
32439
32456
32434
32459
32443
32453
32494
32436
32458
32472
32446
32463
32506
32507
32482
32527
32550
32587
32619
32696
32742
32850
32946
33059
33202
33408
33494
33593
33661
33754
33754
33802
33772
33754
33775
33758
33777
33753
33772
33740
33716
33718
33719
33705
33676
33701
33662
33641
33641
33600
33601
33601
33598
33591
33575
33564
33574
33578
33525
33536
33495
33515
33502
33474
33481
33467
33476
33469
33430
33421
33435
33411
33426
33381
33371
33347
33338
33318
33359
33296
33287
33249
33262
33235
33209
33201
33201
33179
33172
33142
33127
33126
33119
33104
33107
33077
33072
33052
33035
33019
32970
32992
32972
32921
32922
32883
32857
32806
32794
32748
32739
32678
32642
32608
32641
32582
32547
32503
32497
32488
32493
32481
32479
32442
32450
32477
32443
32454
32460
32446
32429
32449
32430
32440
32448
32475
32444
32471
32449
32472
32516
32530
32554
32555
32587
32702
32753
32865
32983
33085
33309
33481
33590
33642
33695
33747
33735
33761
33771
33765
33772
33797
33764
33761
33741
33734
33720
33704
33694
33697
33673
33680
33644
33670
33659
33623
33630
33571
33603
33617
33597
33572
33544
33575
33554
33555
33541
33532
33504
33508
33496
33505
33496
33469
33440
33430
33440
33423
33404
33381
33353
33350
33331
33335
33289
33280
33252
33226
33206
33167
33167
33173
33178
33125
33092
33087
33080
33091
33071
33056
32994
33034
33031
32992
32974
32972
32939
32915
32923
32898
32886
32877
32824
32772
32726
32740
32704
32651
32661
32607
32572
32592
32554
32547
32524
32481
32495
32483
32448
32440
32455
32429
32449
32433
32418
32461
32465
32420
32435
32457
32454
32457
32461
32462
32453
32478
32504
32503
32521
32533
32540
32602
32639
32680
32765
32865
32943
33116
33258
33437
33555
33637
33722
33754
33740
33815
33795
33763
33730
33776
33765
33770
33734
33714
33702
33671
33687
33674
33686
33660
33647
33672
33637
33647
33627
33609
33602
33622
33581
33575
33570
33551
33555
33563
33527
33536
33524
33487
33476
33494
33446
33409
33461
33407
33395
33383
33347
33340
33346
33299
33319
33258
33261
33245
33242
33163
33157
33134
33119
33124
33087
33088
33036
33021
32984
33010
33000
32964
32979
32966
32971
32958
32956
32919
32911
32915
32887
32892
32820
32810
32755
32760
32724
32705
32662
32651
32641
32611
32598
32569
32555
32524
32507
32464
32477
32473
32466
32467
32446
32453
32467
32446
32466
32460
32469
32490
32486
32431
32478
32471
32468
32463
32521
32512
32519
32568
32592
32591
32621
32644
32733
32837
32914
33040
33189
33330
33540
33616
33691
33768
33775
33813
33805
33819
33803
33827
33804
33815
33811
33802
33784
33775
33762
33717
33747
33715
33707
33714
33675
33695
33660
33670
33648
33653
33620
33615
33618
33617
33588
33610
33572
33544
33554
33535
33535
33498
33507
33471
33471
33457
33402
33422
33395
33365
33369
33317
33305
33323
33276
33285
33236
33231
33178
33156
33138
33126
33119
33096
33063
33066
33063
33013
33004
32986
32997
33002
32978
32978
32968
32969
32934
32914
32928
32919
32913
32891
32884
32791
32803
32750
32723
32695
32683
32654
32627
32582
32581
32586
32550
32550
32506
32514
32533
32536
32532
32522
32519
32516
32510
32533
32497
32501
32520
32529
32502
32484
32510
32494
32526
32529
32555
32540
32553
32591
32608
32668
32709
32793
32913
32999
33104
33280
33447
33585
33659
33745
33745
33749
33769
33736
33748
33749
33740
33723
33726
33699
33687
33717
33667
33653
33662
33656
33607
33616
33588
33567
33574
33591
33585
33551
33539
33560
33540
33511
33484
33463
33466
33486
33462
33443
33445
33426
33415
33365
33352
33344
33338
33325
33284
33280
33233
33222
33231
33153
33170
33132
33103
33090
33059
33046
33059
33015
33013
32967
32984
32922
32910
32890
32901
32900
32917
32901
32897
32875
32866
32866
32840
32853
32819
32797
32800
32766
32711
32705
32708
32691
32631
32634
32607
32572
32545
32547
32554
32541
32499
32489
32494
32481
32451
32460
32449
32433
32446
32462
32410
32459
32460
32448
32436
32427
32471
32451
32473
32456
32456
32472
32481
32485
32504
32532
32561
32570
32613
32631
32709
32782
32919
33051
33119
33286
33487
33579
33610
33663
33661
33674
33699
33713
33694
33666
33636
33642
33635
33629
33598
33603
33604
33587
33571
33549
33534
33529
33555
33512
33525
33523
33517
33471
33448
33436
33452
33443
33387
33402
33413
33358
33349
33358
33317
33331
33316
33244
33249
33237
33218
33188
33185
33190
33166
33140
33100
33120
33091
33038
33049
32991
33008
32934
32947
32918
32879
32896
32892
32843
32847
32857
32836
32818
32830
32843
32810
32797
32834
32803
32816
32779
32781
32751
32761
32715
32722
32685
32717
32655
32619
32599
32587
32518
32534
32525
32519
32480
32507
32487
32490
32473
32474
32463
32433
32438
32435
32451
32461
32466
32466
32471
32504
32493
32496
32489
32484
32454
32503
32504
32540
32533
32559
32570
32610
32646
32690
32767
32854
32976
33092
33211
33399
33525
33607
33644
33678
33689
33727
33699
33709
33715
33685
33697
33687
33705
33642
33633
33618
33645
33611
33613
33576
33586
33547
33559
33551
33583
33512
33518
33509
33500
33470
33476
33444
33414
33390
33374
33380
33365
33326
33311
33309
33275
33259
33209
33216
33197
33192
33157
33161
33153
33093
33107
33113
33075
33098
33079
33080
33052
33027
33001
32999
33006
32981
32969
32973
32939
32905
32890
32945
32900
32919
32903
32905
32875
32859
32875
32847
32868
32821
32790
32790
32745
32720
32728
32683
32674
32672
32647
32605
32586
32568
32554
32550
32533
32512
32497
32507
32514
32547
32505
32552
32494
32517
32504
32495
32495
32524
32512
32514
32488
32549
32536
32547
32568
32555
32594
32612
32616
32645
32711
32787
32894
33019
33126
33232
33425
33568
33639
33701
33683
33697
33764
33704
33686
33690
33686
33684
33663
33668
33657
33675
33645
33626
33628
33625
33574
33576
33566
33564
33546
33515
33530
33488
33533
33480
33446
33485
33437
33401
33365
33366
33387
33345
33322
33319
33293
33306
33295
33267
33221
33204
33216
33181
33145
33103
33072
33050
33051
33032
33019
33037
33005
33018
32979
32955
32913
32931
32918
32884
32872
32866
32856
32841
32851
32853
32853
32805
32800
32788
32787
32757
32726
32740
32712
32716
32695
32652
32642
32622
32570
32557
32525
32514
32515
32492
32520
32492
32485
32471
32460
32489
32473
32474
32474
32487
32473
32463
32473
32472
32466
32462
32486
32510
32491
32514
32524
32526
32526
32550
32546
32629
32617
32671
32687
32735
32814
32925
33032
33167
33303
33466
33558
33619
33656
33654
33690
33708
33667
33675
33667
33646
33634
33678
33602
33614
33628
33598
33610
33602
33583
33557
33591
33539
33539
33523
33492
33488
33491
33428
33437
33455
33452
33422
33405
33382
33391
33374
33357
33331
33317
33282
33259
33223
33231
33220
33153
33168
33152
33172
33111
33097
33076
33079
33038
33048
33009
32998
32996
32959
32954
32927
32934
32949
32910
32899
32895
32886
32890
32850
32891
32878
32833
32827
32835
32815
32832
32814
32805
32796
32773
32716
32721
32668
32667
32637
32624
32573
32551
32558
32542
32535
32552
32552
32540
32524
32513
32521
32507
32489
32499
32485
32479
32488
32508
32509
32518
32529
32528
32528
32546
32536
32576
32546
32569
32601
32633
32625
32658
32671
32679
32726
32809
32915
33015
33130
33297
33435
33568
33645
33682
33688
33718
33703
33707
33696
33672
33673
33663
33679
33699
33646
33645
33662
33639
33600
33592
33622
33597
33581
33593
33575
33545
33530
33508
33502
33500
33507
33466
33461
33410
33443
33458
33425
33417
33383
33383
33375
33336
33321
33315
33275
33261
33229
33202
33191
33188
33185
33147
33103
33076
33062
33060
33065
33048
33013
32973
33000
32971
32986
32979
32934
32933
32920
32930
32944
32884
32885
32901
32881
32844
32828
32815
32809
32778
32762
32747
32734
32695
32663
32669
32633
32655
32632
32612
32582
32597
32582
32594
32583
32553
32549
32540
32555
32553
32549
32515
32528
32552
32562
32520
32519
32533
32568
32546
32577
32605
32580
32608
32586
32644
32653
32682
32717
32728
32770
32817
32944
33040
33149
33295
33431
33608
33667
33716
33746
33807
33789
33804
33806
33765
33786
33746
33754
33739
33731
33718
33701
33675
33667
33662
33655
33646
33647
33630
33589
33616
33620
33587
33574
33529
33553
33545
33513
33498
33453
33448
33455
33429
33430
33418
33378
33349
33347
33303
33292
33292
33235
33244
33212
33183
33162
33137
33126
33106
33066
33068
33072
32997
33053
33005
33014
32982
32974
32949
32949
32935
32922
32940
32954
32940
32906
32895
32927
32943
32902
32871
32890
32833
32831
32805
32808
32787
32757
32731
32726
32727
32661
32639
32660
32610
32568
32589
32572
32586
32576
32560
32560
32540
32584
32551
32555
32544
32559
32521
32540
32550
32542
32564
32578
32567
32588
32604
32633
32634
32645
32652
32702
32711
32767
32784
32873
32978
33111
33226
33353
33512
33620
33667
33671
33752
33736
33709
33737
33715
33707
33672
33678
33686
33674
33658
33622
33632
33621
33594
33598
33589
33566
33542
33520
33519
33496
33464
33476
33474
33471
33426
33410
33427
33402
33359
33347
33336
33343
33324
33300
33278
33276
33240
33224
33207
33167
33187
33149
33130
33100
33067
33102
33066
33044
33010
32980
32958
32962
32957
32960
32948
32980
32892
32908
32910
32865
32893
32905
32874
32870
32843
32853
32857
32824
32818
32824
32819
32798
32762
32729
32746
32690
32678
32642
32620
32617
32567
32556
32578
32520
32543
32532
32535
32523
32524
32525
32525
32506
32513
32490
32517
32506
32512
32497
32514
32496
32514
32500
32543
32565
32549
32559
32544
32561
32568
32591
32644
32666
32680
32694
32742
32804
32920
33031
33167
33306
33455
33573
33630
33734
33725
33730
33717
33739
33717
33686
33718
33708
33697
33689
33644
33671
33652
33638
33623
33647
33598
33601
33581
33550
33518
33557
33538
33505
33511
33503
33470
33492
33456
33420
33412
33398
33360
33330
33323
33326
33336
33282
33263
33241
33245
33233
33217
33216
33201
33123
33126
33107
33133
33090
33064
33031
33045
33015
32998
32993
32997
32972
32968
32929
32952
32924
32939
32951
32946
32902
32936
32867
32892
32870
32880
32847
32847
32848
32805
32816
32803
32755
32759
32754
32742
32670
32681
32658
32642
32626
32649
32613
32574
32599
32611
32610
32615
32546
32576
32582
32584
32604
32583
32583
32581
32598
32604
32593
32550
32630
32636
32624
32642
32641
32665
32686
32679
32685
32731
32760
32789
32865
32978
33098
33178
33356
33506
33657
33734
33790
33789
33823
33814
33798
33834
33798
33817
33817
33787
33773
33795
33769
33763
33762
33736
33752
33730
33732
33722
33727
33699
33662
33687
33671
33655
33614
33608
33617
33571
33559
33563
33559
33524
33506
33502
33471
33451
33412
33397
33392
33354
33342
33351
33326
33277
33288
33266
33256
33208
33202
33189
33152
33136
33138
33120
33109
33103
33066
33054
33031
33018
33017
33016
33015
33014
33020
33007
32977
32983
32962
32938
32951
32935
32915
32906
32889
32866
32853
32808
32810
32781
32737
32728
32692
32704
32703
32655
32693
32663
32652
32655
32647
32621
32632
32643
32585
32609
32624
32603
32615
32616
32608
32626
32610
32623
32622
32649
32632
32647
32634
32678
32706
32738
32747
32772
32833
32916
33018
33110
33208
33347
33475
33646
33747
33785
33809
33802
33781
33780
33782
33792
33775
33779
33754
33734
33758
33724
33720
33715
33705
33708
33686
33635
33622
33635
33585
33589
33590
33566
33564
33527
33502
33528
33508
33495
33474
33451
33431
33428
33416
33406
33393
33371
33365
33377
33321
33345
33277
33323
33254
33250
33255
33216
33199
33169
33171
33126
33118
33114
33131
33121
33091
33095
33046
33056
33059
33059
33067
33056
33033
33056
33048
33038
33014
32996
33024
32974
32977
32957
32965
32925
32902
32914
32844
32853
32816
32808
32767
32752
32747
32713
32704
32720
32717
32682
32693
32701
32707
32685
32692
32688
32688
32661
32687
32674
32703
32711
32681
32695
32712
32717
32717
32737
32752
32769
32763
32781
32816
32852
32892
32932
33037
33143
33235
33361
33520
33674
33778
33793
33882
33896
33893
33882
33846
33874
33865
33851
33859
33863
33831
33824
33818
33815
33813
33778
33740
33791
33759
33751
33714
33725
33728
33708
33672
33703
33698
33666
33670
33649
33632
33625
33606
33614
33565
33569
33512
33541
33502
33470
33420
33452
33428
33417
33376
33400
33383
33318
33325
33307
33289
33267
33260
33236
33204
33213
33145
33188
33141
33131
33101
33106
33102
33081
33070
33080
33062
33077
33058
33057
33045
33021
33003
33008
32970
32969
32951
32903
32902
32878
32855
32841
32803
32784
32787
32770
32776
32749
32736
32729
32714
32733
32732
32704
32690
32679
32699
32666
32651
32699
32690
32700
32690
32695
32693
32725
32723
32737
32735
32755
32741
32747
32775
32786
32806
32852
32891
32952
33071
33165
33271
33384
33588
33731
33791
33883
33861
33925
33895
33905
33871
33919
33884
33886
33828
33848
33835
33798
33803
33789
33779
33788
33767
33749
33743
33775
33735
33721
33691
33688
33663
33663
33642
33647
33618
33632
33660
33619
33589
33590
33551
33514
33486
33507
33466
33425
33442
33394
33400
33369
33353
33314
33307
33297
33273
33239
33206
33206
33184
33183
33138
33142
33134
33134
33100
33072
33088
33065
33091
33044
33041
33040
33053
33028
33036
32989
33003
32986
32984
32966
32946
32944
32873
32867
32868
32856
32828
32788
32743
32740
32736
32755
32714
32700
32711
32668
32697
32675
32671
32692
32685
32713
32705
32725
32684
32705
32743
32744
32721
32713
32722
32721
32724
32732
32774
32782
32808
32785
32816
32875
32888
32931
33003
33131
33232
33401
33521
33660
33816
33868
33937
33944
33945
33957
33968
33927
33939
33943
33940
33916
33942
33952
33904
33881
33866
33898
33876
33863
33810
33819
33826
33775
33802
33791
33760
33750
33744
33726
33713
33690
33706
33685
33682
33651
33619
33616
33594
33533
33537
33502
33516
33482
33481
33480
33433
33412
33404
33338
33333
33332
33315
33270
33269
33226
33242
33193
33173
33221
33167
33159
33145
33123
33101
33101
33101
33085
33097
33088
33085
33041
33056
33055
33013
33032
33005
32975
32935
32962
32932
32899
32868
32842
32806
32795
32781
32764
32759
32751
32718
32735
32742
32744
32729
32716
32707
32652
32737
32685
32711
32708
32718
32714
32685
32707
32713
32714
32742
32731
32736
32750
32784
32779
32790
32803
32868
32883
32949
33099
33211
33333
33473
33610
33743
33829
33831
33890
33900
33877
33895
33882
33858
33847
33827
33818
33811
33806
33819
33809
33761
33788
33762
33766
33773
33750
33716
33751
33708
33689
33695
33666
33643
33650
33597
33587
33578
33558
33567
33546
33523
33516
33491
33468
33432
33423
33426
33375
33372
33349
33363
33299
33302
33287
33246
33207
33208
33189
33179
33153
33169
33139
33115
33141
33108
33140
33073
33041
33037
33052
33015
33070
33023
33020
33044
33043
32999
32987
32976
32940
32956
32921
32880
32886
32838
32849
32804
32792
32761
32741
32719
32718
32704
32687
32727
32685
32708
32707
32665
32685
32656
32695
32682
32692
32680
32677
32701
32673
32704
32701
32719
32698
32702
32712
32753
32759
32762
32801
32826
32826
32867
32885
32955
33002
33077
33233
33358
33492
33638
33764
33818
33890
33891
33893
33897
33875
33881
33873
33866
33883
33859
33869
33819
33835
33850
33830
33828
33796
33794
33757
33776
33758
33718
33744
33729
33710
33701
33696
33680
33660
33665
33650
33633
33619
33575
33585
33590
33577
33550
33534
33520
33495
33481
33453
33431
33434
33429
33421
33384
33368
33343
33320
33311
33321
33311
33296
33281
33264
33258
33243
33206
33207
33204
33215
33198
33184
33158
33184
33181
33167
33157
33157
33160
33129
33083
33081
33059
33032
33023
32998
32998
32977
32940
32921
32925
32914
32903
32864
32850
32856
32825
32848
32822
32842
32828
32822
32813
32823
32848
32814
32837
32819
32823
32827
32828
32842
32843
32852
32885
32878
32892
32906
32912
32940
32975
33000
33053
33099
33199
33322
33429
33555
33754
33891
34003
34019
34102
34100
34122
34118
34121
34104
34108
34097
34055
34099
34050
34052
34039
34025
33994
33997
34015
33976
33976
33991
33944
33967
33932
33938
33914
33890
33861
33869
33859
33843
33809
33823
33778
33777
33808
33736
33733
33706
33658
33668
33642
33638
33607
33597
33561
33533
33541
33507
33498
33468
33449
33436
33443
33395
33373
33336
33355
33291
33297
33308
33296
33285
33250
33257
33256
33217
33222
33203
33251
33218
33221
33200
33186
33196
33138
33117
33093
33055
33042
33007
33010
33019
32974
32944
32950
32905
32890
32885
32834
32882
32863
32886
32865
32836
32849
32846
32810
32847
32800
32821
32825
32813
32851
32859
32858
32885
32861
32854
32851
32867
32900
32909
32912
32965
33016
33029
33124
33230
33325
33455
33599
33778
33919
33926
33981
34005
34012
33998
33985
33973
33977
33967
33916
33930
33915
33889
33857
33890
33862
33834
33859
33842
33837
33826
33794
33777
33772
33764
33742
33751
33715
33711
33695
33659
33648
33629
33651
33585
33610
33597
33557
33548
33538
33520
33485
33468
33457
33453
33410
33406
33403
33348
33326
33317
33314
33295
33282
33268
33254
33215
33211
33179
33175
33176
33175
33152
33180
33160
33165
33183
33170
33165
33128
33177
33132
33125
33140
33082
33070
32994
32983
33004
32970
32938
32915
32913
32906
32878
32880
32836
32822
32837
32843
32851
32838
32828
32842
32826
32825
32813
32825
32841
32805
32823
32809
32821
32843
32803
32806
32846
32851
32856
32896
32884
32919
32932
32938
32980
33020
33064
33194
33312
33422
33611
33777
33907
33989
34024
34077
34103
34064
34063
34062
34056
34039
34044
34029
34021
34003
33998
33984
33985
33978
33957
33950
33937
33904
33925
33917
33901
33916
33885
33879
33852
33828
33832
33826
33814
33766
33804
33755
33728
33743
33709
33669
33656
33691
33648
33619
33593
33584
33568
33511
33532
33501
33474
33488
33448
33419
33414
33370
33391
33371
33301
33287
33301
33260
33264
33276
33255
33237
33248
33239
33250
33257
33223
33211
33199
33189
33196
33175
33172
33135
33138
33093
33074
33034
33051
33010
32985
32956
32956
32921
32931
32913
32901
32881
32877
32896
32859
32868
32899
32896
32862
32875
32870
32894
32872
32869
32876
32866
32887
32867
32888
32911
32885
32898
32940
32963
32973
33004
33039
33047
33099
33171
33307
33397
33558
33700
33857
33967
34064
34094
34128
34170
34151
34142
34158
34119
34136
34146
34108
34116
34106
34082
34083
34042
34037
34056
34046
34022
34022
34005
34022
33969
33939
33972
33950
33937
33938
33945
33887
33872
33870
33890
33841
33862
33851
33819
33777
33790
33726
33681
33716
33683
33651
33620
33603
33593
33540
33528
33513
33517
33481
33469
33466
33451
33423
33386
33367
33347
33346
33337
33345
33318
33338
33328
33269
33268
33261
33258
33237
33207
33211
33216
33231
33194
33152
33132
33137
33112
33067
33062
33012
33014
32991
32967
32954
32934
32926
32907
32926
32892
32890
32827
32888
32855
32848
32874
32852
32872
32876
32877
32869
32863
32883
32881
32891
32867
32920
32916
32928
32947
32963
32960
33023
33048
33071
33138
33229
33348
33463
33592
33762
33957
34019
34058
34117
34130
34141
34113
34124
34110
34142
34105
34103
34087
34074
34074
34037
34040
34022
34015
34001
34009
33967
33965
33967
33954
33951
33946
33923
33917
33914
33831
33846
33852
33802
33808
33748
33739
33712
33727
33693
33683
33655
33658
33642
33595
33569
33516
33543
33495
33500
33485
33458
33439
33425
33422
33381
33376
33363
33355
33340
33345
33313
33336
33317
33303
33296
33251
33246
33230
33267
33259
33241
33225
33238
33240
33195
33185
33157
33178
33093
33122
33067
33027
33042
32995
32979
32978
32943
32953
32950
32933
32942
32888
32910
32883
32887
32912
32912
32900
32887
32886
32899
32908
32903
32899
32914
32938
32900
32941
32942
32952
32969
32970
32992
32979
33019
33098
33146
33280
33368
33551
33678
33863
33978
34054
34075
34124
34122
34143
34135
34103
34120
34106
34064
34063
34075
34057
34060
34038
34036
34012
34020
34018
33986
33992
34016
33954
33953
33921
33922
33895
33872
33924
33869
33846
33811
33826
33819
33814
33783
33779
33757
33752
33739
33740
33708
33674
33648
33632
33649
33616
33593
33554
33541
33494
33489
33459
33432
33451
33417
33442
33392
33388
33357
33338
33316
33303
33300
33293
33280
33300
33289
33327
33307
33308
33310
33284
33283
33243
33230
33223
33187
33169
33175
33158
33134
33095
33072
33044
33010
32970
32973
32933
32961
32960
32930
32913
32915
32896
32910
32896
32886
32908
32925
32880
32887
32905
32929
32912
32892
32903
32944
32933
32950
32932
32938
32970
33012
33049
33051
33054
33131
33189
33311
33445
33539
33753
33894
34027
34059
34129
34165
34163
34164
34169
34179
34166
34156
34146
34131
34145
34118
34117
34109
34101
34105
34081
34071
34040
34040
34017
34009
33961
33978
33937
33976
33940
33915
33888
33873
33848
33822
33860
33822
33800
33789
33737
33769
33737
33702
33674
33630
33637
33593
33583
33585
33547
33527
33503
33469
33454
33452
33449
33421
33412
33431
33369
33427
33390
33361
33391
33390
33384
33381
33383
33367
33374
33374
33329
33320
33317
33302
33284
33283
33235
33223
33223
33195
33154
33161
33128
33115
33080
33070
33070
33023
32995
33007
32978
32991
32953
32969
32968
32953
32956
32935
32976
32973
32985
32981
32972
32967
32964
32987
32959
32973
32999
32998
33033
33003
33013
33052
33070
33071
33135
33159
33241
33331
33419
33560
33715
33911
34044
34121
34189
34220
34266
34253
34256
34263
34264
34263
34255
34216
34225
34186
34168
34169
34138
34168
34113
34150
34113
34107
34108
34085
34109
34080
34074
34067
34060
34040
34010
34007
34010
33998
33982
33976
33962
33939
33882
33866
33870
33862
33836
33809
33798
33784
33759
33788
33722
33687
33710
33676
33662
33639
33603
33601
33587
33554
33563
33537
33523
33475
33484
33466
33482
33455
33438
33430
33447
33415
33430
33381
33382
33401
33377
33397
33354
33335
33305
33260
33262
33193
33201
33185
33166
33149
33122
33131
33095
33076
33027
33037
33020
33005
32994
33015
32965
32997
33004
32975
32983
32981
32970
32932
32971
32954
32959
32973
32973
32994
32988
33005
33021
33018
33057
33079
33089
33147
33178
33269
33377
33475
33607
33783
33935
34030
34113
34141
34186
34185
34179
34164
34189
34154
34156
34110
34151
34148
34150
34097
34117
34089
34073
34091
34050
34028
34041
34048
34012
33983
33990
33950
33968
33927
33917
33919
33893
33864
33839
33846
33853
33829
33797
33779
33757
33750
33739
33727
33701
33681
33699
33653
33640
33593
33590
33573
33521
33542
33532
33529
33523
33504
33458
33433
33434
33449
33424
33407
33391
33375
33370
33368
33367
33342
33346
33339
33312
33320
33275
33260
33284
33292
33239
33213
33216
33205
33142
33110
33107
33113
33062
33037
33025
32989
32990
33011
32953
32992
32973
32959
32976
32949
32969
32986
32976
32968
32930
32969
32964
33005
32972
33000
32999
32992
33010
33004
33009
33034
33068
33102
33074
33160
33194
33278
33356
33535
33673
33844
33997
34094
34165
34189
34193
34218
34244
34230
34228
34207
34192
34201
34209
34174
34173
34136
34168
34128
34114
34134
34103
34106
34073
34087
34071
34065
34026
34054
34027
34007
34011
33997
33976
33960
33938
33949
33908
33886
33876
33881
33873
33845
33828
33814
33793
33790
33798
33752
33740
33680
33676
33696
33632
33618
33604
33582
33561
33550
33537
33503
33502
33494
33511
33454
33489
33428
33440
33462
33417
33442
33419
33399
33368
33331
33334
33328
33304
33287
33294
33248
33217
33202
33187
33124
33120
33129
33118
33055
33064
33058
33050
33040
33018
33019
33018
33019
32997
33027
33008
33012
33005
33013
33026
32975
33016
32989
33005
33038
33021
33021
33029
33045
33055
33060
33091
33093
33149
33176
33192
33306
33394
33478
33668
33798
33973
34145
34197
34256
34287
34323
34307
34326
34327
34321
34322
34301
34305
34294
34297
34282
34293
34271
34290
34273
34256
34251
34277
34239
34243
34225
34190
34193
34196
34153
34144
34120
34132
34111
34095
34100
34091
34059
34044
34029
34022
34043
34012
33991
33982
33981
33982
33938
33904
33888
33880
33839
33803
33787
33770
33771
33751
33770
33752
33718
33736
33716
33705
33708
33626
33660
33608
33635
33589
33591
33576
33561
33561
33576
33491
33512
33442
33477
33455
33400
33411
33371
33339
33307
33274
33293
33210
33227
33202
33209
33124
33178
33156
33158
33146
33145
33149
33132
33103
33116
33132
33128
33137
33115
33095
33111
33113
33128
33131
33164
33123
33151
33166
33193
33201
33189
33218
33273
33314
33365
33486
33626
33727
33879
34073
34180
34257
34339
34340
34339
34396
34372
34389
34370
34363
34351
34335
34325
34294
34294
34340
34317
34296
34289
34283
34292
34269
34246
34259
34249
34248
34238
34222
34201
34189
34185
34171
34152
34131
34098
34109
34103
34059
34050
34023
34017
34005
33972
33954
33901
33905
33873
33860
33836
33807
33805
33759
33728
33745
33758
33712
33670
33693
33671
33649
33614
33599
33593
33575
33579
33580
33566
33540
33519
33520
33505
33491
33497
33468
33452
33458
33435
33424
33379
33376
33357
33324
33310
33285
33293
33244
33197
33195
33166
33181
33152
33145
33132
33154
33124
33125
33130
33144
33125
33136
33144
33121
33129
33150
33140
33197
33173
33162
33156
33145
33188
33209
33230
33226
33241
33299
33354
33443
33522
33624
33771
33905
34095
34208
34287
34326
34346
34368
34386
34394
34360
34424
34374
34376
34370
34385
34366
34347
34345
34328
34349
34295
34281
34313
34313
34292
34243
34274
34249
34235
34208
34214
34200
34214
34187
34158
34157
34152
34124
34100
34108
34094
34065
34044
34012
34012
33997
33942
33956
33936
33922
33933
33923
33889
33869
33834
33800
33813
33777
33762
33713
33691
33716
33695
33688
33647
33657
33658
33626
33632
33624
33573
33570
33586
33582
33576
33548
33542
33509
33513
33491
33420
33431
33397
33374
33352
33338
33306
33302
33273
33279
33250
33262
33217
33194
33184
33222
33181
33198
33179
33202
33215
33210
33189
33196
33207
33191
33183
33202
33202
33188
33202
33211
33220
33223
33247
33255
33275
33290
33345
33396
33518
33626
33753
33884
34106
34221
34311
34394
34407
34446
34465
34451
34437
34399
34438
34399
34383
34412
34432
34395
34382
34382
34346
34347
34333
34334
34275
34294
34286
34281
34260
34251
34232
34227
34230
34208
34225
34195
34143
34147
34144
34117
34113
34050
34070
34060
34042
34030
34052
34026
33996
33942
33964
33918
33875
33872
33865
33803
33778
33782
33824
33773
33757
33726
33715
33666
33655
33695
33666
33680
33673
33675
33637
33622
33641
33654
33596
33599
33588
33587
33537
33550
33537
33518
33494
33490
33426
33418
33394
33369
33363
33335
33329
33293
33281
33260
33238
33226
33264
33222
33217
33199
33209
33193
33209
33177
33185
33179
33186
33194
33199
33203
33220
33263
33199
33213
33232
33244
33285
33275
33291
33304
33330
33360
33412
33471
33558
33701
33813
33989
34143
34294
34348
34411
34478
34508
34519
34495
34508
34490
34497
34494
34486
34479
34475
34485
34462
34469
34452
34427
34450
34438
34446
34416
34425
34418
34417
34403
34385
34357
34366
34377
34348
34352
34344
34339
34314
34268
34287
34263
34256
34226
34223
34217
34184
34161
34159
34136
34115
34067
34090
34082
34056
34001
33969
33962
33946
33940
33906
33864
33885
33858
33825
33836
33799
33792
33758
33741
33747
33741
33724
33715
33696
33697
33675
33694
33661
33646
33596
33605
33573
33553
33527
33488
33451
33436
33416
33384
33370
33350
33349
33326
33305
33303
33252
33253
33253
33251
33309
33270
33253
33264
33262
33261
33253
33261
33258
33273
33249
33264
33246
33286
33302
33309
33322
33336
33365
33381
33399
33403
33489
33608
33677
33794
33902
34083
34243
34364
34438
34490
34510
34553
34530
34531
34529
34511
34535
34492
34511
34513
34475
34481
34479
34481
34460
34414
34433
34418
34392
34393
34396
34385
34376
34374
34346
34353
34316
34289
34297
34329
34298
34265
34255
34243
34237
34240
34218
34215
34177
34176
34177
34130
34116
34114
34106
34087
34048
34016
34016
34007
33991
33957
33934
33926
33906
33874
33861
33852
33845
33832
33802
33825
33809
33783
33784
33741
33743
33742
33736
33708
33723
33696
33692
33646
33623
33608
33601
33549
33520
33501
33474
33485
33452
33418
33416
33379
33373
33331
33360
33326
33345
33293
33315
33313
33304
33342
33323
33306
33286
33308
33306
33312
33317
33317
33336
33334
33329
33325
33356
33358
33378
33406
33442
33524
33582
33647
33766
33888
34021
34220
34329
34397
34432
34492
34499
34503
34502
34515
34528
34529
34499
34496
34483
34454
34445
34437
34450
34442
34409
34401
34363
34395
34352
34359
34341
34347
34314
34310
34271
34256
34228
34266
34254
34217
34163
34194
34188
34164
34154
34146
34119
34095
34092
34048
34043
34020
34012
33998
33975
33953
33935
33916
33916
33900
33912
33890
33870
33834
33848
33843
33795
33807
33778
33758
33764
33749
33718
33735
33718
33738
33745
33724
33708
33681
33667
33664
33673
33618
33612
33576
33558
33557
33527
33544
33506
33470
33488
33430
33402
33380
33351
33367
33317
33333
33313
33320
33324
33365
33355
33352
33348
33335
33339
33342
33335
33335
33348
33352
33373
33374
33361
33372
33410
33413
33411
33458
33466
33493
33568
33625
33741
33878
33994
34227
34402
34454
34495
34571
34580
34573
34593
34590
34621
34578
34564
