26082
26107
26119
26126
26181
26174
26200
26208
26269
26293
26305
26297
26333
26385
26404
26459
26450
26496
26497
26553
26531
26554
26593
26579
26594
26625
26613
26614
26600
26598
26585
26588
26590
26558
26572
26590
26573
26562
26539
26533
26543
26536
26517
26527
26492
26498
26497
26479
26471
26470
26461
26445
26450
26453
26441
26425
26445
26404
26394
26395
26393
26394
26353
26374
26335
26330
26315
26301
26318
26289
26271
26293
26275
26246
26227
26234
26236
26209
26187
26204
26179
26172
26164
26172
26165
26137
26130
26118
26129
26117
26111
26104
26102
26085
26076
26090
26089
26076
26069
26082
26073
26068
26058
26065
26021
26034
26035
26045
26031
26031
25986
25998
25981
25957
25971
25932
25931
25901
25907
25877
25870
25853
25810
25849
25834
25836
25827
25811
25821
25827
25819
25849
25852
25834
25843
25864
25850
25874
25918
25947
25932
25962
25972
25990
26034
26073
26105
26163
26166
26227
26245
26299
26313
26327
26369
26397
26389
26426
26451
26438
26434
26441
26437
26442
26375
26394
26427
26395
26380
26387
26363
26330
26337
26389
26352
26342
26310
26316
26298
26312
26274
26289
26294
26249
26278
26290
26253
26248
26232
26224
26238
26229
26221
26180
26185
26178
26184
26212
26178
26169
26150
26129
26153
26120
26099
26105
26098
26074
26096
26074
26075
26072
26038
26053
26024
26010
25988
26002
25962
25959
25967
25954
25933
25931
25922
25924
25922
25875
25872
25880
25918
25897
25898
25910
25860
25885
25841
25878
25861
25874
25855
25861
25871
25865
25837
25828
25834
25860
25813
25813
25799
25781
25768
25772
25727
25744
25681
25720
25707
25692
25680
25672
25663
25671
25667
25682
25656
25703
25677
25693
25697
25704
25723
25723
25725
25721
25763
25773
25784
25791
25830
25859
25922
25953
25956
26005
26032
26053
26101
26150
26160
26201
26240
26288
26306
26326
26345
26371
26358
26398
26371
26363
26367
26403
26382
26381
26342
26372
26333
26338
26302
26354
26308
26326
26346
26319
26282
26303
26307
26304
26270
26317
26291
26276
26244
26250
26256
26249
26253
26222
26237
26220
26219
26197
26185
26199
26186
26192
26160
26136
26143
26126
26163
26134
26116
26122
26078
26110
26081
26061
26067
26075
26040
26012
26006
26023
26017
26018
25979
26009
25987
25983
25957
25930
25950
25932
25936
25917
25923
25894
25901
25889
25892
25891
25867
25895
25910
25873
25861
25898
25847
25870
25863
25834
25810
25834
25851
25831
25806
25823
25794
25794
25792
25768
25703
25750
25725
25678
25687
25673
25675
25677
25684
25662
25681
25641
25652
25656
25686
25677
25694
25709
25699
25714
25720
25716
25747
25754
25776
25791
25832
25829
25873
25910
25927
25947
25998
26030
26064
26130
26148
26196
26236
26255
26330
26304
26318
26350
26350
26365
26364
26362
26389
26315
26371
26341
26342
26352
26329
26298
26322
26323
26297
26276
26260
26256
26245
26261
26240
26238
26217
26243
26211
26189
26174
26160
26173
26187
26166
26123
26143
26144
26098
26103
26073
26082
26096
26089
26060
26052
26037
26028
26001
25991
25999
25990
25996
25976
25983
25967
25940
25923
25890
25921
25908
25884
25886
25862
25886
25848
25836
25838
25794
25806
25808
25806
25786
25807
25794
25811
25783
25771
25797
25796
25756
25795
25780
25764
25773
25758
25753
25752
25744
25744
25724
25706
25683
25670
25658
25689
25658
25652
25598
25595
25582
25574
25535
25551
25550
25545
25520
25509
25558
25567
25543
25553
25569
25549
25559
25577
25573
25603
25584
25609
25622
25631
25648
25699
25703
25736
25784
25815
25840
25903
25886
25968
25988
26028
26062
26075
26111
26103
26165
26163
26186
26210
26220
26199
26199
26183
26152
26193
26194
26177
26139
26129
26140
26140
26103
26110
26104
26091
26104
26106
26049
26061
26069
26059
26046
26044
26006
26021
26011
25991
25988
25964
25973
25953
25954
25922
25942
25947
25914
25913
25895
25891
25873
25865
25869
25867
25826
25837
25813
25825
25804
25805
25812
25795
25779
25796
25772
25752
25730
25722
25749
25726
25735
25715
25753
25686
25708
25710
25717
25720
25689
25720
25726
25724
25702
25677
25657
25700
25645
25673
25666
25668
25664
25637
25633
25618
25587
25566
25579
25551
25564
25509
25524
25501
25511
25495
25474
25473
25511
25504
25514
25515
25507
25530
25500
25491
25534
25551
25564
25571
25583
25607
25633
25625
25661
25682
25724
25760
25799
25841
25867
25876
25961
26011
26053
26109
26112
26154
26166
26221
26224
26270
26257
26250
26243
26223
26241
26232
26230
26229
26199
26215
26231
26250
26207
26192
26186
26165
26179
26131
26149
26135
26124
26124
26099
26118
26075
26114
26077
26071
26074
26051
26046
26018
26027
26002
26000
26029
26022
25982
25988
25946
25945
25945
25949
25905
25908
25899
25878
25907
25869
25833
25859
25864
25834
25828
25785
25786
25773
25762
25783
25746
25731
25750
25757
25722
25724
25739
25716
25694
25700
25708
25678
25722
25692
25677
25688
25695
25678
25668
25657
25662
25672
25636
25640
25640
25638
25605
25630
25590
25577
25582
25536
25509
25538
25518
25511
25488
25476
25482
25464
25466
25494
25468
25482
25484
25501
25527
25541
25522
25525
25530
25534
25555
25573
25615
25577
25623
25644
25671
25708
25708
25731
25794
25810
25862
25907
25965
25997
26029
26062
26106
26162
26208
26201
26219
26250
26261
26269
26232
26217
26228
26233
26244
26238
26204
26206
26217
26212
26189
26158
26163
26166
26158
26148
26124
26123
26135
26118
26128
26078
26086
26096
26081
26093
26067
26051
26052
26058
26028
26028
26002
26015
25973
25993
25979
25963
25953
25965
25957
25934
25917
25901
25905
25893
25876
25847
25863
25850
25833
25823
25813
25805
25801
25820
25809
25795
25797
25785
25759
25776
25768
25748
25773
25733
25759
25733
25722
25732
25721
25737
25731
25735
25728
25724
25731
25699
25669
25725
25680
25683
25663
25642
25666
25647
25633
25608
25583
25560
25591
25557
25534
25550
25510
25531
25523
25511
25522
25535
25512
25537
25539
25565
25542
25558
25577
25574
25598
25609
25604
25633
25674
25664
25711
25736
25774
25784
25816
25872
25903
25936
25971
26015
26080
26112
26153
26184
26187
26192
26220
26238
26258
26245
26234
26234
26226
26207
26180
26215
26185
26187
26165
26180
26144
26172
26163
26121
26140
26130
26116
26108
26107
26072
26092
26067
26068
26059
26066
26043
26023
26051
26057
26010
26048
26019
25998
26008
26022
25983
25990
25979
25969
25973
25923
25949
25950
25950
25949
25955
25895
25901
25906
25872
25884
25872
25877
25900
25882
25844
25856
25855
25861
25834
25851
25834
25832
25864
25831
25839
25841
25828
25835
25833
25838
25843
25834
25851
25823
25817
25808
25812
25792
25780
25765
25760
25751
25726
25686
25663
25699
25672
25675
25627
25661
25647
25662
25648
25641
25651
25661
25684
25669
25684
25718
25715
25753
25732
25772
25808
25778
25833
25845
25870
25903
25941
25959
25991
26022
26087
26131
26160
26200
26262
26305
26336
26351
26384
26405
26416
26436
26464
26430
26420
26456
26425
26428
26393
26406
26385
26389
26388
26358
26337
26347
26346
26323
26287
26278
26278
26267
26274
26260
26243
26239
26214
26213
26208
26188
26162
26154
26174
26160
26142
26153
26128
26146
26125
26072
26097
26077
26086
26087
26079
26046
26035
26037
26011
26003
25970
25997
25979
25983
25949
25926
25984
25930
25937
25919
25930
25921
25941
25940
25929
25929
25898
25896
25935
25903
25902
25909
25928
25892
25915
25922
25912
25927
25924
25931
25905
25911
25921
25912
25894
25927
25887
25872
25863
25878
25837
25822
25818
25827
25805
25754
25791
25766
25754
25781
25754
25741
25707
25712
25704
25728
25725
25720
25721
25723
25748
25711
25759
25769
25769
25756
25770
25805
25804
25813
25859
25891
25899
25946
25984
26010
26062
26116
26137
26197
26229
26274
26305
26319
26341
26385
26391
26389
26411
26398
26375
26380
26372
26354
26368
26364
26355
26346
26349
26344
26360
26348
26328
26325
26303
26317
26301
26307
26290
26292
26328
26325
26302
26319
26295
26316
26295
26293
26287
26259
26286
26267
26299
26265
26262
26267
26259
26255
26239
26243
26236
26208
26211
26224
26196
26192
26172
26162
26159
26147
26140
26114
26115
26127
26114
26115
26066
26071
26093
26060
26037
26030
26040
26034
26031
26004
26015
26021
25997
26026
26009
25978
26009
25980
25964
26006
25974
25987
25988
25967
25967
25941
25930
25938
25926
25915
25932
25910
25862
25876
25869
25829
25828
25825
25828
25788
25779
25798
25787
25754
25788
25765
25802
25780
25808
25784
25791
25829
25819
25808
25833
25874
25874
25886
25903
25926
25912
25971
25986
26013
26053
26084
26131
26184
26206
26248
26336
26383
26396
26450
26431
26481
26506
26500
26501
26494
26507
26471
26440
26474
26457
26479
26472
26465
26432
26445
26441
26416
26421
26400
26391
26391
26370
26400
26366
26395
26377
26355
26342
26356
26315
26334
26312
26296
26291
26312
26316
26277
26262
26271
26276
26248
26267
26242
26269
26258
26211
26216
26197
26212
26193
26174
26182
26175
26181
26137
26143
26127
26111
26121
26105
26124
26096
26112
26084
26072
26065
26036
26074
26048
26030
26048
26056
26043
26036
26056
26004
26002
26006
26034
26016
26042
26039
26040
26020
26043
26060
25996
25999
26011
26000
26002
25997
25986
25980
25946
25938
25899
25887
25903
25906
25886
25842
25853
25854
25792
25823
25832
25859
25844
25846
25850
25864
25873
25863
25876
25890
25912
25898
25924
25956
25953
25984
25993
26039
26053
26095
26119
26159
26197
26230
26319
26344
26430
26451
26499
26513
26556
26588
26614
26634
26625
26630
26632
26646
26619
26636
26601
26570
26584
26593
26591
26581
26572
26544
26548
26557
26543
26558
26515
26516
26506
26508
26520
26492
26497
26460
26460
26454
26458
26445
26455
26440
26413
26421
26377
26417
26409
26383
26363
26357
26339
26369
26334
26334
26351
26346
26314
26300
26290
26285
26282
26271
26296
26291
26252
26229
26251
26225
26223
26214
26219
26211
26196
26157
26159
26142
26146
26156
26142
26110
26113
26126
26096
26095
26100
26115
26095
26102
26065
26078
26097
26058
26077
26061
26050
26063
26060
26050
26050
26041
26012
26029
26039
26038
25998
25980
25992
25954
25951
25901
25910
25893
25888
25869
25895
25871
25849
25860
25848
25875
25851
25842
25875
25889
25893
25894
25885
25927
25916
25930
25964
25967
25980
25984
26043
26037
26050
26086
26108
26140
26229
26239
26290
26347
26387
26434
26499
26519
26561
26589
26611
26628
26643
26648
26649
26660
26636
26631
26642
26650
26619
26625
26593
26610
26599
26564
26621
26577
26575
26569
26568
26536
26555
26524
26526
26524
26506
26531
26495
26478
26466
26487
26464
26494
26486
26454
26436
26429
26461
26453
26416
26433
26422
26420
26383
26394
26363
26386
26367
26364
26356
26367
26327
26303
26303
26284
26297
26283
26281
26276
26254
26251
26218
26211
26218
26200
26210
26211
26182
26181
26183
26162
26176
26142
26166
26157
26165
26114
26151
26134
26131
26119
26146
26124
26125
26131
26131
26092
26100
26095
26087
26082
26044
26067
26058
26050
26043
26032
25996
26010
25963
25936
25940
25919
25930
25923
25903
25933
25943
25956
25943
25965
25929
25933
25949
25979
25969
25984
25990
26005
26010
26052
26043
26062
26075
26093
26103
26150
26175
26188
26264
26262
26363
26401
26408
26488
26528
26570
26585
26647
26675
26681
26724
26705
26720
26717
26741
26723
26739
26723
26714
26679
26680
26685
26661
26663
26632
26656
26642
26630
26620
26593
26603
26575
26565
26589
26590
26545
26560
26562
26531
26529
26528
26514
26512
26489
26513
26482
26499
26504
26470
26444
26464
26455
26433
26448
26434
26414
26383
26384
26400
26398
26397
26359
26384
26354
26352
26322
26313
26339
26312
26319
26316
26302
26285
26278
26262
26269
26253
26254
26261
26234
26252
26254
26216
26219
26248
26212
26214
26213
26225
26209
26221
26219
26213
26188
26204
26178
26173
26189
26168
26165
26143
26127
26141
26146
26148
26072
26090
26100
26059
26045
26049
26026
26020
25975
26012
26007
26013
26024
26001
25998
26027
26042
26041
26051
26044
26080
26083
26051
26084
26097
26129
26129
26150
26192
26228
26223
26276
26314
26340
26416
26456
26498
26543
26561
26600
26673
26648
26681
26735
26744
26715
26760
26738
26742
26746
26723
26764
26695
26690
26695
26692
26667
26663
26672
26659
26625
26638
26640
26613
26597
26577
26585
26590
26589
26574
26575
26549
26557
26553
26535
26549
26534
26536
26529
26489
26492
26484
26487
26470
26463
26473
26450
26438
26437
26422
26443
26430
26450
26389
26380
26372
26392
26357
26374
26346
26346
26361
26315
26320
26332
26336
26306
26275
26292
26287
26280
26273
26234
26257
26250
26239
26250
26269
26228
26233
26236
26241
26221
26247
26227
26195
26241
26223
26234
26182
26203
26192
26192
26199
26160
26170
26170
26134
26131
26146
26112
26094
26106
26040
26072
26062
26025
26006
26038
26015
26011
25978
25997
25980
26019
25998
26026
26007
26039
26038
26029
26061
26064
26062
26070
26093
26113
26143
26143
26162
26200
26231
26289
26281
26335
26386
26422
26496
26517
26555
26571
26632
26666
26708
26727
26724
26743
26740
26729
26752
26711
26727
26722
26700
26712
26695
26686
26690
26675
26682
26663
26669
26627
26631
26606
26613
26611
26605
26582
26605
26571
26575
26565
26547
26566
26541
26538
26506
26520
26506
26512
26503
26466
26451
26493
26479
26485
26438
26447
26441
26420
26397
26380
26386
26383
26383
26367
26369
26358
26351
26341
26351
26344
26339
26327
26323
26303
26290
26276
26294
26296
26255
26282
26243
26249
26251
26279
26250
26244
26225
26237
26223
26203
26200
26198
26216
26208
26213
26192
26186
26172
26148
26156
26143
26128
26110
26126
26082
26047
26055
26068
26034
26004
26018
25960
25949
25946
25958
25942
25939
25916
25938
25941
25944
25928
25959
25946
25965
25981
25998
26011
26019
26035
26048
26053
26081
26101
26120
26133
26168
26180
26232
26256
26292
26329
26373
26377
26501
26507
26550
26591
26626
26672
26670
26713
26719
26755
26754
26786
26740
26771
26749
26768
26763
26724
26716
26722
26712
26700
26711
26709
26671
26719
26696
26698
26657
26672
26668
26646
26641
26662
26660
26646
26628
26626
26630
26628
26606
26591
26592
26595
26588
26575
26579
26578
26580
26550
26554
26546
26529
26526
26538
26529
26519
26532
26507
26528
26485
26515
26497
26485
26485
26484
26459
26482
26462
26475
26452
26430
26452
26436
26439
26439
26417
26448
26406
26408
26412
26401
26384
26406
26376
26380
26392
26357
26363
26373
26364
26343
26396
26352
26334
26323
26316
26334
26323
26287
26276
26247
26259
26213
26221
26200
26181
26189
26193
26164
26167
26164
26186
26183
26168
26226
26198
26176
26207
26208
26222
26238
26222
26226
26240
26242
26258
26327
26314
26339
26370
26401
26459
26506
26521
26571
26597
26677
26675
26714
26748
26797
26802
26853
26871
26862
26869
26895
26915
26899
26898
26882
26908
26880
26882
26854
26868
26847
26869
26841
26842
26836
26845
26837
26817
26803
26815
26818
26814
26799
26768
26774
26778
26790
26764
26737
26757
26744
26729
26728
26725
26737
26707
26681
26698
26704
26706
26671
26651
26672
26657
26636
26664
26646
26647
26639
26613
26628
26619
26610
26599
26611
26605
26568
26581
26560
26561
26557
26556
26551
26507
26517
26527
26504
26492
26507
26519
26507
26479
26521
26473
26480
26485
26474
26473
26460
26444
26436
26447
26459
26441
26441
26438
26425
26382
26393
26398
26377
26332
26315
26292
26298
26285
26265
26276
26226
26251
26267
26251
26253
26246
26223
26254
26248
26248
26280
26274
26270
26292
26325
26277
26349
26321
26326
26334
26388
26406
26400
26426
26471
26509
26562
26577
26615
26661
26685
26749
26780
26814
26827
26857
26873
26895
26897
26914
26936
26914
26911
26897
26922
26920
26866
26886
26851
26858
26856
26857
26832
26802
26793
26826
26812
26831
26780
26775
26791
26756
26763
26767
26748
26735
26753
26742
26758
26729
26691
26726
26688
26690
26704
26673
26694
26649
26681
26675
26667
26651
26625
26615
26607
26611
26607
26585
26560
26571
26549
26556
26504
26542
26533
26529
26493
26508
26501
26466
26496
26483
26462
26467
26432
26442
26424
26442
26442
26418
26424
26407
26416
26388
26393
26410
26410
26407
26399
26396
26393
26418
26399
26361
26392
26367
26348
26342
26342
26347
26306
26304
26296
26277
26269
26259
26246
26220
26211
26225
26233
26202
26220
26209
26206
26250
26220
26253
26251
26239
26236
26253
26296
26307
26315
26332
26327
26362
26381
26414
26442
26445
26511
26530
26561
26618
26634
26706
26710
26747
26788
26833
26868
26874
26896
26955
26939
26924
26943
26952
26951
26942
26922
26928
26940
26931
26922
26911
26910
26851
26896
26891
26869
26872
26861
26839
26833
26858
26841
26824
26840
26803
26815
26774
26789
26796
26803
26785
26788
26780
26752
26744
26718
26731
26717
26720
26707
26708
26696
26692
26673
26670
26649
26657
26648
26605
26644
26638
26610
26608
26620
26606
26603
26579
26581
26543
26553
26546
26542
26533
26475
26532
26501
26481
26481
26504
26482
26524
26467
26481
26502
26477
26473
26494
26475
26461
26470
26467
26466
26457
26449
26436
26435
26436
26423
26394
26421
26370
26381
26374
26342
26347
26319
26309
26266
26295
26286
26272
26265
26256
26269
26254
26271
26269
26284
26307
26306
26299
26295
26311
26316
26329
26358
26388
26389
26409
26427
26460
26490
26506
26559
26593
26614
26656
26717
26764
26798
26812
26820
26842
26842
26883
26891
26891
26901
26908
26883
26910
26886
26853
26881
26875
26865
26832
26813
26845
26825
26813
26820
26783
26784
26759
26747
26758
26732
26739
26725
26733
26737
26709
26725
26678
26695
26700
26668
26688
26662
26677
26666
26639
26642
26638
26647
26638
26634
26626
26610
26623
26607
26576
26589
26579
26577
26553
26534
26570
26580
26545
26571
26536
26524
26520
26523
26495
26490
26499
26488
26503
26499
26463
26492
26478
26457
26470
26472
26480
26491
26489
26460
26445
26421
26483
26455
26415
26407
26389
26426
26385
26376
26331
26347
26341
26334
26315
26268
26264
26289
26237
26250
26237
26265
26246
26258
26231
26265
26237
26265
26272
26286
26282
26290
26300
26328
26340
26330
26356
26379
26425
26421
26476
26488
26537
26595
26603
26648
26700
26738
26763
26773
26825
26837
26905
26916
26938
26940
26937
26952
26941
26939
26938
26924
26895
26933
26864
26879
26890
26870
26898
26868
26879
26872
26850
26801
26809
26807
26802
26803
26801
26797
26787
26772
26761
26750
26774
26756
26746
26749
26760
26719
26723
26713
26719
26710
26674
26681
26679
26643
26666
26631
26649
26624
26621
26628
26614
26574
26593
26561
26562
26562
26583
26530
26535
26546
26525
26497
26504
26524
26480
26477
26482
26447
26455
26473
26446
26438
26433
26393
26436
26426
26433
26415
26425
26405
26397
26397
26398
26382
26368
26376
26389
26373
26357
26335
26355
26327
26302
26296
26297
26298
26280
26264
26252
26231
26215
26202
26213
26204
26228
26205
26225
26191
26224
26212
26256
26233
26244
26261
26255
26271
26293
26299
26310
26356
26319
26387
26415
26439
26454
26484
26521
26564
26581
26651
26681
26720
26750
26816
26797
26844
26866
26878
26897
26867
26904
26920
26905
26911
26887
26906
26877
26886
26875
26844
26826
26862
26863
26892
26800
26835
26789
26800
26782
26789
26792
26763
26757
26801
26749
26727
26724
26745
26678
26661
26672
26688
26670
26661
26680
26654
26664
26638
26624
26655
26607
26608
26595
26604
26612
26599
26593
26561
26555
26532
26551
26523
26524
26511
26496
26510
26494
26453
26491
26460
26464
26490
26475
26457
26438
26433
26459
26431
26423
26430
26467
26428
26399
26417
26426
26409
26424
26386
26397
26376
26375
26355
26336
26343
26337
26340
26296
26281
26276
26287
26257
26224
26226
26222
26225
26210
26211
26201
26176
26158
26183
26216
26186
26199
26217
26222
26232
26230
26228
26217
26233
26245
26270
26301
26284
26310
26331
26338
26363
26381
26440
26474
26508
26519
26568
26598
26628
26674
26701
26722
26735
26772
26795
26788
26806
26793
26811
26799
26808
26795
26792
26788
26785
26796
26765
26766
26783
26752
26722
26715
26711
26723
26701
26705
26688
26701
26687
26669
26677
26662
26655
26635
26614
26591
26635
26617
26578
26595
26568
26571
26559
26534
26534
26541
26526
26516
26521
26495
26483
26491
26462
26453
26441
26481
26418
26413
26416
26432
26391
26376
26381
26390
26373
26370
26349
26350
26354
26314
26308
26325
26321
26327
26346
26326
26316
26318
26306
26305
26306
26309
26306
26307
26294
26280
26280
26270
26262
26282
26233
26242
26201
26219
26198
26171
26187
26186
26144
26162
26176
26174
26159
26171
26155
26156
26171
26172
26168
26191
26183
26205
26232
26225
26256
26274
26276
26271
26310
26334
26354
26368
26434
26477
26491
26552
26563
26610
26648
26668
26738
26753
26742
26790
26756
26790
26776
26824
26789
26792
26784
26775
26766
26749
26756
26740
26728
26721
26727
26726
26698
26678
26696
26691
26679
26652
26656
26622
26645
26639
26641
26607
26618
26599
26577
26591
26603
26560
26563
26575
26557
26517
26559
26540
26530
26485
26493
26498
26493
26491
26463
26455
26437
26458
26435
26447
26409
26436
26411
26367
26356
26365
26378
26340
26332
26343
26278
26328
26312
26302
26274
26304
26262
26256
26257
26250
26240
26240
26251
26224
26221
26214
26209
26211
26203
26189
26207
26195
26168
26169
26156
26154
26150
26130
26126
26091
26072
26063
26047
26064
26025
26016
26010
26045
25998
26007
26023
26008
26020
26005
26031
26041
26032
26068
26008
26040
26049
26064
26092
26069
26091
26098
26111
26138
26191
26213
26218
26269
26308
26352
26370
26423
26453
26471
26518
26548
26552
26584
26601
26625
26633
26626
26623
26631
26629
26610
26616
26600
26590
26588
26583
26595
26569
26562
26534
26534
26515
26523
26525
26513
26493
26497
26509
26521
26491
26460
26458
26457
26457
26446
26451
26436
26437
26432
26406
26411
26405
26378
26423
26357
26381
26367
26368
26365
26360
26318
26334
26315
26326
26319
26309
26265
26276
26281
26266
26262
26228
26249
26212
26185
26187
26191
26173
26157
26184
26171
26150
26149
26145
26159
26130
26130
26122
26095
26104
26092
26116
26105
26087
26086
26055
26072
26045
26062
26038
26034
26008
25982
25985
25977
25995
25936
25939
25922
25916
25897
25889
25884
25849
25890
25879
25871
25878
25876
25891
25915
25890
25887
25901
25871
25889
25937
25924
25934
25954
25955
25992
26008
26046
26044
26070
26106
26156
26164
26224
26244
26298
26359
26399
26412
26447
26481
26496
26538
26526
26532
26560
26530
26543
26522
26519
26496
26495
26497
26496
26432
26488
26447
26444
26425
26430
26415
26408
26395
26380
26362
26365
26392
26349
26330
26329
26338
26325
26303
26316
26299
26306
26299
26313
26259
26284
26252
26261
26267
26238
26219
26204
26208
26180
26174
26169
26177
26149
26167
26131
26117
26127
26094
26093
26094
26070
26066
26061
26057
26038
26033
26020
26009
26010
25973
26003
26001
26010
26004
25994
25982
25966
25988
25973
25993
25961
25974
25960
25944
25927
25952
25957
25928
25952
25929
25926
25904
25894
25904
25876
25842
25868
25856
25832
25826
25819
25797
25790
25790
25819
25775
25788
25786
25785
25827
25774
25821
25815
25833
25804
25837
25859
25853
25878
25897
25908
25909
25963
25979
26021
26060
26067
26128
26151
26174
26210
26245
26304
26334
26365
26367
26368
26379
26398
26421
26420
26408
26390
26397
26401
26382
26371
26382
26356
26378
26326
26351
26332
26335
26325
26330
26300
26300
26292
26302
26282
26260
26282
26300
26239
26242
26259
26224
26216
26243
26217
26221
26189
26185
26181
26177
26183
26175
26147
26137
26136
26151
26108
26111
26101
26089
26049
26096
26054
26071
26041
26051
26046
26012
26056
25998
26015
26001
25980
25978
25975
25962
25972
25929
25938
25919
25929
25926
25929
25919
25916
25913
25890
25896
25878
25909
25870
25869
25872
25887
25878
25839
25853
25847
25841
25835
25770
25801
25761
25772
25763
25748
25723
25685
25712
25672
25690
25708
25657
25644
25677
25681
25670
25670
25687
25673
25669
25690
25709
25688
25722
25694
25748
25729
25751
25741
25783
25799
25806
25837
25870
25895
25934
25935
25978
26037
26098
26089
26142
26182
26219
26236
26255
26309
26326
26320
26322
26332
26318
26352
26311
26323
26298
26308
26268
26319
26287
26276
26252
26247
26237
26255
26270
26215
26212
26216
26212
26215
26193
26173
26192
26199
26155
26164
26177
26192
26162
26130
26143
26135
26125
26102
26120
26121
26110
26091
26081
26086
26072
26081
26059
26036
26039
26044
26022
26027
26028
26005
25996
25991
25984
25989
25967
25944
25963
25944
25947
25923
25913
25905
25905
25890
25892
25889
25870
25850
25883
25835
25887
25865
25827
25833
25834
25806
25837
25823
25813
25825
25808
25786
25777
25763
25760
25751
25733
25693
25675
25690
25688
25660
25648
25632
25633
25623
25591
25611
25600
25625
25621
25606
25613
25629
25615
25650
25648
25681
25676
25701
25704
25712
25713
25739
25758
25781
25785
25818
25818
25880
25921
25958
25973
26007
26051
26092
26138
26189
26214
26228
26263
26301
26293
26309
26327
26330
26337
26308
26308
26342
26303
26313
26289
26279
26290
26279
26277
26278
26264
26253
26233
26263
26221
26205
26206
26244
26203
26207
26188
26186
26177
26221
26172
26157
26181
26196
26181
26159
26161
26168
26167
26124
26115
26117
26131
26116
26107
26062
26088
26058
26054
26061
26032
25999
26025
25996
25988
25996
25976
25949
25961
25930
25947
25939
25913
25922
25941
25895
25917
25892
25878
25890
25850
25886
25903
25886
25869
25879
25846
25869
25848
25847
25857
25832
25844
25833
25795
25809
25781
25782
25771
25736
25749
25726
25732
25704
25707
25684
25679
25693
25637
25679
25668
25700
25691
25710
25723
25729
25725
25726
25733
25743
25780
25807
25782
25800
25833
25829
25889
25877
25954
25967
26001
26034
26066
26092
26159
26192
26254
26278
26318
26322
26387
26381
26425
26411
26413
26450
26418
26426
26397
26382
26356
26344
26354
26349
26347
26365
26340
26318
26307
26305
26281
26291
26313
26279
26264
26269
26248
26255
26258
26229
26231
26239
26222
26233
26211
26193
26209
26193
26203
26189
26174
26159
26173
26192
26169
26121
26125
26146
26119
26122
26094
26085
26068
26092
26076
26080
26061
26060
26033
26019
26045
26012
25992
25964
25998
25968
25966
25970
25948
25942
25926
25922
25959
25918
25905
25915
25928
25896
25905
25896
25907
25904
25891
25868
25871
25865
25854
25866
25836
25819
25816
25801
25769
25755
25742
25716
25722
25702
25704
25682
25688
25662
25630
25648
25643
25630
25642
25672
25669
25681
25675
25699
25689
25722
25725
25736
25736
25712
25794
25793
25790
25811
25849
25877
25905
25962
25984
25999
26069
26111
26137
26219
26221
26293
26313
26319
26369
26409
26398
26433
26412
26424
26431
26393
26394
26393
26390
26391
26366
26348
26365
26345
26312
26324
26330
26313
26307
26283
26293
26291
26277
26271
26243
26258
26231
26232
26217
26216
26215
26220
26215
26193
26199
26186
26155
26152
26149
26204
26147
26144
26143
26140
26110
26101
26122
26111
26092
26090
26103
26095
26078
26073
26062
26036
26072
26042
26036
26037
26003
26027
26027
25988
25971
25985
25940
25929
25942
25957
25950
25959
25902
25909
25925
25939
25924
25912
25927
25929
25919
25924
25888
25901
25918
25909
25895
25878
25899
25877
25872
25845
25824
25814
25803
25797
25798
25783
25748
25757
25739
25705
25735
25709
25675
25699
25674
25705
25679
25695
25703
25709
25730
25741
25745
25768
25768
25796
25829
25827
25821
25843
25857
25888
25921
25931
25968
25973
26043
26074
26127
26148
26199
26206
26279
26293
26344
26372
26405
26404
26413
26440
26441
26454
26444
26452
26437
26413
26437
26422
26424
26419
26384
26410
26412
26410
26399
26394
26387
26397
26371
26393
26394
26397
26415
26381
26372
26381
26396
26391
26369
26378
26377
26370
26382
26354
26350
26335
26357
26330
26342
26333
26322
26312
26304
26317
26340
26326
26319
26306
26275
26288
26264
26279
26284
26277
26280
26256
26248
26233
26248
26245
26248
26213
26217
26231
26210
26202
26206
26174
26191
26176
26185
26174
26179
26170
26196
26183
26179
26188
26177
26155
26215
26179
26183
26175
26173
26173
26173
26163
26124
26114
26112
26121
26076
26094
26074
26067
26044
26033
26076
26027
26039
26053
26047
26070
26044
26096
26077
26113
26113
26118
26143
26153
26148
26161
26200
26220
26201
26260
26274
26313
26326
26342
26347
26423
26462
26501
26553
26583
26646
26689
26736
26783
26829
26876
26924
26932
26948
26953
26966
27011
26951
26978
26962
26954
26992
26983
26979
26949
26934
26951
26962
26938
26933
26913
26911
26927
26900
26913
26917
26908
26910
26878
26871
26884
26849
26846
26829
26819
26851
26815
26818
26851
26802
26821
26778
26788
26792
26757
26764
26765
26765
26743
26728
26712
26722
26696
26718
26696
26706
26661
26662
26664
26649
26653
26631
26652
26643
26608
26591
26625
26595
26604
26583
26585
26578
26566
26557
26587
26559
26587
26552
26553
26557
26543
26534
26545
26557
26551
26533
26562
26551
26541
26548
26533
26505
26496
26520
26477
26503
26509
26479
26457
26477
26423
26432
26403
26413
26410
26400
26381
26369
26391
26359
26375
26347
26380
26397
26409
26399
26386
26402
26417
26429
26429
26413
26446
26485
26526
26536
26541
26579
26601
26655
26656
26702
26757
26799
26810
26904
26922
26932
27013
27035
27026
27086
27072
27045
27100
27107
27077
27060
27052
27074
27084
27070
27073
27050
27037
27045
27020
27019
27009
26996
27039
27002
26970
27003
26978
26988
26959
26973
26986
26957
26948
26938
26954
26945
26929
26928
26948
26902
26915
26893
26891
26889
26875
26901
26882
26889
26860
26862
26861
26850
26845
26829
26812
26806
26814
26793
26817
26799
26769
26773
26777
26737
26784
26744
26750
26753
26715
26702
26718
26709
26689
26690
26736
26662
26681
26685
26671
26686
26701
26652
26686
26672
26690
26669
26698
26671
26659
26680
26673
26655
26670
26638
26666
26632
26616
26592
26573
26578
26582
26544
26555
26545
26507
26521
26545
26499
26494
26538
26545
26528
26511
26508
26547
26548
26548
26554
26561
26591
26601
26587
26620
26612
26657
26681
26688
26720
26718
26773
26812
26830
26885
26909
26971
27014
27043
27102
27132
27144
27188
27214
27234
27229
27260
27247
27243
27249
27272
27268
27248
27238
27242
27213
27213
27206
27192
27193
27188
27193
27157
27176
27142
27171
27165
27129
27135
27140
27118
27120
27119
27090
27094
27106
27111
27089
27066
27060
27098
27056
27043
27056
27056
27052
27024
27015
27038
27024
27010
26971
26977
26979
26985
26958
26945
26950
26963
26975
26946
26936
26947
26925
26900
26939
26901
26903
26875
26862
26890
26868
26866
26855
26823
26863
26868
26816
26840
26812
26828
26824
26804
26807
26826
26801
26780
26800
26785
26812
26808
26781
26786
26772
26796
26776
26748
26763
26771
26760
26727
26726
26718
26701
26687
26654
26667
26644
26647
26644
26609
26602
26602
26615
26651
26635
26612
26610
26612
26646
26637
26682
26650
26663
26672
26696
26695
26708
26732
26768
26794
26808
26846
26826
26875
26930
26961
26979
27058
27086
27124
27185
27197
27242
27255
27304
27325
27352
27357
27339
27369
27391
27415
27345
27357
27372
27356
27341
27333
27339
27299
27328
27284
27298
27286
27296
27277
27307
27260
27263
27234
27248
27253
27233
27235
27234
27197
27218
27193
27217
27192
27167
27150
27169
27169
27163
27163
27178
27153
27096
27128
27157
27123
27091
27104
27055
27068
27052
27057
27041
27073
27057
27053
27026
27016
26985
27028
27030
27002
27022
26968
26971
26953
26948
26957
26933
26944
26925
26919
26929
26911
26889
26881
26904
26894
26873
26869
26870
26847
26912
26869
26889
26878
26839
26842
26847
26858
26845
26831
26855
26855
26810
26825
26813
26776
26783
26766
26740
26739
26745
26737
26716
26710
26709
26697
26697
26690
26682
26683
26711
26716
26731
26717
26719
26706
26728
26752
26757
26759
26795
26787
26792
26843
26861
26883
26895
26920
26959
26986
27021
27083
27118
27182
27163
27251
27274
27297
27321
27384
27371
27384
27386
27411
27410
27377
27382
27399
27357
27351
27355
27349
27341
27336
27317
27306
27312
27326
27326
27301
27318
27273
27273
27274
27279
27252
27255
27233
27218
27227
27232
27228
27205
27183
27189
27167
27179
27192
27203
27182
27183
27165
27153
27149
27150
27129
27136
27124
27100
27111
27109
27109
27082
27093
27079
27071
27066
27056
27063
27014
27018
27043
27008
27016
27007
27005
27004
27007
27001
26964
26982
26984
26997
26981
26958
26941
26956
26967
26936
26959
26957
26939
26960
26960
26956
26948
26950
26927
26918
26927
26910
26908
26903
26882
26874
26911
26876
26837
26847
26815
26800
26815
26796
26807
26792
26833
26811
26796
26800
26785
26829
26790
26800
26852
26825
26834
26853
26830
26872
26893
26901
26915
26924
26955
26962
26976
27010
27073
27087
27125
27172
27213
27257
27292
27351
27384
27401
27405
27471
27499
27505
27533
27549
27535
27541
27556
27527
27542
27502
27515
27514
27491
27466
27493
27485
27480
27468
27479
27457
27435
27432
27447
27424
27422
27427
27413
27426
27396
27419
27392
27381
27363
27371
27374
27349
27337
27342
27341
27322
27332
27316
27319
27311
27301
27299
27259
27275
27268
27261
27245
27250
27240
27225
27239
27230
27202
27209
27180
27180
27174
27179
27158
27165
27134
27125
27131
27118
27117
27104
27084
27080
27089
27059
27082
27037
27072
27021
27047
27044
27014
27012
27014
27012
26999
27016
27012
26997
26997
26967
26984
26965
26959
26945
26959
26957
26943
26934
26942
26930
26884
26887
26860
26869
26847
26854
26840
26804
26811
26793
26810
26787
26801
26798
26798
26804
26810
26820
26825
26829
26816
26857
26865
26868
26895
26873
26874
26911
26925
26945
26952
26963
26990
27027
27067
27132
27109
27173
27205
27206
27288
27321
27385
27432
27446
27473
27506
27517
27518
27503
27512
27547
27545
27540
27541
27514
27528
27541
27498
27516
27493
27500
27495
27479
27483
27475
27455
27450
27427
27430
27412
27423
27389
27418
27415
27394
27393
27398
27374
27370
27354
27360
27377
27354
27318
27307
27316
27333
27334
27296
27280
27291
27292
27301
27288
27266
27265
27255
27235
27237
27207
27224
27209
27185
27211
27213
27202
27174
27165
27158
27153
27149
27157
27164
27142
27120
27139
27092
27115
27113
27084
27101
27096
27074
27084
27068
27042
27031
27054
27077
27039
27059
27053
27023
27024
27034
27024
27031
26996
27014
27023
26989
26997
26991
26982
26932
26943
26948
26932
26901
26860
26870
26888
26876
26856
26868
26868
26850
26856
26855
26893
26888
26858
26870
26896
26888
26935
26949
26926
26935
26957
27006
26991
27001
27029
27033
27077
27112
27144
27170
27200
27231
27278
27316
27342
27413
27437
27461
27511
27543
27566
27573
27594
27612
27627
27615
27640
27648
27621
27625
27603
27593
27571
27569
27601
27589
27565
27550
27553
27550
27547
27559
27547
27539
27517
27515
27490
27479
27507
27494
27492
27460
27455
27457
27460
27472
27450
27437
27427
27451
27416
27410
27380
27383
27381
27393
27379
27374
27369
27370
27339
27350
27342
27345
27321
27296
27312
27294
27288
27287
27261
27272
27290
27281
27263
27241
27229
27240
27224
27210
27211
27177
27178
27166
27149
27166
27173
27152
27151
27146
27132
27175
27130
27134
27141
27156
27145
27133
27134
27125
27136
27112
27104
27109
27101
27091
27072
27092
27066
27061
27067
27025
27020
27025
27012
26991
26967
26954
26964
26970
26954
26965
26977
26951
26958
26959
26972
26957
26963
26955
26984
26982
27020
27009
27006
27055
27028
27063
27082
27106
27148
27165
27164
27225
27276
27306
27338
27374
27423
27465
27468
27514
27511
27544
27543
27566
27618
27585
27568
27594
27573
27549
27576
27572
27549
27551
27555
27554
27532
27533
27500
27503
27513
27492
27498
27468
27482
27457
27464
27438
27443
27449
27453
27427
27417
27428
27423
27395
27393
27395
27390
27385
27371
27399
27361
27369
27368
27344
27353
27350
27359
27333
27329
27278
27313
27308
27276
27300
27270
27253
27240
27274
27242
27233
27234
27240
27261
27233
27198
27213
27201
27214
27185
27168
27170
27164
27140
27171
27135
27136
27142
27145
27148
27144
27160
27152
27168
27105
27143
27099
27157
27124
27117
27110
27120
27095
27112
27101
27059
27096
27062
27029
27035
27020
26991
26999
26997
27001
26971
26990
26975
26981
26977
26976
26959
26996
26989
27027
27002
27025
27031
27062
27050
27074
27068
27096
27086
27122
27184
27174
27178
27231
27277
27304
27344
27352
27415
27453
27501
27508
27584
27584
27601
27669
27684
27704
27704
27712
27709
27718
27701
27707
27691
27701
27709
27703
27670
27696
27693
27655
27634
27656
27673
27633
27634
27621
27592
27608
27601
27616
27591
27562
27576
27552
27563
27590
27538
27529
27544
27517
27521
27526
27522
27483
27504
27467
27502
27463
27491
27445
27457
27430
27441
27394
27432
27412
27396
27374
27389
27382
27382
27359
27357
27333
27350
27316
27341
27304
27301
27294
27297
27252
27259
27266
27261
27261
27234
27242
27227
27204
27224
27217
27223
27220
27198
27203
27188
27190
27207
27189
27184
27177
27174
27182
27156
27188
27183
27164
27158
27162
27149
27154
27141
27136
27132
27120
27100
27081
27058
27066
27061
27060
27038
27030
27029
27025
27046
27014
27040
27045
27037
27043
27074
27088
27075
27091
27100
27111
27127
27148
27165
27188
27207
27215
27212
27257
27291
27320
27364
27390
27415
27460
27502
27522
27554
27605
27630
27645
27682
27736
27759
27765
27764
27766
27776
27795
27770
27769
27763
27760
27779
27744
27700
27713
27741
27697
27700
27687
27714
27693
27664
27668
27667
27662
27645
27663
27621
27626
27607
27619
27621
27608
27557
27567
27588
27558
27555
27564
27569
27537
27522
27510
27539
27514
27518
27485
27499
27482
27461
27468
27456
27439
27429
27431
27418
27427
27404
27387
27412
27387
27366
27363
27339
27354
27357
27305
27309
27340
27324
27318
27304
27282
27292
27252
27274
27267
27277
27248
27230
27261
27194
27222
27242
27222
27214
27207
27214
27208
27222
27206
27196
27192
27203
27186
27159
27149
27156
27146
27138
27123
27062
27083
27062
27053
27046
27039
27043
27039
27066
27019
27051
27031
27016
27060
27048
27060
27052
27074
27071
27068
27100
27110
27121
27139
27134
27144
27163
27201
27238
27223
27298
27305
27315
27386
27393
27445
27502
27505
27524
27590
27608
27667
27625
27687
27691
27728
27747
27740
27746
27697
27708
27718
27736
27714
27703
27712
27683
27670
27699
27663
27631
27659
27648
27647
27643
27649
27627
27610
27628
27601
27583
27594
27554
27564
27567
27566
27560
27542
27565
27541
27524
27520
27529
27531
27502
27513
27481
27513
27484
27496
27480
27432
27448
27428
27446
27425
27411
27407
27409
27404
27388
27403
27395
27366
27368
27377
27345
27336
27360
27341
27316
27316
27296
27301
27290
27279
27269
27257
27239
27265
27257
27234
27244
27221
27258
27220
27237
27236
27231
27215
27187
27216
27196
27196
27198
27184
27153
27152
27168
27147
27151
27138
27139
27088
27106
27100
27073
27048
27030
27038
27023
27037
27024
27034
27033
27034
27017
27044
27070
27067
27057
27091
27083
27087
27109
27122
27154
27168
27170
27206
27219
27243
27258
27306
27320
27365
27418
27430
27475
27518
27559
27595
27600
27625
27654
27680
27688
27688
27705
27710
27715
27702
27719
27694
27698
27646
27667
27667
27649
27664
27664
27652
27655
27647
27637
27618
27618
27643
27592
27599
27601
27580
27594
27601
27573
27555
27570
27579
27564
27545
27564
27533
27531
27515
27521
27543
27521
27503
27506
27478
27482
27460
27456
27479
27480
27462
27426
27452
27410
27411
27417
27390
27400
27366
27369
27360
27344
27333
27364
27360
27296
27328
27322
27300
27316
27302
27298
27297
27286
27289
27277
27271
27269
27263
27264
27231
27250
27242
27212
27250
27215
27227
27217
27219
27216
27215
27205
27168
27174
27141
27163
27157
27149
27133
27099
27110
27080
27078
27075
27057
27058
27050
27045
27035
26995
27058
27063
27059
27031
27060
27069
27072
27095
27106
27088
27112
27128
27131
27135
27178
27187
27207
27244
27265
27273
27329
27341
27386
27424
27458
27503
27503
27561
27565
27644
27654
27700
27710
27719
27731
27723
27769
27734
27744
27743
27732
27758
27725
27753
27723
27730
27687
27678
27702
27689
27692
27698
27661
27644
27640
27622
27604
27631
27623
27599
27591
27611
27580
27561
27568
27561
27576
27541
27565
27553
27539
27515
27554
27507
27516
27509
27529
27493
27451
27478
27462
27469
27447
27459
27468
27408
27431
27422
27404
27379
27394
27393
27391
27351
27355
27338
27336
27317
27330
27334
27294
27321
27288
27276
27276
27258
27267
27261
27267
27247
27254
27243
27229
27217
27225
27212
27212
27240
27212
27198
27185
27206
27175
27194
27181
27201
27172
27164
27159
27176
27142
27136
27101
27096
27096
27082
27065
27051
27036
27043
27011
27019
27029
27025
27040
27013
27018
27027
27047
27065
27080
27073
27079
27096
27112
27134
27142
27146
27158
27151
27186
27212
27217
27276
27276
27335
27360
27355
27415
27459
27501
27511
27585
27573
27632
27671
27676
27704
27708
27725
27740
27714
27740
27728
27718
27748
27737
27717
27738
27725
27691
27703
27703
27677
27676
27652
27659
27648
27645
27628
27634
27617
27605
27621
27598
27611
27578
27604
27562
27580
27560
27561
27563
27550
27539
27537
27535
27524
27526
27531
27502
27514
27474
27495
27472
27451
27463
27444
27460
27458
27439
27422
27425
27429
27424
27418
27388
27369
27390
27366
27343
27347
27369
27334
27348
27328
27334
27292
27302
27319
27291
27281
27302
27280
27271
27287
27261
27246
27262
27255
27272
27240
27245
27220
27232
27237
27211
27218
27232
27177
27193
27168
27167
27167
27177
27142
27126
27132
27099
27116
27111
27095
27095
27061
27077
27081
27083
27059
27092
27089
27078
27080
27117
27138
27157
27141
27141
27128
27159
27199
27205
27232
27259
27272
27281
27295
27313
27371
27417
27428
27473
27486
27510
27544
27582
27623
27643
27671
27716
27689
27739
27696
27722
27714
27739
27735
27746
27710
27696
27724
27688
27677
27671
27696
27646
27658
27654
27650
27620
27624
27643
27596
27599
27607
27589
27577
27618
27579
27579
27567
27560
27528
27563
27531
27562
27514
27506
27520
27520
27505
27489
27494
27482
27483
27451
27493
27451
27446
27434
27474
27410
27401
27420
27378
27393
27370
27366
27392
27387
27361
27377
27335
27335
27315
27323
27349
27305
27323
27319
27299
27281
27286
27288
27288
27295
27306
27301
27294
27267
27291
27281
27283
27276
27275
27257
27281
27264
27218
27237
27249
27225
27229
27220
27179
27138
27157
27152
27155
27162
27138
27134
27142
27133
27156
27118
27161
27150
27146
27158
27196
27163
27215
27217
27228
27236
27269
27270
27287
27327
27320
27345
27377
27414
27433
27470
27470
27531
27556
27591
27640
27674
27671
27698
27721
27757
27775
27787
27778
27811
27799
27784
27763
27799
27814
27763
27759
27753
27751
27755
27739
27763
27729
27697
27712
27715
27707
27701
27705
27682
27683
27699
27664
27656
27680
27635
27644
27649
27664
27611
27602
27628
27585
27593
27586
27600
27564
27573
27571
27566
27536
27563
27513
27537
27510
27491
27495
27497
27515
27479
27503
27452
27487
27468
27446
27451
27432
27408
27404
27409
27411
27386
27375
27366
27367
27374
27357
27357
27373
27353
27346
27350
27341
27360
27321
27294
27305
27308
27315
27316
27288
27319
27321
27296
27313
27302
27302
27273
27266
27283
27246
27247
27233
27223
27218
27205
27187
27195
27177
27169
27141
27181
27154
27165
27127
27145
27177
27148
27165
27187
27182
27193
27208
27213
27218
27249
27256
27263
27294
27281
27287
27325
27335
27365
27407
27429
27451
27484
27521
27545
27555
27624
27671
27660
27714
27710
27710
27740
27749
27801
27823
27801
27803
27794
27798
27811
27786
27783
27783
27744
27765
27753
27738
27737
27732
27738
27716
27710
27736
27697
27723
27694
27699
27672
27689
27658
27658
27663
27661
27641
27622
27647
27631
27623
27604
27584
27618
27605
27594
27594
27585
27569
27578
27568
27516
27539
27534
27514
27493
27476
27504
27471
27496
27486
27458
27448
27471
27408
27421
27422
27418
27399
27399
27390
27402
27382
27406
27368
27347
27330
27365
27335
27317
27329
27314
27336
27315
27316
27302
27320
27284
27307
27279
27261
27258
27254
27256
27242
27241
27230
27216
27213
27192
27165
27138
27147
27188
27136
27119
27105
27130
27129
27138
27108
27093
27097
27112
27125
27107
27122
27134
27166
27142
27165
27183
27193
27209
27228
27258
27291
27306
27291
27304
27335
27349
27390
27435
27444
27475
27530
27524
27605
27602
27608
27647
27699
27722
27730
27720
27755
27746
27736
27702
27756
27749
27754
27740
27746
27730
27734
27695
27687
27709
27684
27669
27672
27666
27652
27647
27670
27651
27637
27626
27628
27617
27622
27636
27593
27567
27607
27575
27568
27572
27570
27523
27542
27555
27553
27537
27530
27527
27499
27496
27485
27510
27451
27444
27447
27459
27475
27457
27432
27434
27443
27418
27451
27438
27412
27382
27383
27361
27374
27360
27349
27347
27338
27352
27349
27353
27342
27331
27308
27317
27299
27320
27317
27302
27305
27301
27293
27311
27280
27282
27286
27272
27256
27263
27234
27258
27231
27207
27217
27219
27211
27201
27189
27165
27158
27178
27170
27140
27172
27197
27199
27178
27179
27218
27236
27207
27226
27243
27267
27281
27282
27344
27330
27344
27409
27409
27406
27456
27444
27482
27540
27555
27555
27598
27633
27665
27725
27728
27743
27760
27783
27814
27813
27813
27791
27796
27819
27813
27814
27802
27805
27782
27770
27778
27770
27764
27743
27757
27753
27746
27719
27743
27724
27696
27704
27726
27731
27684
27664
27656
27656
27679
27662
27665
27663
27643
27622
27636
27629
27613
27634
27621
27590
27614
27586
27583
27570
27566
27578
27553
27536
27570
27547
27528
27536
27516
27507
27487
27487
27479
27458
27462
27433
27464
27455
27418
27428
27439
27416
27452
27418
27383
27395
27382
27393
27393
27399
27354
27352
27384
27373
27388
27378
27376
27383
27369
27345
27370
27359
27329
27316
27340
27324
27314
27302
27291
27272
27263
27288
27261
27249
27244
27263
27251
27263
27264
27243
27243
27264
27271
27257
27284
27284
27307
27317
27299
27319
27331
27353
27360
27404
27400
27451
27462
27456
27491
27512
27565
27566
27604
27614
27669
27697
27714
27751
27770
27801
27823
27852
27866
27871
27863
27884
27892
27894
27898
27869
27860
27891
27873
27858
27887
27847
27866
27871
27822
27825
27836
27824
27797
27782
27796
27760
27810
27768
27750
27753
27764
27747
27737
27737
27736
27736
27731
27696
27696
27715
27700
27679
27690
27681
27666
27672
27656
27620
27637
27632
27623
27658
27618
27606
27595
27623
27573
27589
27575
27592
27557
27566
27551
27543
27524
27547
27509
27511
27501
27497
27464
27459
27491
27455
27460
27484
27466
27457
27440
27432
27438
27421
27443
27452
27423
27431
27415
27410
27406
27430
27418
27390
27403
27386
27358
27342
27362
27346
27335
27348
27295
27285
27319
27300
27302
27284
27294
27289
27287
27275
27301
27295
27288
27313
27296
27324
27331
27369
27379
27382
27399
27382
27423
27423
27432
27482
27485
27513
27531
27577
27597
27602
27637
27663
27706
27719
27743
27763
27807
27824
27870
27854
27872
27877
27884
27896
27870
27895
27871
27881
27867
27865
27868
27872
27879
27816
27835
27838
27797
27826
27784
27818
27810
27776
27800
27778
27777
27767
27755
27742
27763
27750
27712
27742
27728
27715
27701
27705
27709
27683
27674
27676
27635
27664
27665
27656
27620
27640
27636
27620
27596
27547
27579
27597
27582
27552
27547
27567
27575
27523
27519
27543
27527
27484
27514
27460
27483
27510
27484
27458
27467
27484
27492
27466
27466
27485
27459
27484
27467
27473
27461
27420
27426
27439
27448
27431
27408
27421
27412
27407
27396
27382
27370
27359
27389
27326
27331
27320
27324
27338
27354
27339
27323
27302
27308
27304
27348
27338
27314
27355
27321
27328
27342
27373
27380
27383
27404
27417
27426
27426
27454
27476
27505
27527
27518
27581
27582
27639
27651
27674
27707
27711
27744
27770
27774
27808
27835
27864
27857
27843
27855
27841
27815
27823
27807
27812
27823
27808
27798
27818
27812
27811
27765
27770
27756
27765
27774
27720
27732
27749
27741
27731
27726
27723
27715
27688
27684
27688
27657
27683
27650
27675
27642
27626
27622
27642
27607
27611
27615
27600
27586
27613
27579
27568
27579
27555
27544
27543
27551
27534
27547
27532
27521
27507
27480
27501
27479
27486
27474
27473
27479
27475
27471
27465
27465
27446
27446
27438
27450
27447
27448
27442
27443
27445
27426
27435
27431
27405
27456
27423
27416
27391
27385
27370
27384
27349
27353
27395
27342
27319
27319
27316
27315
27316
27309
27274
27322
27311
27293
27311
27293
27345
27313
27322
27353
27351
27367
27374
27377
27378
27431
27424
27446
27471
27471
27489
27476
27540
27556
27569
27620
27662
27688
27717
27731
27779
27802
27788
27829
27851
27857
27888
27871
27894
27906
27878
27901
27859
27860
27872
27881
27879
27842
27848
27848
27789
27811
27789
27814
27786
27776
27771
27767
27780
27758
27727
27764
27771
27748
27751
27716
27715
27713
27708
27703
27702
27693
27680
27674
27665
27683
27657
27657
27635
27625
27661
27630
27617
27611
27615
27597
27603
27594
27605
27595
27564
27571
27555
27552
27574
27540
27543
27518
27548
27479
27503
27513
27517
27491
27477
27508
27474
27475
27469
27466
27459
27434
27441
27432
27443
27450
27455
27432
27452
27432
27442
27433
27435
27420
27420
27433
27430
27407
27389
27388
27392
27383
27367
27361
27317
27344
27358
27315
27324
27327
27311
27330
27297
27295
27317
27307
27307
27324
27339
27347
27359
27350
27380
27386
27366
27415
27424
27453
27479
27466
27515
27539
27530
27587
27615
27645
27653
27673
27736
27753
27839
27791
27852
27871
27879
27938
27941
27929
27942
27926
27918
27957
27940
27956
27939
27939
27954
27929
27917
27905
27908
27895
27898
27866
27890
27877
27864
27852
27853
27839
27843
27857
27842
27833
27809
27828
27829
27820
27809
27798
27790
27779
27787
27767
27768
27780
27736
27727
27721
27736
27732
27725
27709
27704
27699
27699
27671
27653
27682
27654
27654
27626
27610
27633
27653
27624
27589
27617
27598
27600
27602
27568
27571
27568
27580
27555
27565
27548
27556
27542
27557
27525
27528
27552
27521
27535
27511
27538
27524
27519
27496
27516
27537
27511
27509
27498
27500
27472
27472
27481
27463
27468
27432
27434
27398
27417
27414
27409
27371
27397
27387
27390
27331
27344
27375
27352
27347
27381
27369
27382
27365
27383
27413
27426
27403
27445
27461
27452
27478
27475
27514
27517
27547
27561
27600
27626
27636
27664
27721
27726
27784
27807
27815
27871
27854
27907
27948
27944
27951
27989
27983
27985
28010
27999
28002
27992
27982
27985
28008
27966
27960
27952
27911
27942
27933
27971
27917
27906
27917
27929
27895
27921
27881
27910
27881
27862
27870
27858
27853
27839
27824
27822
27833
27812
27819
27822
27807
27809
27776
27784
27767
27753
27762
27752
27759
27765
27730
27744
27745
27729
27704
27692
27669
27713
27676
27684
27643
27664
27667
27649
27635
27640
27629
27599
27604
27619
27580
27586
27586
27574
27603
27556
27574
27538
27570
27543
27539
27533
27537
27521
27520
27522
27511
27514
27503
27519
27533
27501
27485
27488
27471
27495
27477
27479
27463
27430
27450
27451
27421
27398
27383
27375
27373
27363
27354
27359
27345
27356
27348
27374
27359
27335
27342
27350
27319
27364
27389
27386
27387
27419
27434
27413
27439
27448
27473
27497
27507
27536
27571
27564
27596
27642
27646
27674
27733
27747
27761
27784
27816
27821
27839
27863
27891
27874
27893
27904
27898
27911
27861
27882
27845
27862
27865
27856
27844
27831
27847
27823
27847
27811
27824
27801
27788
27776
27795
27788
27757
27768
27770
27743
27737
27753
27741
27722
27728
27729
27710
27703
27735
27707
27685
27705
27681
27656
27700
27662
27701
27686
27653
27654
27662
27667
27629
27610
27648
27634
27601
27608
27619
27578
27608
27594
27575
27579
27558
27559
27532
27533
27524
27519
27532
27503
27507
27498
27521
27502
27517
27485
27499
27487
27442
27506
27484
27472
27472
27478
27479
27464
27452
27458
27453
27435
27451
27443
27433
27430
27438
27413
27434
27418
27430
27363
27386
27383
27389
27348
27337
27329
27323
27312
27315
27310
27314
27305
27312
27308
27315
27309
27326
27310
27305
27343
27340
27362
27359
27368
27387
27374
27416
27434
27437
27469
27497
27518
27533
27546
27576
27596
27628
27679
27662
27720
27742
27769
27815
27863
27853
27890
27870
27923
27912
27941
27915
27911
27899
27889
27891
27896
27896
27873
27868
27873
27855
27842
27844
27857
27845
27815
27840
27813
27843
27810
27783
27780
27815
27794
27765
27796
27797
27780
27756
27759
27719
27739
27736
27750
27716
27719
27696
27682
27722
27691
27707
27673
27668
27664
27674
27662
27651
27661
27622
27609
27610
27631
27637
27605
27613
27620
27603
27572
27568
27567
27586
27541
27554
27525
27543
27535
27504
27512
27529
27507
27508
27491
27489
27466
27455
27454
27447
27467
27456
27438
27430
27415
27414
27433
27439
27401
27392
27380
27417
27375
27389
27396
27414
27391
27377
27365
27335
27336
27344
27365
27337
27332
27332
27304
27341
27291
27285
27294
27292
27240
27263
27236
27256
27247
27248
27258
27244
27259
27260
27259
27280
27283
27318
27318
27332
27339
27333
27338
27401
27388
27399
27459
27442
27496
27498
27545
27564
27572
27612
27643
27664
27727
27769
27775
27776
27821
27824
27863
27871
27900
27905
27917
27944
27936
27910
27892
27925
27894
27924
27889
27905
27890
27906
27853
27851
27844
27848
27830
27834
27829
27841
27814
27784
27818
27791
27803
27794
27767
27763
27746
27770
27748
27724
27733
27721
27724
27728
27721
27694
27715
27688
27672
27673
27672
27666
27675
27639
27626
27634
27629
27639
27629
27629
27599
27587
27577
27581
27571
27588
27549
27528
27554
27540
27536
27526
27520
27521
27488
27447
27462
27462
27489
27466
27457
27426
27431
27425
27400
27413
27419
27370
27398
27392
27380
27367
27409
27375
27358
27350
27363
27348
27356
27349
27337
27357
27329
27343
27338
27308
27314
27316
27325
27296
27268
27280
27246
27265
27219
27230
27215
27214
27202
27172
27180
27184
27128
27175
27153
27164
27174
27164
27181
27164
27196
27212
27244
27231
27230
27239
27257
27299
27290
27313
27322
27323
27340
27388
27453
27436
27445
27496
27522
27573
27573
27612
27647
27696
27717
27708
27748
27758
27805
27795
27827
27836
27815
27855
27821
27814
27810
27783
27770
27795
27779
27774
27763
27747
27750
27750
27762
27741
27742
27729
27690
27680
27687
27685
27668
27656
27669
27655
27672
27644
27668
27625
27634
27608
27612
27620
27590
27587
27597
27551
27563
27576
27575
27571
27560
27543
27543
27504
27528
27527
27515
27495
27504
27493
27458
27485
27469
27473
27470
27445
27459
27439
27432
27424
27410
27415
27407
27398
27386
27382
27345
27355
27363
27325
27302
27311
27337
27315
27319
27309
27306
27309
27303
27305
27273
27276
27284
27272
27239
27261
27246
27234
27252
27260
27248
27253
27241
27227
27224
27211
27210
27192
27169
27198
27154
27162
27158
27122
27137
27143
27103
27113
27084
27113
27091
27118
27126
27119
27101
27130
27147
27143
27133
27170
27171
27181
27184
27222
27250
27275
27272
27270
27302
27327
27339
27385
27396
27453
27447
27493
27517
27546
27544
27594
27631
27660
27683
27727
27739
27741
27752
27790
27756
27788
27788
27765
27777
27774
27763
27782
27761
27749
27724
27745
27727
27716
27714
27693
27714
27688
27695
27650
27646
27652
27652
27641
27627
27623
27664
27599
27601
27598
27605
27595
27592
27566
27570
27589
27585
27561
27522
27557
27539
27515
27529
27529
27531
27510
27504
27484
27479
27457
27473
27438
27426
27435
27427
27431
27435
27405
27402
27361
27395
27366
27356
27360
27366
27356
27337
27350
27327
27315
27299
27308
27302
27273
27249
27274
27244
27252
27207
27223
27236
27235
27214
27225
27236
27209
27220
27220
27223
27186
27185
27197
27196
27179
27172
27177
27149
27180
27158
27167
27140
27139
27161
27115
27087
27095
27083
27074
27063
27064
27026
27036
27021
27021
26986
26995
26984
27007
27023
26991
27011
27007
27013
27031
27018
27032
27068
27082
27067
27089
27089
27120
27125
27134
27173
27191
27213
27237
27277
27278
27284
27328
27323
27389
27444
27446
27481
27513
27531
27578
27601
27596
27621
27628
27642
27645
27663
27645
27648
27643
27652
27648
27626
27641
27608
27637
27580
27588
27593
27587
27574
27567
27552
27543
27555
27537
27490
27518
27512
27506
27479
27487
27474
27481
27475
27476
27446
27441
27435
27414
27446
27418
27438
27407
27409
27395
27361
27397
27386
27354
27350
27330
27375
27349
27338
27329
27298
27317
27291
27252
27277
27275
27275
27227
27248
27261
27212
27190
27199
27222
27194
27168
27190
27163
27156
27164
27136
27132
27150
27113
27135
27109
27083
27105
27075
27070
27068
27057
27048
27042
27021
27034
27036
27028
27035
27031
27014
27019
27001
26983
27026
26991
26987
26989
26953
26955
26943
26948
26916
26908
26893
26864
26858
26841
26832
26826
26810
26800
26825
26820
26812
26827
26816
26818
26838
26821
26840
26856
26841
26868
26857
26892
26922
26932
26936
26958
26997
26988
27019
27014
27075
27093
27125
27160
27159
27179
27239
27268
27287
27309
27344
27390
27404
27423
27464
27434
27459
27453
27435
27446
27423
27445
27440
27435
27427
27424
27395
27405
27400
27364
27366
27382
27360
27372
27358
27333
27302
27324
27313
27300
27284
27280
27282
27257
27263
27247
27247
27233
27239
27232
27220
27222
27197
27186
27199
27212
27176
27156
27155
27178
27177
27136
27128
27106
27110
27105
27100
27059
27106
27100
27064
27075
27068
27048
27058
27021
27021
27009
27003
26982
27001
26979
26958
26958
26963
26907
26924
26922
26915
26910
26911
26885
26905
26891
26839
26860
26860
26877
26852
26845
26834
26806
26813
26810
26814
26800
26813
26803
26804
26766
26791
26764
26744
26766
26726
26730
26691
26663
26641
26634
26634
26608
26630
26591
26611
26575
26615
26579
26585
26589
26604
26593
26600
26595
26624
26617
26631
26645
26648
26689
26687
26685
26679
26721
26739
26771
26788
26836
26823
26865
26894
26899
26956
26980
26995
27020
27086
27127
27133
27160
27173
27208
27236
27212
27229
27222
27237
27235
27239
27237
27210
27211
27207
27203
27183
27191
27199
27188
27161
27198
27150
27131
27133
27149
27123
27106
27098
27087
27108
27070
27055
27071
27066
27045
27057
27036
27047
27022
27007
27001
27005
27019
26971
27001
26992
26962
26930
26981
26935
26940
26927
26903
26924
26888
26905
26894
26904
26889
26867
26880
26855
26837
26819
26820
26809
26790
26799
26798
26730
26738
26757
26756
26731
26716
26719
26713
26722
26690
26715
26688
26690
26681
26686
26682
26653
26668
26672
26677
26669
26640
26643
26638
26624
26622
26620
26599
26593
26574
26565
26553
26542
26534
26509
26495
26488
26448
26467
26456
26464
26467
26461
26476
26477
26471
26493
26508
26521
26503
26531
26554
26539
26545
26574
26601
26592
26613
26633
26643
26660
26706
26741
26787
26814
26826
26854
26920
26938
26963
27015
27037
27067
27091
27124
27140
27145
27119
27166
27170
27175
27125
27154
27161
27144
27148
27120
27136
27114
27080
27099
27098
27077
27091
27041
27056
27048
27042
27046
27028
27040
26995
27018
27008
27006
27000
26983
26985
26932
26969
26965
26979
26930
26916
26943
26919
26904
26906
26892
26893
26844
26893
26858
26820
26861
26827
26819
26817
26808
26815
26790
26777
26761
26788
26753
26742
26755
26733
26711
26706
26710
26705
26696
26695
26668
26711
26672
26673
26651
26664
26662
26663
26644
26659
26624
26614
26627
26634
26614
26623
26625
26586
26584
26593
26600
26595
26556
26554
26550
26551
26511
26530
26509
26483
26468
26461
26430
26448
26461
26420
26413
26422
26407
26422
26436
26459
26473
26470
26493
26473
26497
26489
26517
26546
26565
26556
26581
26608
26641
26632
26670
26686
26691
26743
26774
26809
26850
26866
26930
26956
26967
27010
27046
27083
27093
27107
27137
27174
27192
27151
27166
27186
27155
27168
27176
27183
27149
27140
27124
27131
27136
27132
27107
27112
27097
27097
27095
27072
27081
27064
27075
27068
27075
27060
27032
27047
27048
27036
27031
27052
27016
27018
27006
27002
26987
26997
26997
26975
26983
26947
26968
26956
26948
26934
26960
26953
26912
26917
26913
26911
26910
26864
26912
26879
26863
26871
26859
26883
26863
26847
26859
26858
26822
26837
26824
26837
26799
26812
26808
26812
26816
26795
26810
26817
26813
26803
26783
26804
26790
26804
26799
26795
26793
26799
26757
26782
26755
26748
26785
26764
26739
26712
26708
26727
26690
26694
26692
26680
26670
26672
26661
26673
26694
26700
26742
26729
26719
26739
26753
26766
26773
26781
26832
26834
26833
26839
26873
26916
26931
26968
26984
27042
27054
27059
27107
27140
27167
27209
27228
27271
27269
27326
27373
27398
27370
27398
27426
27441
27431
27461
27426
27433
27453
27435
27428
27432
27411
27401
27402
27387
27395
27387
27387
27380
27345
27327
27337
27311
27336
27305
27302
27317
27285
27259
27301
27288
27265
27267
27251
27239
27215
27220
27247
27245
27238
27215
27211
27212
27206
27174
27182
27151
27170
27161
27163
27149
27129
27129
27162
27131
27125
27118
27151
27103
27114
27117
27081
27100
27083
27063
27077
27050
27089
27073
27069
27067
27036
27077
27056
27060
27046
27023
27013
27012
27006
27018
27008
27016
27039
27015
26968
26991
27001
26979
26956
26968
26949
26952
26927
26919
26933
26958
26952
26937
26976
26956
26976
26980
27013
27029
27022
27040
27038
27093
27084
27104
27145
27144
27162
27197
27211
27244
27251
27261
27339
27332
27364
27395
27445
27441
27506
27526
27498
27543
27588
27590
27628
27645
27666
27700
27692
27701
27712
27716
27729
27737
27729
27732
27723
27697
27685
27681
27703
27679
27653
27670
27677
27633
27639
27656
27664
27649
27636
27634
27630
27649
27598
27586
27598
27624
27592
27585
27603
27588
27581
27582
27602
27576
27574
27547
27528
27550
27543
27543
27548
27540
27511
27518
27505
27502
27523
27473
27490
27503
27495
27503
27467
27479
27473
27472
27476
27455
27469
27436
27475
27448
27437
27446
27476
27452
27459
27455
27462
27444
27452
27444
27447
27446
27453
27447
27452
27448
27438
27463
27442
27464
27420
27446
27445
27403
27432
27419
27450
27432
27427
27426
27462
27465
27481
27499
27541
27552
27525
27526
27558
27549
27600
27590
27629
27627
27652
27659
27691
27678
27725
27730
27730
27775
27800
27819
27819
27868
27874
27901
27914
27939
27938
27949
27966
27971
27995
27988
27999
28006
27997
28001
27987
28005
27983
27970
27982
27991
27959
27955
27948
27944
27959
27979
27961
27953
27959
27937
27936
27941
27944
27959
27939
27934
27913
27912
27895
27921
27904
27881
27898
27898
27897
27904
27874
27882
27879
27872
27893
27847
27892
27866
27841
27867
27867
27836
27836
27835
27808
27852
27839
27825
27821
27839
27813
27822
27810
27811
27816
27802
27836
27818
27827
27817
27815
27791
27831
27829
27800
27809
27813
27804
27796
27807
27802
27787
27782
27791
27805
27790
27779
27781
27761
27795
27772
27758
27753
27781
27765
27787
27794
27793
27803
27833
27801
27803
27806
27849
27852
27840
27831
27845
27876
27885
27891
27903
27914
27920
27938
27965
27959
27978
28005
28002
28001
28057
28066
28071
28094
28100
28136
28156
28145
28149
28121
28157
28130
28175
28168
28122
28178
28150
28128
28123
28099
28108
28120
28120
28110
28100
28112
28088
28104
28093
28076
28070
28074
28088
28070
28077
28077
28068
28039
28076
28028
28032
28062
28022
27998
28030
28023
27989
27996
27981
28011
27957
28003
27986
27979
27973
27977
27956
27970
27958
27917
27952
27940
27947
27952
27959
27895
27930
27934
27917
27926
27918
27890
27915
27895
27916
27888
27901
27896
27905
27871
27918
27917
27906
27889
27884
27892
27889
27863
27885
27871
27872
27868
27874
27856
27854
27865
27881
27854
27851
27854
27830
27851
27841
27845
27857
27854
27843
27834
27837
27849
27874
27850
27889
27877
27863
27874
27892
27895
27886
27883
27916
27930
27929
27938
27942
27975
27955
27970
28007
28019
28034
28034
28043
28062
28080
28077
28091
28120
28096
28124
28091
28112
28100
28113
28091
28097
28093
28090
28100
28077
28064
28066
28053
28063
28037
28070
28054
28015
28045
28024
28001
28027
28008
27981
28010
27996
27981
27997
27918
27967
27932
27955
27928
27908
27922
27912
27911
27896
27897
27923
27885
27882
27905
27853
27883
27888
27866
27860
27866
27862
27849
27807
27868
27831
27820
27786
27833
27811
27826
27822
27774
27778
27819
27786
27791
27795
27770
27756
27762
27785
27760
27773
27768
27770
27762
27761
27775
27755
27743
27787
27765
27761
27739
27764
27759
27737
27741
27725
27704
27719
27735
27726
27729
27718
27718
27693
27714
27700
27687
27724
27703
27686
27707
27709
27699
27741
27721
27705
27737
27727
27730
27749
27756
27748
27748
27763
27787
27780
27803
27823
27816
27848
27862
27865
27865
27883
27889
27914
27894
27933
27907
27926
27943
27894
27917
27925
27900
27903
27882
27877
27900
27854
27838
27858
27824
27847
27837
27828
27800
27809
27813
27788
27780
27800
27757
27764
27754
27744
27743
27737
27749
27745
27724
27708
27728
27727
27711
27709
27690
27671
27662
27691
27679
27654
27639
27635
27645
27652
27633
27636
27652
27640
27624
27611
27573
27600
27575
27565
27570
27571
27566
27555
27562
27542
27563
27531
27526
27518
27529
27527
27509
27490
27517
27526
27537
27497
27509
27484
27493
27492
27479
27507
27510
27480
27496
27488
27513
27448
27462
27463
27453
27456
27458
27465
27439
27441
27453
27426
27419
27424
27425
27434
27451
27442
27445
27457
27443
27429
27461
27476
27478
27462
27497
27469
27501
27491
27529
27536
27562
27576
27580
27597
27597
27604
27624
27647
27652
27665
27665
27667
27709
27688
27686
27664
27679
27679
27659
27665
27650
27651
27644
27622
27604
27588
27604
27605
27573
27566
27574
27553
27557
27546
27527
27533
27509
27506
27496
27507
27482
27489
27484
27455
27441
27428
27442
27462
27396
27401
27411
27420
27415
27382
27369
27375
27371
27366
27345
27351
27322
27328
27327
27315
27297
27269
27308
27274
27274
27270
27205
27228
27227
27233
27244
27223
27176
27199
27173
27147
27184
27163
27143
27162
27143
27115
27109
27138
27113
27086
27095
27083
27073
27093
27072
27032
27038
27047
27023
27034
26994
27033
26987
26980
26972
26954
26950
26945
26919
26926
26902
26924
26918
26876
26892
26898
26876
26889
26869
26870
26888
26913
26871
26913
26884
26889
26928
26942
26962
26955
26957
26992
27004
27016
27037
27071
27060
27071
27108
27115
27126
27148
27160
27129
27162
27138
27167
27161
27126
27162
27117
27144
27123
27097
27105
27065
27077
27091
27026
27038
27029
27025
27015
26984
26991
26975
26971
26967
26983
26960
26948
26947
26912
26947
26899
26916
26888
26871
26888
26887
26852
26863
26853
26850
26831
26829
26783
26806
26813
26788
26788
26804
26759
26734
26726
26730
26727
26704
26707
26719
26693
26689
26688
26669
26676
26678
26657
26646
26657
26641
26638
26626
26650
26609
26615
26612
26606
26600
26589
26580
26575
26608
26585
26596
26591
26589
26563
26585
26539
26563
26548
26543
26515
26518
26517
26529
26504
26478
26479
26454
26469
26453
26469
26447
26419
26430
26437
26438
26420
26450
26445
26424
26444
26403
26433
26455
26465
26452
26480
26478
26486
26496
26514
26541
26555
26571
26613
26641
26640
26689
26698
26731
26757
26791
26817
26819
26842
26860
26917
26892
26873
26889
26878
26907
26877
26880
26865
26878
26867
26823
26823
26849
26833
26826
26820
26816
26830
26804
26783
26795
26790
26784
26769
26761
26732
26767
26765
26750
26724
26719
26700
26702
26677
26674
26703
26675
26642
26640
26617
26650
26623
26607
26608
26592
26570
26608
26587
26570
26549
26525
26548
26516
26513
26503
26486
26494
26470
26482
26449
26464
26454
26496
26452
26432
26466
26451
26439
26415
26433
26430
26426
26447
26437
26443
26450
26458
26413
26422
26420
26426
26424
26422
26394
26414
26391
26407
26398
26377
26359
26355
26371
26343
26318
26307
26311
26297
26269
26291
26284
26300
26291
26310
26294
26285
26305
26277
26292
26302
26295
26284
26319
26297
26339
26325
26326
26351
26391
26410
26431
26442
26495
26478
26555
26563
26588
26643
26664
26720
26700
26736
26761
26775
26806
26820
26836
26830
26844
26849
26823
26820
26820
26814
26806
26794
26784
26785
26804
26819
26801
26781
26776
26757
26754
26739
26758
26749
26749
26733
26731
26727
26688
26709
26705
26715
26716
26695
26659
26685
26668
26698
26629
26636
26633
26595
26590
26625
26599
26594
26608
26583
26554
26559
26556
26553
26567
26564
26517
26539
26511
26510
26487
26495
26495
26462
26462
26455
26459
26461
26430
26459
26432
26432
26445
26455
26476
26411
26401
26453
26453
26405
26421
26433
26407
26405
26405
26397
26384
26364
26363
26332
26324
26325
26327
26316
26294
26274
26272
26261
26260
26252
26235
26252
26227
26245
26236
26243
26225
26240
26263
26241
26260
26280
26253
26290
26272
26305
26286
26312
26368
26365
26414
26426
26428
26450
26491
26508
26549
26591
26582
26667
26644
26655
26681
26707
26715
26719
26702
26721
26695
26709
26681
26694
26687
26650
26633
26627
26644
26613
26638
26605
26600
26600
26606
26578
26575
26567
26581
26577
26552
26544
26557
26525
26534
26528
26522
26549
26499
26521
26477
26505
26496
26492
26504
26483
26467
26466
26478
26461
26452
26470
26411
26460
26416
26419
26405
26446
26442
26421
26395
26404
26389
26402
26393
26402
26389
26387
26349
26365
26370
26324
26349
26348
26352
26344
26358
26380
26389
26384
26388
26394
26394
26381
26386
26409
26388
26392
26409
26384
26361
26362
26346
26314
26335
26292
26317
26311
26297
26271
26263
26285
26253
26266
26268
26284
26258
26265
26279
26290
26279
26302
26291
26307
26331
26362
26399
26383
26384
26417
26486
26482
26535
26561
26592
26620
26682
26703
26774
26804
26799
26857
26877
26879
26903
26900
26871
26902
26882
26907
26887
26871
26868
26886
26862
26847
26825
26791
26810
26786
26804
26792
26789
26746
26756
26734
26733
26704
26730
26707
26718
26716
26683
26663
26651
26633
26642
26640
26617
26622
26608
26579
26592
26562
26541
26546
26509
26519
26505
26486
26473
26447
26458
26419
26418
26422
26433
26390
26396
26386
26372
26356
26352
26330
26306
26319
26305
26275
26255
26256
26197
26219
26206
26191
26172
26154
26157
26190
26150
26143
26135
26084
26107
26129
26108
26106
26102
26090
26117
26080
26082
26090
26059
26042
26019
26048
26003
25993
25974
25981
25971
25943
25920
25934
25886
25893
25892
25864
25848
25817
25816
25804
25827
25819
25828
25826
25839
25805
25853
25853
25844
25861
25853
25867
25882
25868
25901
25908
25928
25952
25968
26010
26035
26082
26098
26129
26127
26220
26218
26291
26289
26347
26366
26416
26468
26489
26505
26522
26538
26535
26538
26548
26574
26528
26508
26509
26499
26498
26480
26475
26474
26451
26454
26474
26429
26430
26437
26428
26396
26398
26411
26393
26388
26369
26392
26361
26367
26365
26342
26311
26317
26341
26304
26325
26296
26310
26300
26280
26265
26288
26241
26242
26242
26241
26229
26220
26196
26208
26170
26193
26157
26173
26136
26163
26133
26105
26114
26148
26107
26112
26113
26090
26093
26077
26088
26080
26075
26045
26064
26052
26042
26043
26024
26042
26025
26016
26031
26021
26038
26005
26035
26034
26016
26010
26012
26008
26008
25989
25965
25965
25969
25957
25956
25919
25908
25897
25896
25890
25885
25850
25840
25856
25851
25865
25843
25825
25843
25853
25863
25878
25875
25890
25888
25893
25895
25942
25957
25966
25973
25983
26029
26045
26046
26090
26093
26158
26180
26223
26251
26297
26348
26388
26418
26471
26501
26503
26530
26556
26588
26603
26583
26596
26606
26599
26577
26576
26543
26572
26540
26525
26522
26531
26535
26507
26520
26511
26487
26488
26485
26444
26478
26480
26468
26468
26445
26467
26448
26447
26459
26431
26417
26417
26453
26449
26416
26427
26431
26420
26425
26445
26444
26393
26420
26425
26420
26428
26443
26456
26447
26443
26419
26445
26435
26393
26403
26416
26399
26408
26374
26393
26383
26372
26372
26383
26358
26311
26333
26335
26286
26333
26289
26342
26326
26330
26303
26307
26337
26343
26359
26357
26380
26377
26387
26362
26372
26363
26350
26371
26337
26326
26334
26346
26304
26334
26285
26280
26268
26291
26286
26253
26289
26269
26304
26319
26278
26281
26302
26314
26353
26328
26347
26336
26360
26391
26392
26421
26459
26444
26518
26523
26588
26627
26673
26716
26749
26773
26863
26884
26895
26941
26971
26977
27008
27008
27027
27027
27029
27002
26995
27016
27020
26990
26980
26967
26992
26946
26975
26960
26944
26929
26913
26922
26935
26887
26900
26894
26872
26874
26850
26843
26829
26834
26837
26846
26839
26802
26800
26788
26761
26793
26785
26771
26749
26770
26758
26769
26753
26763
26733
26713
26715
26678
26688
26658
26661
26664
26655
26652
26657
26631
26638
26589
26593
26595
26586
26544
26564
26577
26554
26501
26535
26535
26507
26496
26477
26489
26454
26469
26481
26436
26429
26454
26464
26455
26413
26416
26430
26457
26441
26406
26412
26440
26427
26423
26385
26415
26386
26369
26345
26336
26322
26311
26297
26274
26266
26254
26260
26226
26224
26200
26216
26213
26197
26197
26223
26215
26225
26264
26251
26258
26258
26263
26267
26322
26308
26317
26342
26352
26360
26414
26440
26471
26526
26530
26559
26604
26650
26697
26712
26761
26805
26842
26883
26894
26963
26969
27017
27031
27009
27055
27049
27041
27040
27058
27046
27048
26998
27016
27018
26998
26983
26965
26997
26988
26942
26973
26954
26954
26924
26942
26947
26912
26898
26904
26932
26893
26892
26885
26878
26871
26881
26886
26856
26862
26858
26848
26849
26838
26807
26822
26819
26773
26779
26777
26769
26758
26739
26746
26750
26741
26734
26708
26702
26701
26692
26670
26664
26662
26682
26658
26632
26611
26621
26632
26612
26621
26583
26585
26575
26567
26596
26552
26545
26558
26557
26537
26526
26515
26491
26517
26490
26518
26501
26496
26498
26492
26480
26498
26477
26467
26447
26467
26460
26419
26438
26429
26398
26389
26388
26389
26352
26319
26324
26318
26286
26309
26302
26312
26286
26296
26289
26268
26307
26315
26311
26291
26309
26320
26295
26332
26331
26359
26357
26396
26412
26417
26434
26436
26478
26502
26522
26540
26567
26609
26641
26687
26771
26783
26834
26862
26896
26910
26935
26966
27013
27024
27015
27014
27027
27029
27034
27012
27031
27000
26997
26978
26979
26975
26957
26958
26962
26928
26946
26918
26884
26890
26867
26902
26903
26863
26866
26873
26853
26822
26816
26856
26824
26808
26789
26800
26801
26757
26780
26775
26781
26767
26755
26722
26737
26745
26715
26685
26707
26683
26693
26685
26653
26655
26637
26627
26617
26621
26593
26599
26554
26574
26547
26544
26531
26527
26506
26519
26511
26510
26502
26530
26466
26481
26472
26500
26505
26522
26485
26496
26461
26478
26478
26505
26493
26467
26516
26482
26481
26493
26477
26483
26494
26491
26431
26450
26457
26430
26423
26405
26387
26383
26345
26375
26352
26328
26302
26324
26306
26296
26311
26312
26285
26300
26290
26312
26300
26290
26275
26335
26346
26326
26349
26359
26364
26391
26423
26437
26448
26505
26498
26543
26595
26620
26677
26712
26746
26781
26831
26882
26901
26910
26955
26965
26980
27004
26963
26970
26986
26965
26973
26939
26940
26936
26928
26933
26904
26893
26911
26863
26870
26881
26850
26801
26800
26827
26815
26812
26804
26793
26763
26768
26738
26750
26741
26742
26723
26715
26704
26713
26713
26703
26709
26703
26666
26664
26682
