50181
50220
50244
50253
50258
50245
50212
50165
50105
50034
49958
49892
49847
49829
49830
49835
49838
49842
49853
49868
49880
49878
49851
49818
49803
49791
49760
49724
49702
49679
49641
49593
49547
49521
49510
49498
49485
49475
49465
49443
49417
49402
49393
49374
49351
49336
49320
49306
49298
49287
49279
49283
49297
49307
49303
49289
49280
49294
49327
49371
49429
49496
49568
49638
49706
49781
49875
49984
50082
50153
50210
50264
50320
50380
50448
50516
50573
50619
50664
50711
50753
50782
50804
50819
50824
50820
50816
50817
50820
50815
50812
50817
50823
50824
50823
50822
50809
50784
50765
50753
50740
50721
50692
50656
50615
50568
50518
50468
50426
50396
50375
50357
50333
50311
50306
50316
50333
50349
50362
50378
50394
50406
50411
50405
50396
50393
50388
50372
50348
50325
50313
50297
50267
50234
50216
50205
50191
50177
50162
50138
50115
50106
50100
50083
50054
50014
49970
49926
49881
49841
49811
49782
49750
49728
49720
49714
49702
49684
49655
49620
49586
49564
49559
49555
49545
49530
49513
49504
49502
49503
49494
49474
49460
49458
49454
49441
49418
49389
49349
49304
49266
49240
49223
49214
49210
49214
49236
49270
49314
49366
49420
49490
49587
49691
49788
49881
49984
50094
50201
50307
50413
50514
50611
50699
50774
50831
50865
50881
50895
50924
50961
50991
51013
51022
51024
51023
51011
51002
51002
51001
50993
50976
50962
50959
50959
50957
50953
50945
50926
50894
50854
50815
50785
50751
50713
50686
50668
50642
50616
50604
50593
50575
50570
50580
50588
50600
50620
50638
50643
50643
50650
50657
50670
50691
50715
50736
50729
50695
50655
50621
50588
50550
50508
50468
50438
50415
50394
50378
50369
50363
50363
50371
50365
50342
50322
50308
50290
50268
50235
50185
50138
50122
50132
50144
50146
50133
50110
50085
50051
50008
49986
49988
49977
49951
49926
49897
49871
49849
49812
49760
49710
49679
49680
49701
49724
49736
49733
49720
49693
49665
49649
49632
49609
49586
49573
49580
49600
49636
49688
49738
49784
49841
49916
50004
50105
50214
50328
50447
50566
50671
50752
50811
50871
50945
51026
51097
51143
51170
51199
51232
51253
51269
51279
51281
51286
51292
51285
51269
51261
51249
51227
51202
51173
51134
51096
51069
51051
51032
51013
51005
51001
50980
50947
50919
50902
50890
50876
50865
50870
50879
50873
50844
50801
50756
50712
50678
50654
50632
50614
50611
50632
50665
50686
50699
50721
50747
50766
50775
50773
50771
50775
50770
50752
50734
50721
50716
50710
50681
50627
50572
50531
50499
50473
50450
50428
50402
50370
50345
50325
50298
50269
50246
50222
50206
50198
50189
50176
50156
50128
50089
50044
50008
49986
49971
49958
49945
49947
49954
49939
49906
49884
49875
49861
49831
49792
49741
49674
49604
49553
49516
49485
49462
49442
49414
49367
49316
49278
49252
49241
49251
49280
49306
49314
49317
49328
49354
49396
49464
49558
49653
49740
49830
49928
50039
50167
50302
50419
50503
50559
50615
50688
50758
50816
50879
50946
51005
51053
51089
51101
51093
51073
51046
51015
50983
50955
50925
50890
50863
50856
50867
50877
50873
50853
50822
50787
50757
50741
50717
50676
50643
50625
50597
50559
50533
50512
50484
50444
50398
50356
50321
50298
50288
50280
50280
50297
50323
50347
50364
50368
50370
50387
50406
50407
50405
50413
50417
50406
50379
50341
50303
50288
50292
50296
50290
50259
50210
50164
50132
50108
50077
50045
50033
50036
50043
50055
50065
50064
50050
50031
50009
49981
49952
49919
49886
49855
49825
49801
49775
49743
49705
49662
49622
49603
49597
49578
49537
49501
49490
49480
49448
49411
49386
49361
49339
49330
49313
49277
49230
49179
49138
49117
49110
49123
49158
49206
49259
49318
49394
49474
49541
49609
49689
49770
49841
49911
49996
50096
50201
50291
50362
50427
50487
50555
50624
50669
50695
50719
50724
50699
50661
50624
50597
50574
50548
50515
50482
50449
50409
50368
50331
50301
50273
50258
50262
50267
50258
50245
50233
50210
50167
50115
50067
50033
50022
50023
50014
49997
49975
49956
49941
49918
49893
49879
49881
49897
49912
49914
49899
49876
49858
49850
49859
49879
49895
49911
49936
49966
49986
49993
49994
49990
49977
49962
49940
49913
49895
49890
49890
49882
49858
49820
49777
49722
49661
49611
49576
49552
49533
49508
49474
49443
49430
49418
49400
49393
49390
49385
49387
49395
49397
49391
49373
49330
49271
49216
49171
49123
49068
49013
48968
48943
48935
48931
48927
48933
48969
49030
49095
49162
49229
49296
49372
49454
49540
49631
49707
49765
49822
49893
49978
50056
50125
50204
50291
50368
50427
50476
50520
50552
50568
50566
50561
50569
50573
50562
50551
50547
50545
50533
50503
50463
50427
50401
50386
50369
50337
50308
50300
50295
50275
50236
50186
50128
50072
50042
50030
50015
49995
49990
50000
50006
50003
49992
49971
49943
49915
49903
49910
49931
49952
49962
49954
49929
49900
49883
49886
49886
49871
49860
49859
49859
49851
49839
49829
49821
49810
49797
49784
49771
49762
49754
49738
49709
49664
49608
49549
49488
49430
49389
49363
49348
49350
49360
49365
49366
49353
49320
49283
49269
49277
49275
49259
49257
49271
49277
49258
49222
49179
49140
49105
49078
49067
49071
49070
49061
49051
49042
49036
49040
49066
49092
49111
49150
49220
49312
49405
49487
49566
49657
49756
49863
49970
50060
50142
50228
50310
50377
50429
50468
50494
50511
50524
50534
50542
50556
50574
50594
50612
50614
50595
50568
50543
50521
50504
50503
50513
50520
50519
50520
50521
50510
50494
50486
50474
50448
50419
50396
50373
50341
50302
50267
50241
50220
50196
50178
50168
50157
50154
50163
50175
50193
50214
50223
50212
50198
50199
50211
50223
50235
50238
50221
50191
50161
50131
50106
50092
50093
50109
50119
50113
50104
50089
50063
50038
50029
50033
50040
50039
50028
50014
49998
49971
49939
49905
49869
49830
49783
49735
49704
49688
49683
49692
49687
49657
49620
49589
49560
49546
49548
49544
49521
49489
49467
49453
49435
49423
49416
49399
49378
49367
49365
49366
49359
49334
49298
49256
49207
49167
49144
49137
49141
49159
49191
49228
49264
49306
49343
49384
49450
49543
49655
49773
49883
49986
50082
50171
50264
50371
50488
50598
50684
50739
50772
50803
50836
50865
50883
50874
50846
50826
50809
50792
50794
50816
50831
50827
50805
50770
50725
50675
50621
50572
50535
50504
50481
50468
50460
50460
50469
50479
50480
50468
50449
50430
50415
50411
50412
50404
50380
50340
50293
50246
50207
50182
50169
50171
50196
50241
50284
50307
50309
50300
50297
50305
50326
50359
50386
50394
50387
50372
50344
50310
50270
50227
50197
50165
50120
50077
50035
49988
49946
49910
49873
49834
49788
49747
49726
49725
49744
49772
49783
49757
49707
49657
49623
49598
49570
49537
49503
49475
49460
49464
49478
49477
49456
49434
49406
49365
49329
49306
49285
49260
49226
49188
49160
49133
49103
49076
49048
49014
48980
48958
48950
48951
48946
48935
48926
48926
48951
48987
49010
49020
49025
49041
49085
49162
49260
49351
49433
49518
49599
49674
49746
49823
49899
49965
50032
50110
50190
50254
50301
50340
50376
50400
50410
50414
50418
50429
50437
50422
50384
50329
50272
50234
50212
50204
50199
50181
50157
50145
50140
50124
50103
50079
50046
50014
49991
49966
49923
49867
49804
49738
49690
49668
49665
49669
49662
49657
49679
49725
49785
49844
49882
49899
49904
49913
49931
49949
49964
49972
49960
49938
49928
49916
49885
49855
49836
49821
49802
49786
49784
49781
49763
49746
49744
49747
49745
49746
49748
49735
49695
49633
49565
49504
49448
49390
49341
49316
49301
49282
49274
49275
49271
49261
49260
49265
49251
49218
49176
49126
49080
49051
49035
49026
49017
49011
49013
49012
49000
48980
48951
48911
48873
48846
48832
48829
48840
48873
48920
48958
48987
49027
49082
49146
49223
49311
49404
49502
49602
49702
49803
49896
49967
50028
50090
50147
50199
50255
50318
50373
50418
50451
50471
50474
50466
50463
50466
50459
50439
50411
50376
50352
50354
50363
50355
50336
50318
50302
50276
50238
50204
50183
50150
50094
50041
50009
49985
49958
49944
49953
49965
49962
49958
49956
49948
49952
49969
49974
49973
49975
49983
49995
50003
49994
49975
49955
49933
49917
49917
49924
49927
49932
49949
49964
49969
49976
49987
49984
49968
49951
49937
49909
49867
49838
49825
49797
49757
49734
49715
49686
49662
49654
49646
49620
49584
49550
49518
49492
49474
49457
49430
49394
49357
49322
49293
49267
49248
49243
49243
49229
49203
49177
49151
49123
49101
49082
49063
49046
49027
49004
48979
48961
48959
48967
48980
48989
48984
48977
48970
48965
48963
48963
48972
49008
49075
49164
49268
49377
49482
49590
49699
49801
49901
50001
50100
50207
50318
50420
50496
50544
50576
50601
50617
50629
50643
50647
50638
50629
50632
50646
50662
50673
50681
50675
50646
50611
50589
50574
50556
50546
50544
50531
50510
50491
50475
50462
50451
50438
50428
50419
50404
50386
50371
50360
50349
50326
50287
50234
50182
50143
50127
50136
50154
50174
50193
50209
50234
50263
50275
50278
50288
50299
50299
50278
50240
50193
50132
50049
49957
49870
49792
49733
49709
49700
49680
49658
49657
49669
49668
49652
49628
49596
49559
49523
49481
49432
49382
49349
49339
49341
49349
49351
49337
49307
49278
49262
49265
49272
49263
49242
49220
49196
49174
49168
49172
49165
49148
49134
49120
49101
49069
49041
49030
49019
48998
48984
48983
48987
48999
49008
49000
48979
48948
48918
48898
48884
48875
48865
48851
48840
48835
48824
48801
48776
48759
48753
48753
48762
48783
48819
48887
48979
49069
49165
49267
49364
49464
49571
49685
49815
49957
50097
50235
50377
50516
50637
50730
50786
50806
50810
50816
50832
50859
50876
50870
50855
50838
50819
50800
50790
50785
50777
50775
50790
50808
50829
50850
50867
50869
50857
50838
50819
50805
50795
50793
50798
50800
50799
50791
50778
50770
50767
50769
50769
50747
50700
50644
50599
50555
50515
50493
50481
50475
50475
50489
50528
50574
50608
50627
50633
50636
50638
50639
50643
50644
50636
50625
50617
50606
50580
50545
50511
50488
50477
50468
50455
50434
50403
50373
50354
50342
50330
50321
50305
50281
50262
50250
50227
50183
50134
50089
50048
50015
49989
49963
49947
49940
49927
49909
49887
49864
49843
49812
49771
49728
49693
49675
49666
49661
49659
49648
49628
49602
49581
49577
49577
49563
49535
49500
49466
49435
49409
49393
49388
49396
49416
49449
49478
49490
49494
49500
49501
49483
49444
49396
49343
49290
49252
49230
49223
49218
49214
49222
49236
49271
49343
49425
49497
49573
49666
49764
49860
49967
50088
50212
50332
50449
50569
50689
50792
50882
50962
51016
51047
51067
51076
51086
51111
51141
51162
51175
51179
51176
51174
51171
51171
51174
51171
51171
51171
51153
51114
51064
51015
50974
50937
50895
50862
50856
50860
50855
50850
50853
50846
50821
50791
50762
50735
50714
50712
50734
50754
50748
50730
50726
50742
50760
50773
50793
50808
50809
50804
50799
50788
50780
50780
50765
50736
50706
50679
50653
50632
50610
50584
50550
50512
50484
50466
50445
50412
50384
50368
50345
50319
50305
50293
50274
50259
50246
50223
50191
50162
50138
50126
50116
50098
50076
50045
49999
49957
49927
49899
49868
49830
49796
49784
49782
49775
49769
49771
49770
49767
49758
49738
49710
49683
49680
49696
49695
49679
49670
49657
49628
49601
49585
49560
49520
49483
49456
49435
49415
49396
49374
49338
49294
49253
49226
49207
49193
49192
49212
49245
49288
49324
49354
49396
49446
49506
49591
49690
49798
49920
50039
50137
50214
50276
50336
50396
50459
50524
50575
50612
50656
50707
50759
50795
50806
50809
50806
50785
50755
50720
50680
50643
50609
50579
50572
50578
50583
50588
50594
50601
50607
50611
50611
50600
50589
50574
50554
50531
50503
50471
50440
50422
50419
50418
50407
50387
50368
50355
50355
50368
50386
50391
50385
50393
50410
50421
50435
50457
50475
50481
50472
50445
50405
50360
50319
50292
50279
50282
50295
50307
50314
50304
50272
50234
50204
50177
50137
50095
50072
50051
50022
49999
49986
49971
49945
49909
49879
49862
49851
49844
49839
49824
49797
49766
49746
49733
49719
49705
49690
49675
49646
49601
49560
49539
49530
49519
49513
49511
49505
49487
49454
49420
49404
49400
49374
49323
49274
49248
49245
49270
49326
49392
49458
49536
49633
49734
49830
49922
50015
50112
50219
50336
50455
50555
50625
50683
50739
50774
50790
50813
50839
50850
50853
50863
50862
50833
50790
50758
50735
50709
50690
50686
50690
50683
50665
50651
50632
50601
50570
50546
50532
50516
50494
50484
50479
50458
50426
50398
50382
50358
50330
50314
50296
50273
50261
50270
50294
50320
50345
50376
50410
50441
50472
50511
50539
50536
50513
50484
50458
50437
50424
50411
50385
50344
50303
50266
50224
50179
50150
50136
50116
50089
50076
50085
50096
50103
50110
50122
50132
50132
50117
50087
50058
50040
50025
49997
49965
49939
49912
49889
49871
49867
49875
49885
49897
49899
49884
49856
49826
49796
49758
49721
49705
49700
49684
49642
49588
49557
49548
49534
49516
49505
49500
49504
49510
49508
49498
49483
49474
49482
49512
49565
49640
49732
49824
49906
49992
50093
50198
50293
50380
50459
50529
50602
50689
50779
50848
50900
50962
51028
51077
51111
51134
51147
51139
51111
51082
51062
51049
51050
51060
51056
51039
51034
51045
51047
51027
50997
50974
50958
50934
50907
50905
50923
50931
50914
50876
50829
50792
50782
50785
50774
50748
50724
50713
50713
50722
50744
50785
50832
50863
50873
50872
50865
50871
50882
50880
50872
50855
50834
50820
50798
50763
50730
50713
50718
50728
50734
50734
50719
50705
50694
50678
50663
50661
50659
50631
50584
50543
50505
50464
50420
50374
50344
50330
50316
50298
50283
50269
50244
50205
50168
50152
50162
50171
50161
50134
50107
50093
50100
50107
50092
50070
50058
50052
50047
50040
50029
50009
49959
49901
49864
49826
49777
49748
49739
49726
49712
49712
49714
49702
49690
49692
49696
49703
49725
49777
49848
49917
49999
50110
50249
50393
50524
50644
50756
50854
50961
51077
51179
51273
51370
51454
51521
51575
51618
51636
51627
51596
51560
51544
51546
51552
51556
51529
51476
51441
51441
51458
51471
51476
51475
51454
51412
51357
51301
51255
51222
51212
51213
51198
51165
51124
51076
51021
50975
50959
50975
51000
51014
51026
51046
51065
51075
51072
51059
51046
51053
51079
51092
51080
51051
51017
50990
50970
50962
50972
50987
50990
50987
50990
50996
51002
51004
51002
50991
50966
50939
50905
50849
50787
50734
50684
50639
50605
50586
50593
50614
50636
50665
50681
50660
50607
50551
50504
50450
50395
50363
50347
50333
50317
50299
50288
50273
50255
50256
50270
50273
50262
50236
50196
50153
50111
50063
50005
49944
49901
49876
49848
49826
49814
49802
49797
49801
49802
49784
49753
49730
49727
49750
49780
49801
49825
49855
49887
49935
50008
50102
50214
50344
50484
50620
50741
50835
50917
50999
51058
51094
51136
51185
51211
51214
51224
51249
51265
51287
51327
51354
51360
51354
51335
51317
51303
51283
51257
51228
51196
51164
51135
51116
51109
51113
51123
51125
51105
51072
51039
51006
50980
50961
50941
50909
50864
50829
50821
50827
50836
50850
50850
50834
50825
50836
50861
50889
50914
50928
50927
50916
50905
50902
50904
50902
50891
50884
50873
50857
50858
50876
50897
50913
50924
50933
50917
50871
50815
50751
50686
50632
50588
50552
50517
50490
50487
50511
50529
50517
50480
50422
50356
50303
50259
50215
50163
50121
50116
50129
50129
50125
50120
50095
50056
50026
50006
49993
49976
49957
49948
49936
49915
49891
49870
49863
49867
49880
49905
49933
49968
50017
50065
50110
50149
50189
50245
50328
50432
50543
50660
50789
50919
51033
51135
51226
51301
51359
51410
51449
51469
51479
51485
51488
51494
51506
51518
51522
51518
51513
51504
51489
51488
51505
51521
51525
51520
51503
51469
51421
51364
51302
51237
51169
51099
51038
50994
50958
50935
50929
50915
50898
50903
50918
50916
50897
50876
50871
50881
50895
50909
50917
50915
50918
50931
50938
50942
50945
50947
50953
50968
50980
50978
50964
50950
50936
50907
50873
50848
50825
50798
50763
50722
50688
50670
50659
50644
50621
50579
50528
50482
50439
50411
50407
50412
50419
50425
50422
50413
50392
50359
50322
50280
50245
50226
50211
50199
50215
50261
50313
50349
50372
50380
50367
50357
50358
50341
50291
50232
50191
50176
50171
50159
50132
50105
50087
50074
50068
50083
50125
50191
50274
50350
50420
50504
50602
50700
50797
50894
50988
51089
51207
51327
51436
51531
51616
51702
51794
51873
51937
52004
52065
52098
52108
52121
52139
52150
52148
52140
52129
52129
52141
52145
52139
52141
52147
52147
52135
52105
52075
52057
52030
51985
51936
51906
51891
51872
51842
51803
51754
51704
51662
51640
51630
51631
51651
51682
51710
51727
51739
51751
51754
51746
51733
51715
51694
51681
51682
51696
51712
51721
51732
51742
51744
51753
51776
51803
51809
51796
51793
51796
51784
51753
51707
51659
51617
51575
51534
51488
51441
51404
51370
51332
51294
51267
51261
51268
51272
51267
51248
51209
51165
51134
51104
51074
51058
51060
51073
51083
51068
51030
50989
50947
50914
50898
50876
50835
50788
50743
50701
50671
50658
50663
50674
50670
50656
50651
50639
50618
50611
50617
50619
50624
50647
50686
50738
50800
50866
50941
51021
51102
51191
51292
51410
51556
51717
51863
51988
52111
52222
52311
52383
52457
52534
52595
52633
52668
52705
52728
52737
52742
52750
52753
52750
52756
52767
52763
52747
52722
52698
52691
52695
52699
52693
52674
52656
52651
52652
52641
52620
52600
52575
52534
52471
52406
52349
52292
52253
52245
52248
52246
52240
52223
52186
52138
52097
52075
52061
52048
52033
52013
51990
51970
51958
51951
51943
51950
51986
52026
52046
52046
52047
52056
52045
52009
51978
51969
51979
51988
51980
51961
51936
51906
51881
51853
51809
51750
51686
51625
51578
51539
51501
51477
51469
51466
51454
51425
51390
51359
51341
51324
51289
51245
51208
51183
51166
51147
51115
51067
51015
50973
50937
50892
50846
50815
50802
50801
50813
50845
50890
50919
50926
50932
50937
50922
50885
50847
50811
50765
50706
50645
50596
50555
50523
50496
50473
50462
50449
50426
50403
50373
50342
50309
50270
50246
50245
50244
50232
50222
50236
50275
50317
50360
50413
50478
50554
50640
50734
50851
51001
51166
51317
51449
51567
51673
51764
51839
51895
51941
52006
52091
52155
52180
52180
52164
52139
52120
52106
52093
52090
52092
52089
52081
52063
52027
51979
51931
51895
51873
51856
51845
51837
51821
51793
51763
51739
51716
51680
51624
51559
51507
51489
51495
51500
51504
51505
51484
51450
51439
51448
51469
51498
51536
51579
51619
51643
51646
51634
51611
51583
51547
51504
51477
51460
51426
51383
51348
51324
51324
51331
51317
51297
51277
51246
51217
51192
51165
51135
51088
51031
50985
50951
50923
50907
50899
50881
50851
50818
50769
50703
50642
50600
50572
50549
50535
50531
50525
50508
50497
50501
50505
50502
50491
50478
50461
50420
50366
50319
50275
50224
50175
50149
50142
50139
50133
50129
50129
50129
50126
50129
50129
50109
50065
49996
49919
49856
49801
49752
49718
49686
49649
49619
49600
49586
49582
49598
49638
49706
49799
49918
50050
50180
50302
50419
50524
50623
50729
50825
50906
50988
51069
51140
51204
51275
51344
51389
51420
51451
51477
51486
51481
51484
51491
51483
51448
51403
51370
51344
51308
51264
51219
51172
51132
51108
51089
51061
51013
50960
50923
50890
50854
50828
50790
50740
50709
50694
50674
50645
50614
50595
50605
50642
50691
50735
50752
50744
50730
50714
50692
50662
50632
50612
50596
50599
50618
50625
50626
50640
50663
50684
50687
50665
50624
50570
50519
50496
50501
50504
50482
50445
50409
50376
50340
50301
50260
50212
50158
50114
50101
50107
50110
50111
50111
50098
50074
50038
49994
49961
49940
49918
49895
49884
49876
49851
49821
49804
49785
49759
49730
49693
49651
49615
49589
49563
49535
49512
49483
49455
49442
49442
49456
49477
49496
49507
49514
49523
49544
49584
49651
49736
49827
49919
50007
50085
50170
50273
50377
50465
50554
50663
50788
50902
50987
51047
51088
51115
51125
51123
51123
51124
51125
51124
51108
51077
51045
51020
51007
51005
51005
50989
50954
50919
50885
50852
50817
50779
50741
50717
50694
50657
50616
50568
50517
50480
50463
50455
50459
50470
50466
50455
50446
50430
50405
50373
50351
50344
50336
50337
50362
50404
50443
50470
50487
50492
50487
50484
50478
50454
50430
50407
50378
50359
50354
50342
50321
50298
50275
50252
50216
50181
50165
50151
50125
50091
50052
50005
49944
49883
49842
49818
49791
49769
49761
49768
49782
49783
49764
49746
49740
49730
49708
49700
49705
49690
49646
49582
49525
49490
49472
49479
49502
49514
49503
49488
49479
49461
49425
49380
49346
49326
49303
49282
49282
49308
49343
49396
49486
49590
49697
49815
49947
50104
50275
50435
50570
50690
50800
50893
50965
51003
51017
51025
51032
51047
51070
51090
51107
51138
51191
51235
51256
51276
51300
51317
51328
51330
51310
51269
51216
51151
51089
51052
51031
51003
50983
50983
50991
50990
50982
50975
50957
50922
50870
50817
50784
50765
50754
50754
50762
50764
50750
50732
50719
50702
50690
50700
50711
50716
50733
50753
50767
50775
50784
50790
50790
50787
50780
50764
50743
50725
50714
50697
50667
50639
50625
50622
50618
50604
50586
50567
50538
50503
50471
50446
50433
50422
50391
50347
50297
50237
50187
50152
50124
50115
50117
50101
50062
50022
50003
49991
49987
50000
50020
50026
50011
49979
49931
49873
49839
49835
49821
49787
49747
49703
49648
49585
49529
49493
49476
49473
49487
49533
49603
49676
49744
49829
49940
50068
50210
50353
50499
50645
50784
50926
51062
51176
51276
51356
51405
51426
51428
51428
51431
51429
51418
51403
51394
51384
51379
51394
51420
51437
51448
51450
51434
51409
51395
51380
51353
51329
51313
51299
51271
51218
51157
51096
51032
50970
50912
50861
50815
50769
50728
50697
50664
50644
50650
50668
50676
50664
50642
50622
50610
50620
50657
50692
50707
50704
50695
50681
50670
50668
50666
50657
50648
50645
50648
50643
50617
50585
50555
50527
50503
50469
50425
50401
50402
50394
50365
50327
50293
50267
50229
50172
50109
50044
49976
49925
49909
49911
49909
49909
49904
49892
49874
49856
49856
49871
49878
49882
49892
49893
49877
49847
49798
49739
49684
49631
49589
49554
49523
49509
49506
49496
49473
49450
49439
49422
49392
49352
49305
49260
49219
49188
49179
49200
49246
49324
49440
49579
49708
49816
49919
50022
50136
50283
50451
50605
50739
50859
50961
51030
51069
51100
51138
51192
51266
51347
51413
51445
51440
51419
51403
51375
51336
51301
51266
51229
51200
51175
51150
51134
51119
51101
51078
51041
51003
50974
50936
50883
50826
50770
50716
50665
50631
50618
50610
50604
50610
50623
50622
50612
50617
50629
50629
50631
50660
50700
50729
50749
50761
50769
50788
50804
50794
50766
50747
50750
50755
50733
50683
50625
50592
50584
50575
50565
50550
50522
50484
50434
50384
50351
50322
50289
50260
50231
50216
50226
50243
50259
50274
50285
50288
50277
50254
50236
50212
50162
50095
50034
49994
49972
49951
49914
49870
49832
49810
49801
49790
49775
49771
49778
49792
49805
49804
49786
49764
49735
49702
49691
49689
49677
49668
49668
49668
49673
49686
49722
49803
49911
50025
50144
50265
50384
50491
50581
50674
50786
50908
51033
51152
51259
51369
51463
51511
51528
51535
51523
51491
51468
51470
51484
51500
51502
51485
51462
51437
51423
51422
51412
51379
51334
51291
51249
51210
51180
51161
51150
51142
51137
51131
51123
51123
51128
51123
51109
51093
51078
51073
51063
51042
51031
51024
51018
51029
51063
51097
51111
51115
51132
51154
51155
51133
51108
51094
51095
51099
51101
51102
51092
51072
51057
51048
51033
51013
51009
51010
50997
50977
50961
50936
50887
50833
50797
50765
50726
50699
50689
50674
50634
50586
50553
50528
50497
50464
50430
50392
50360
50340
50327
50304
50273
50247
50232
50228
50233
50235
50222
50189
50149
50123
50108
50096
50089
50072
50039
50006
50002
50030
50058
50076
50104
50134
50163
50203
50258
50332
50428
50547
50702
50871
51027
51171
51304
51420
51509
51573
51642
51723
51795
51845
51888
51940
51991
52025
52062
52117
52175
52213
52227
52234
52226
52206
52197
52188
52155
52115
52092
52074
52046
52010
51971
51920
51867
51832
51807
51775
51753
51750
51755
51763
51775
51790
51787
51752
51714
51701
51699
51703
51720
51734
51730
51730
51745
51770
51793
51800
51803
51815
51825
51813
51792
51786
51785
51771
51749
51725
51694
51659
51639
51633
51635
51632
51603
51562
51531
51499
51458
51428
51412
51390
51348
51296
51243
51194
51166
51141
51108
51089
51083
51066
51032
50997
50982
50968
50931
50882
50854
50846
50818
50763
50710
50683
50675
50671
50676
50681
50667
50647
50635
50612
50573
50514
50443
50383
50344
50313
50290
50275
50261
50260
50283
50331
50409
50515
50628
50732
50833
50929
51025
51130
51242
51362
51479
51587
51699
51822
51944
52052
52142
52213
52282
52355
52420
52477
52535
52599
52672
52744
52789
52791
52765
52746
52742
52747
52755
52758
52759
52755
52735
52714
52695
52666
52636
52616
52594
52570
52547
52512
52466
52434
52411
52381
52341
52300
52267
52238
52205
52169
52141
52123
52115
52118
52132
52150
52163
52191
52241
52279
52284
52267
52247
52227
52216
52223
52229
52224
52215
52217
52239
52265
52272
52256
52224
52174
52104
52032
51973
51925
51879
51840
51818
51806
51807
51810
51798
51773
51731
51682
51641
51598
51565
51557
51545
51516
51499
51502
51486
51449
51426
51416
51401
51380
51355
51326
51287
51234
51185
51153
51129
51103
51067
51029
51008
51003
51005
51015
51028
51031
51012
50968
50909
50833
50752
50695
50647
50600
50576
50577
50594
50625
50662
50701
50739
50786
50864
50974
51099
51228
51358
51465
51553
51651
51756
51871
52000
52131
52264
52393
52514
52632
52730
52797
52834
52858
52885
52908
52935
52979
53019
53038
53044
53025
52991
52961
52935
52921
52922
52928
52940
52955
52969
52966
52944
52917
52881
52846
52816
52784
52750
52718
52686
52660
52638
52602
52555
52523
52494
52453
52416
52401
52404
52410
52423
52447
52470
52490
52517
52544
52560
52553
52530
52512
52511
52515
52519
52521
52516
52503
52488
52474
52447
52392
52329
52290
52268
52247
52220
52188
52155
52113
52060
52001
51947
51901
51871
51857
51846
51820
51776
51724
51664
51615
51598
51591
51582
51581
51586
51587
51586
51592
51591
51570
51542
51521
51500
51478
51468
51469
51458
51422
51384
51365
51349
51309
51254
51204
51154
51100
51048
50999
50943
50889
50854
50825
50794
50771
50761
50767
50774
50770
50762
50754
50746
50741
50758
50819
50908
51023
51160
51287
51402
51518
51637
51771
51913
52047
52177
52299
52406
52509
52625
52749
52872
52976
53046
53083
53099
53099
53097
53103
53115
53132
53149
53150
53118
53061
53014
52984
52949
52905
52865
52835
52812
52785
52744
52692
52650
52619
52586
52555
52536
52536
52548
52549
52522
52487
52462
52443
52433
52437
52448
52465
52480
52487
52483
52470
52448
52421
52399
52394
52416
52453
52484
52500
52497
52486
52489
52503
52521
52533
52524
52491
52457
52435
52413
52385
52352
52321
52296
52273
52244
52200
52143
52083
52020
51962
51921
51894
51888
51899
51902
51892
51872
51838
51797
51758
51724
51700
51678
51643
51623
51622
51616
51611
51618
51629
51626
51602
51570
51528
51484
51458
51439
51398
51339
51284
51229
51161
51094
51052
51033
51019
51010
51006
51005
51015
51046
51106
51197
51308
51430
51560
51696
51820
51933
52057
52191
52321
52450
52576
52689
52785
52862
52933
53016
53105
53192
53269
53320
53327
53301
53277
53257
53229
53207
53196
53166
53113
53052
52997
52969
52963
52959
52964
52977
52974
52953
52922
52871
52801
52729
52664
52612
52561
52509
52457
52404
52359
52334
52320
52311
52314
52319
52316
52314
52324
52352
52391
52423
52442
52460
52492
52523
52537
52538
52524
52495
52461
52433
52415
52393
52369
52352
52328
52304
52309
52323
52321
52306
52286
52258
52223
52183
52141
52098
52059
52029
52014
52007
51991
51959
51922
51893
51852
51792
51724
51655
51589
51533
51496
51478
51468
51469
51487
51506
51501
51484
51481
51475
51444
51394
51337
51278
51224
51180
51148
51128
51124
51142
51168
51174
51149
51118
51096
51083
51076
51064
51034
50997
50968
50935
50903
50894
50909
50935
50979
51062
51178
51310
51454
51603
51738
51865
52008
52161
52317
52479
52642
52784
52900
53001
53082
53144
53192
53233
53259
53262
53259
53257
53247
53222
53188
53157
53146
53149
53155
53169
53170
53154
53139
53108
53060
53020
53003
53003
52996
52967
52939
52924
52916
52916
52920
52909
52880
52842
52813
52792
52772
52754
52728
52683
52630
52601
52604
52616
52618
52611
52605
52593
52581
52588
52610
52623
52615
52608
52614
52613
52603
52598
52591
52572
52542
52509
52475
52448
52426
52402
52378
52346
52294
52238
52202
52179
52161
52155
52152
52140
52119
52080
52027
51984
51952
51918
51877
51832
51788
51741
51694
51659
51635
51619
51603
51580
51558
51544
51526
51501
51474
51444
51407
51363
51311
51262
51222
51185
51152
51135
51129
51126
51118
51088
51035
50985
50953
50925
50905
50892
50870
50821
50755
50693
50629
50562
50513
50487
50496
50548
50632
50743
50862
50958
51045
51154
51292
51447
51605
51757
51907
52059
52215
52372
52505
52614
52730
52851
52946
53008
53062
53118
53153
53160
53153
53148
53155
53162
53156
53158
53176
53177
53148
53121
53096
53053
52993
52938
52898
52874
52865
52857
52850
52852
52852
52829
52789
52748
52708
52665
52620
52585
52577
52587
52586
52567
52538
52500
52452
52406
52377
52366
52365
52365
52369
52386
52421
52470
52512
52523
52507
52485
52470
52459
52449
52442
52434
52428
52416
52382
52326
52265
52217
52183
52145
52108
52098
52120
52146
52150
52128
52102
52094
52088
52052
51998
51951
51913
51877
51853
51832
51785
51715
51647
51594
51552
51519
51501
51480
51442
51404
51382
51359
51317
51264
51214
51172
51135
51094
51045
51003
50984
50975
50956
50930
50904
50880
50853
50812
50769
50743
50735
50735
50728
50716
50712
50713
50712
50711
50709
50706
50699
50691
50695
50713
50735
50775
50848
50950
51068
51196
51331
51473
51615
51753
51884
52005
52114
52220
52328
52424
52508
52591
52672
52742
52802
52855
52899
52939
52978
53016
53055
53099
53137
53145
53116
53058
52985
52915
52853
52791
52726
52656
52583
52518
52473
52441
52403
52356
52308
52267
52238
52212
52191
52183
52180
52190
52214
52230
52225
52205
52185
52174
52162
52146
52140
52146
52159
52169
52174
52190
52223
52264
52303
52327
52339
52358
52368
52349
52311
52266
52220
52185
52162
52145
52129
52103
52063
52023
51997
51967
51914
51853
51804
51757
51706
51651
51588
51519
51460
51424
51411
51402
51377
51344
51331
51340
51365
51383
51370
51337
51311
51288
51243
51177
51124
51095
51085
51084
51079
51065
51031
50978
50926
50884
50833
50764
50696
50637
50590
50568
50562
50542
50512
50499
50500
50483
50446
50409
50371
50335
50314
50303
50302
50317
50346
50391
50449
50520
50610
50713
50834
50968
51101
51240
51389
51530
51649
51743
51815
51885
51968
52058
52144
52215
52270
52324
52389
52451
52487
52498
52499
52490
52477
52484
52504
52516
52525
52543
52559
52573
52585
52579
52542
52476
52390
52303
52240
52208
52180
52136
52075
51999
51914
51827
51751
51688
51630
51576
51518
51473
51471
51496
51505
51495
51471
51441
51436
51458
51475
51473
51462
51463
51493
51523
51520
51496
51481
51474
51463
51457
51446
51424
51410
51401
51395
51392
51382
51365
51355
51345
51322
51277
51207
51126
51057
51019
51006
50987
50943
50886
50826
50763
50701
50641
50584
50535
50484
50427
50372
50332
50300
50271
50247
50223
50199
50188
50192
50202
50218
50232
50214
50162
50095
50032
49976
49928
49906
49910
49914
49900
49868
49833
49802
49762
49724
49716
49729
49730
49700
49649
49590
49542
49521
49512
49512
49522
49532
49538
49524
49499
49513
49571
49640
49715
49811
49930
50071
50234
50414
50595
50768
50923
51071
51224
51364
51490
51617
51735
51827
51897
51948
51984
52018
52062
52104
52130
52151
52182
52211
52226
52230
52236
52246
52259
52260
52230
52180
52121
52066
52025
51979
51924
51879
51841
51790
51726
51670
51646
51648
51646
51622
51587
51549
51507
51481
51491
51512
51526
51541
51558
51576
51601
51627
51636
51631
51631
51627
51616
51606
51597
51582
51579
51586
51589
51607
51640
51652
51635
51615
51593
51554
51498
51439
51378
51304
51222
51144
51087
51062
51048
51020
50983
50950
50932
50937
50942
50931
50909
50879
50840
50796
50768
50773
50787
50775
50745
50733
50730
50704
50664
50644
50632
50603
50563
50529
50503
50481
50449
50405
50350
50285
50231
50195
50147
50074
50000
49937
49898
49893
49914
49969
50062
50180
50318
50473
50645
50831
51019
51206
51380
51519
51626
51718
51808
51900
51980
52032
52065
52113
52180
52245
52297
52326
52342
52348
52352
52363
52380
52396
52394
52352
52288
52226
52157
52081
52004
51935
51899
51886
51866
51828
51779
51736
51710
51674
51625
51597
51600
51619
51630
51627
51612
51585
51553
51526
51516
51518
51524
51535
51549
51566
51577
51592
51623
51652
51661
51660
51662
51676
51693
51694
51674
51630
51572
51524
51499
51498
51509
51504
51473
51437
51419
51430
51441
51427
51409
51405
51405
51396
51368
51327
51277
51237
51205
51153
51071
50973
50869
50779
50721
50677
50637
50600
50576
50570
50567
50555
50539
50530
50521
50501
50489
50497
50504
50500
50500
50506
50501
50474
50417
50342
50268
50201
50154
50139
50157
50185
50194
50203
50248
50321
50399
50499
50627
50757
50898
51071
51267
51467
51673
51866
52006
52096
52178
52272
52367
52459
52539
52595
52635
52680
52754
52849
52938
53007
53061
53086
53069
53025
52971
52910
52842
52779
52727
52678
52639
52630
52641
52660
52681
52695
52701
52699
52686
52658
52633
52618
52589
52552
52510
52461
52417
52381
52347
52313
52288
52289
52312
52334
52342
52342
52333
52306
52270
52240
52235
52261
52290
52299
52299
52293
52275
52258
52245
52228
52214
52226
52260
52278
52271
52266
52275
52288
52301
52311
52309
52281
52229
52168
52125
52112
52105
52097
52092
52082
52046
51996
51962
51941
51914
51882
51835
51774
51711
51655
51620
51607
51600
51590
51567
51536
51505
51473
51435
51394
51360
51319
51265
51224
51224
51239
51218
51171
51133
51109
51086
51066
51042
51025
51031
51047
51074
51132
51206
51299
51448
51641
51849
52045
52212
52349
52458
52559
52688
52832
52954
53048
53127
53198
53267
53338
53411
53494
53581
53658
53703
53710
53705
53712
53719
53702
53654
53602
53580
53579
53577
53580
53570
53541
53526
53539
53554
53541
53501
53452
53405
53362
53333
53319
53311
53313
53311
53282
53233
53190
53168
53162
53154
53141
53139
53147
53145
53146
53160
53162
53132
53090
53064
53058
53052
53053
53065
53086
53105
53122
53140
53158
53159
53133
53111
53112
53109
53084
53060
53041
53008
52974
52959
52960
52959
52940
52902
52856
52799
52719
52643
52591
52550
52527
52522
52520
52508
52492
52477
52449
52412
52387
52367
52334
52286
52255
52240
52220
52194
52163
52135
52123
52119
52114
52103
52078
52055
52040
52008
51955
51886
51801
51711
51636
51589
51569
51563
51569
51587
51612
51643
51679
51709
51727
51753
51803
51881
51985
52103
52221
52329
52437
52551
52663
52777
52902
53040
53189
53344
53478
53589
53700
53817
53931
54045
54158
54255
54339
54395
54417
54424
54428
54433
54428
54396
54355
54316
54267
54213
54161
54110
54062
54030
54013
53983
53931
53876
53841
53819
53787
53754
53745
53750
53742
53732
53733
53742
53741
53711
53656
53607
53567
53530
53496
53483
53507
53542
53564
53567
53554
53546
53563
53604
53633
53644
53661
53680
53688
53700
53712
53714
53707
53676
53622
53575
53549
53518
53483
53463
53461
53468
53464
53438
53412
53386
53336
53276
53232
53194
53171
53157
53112
53049
53009
52990
52979
52965
52928
52869
52809
52752
52700
52655
52623
52607
52599
52586
52558
52523
52489
52443
52392
52356
52322
52280
52244
52218
52193
52172
52172
52195
52216
52228
52240
52238
52224
52227
52252
52283
52338
52436
52558
52697
52860
53028
53170
53290
53412
53546
53684
53806
53903
53990
54082
54182
54291
54382
54426
54440
54463
54488
54492
54489
54488
54488
54502
54526
54536
54526
54486
54439
54415
54395
54359
54302
54232
54164
54095
54024
53972
53954
53960
53971
53986
53992
53981
53959
53922
53883
53876
53898
53923
53949
53989
54028
54058
54078
54075
54041
53994
53953
53921
53908
53913
53903
53876
53849
53835
53835
53836
53824
53799
53762
53725
53706
53689
53671
53675
53684
53670
53635
53610
53613
53613
53583
53543
53511
53475
53431
53404
53397
53394
53394
53406
53410
53381
53343
53324
53319
53308
53270
53215
53165
53108
53027
52943
52872
52819
52801
52805
52806
52811
52834
52856
52843
52808
52786
52780
52767
52727
52662
52584
52502
52446
52428
52423
52420
52415
52396
52363
52327
52314
52354
52432
52507
52577
52657
52748
52861
53000
53157
53330
53516
53712
53902
54073
54232
54382
54529
54663
54778
54864
54924
54970
54999
55021
55041
55047
55054
55081
55115
55151
55180
55185
55168
55127
55056
54978
54924
54889
54852
54824
54826
54854
54883
54898
54888
54858
54837
54818
54788
54764
54746
54713
54673
54646
54623
54602
54604
54604
54584
54556
54530
54497
54462
54449
54459
54471
54485
54507
54524
54534
54528
54517
54522
54532
54546
54562
54565
54563
54561
54543
54511
54488
54489
54499
54495
54468
54434
54398
54361
54326
54297
54263
54210
54154
54111
54069
54021
53972
53927
53876
53806
53727
53651
53573
53510
53470
53429
53380
53353
53351
53361
53369
53354
53323
53302
53282
53251
53218
53184
53143
53086
53025
52976
52948
52939
52939
52935
52913
52876
52825
52758
52678
52588
52492
52413
52367
52342
52324
52300
52272
52262
52264
52269
52295
52354
52433
52514
52599
52707
52837
52972
53105
53237
53367
53498
53635
53782
53945
54116
54279
54441
54607
54758
54873
54961
55044
55109
55134
55127
55111
55088
55047
54994
54957
54945
54935
54919
54920
54947
54982
55000
54983
54928
54862
54803
54743
54685
54638
54606
54583
54553
54523
54507
54474
54414
54359
54332
54325
54327
54351
54392
54416
54406
54387
54387
54394
54411
54444
54474
54495
54508
54528
54549
54543
54530
54531
54522
54501
54493
54490
54472
54444
54416
54399
54399
54410
54414
54388
54339
54287
54229
54160
54082
54000
53926
53867
53819
53788
53765
53741
53721
53705
53695
53687
53689
53696
53702
53701
53674
53621
53549
53480
53441
53432
53437
53443
53434
53402
53361
53316
53273
53243
53228
53215
53168
53089
53020
52978
52957
52959
52982
53007
53016
53013
53003
52982
52967
52980
53038
53139
53264
53394
53517
53639
53769
53913
54065
54208
54341
54480
54620
54742
54854
54963
55054
55125
55197
55267
55324
55366
55406
55438
55439
55412
55383
55365
55347
55323
55308
55303
55287
55253
55225
55198
55157
55112
55073
55032
54976
54911
54849
54789
54720
54645
54569
54495
54433
54384
54354
54357
54399
54461
54504
54523
54536
54535
54523
54518
54524
54532
54529
54522
54524
54528
54535
54551
54560
54558
54538
54508
54491
54496
54511
54510
54481
54436
54386
54340
54303
54267
54228
54191
54175
54179
54187
54195
54193
54174
54146
54097
54024
53952
53878
53802
53756
53739
53719
53691
53687
53687
53655
53599
53539
53478
53426
53386
53343
53292
53237
53183
53161
53187
53223
53232
53225
53209
53198
53184
53147
53094
53054
53029
53003
52979
52953
52913
52868
52846
52846
52845
52853
52882
52930
53000
53097
53200
53294
53405
53549
53710
53873
54032
54185
54331
54465
54591
54717
54852
55006
55180
55354
55506
55620
55702
55776
55829
55838
55826
55825
55838
55834
55800
55751
55690
55628
55593
55584
55583
55578
55561
55531
55513
55515
55522
55517
55503
55486
55466
55452
55444
55433
55421
55407
55372
55317
55254
55194
55136
55083
55040
55022
55040
55079
55121
55163
55196
55226
55257
55268
55250
55209
55169
55150
55132
55097
55064
55041
55019
55007
55007
54993
54962
54933
54919
54910
54901
54904
54905
54884
54841
54786
54741
54707
54666
54606
54533
54470
54426
54397
54376
54354
54327
54290
54233
54168
54117
54075
54037
54000
53966
53946
53918
53874
53826
53774
53710
53642
53596
53594
53616
53628
53631
53633
53617
53587
53564
53553
53538
53503
53470
53457
53448
53420
53371
53297
53216
53151
53093
53043
53015
53017
53055
53105
53134
53155
53192
53242
53317
53412
53508
53606
53708
53823
53950
54080
54218
54380
54563
54750
54933
55106
55274
55429
55553
55654
55736
55799
55850
55891
55922
55951
55971
55974
55974
55987
56004
55999
55955
55886
55825
55797
55798
55817
55843
55854
55832
55789
55744
55680
55575
55447
55346
55296
55266
55244
55242
55247
55252
55253
55238
55214
55187
55165
55165
55181
55183
55173
55184
55211
55229
55243
55254
55262
55268
55260
55248
55244
55247
55252
55249
55229
55184
55115
55050
55015
55005
55006
55003
54988
54968
54957
54947
54920
54869
54790
54694
54599
54519
54455
54390
54329
54295
54284
54274
54252
54220
54179
54129
54086
54052
54006
53943
53866
53787
53721
53660
53592
53527
53485
53475
53488
53487
53468
53445
53405
53349
53294
53242
53196
53163
53149
53146
53142
53136
53125
53095
53040
52966
52897
52851
52828
52810
52782
52732
52662
52590
52531
52487
52461
52459
52483
52520
52570
52634
52699
52765
52837
52924
53039
53173
53320
53481
53637
53775
53898
54020
54147
54275
54400
54529
54663
54797
54933
55062
55165
55239
55291
55323
55342
55352
55353
55348
55326
55277
55220
55175
55144
55124
55106
55071
55010
54945
54891
54837
54781
54732
54702
54689
54669
54638
54606
54560
54499
54454
54431
54409
54392
54404
54430
54434
54419
54421
54444
54469
54485
54506
54539
54570
54589
54584
54559
54538
54528
54525
54527
54520
54494
54460
54420
54371
54319
54264
54219
54199
54180
54157
54143
54119
54076
54027
53974
53919
53878
53846
53819
53800
53800
53818
53828
53825
53816
53801
53792
53775
53750
53741
53732
53702
53658
53605
53548
53486
53415
53339
53265
53208
53181
53183
53203
53222
53224
53201
53148
53059
52968
52907
52861
52828
52813
52819
52838
52848
52843
52836
52838
52853
52885
52937
53012
53098
53188
53295
53412
53542
53704
53884
54044
54189
54347
54501
54617
54710
54802
54877
54926
54953
54968
54968
54960
54957
54952
54952
54959
54963
54975
54991
55004
55013
54995
54947
54897
54863
54827
54787
54760
54736
54691
54607
54503
54421
54370
54329
54292
54263
54223
54178
54161
54180
54208
54215
54192
54157
54139
54152
54186
54216
54219
54194
54169
54180
54212
54234
54250
54265
54288
54308
54314
54303
54266
54221
54194
54176
54158
54137
54114
54077
54018
53963
53937
53929
53918
53907
53903
53892
53860
53815
53777
53747
53698
53638
53587
53523
53440
53354
53287
53249
53233
53239
53251
53248
53244
53262
53293
53311
53296
53255
53215
53181
53133
53084
53050
53013
52961
52902
52838
52761
52661
52566
52499
52436
52379
52360
52372
52388
52394
52396
52395
52390
52395
52426
52496
52596
52731
52889
53033
53160
53294
53439
53579
53722
53880
54042
54203
54368
54536
54687
54801
54884
54944
54996
55052
55115
55165
55199
55236
55271
55281
55264
55243
55220
55179
55132
55090
55035
54983
54957
54932
54888
54829
54762
54706
54687
54690
54673
54630
54591
54583
54602
54625
54637
54622
54590
54560
54546
54553
54575
54599
54617
54642
54666
54667
54659
54663
54663
54661
54672
54689
54696
54704
54719
54718
54689
54652
54620
54594
54584
54583
54573
54542
54502
54479
54480
54495
54500
54468
54414
54367
54339
54328
54324
54325
54326
54317
54289
54249
54216
54186
54136
54072
54021
53985
53952
53927
53899
53857
53803
53739
53676
53630
53604
53575
53538
53502
53468
53446
53445
53454
53454
53459
53461
53445
53425
53403
53354
53280
53210
53154
53112
53105
53147
53216
53292
53393
53515
53640
53787
53954
54112
54277
54457
54630
54781
54916
55042
55156
55264
55378
55494
55606
55712
55797
55851
55877
55878
55871
55875
55884
55899
55912
55917
55917
55899
55862
55821
55770
55714
55681
55659
55620
55566
55519
55503
55507
55509
55499
55469
55420
55358
55283
55206
55149
55117
55100
55088
55080
55081
55114
55168
55203
55211
55206
55196
55171
55146
55156
55198
55244
55279
55310
55343
55364
55364
55359
55369
55378
55354
55304
55249
55205
55179
55164
55153
55132
55091
55032
54969
54924
54897
54864
54799
54705
54606
54513
54438
54374
54310
54252
54205
54182
54184
54187
54186
54184
54189
54205
54219
54218
54222
54231
54223
54206
54204
54206
54183
54128
54061
53996
53939
53884
53820
53755
53697
53647
53605
53557
53501
53455
53438
53453
53483
53521
53570
53608
53629
53664
53713
53768
53839
53927
54022
54126
54245
54387
54556
54734
54917
55114
55306
55472
55628
55777
55907
56028
56136
56222
56304
56373
56406
56417
56417
56399
56373
56351
56327
56292
56240
56182
56130
56073
56016
55973
55930
55887
55863
55849
55838
55820
55774
55702
55612
55521
55445
55389
55352
55330
55333
55361
55396
55438
55478
55499
55495
55472
55458
55474
55500
55527
55557
55570
55571
55579
55600
55619
55617
55601
55589
55575
55552
55519
55473
55428
55394
55366
55336
55306
55277
55262
55263
55251
55220
55191
55163
55131
55092
55055
55045
55050
55043
55021
54982
54928
54863
54811
54784
54773
54763
54736
54691
54637
54575
54512
54470
54455
54444
54417
54377
54329
54274
54221
54167
54119
54101
54115
54139
54158
54168
54172
54158
54117
54065
54021
53990
53971
53966
53971
53988
54029
54104
54229
54393
54563
54724
54873
55012
55162
55325
55475
55613
55748
55881
56006
56110
56206
56304
56391
56460
56520
56583
56647
56698
56738
56775
56804
56822
56818
56785
56733
56672
56618
56588
56577
56568
56557
56541
56511
56454
56384
56325
56270
56216
56185
56161
56127
56095
56049
55983
55919
55859
55805
55763
55741
55752
55788
55831
55870
55894
55918
55955
55990
56015
56038
56058
56066
56071
56078
56062
56025
55989
55948
55889
55823
55763
55720
55696
55668
55652
55666
55676
55661
55643
55643
55648
55648
55643
55616
55561
55498
55459
55450
55440
55429
55440
55466
55479
55463
55423
55377
55324
55256
55190
55148
55115
55081
55054
55020
54980
54952
54948
54964
54976
54960
54916
54844
54766
54707
54657
54610
54578
54558
54545
54524
54503
54490
54478
54469
54455
54428
54391
54349
54310
54286
54295
54330
54389
54482
54598
54719
54840
54965
55100
55246
55411
55597
55799
55998
56191
56391
56597
56792
56964
57112
57245
57362
57459
57546
57624
57670
57685
57688
57687
57674
57661
57667
57679
57687
57684
57668
57637
57601
57577
57557
57527
57488
57459
57457
57467
57478
57485
57476
57450
57427
57405
57379
57368
57382
57411
57442
57464
57484
57504
57516
57523
57539
57569
57597
57614
57623
57632
57639
57634
57619
57611
57608
57592
57561
57517
57469
57438
57432
57438
57438
57433
57435
57437
57425
57396
57361
57319
57268
57215
57172
57145
57131
57114
57089
57065
57032
56983
56932
56900
56884
56869
56853
56821
56780
56759
56757
56737
56712
56696
56659
56589
56512
56452
56388
56321
56278
56256
56243
56235
56242
56255
56238
56182
56114
56066
56054
56069
56094
56119
56119
56078
56026
55979
55922
55854
55775
55691
55610
55542
55504
55488
55482
55473
55467
55474
55473
55441
55380
55313
55255
55216
55213
55248
55308
55385
55474
55582
55712
55872
56065
56278
56493
56709
56927
57134
57312
57468
57616
57752
57872
57979
58072
58151
58210
58245
58273
58312
58362
58411
58460
58504
58523
58511
58483
58458
58434
58408
58390
58368
58330
58284
58238
58197
58157
58109
58062
58032
58028
58047
58070
58070
58047
58016
57984
57943
57903
57883
57868
57844
57822
57808
57810
57830
57868
57916
57948
57956
57952
57958
57988
58014
58021
58016
58002
57978
57950
57943
57969
58007
58032
58034
58013
57979
57943
57918
57908
57911
57909
57894
57867
57820
57758
57696
57637
57576
57515
57466
57422
57375
57329
57284
57238
57191
57143
57095
57048
57010
56980
56936
56862
56774
56694
56630
56591
56561
56512
56449
56397
56357
56325
56308
56304
56316
56338
56352
56339
56295
56238
56178
56110
56040
55987
55949
55911
55866
55819
55773
55725
55694
55684
55683
55691
55710
55744
55788
55847
55943
56077
56232
56400
56574
56742
56896
57049
57206
57354
57489
57621
57743
57845
57936
58019
58086
58145
58211
58286
58356
58414
58461
58495
58512
58511
58498
58480
58449
58393
58314
58232
58160
58109
58085
58069
58043
58008
57970
57936
57909
57893
57891
57899
57898
57873
57832
57791
57763
57743
57721
57701
57689
57687
57693
57702
57704
57695
57681
57668
57660
57645
57622
57598
57573
57545
57533
57550
57576
57598
57618
57612
57579
57549
57541
57552
57562
57558
57537
57496
57446
57419
57407
57387
57353
57315
57299
57292
57256
57198
57134
57071
57026
56993
56963
56929
56884
56822
56733
56639
56566
56512
56458
56403
56365
56353
56351
56350
56352
56358
56357
56331
56276
56209
56151
56103
56054
56015
55994
55973
55939
55891
55821
55726
55634
55582
55563
55550
55530
55505
55485
55458
55410
55354
55303
55258
55234
55226
55200
55156
55117
55085
55067
55060
55061
55085
55123
55157
55186
55236
55321
55433
55577
55753
55933
56093
56243
56403
56573
56744
56902
57045
57181
57322
57470
57621
57764
57886
58003
58121
58225
58302
58332
58327
58312
58303
58314
58339
58352
58338
58312
58288
58254
58211
58179
58172
58172
58158
58144
58140
58120
58078
58023
57953
57870
57786
57711
57652
57607
57564
57530
57513
57505
57501
57492
57481
57477
57484
57501
57523
57537
57544
57545
57543
57538
57545
57570
57582
57574
57563
57558
57559
57564
57569
57564
57551
57546
57548
57542
57539
57545
57545
57527
57490
57434
57360
57272
57183
57104
57039
56985
56938
56908
56891
56858
56801
56725
56645
56586
56548
56506
56461
56424
56394
56372
56353
56341
56336
56329
56317
56299
56288
56291
56292
56273
56250
56250
56250
56211
56148
56079
56007
55939
55877
55821
55779
55759
55756
55746
55713
55651
55574
55505
55461
55439
55427
55424
55409
55370
55323
55269
55206
55154
55149
55178
55201
55227
55289
55388
55502
55634
55795
55966
56130
56278
56413
56546
56682
56827
56993
57174
57355
57522
57666
57778
57880
58009
58143
58245
58308
58344
58357
58363
58386
58408
58411
58398
58369
58341
58338
58356
58386
58419
58431
58417
58397
58384
58362
58312
58247
58200
58174
58151
58120
58089
58062
58020
57967
57911
57849
57801
57767
57726
57678
57636
57611
57602
57599
57594
57604
57629
57653
57678
57699
57705
57694
57688
57706
57737
57753
57736
57701
57672
57657
57643
57623
57593
57564
57549
57534
57500
57446
57387
57354
57331
57285
57222
57155
57085
57009
56951
56930
56918
56886
56849
56828
56823
56812
56786
56759
56719
56649
56554
56457
56380
56339
56327
56325
56315
56294
56270
56246
56218
56190
56163
56131
56079
56010
55948
55896
55830
55761
55725
55716
55702
55677
55660
55650
55611
55547
55496
55458
55396
55307
55222
55152
55091
55037
54992
54952
54927
54929
54956
55014
55116
55254
55417
55586
55738
55882
56037
56205
56381
56560
56748
56950
57153
57343
57527
57705
57876
58041
58186
58297
58370
58416
58443
58460
58472
58471
58455
58427
58394
58362
58329
58296
58276
58267
58248
58214
58178
58147
58132
58132
58116
58083
58066
58047
57991
57921
57858
57797
57744
57688
57638
57623
57624
57596
57538
57486
57475
57492
57501
57513
57540
57558
57547
57526
57527
57556
57599
57638
57665
57680
57692
57695
57679
57652
57615
57579
57560
57533
57478
57421
57384
57360
57332
57280
57214
57151
57091
57033
56982
56943
56899
56849
56806
56745
56659
56583
56537
56515
56497
56453
56389
56325
56275
56243
56204
56162
56134
56112
56092
56072
56064
56060
56029
55981
55938
55891
55845
55819
55800
55770
55730
55691
55663
55636
55578
55499
55420
55325
55221
55130
55048
54982
54950
54939
54919
54888
54860
54837
54807
54781
54768
54763
54773
54801
54856
54950
55079
55237
55431
55666
55920
56144
56324
56478
56624
56773
56929
57088
57248
57392
57517
57633
57736
57830
57908
57971
58028
58072
58090
58076
58050
58036
58036
58040
58050
58048
58008
57946
57891
57857
57817
57754
57673
57592
57530
57482
57442
57421
57405
57375
57322
57258
57219
57208
57196
57179
57162
57157
57150
57137
57127
57101
57057
57011
56981
56990
57015
57016
57010
57024
57051
57056
57049
57058
57060
57044
57039
57055
57076
57083
57073
57048
57027
57020
57018
57014
56988
56935
56881
56847
56831
56825
56818
56802
56777
56751
56729
56695
56645
56585
56507
56419
56332
56261
56213
56169
56131
56105
56066
56021
55983
55936
55889
55851
55795
55719
55638
55568
55516
55472
55427
55383
55360
55377
55413
55441
55456
55457
55443
55410
55365
55328
55320
55332
55348
55370
55400
55426
55468
55569
55714
55852
55969
56085
56219
56370
56531
56705
56886
57068
57238
57382
57494
57593
57710
57838
57950
58026
58077
58132
58177
58190
58192
58196
58189
58165
58121
58053
57973
57899
57835
57786
57738
57672
57597
57537
57495
57444
57373
57300
57232
57159
57090
57034
56979
56924
56891
56876
56845
56798
56755
56724
56706
56715
56761
56827
56879
56910
56935
56970
57021
57088
57146
57159
57136
57126
57129
57119
57089
57046
56994
56948
56906
56866
56845
56826
56797
56773
56748
56709
56656
56620
56616
56618
56598
56556
56506
56453
56390
56335
56297
56258
56209
56148
56072
55995
55937
55896
55855
55807
55772
55756
55742
55711
55670
55649
55636
55592
55521
55457
55404
55338
55266
55212
55187
55183
55186
55177
55155
55135
55115
55083
55026
54951
54878
54823
54801
54824
54906
55038
55183
55324
55468
55623
55803
56010
56229
56429
56603
56759
56911
57070
57234
57402
57578
57739
57858
57947
58022
58097
58160
58192
58208
58219
58226
58237
58248
58257
58267
58273
58254
58204
58142
58090
58054
58015
57976
57945
57910
57869
57825
57765
57689
57614
57549
57495
57469
57466
57453
57423
57395
57387
57390
57380
57355
57335
57345
57383
57429
57478
57522
57539
57536
57540
57564
57606
57636
57634
57627
57623
57604
57578
57565
57562
57557
57534
57502
57479
57453
57413
57376
57345
57292
57208
57121
57052
56992
56944
56912
56898
56893
56882
56861
56834
56812
56791
56758
56699
56621
56556
56514
56472
56422
56384
56369
56361
56340
56299
56235
56167
56121
56085
56042
55992
55945
55911
55860
55797
55760
55743
55721
55682
55642
55602
55541
55468
55417
55415
55457
55531
55620
55717
55817
55912
56014
56130
56255
56400
56586
56796
56997
57177
57364
57574
57791
58002
58193
58363
58504
58607
58685
58735
58768
58806
58845
58860
58833
58784
58748
58715
58675
58657
58649
58620
58574
58534
58509
58484
58454
58424
58392
58349
58292
58225
58154
58078
57990
57908
57871
57878
57901
57922
57922
57890
57862
57863
57875
57871
57859
57871
57899
57904
57896
57894
57886
57864
57839
57816
57796
57779
57780
57812
57857
57879
57870
57835
57777
57717
57668
57622
57569
57520
57486
57450
57410
57389
57371
57334
57275
57204
57141
57094
57055
57024
57005
57010
57017
56990
56937
56873
56812
56780
56783
56811
56848
56883
56897
56863
56793
56725
56667
56621
56584
56544
56509
56463
56395
56332
56295
56271
56241
56198
56155
56118
56080
56039
56016
56020
56037
56062
56101
56151
56212
56294
56396
56507
56619
56738
56884
57052
57223
57394
57565
57733
57890
58027
58145
58256
58379
58513
58627
58705
58753
58791
58830
58861
58886
58902
58908
58917
58930
58952
58967
58956
58942
58930
58886
58806
58713
58615
58516
58434
58375
58323
58267
58210
58158
58106
58053
58005
57954
57891
57829
57782
57753
57757
57785
57807
57829
57867
57922
57974
58001
58003
58002
58020
58060
58104
58130
58134
58121
58090
58053
58022
57991
57955
57924
57900
57874
57853
57838
57813
57775
57736
57683
57617
57557
57514
57496
57496
57481
57437
57371
57300
57246
57214
57180
57132
57068
57002
56948
56888
56825
56791
56794
56820
56848
56849
56833
56829
56835
56822
56766
56674
56568
56455
56340
56233
56153
56119
56115
56100
56067
56031
56004
55992
55999
56028
56070
56112
56150
56195
56258
56345
56473
56658
56886
57128
57366
57590
57801
57997
58170
58322
58466
58604
58722
58810
58890
58983
59068
59123
59152
59161
59166
59177
59172
59133
59084
59051
59038
59036
59041
59030
58989
58926
58857
58783
58698
58612
58535
58464
58411
58377
58337
58292
58254
58213
58179
58160
58141
58115
58100
58105
58101
58088
58094
58131
58177
58205
58207
58187
58149
58097
58050
58034
58029
58030
58050
58072
58085
58103
58125
58138
58134
58117
58093
58047
57986
57925
57863
57800
57731
57649
57561
57487
57432
57398
57377
57346
57307
57251
57165
57065
56982
56910
56828
56732
56629
56536
56476
56449
56419
56382
56364
56354
56326
56276
56216
56143
56071
56025
56001
55982
55950
55900
55848
55811
55784
55757
55743
55745
55746
55735
55723
55718
55703
55657
55583
55492
55394
55300
55231
55196
55196
55242
55344
55491
55661
55838
56021
56206
56396
56612
56858
57113
57359
57588
57788
57961
58120
58255
58355
58430
58507
58615
58748
58880
58987
59051
59077
59074
59070
59079
59076
59050
59010
58961
58909
58872
58875
58904
58931
58946
58948
58934
58894
58836
58788
58747
58705
58656
58589
58512
58448
58411
58397
58405
58421
58420
58412
58413
58414
58416
58436
58476
58511
58534
58554
58573
58579
58578
58592
58616
58639
58660
58658
58640
58638
58654
58663
58649
58619
58604
58601
58576
58516
58451
58399
58336
58263
58205
58158
58100
58043
58004
57979
57969
57948
57904
57842
57771
57724
57721
57734
57736
57735
57742
57737
57712
57681
57645
57599
57547
57474
57387
57306
57232
57169
57131
57120
57124
57134
57139
57132
57120
57100
57068
57017
56941
56855
56776
56701
56619
56536
56467
56417
56390
56393
56402
56397
56392
56384
56374
56371
56389
56440
56506
56578
56675
56809
56976
57163
57359
57561
57770
57985
58202
58415
58619
58803
58974
59140
59294
59424
59523
59599
59664
59724
59779
59832
59879
59907
59913
59907
59896
59882
59865
59843
59811
59774
59752
59747
59737
59717
59690
59670
59655
59637
59620
59590
59532
59460
59389
59319
59246
59170
59094
59020
58965
58930
58904
58884
58874
58875
58889
58920
58961
58996
59015
59024
59018
58991
58954
58918
58895
58891
58896
58897
58885
58867
58845
58813
58780
58756
58746
58754
58770
58790
58819
58849
58872
58886
58866
58803
58726
58654
58592
58531
58460
58388
58337
58308
58286
58256
58212
58145
58064
57989
57918
57852
57812
57791
57754
57694
57623
57553
57496
57446
57385
57325
57294
57284
57276
57268
57264
57255
57228
57186
57148
57111
57062
57007
56956
56914
56882
56859
56834
56794
56733
56666
56615
56582
56549
56519
56508
56520
56543
56567
56580
56580
56580
56592
56628
56699
56802
56922
57062
57234
57429
57640
57863
58089
58314
58536
58748
58944
59125
59288
59432
59557
59667
59755
59808
59838
59861
59878
59886
59886
59864
59811
59748
59693
59646
59605
59560
59511
59477
59460
59456
59450
59430
59395
59351
59298
59232
59175
59145
59133
59117
59093
59072
59056
59035
59004
58963
58922
58888
58869
58876
58896
58908
58917
58942
58987
59026
59033
59032
59055
59081
59084
59082
59093
59097
59061
58988
58903
58814
58746
58731
58751
58759
58743
58721
58699
58657
58593
58535
58497
58457
58399
58334
58282
58232
58182
58155
58142
58127
58101
58046
57966
57878
57800
57752
57721
57673
57621
57592
57582
57575
57547
57496
57438
57378
57327
57288
57243
57188
57131
57079
57026
56973
56925
56885
56849
56813
56768
56720
56679
56646
56610
56567
56530
56515
56514
56520
56550
56611
56697
56798
56903
57021
57162
57325
57501
57695
57909
58128
58331
58502
58652
58792
58915
59026
59135
59229
59320
59426
59536
59635
59727
59796
59828
59825
59801
59765
59724
59700
59698
59694
59670
59626
59563
59494
59431
59374
59332
59290
59222
59133
59043
58968
58919
58890
58864
58829
58786
58757
58764
58793
58800
58776
58748
58726
58708
58695
58698
58719
58753
58795
58839
58875
58888
58871
58835
58801
58780
58765
58751
58727
58692
58668
58648
58619
58584
58550
58515
58470
58416
58364
58316
58266
58220
58175
58132
58095
58061
58023
57994
57971
57942
57904
57855
57806
57772
57752
57725
57675
57610
57550
57492
57427
57374
57345
57328
57312
57298
57292
57283
57253
57217
57194
57169
57140
57112
57073
57025
56990
56973
56966
56964
56961
56952
56931
56886
56818
56736
56652
56566
56470
56380
56309
56241
56178
56143
56125
56116
56135
56187
56252
56330
56427
56547
56686
56828
56980
57149
57327
57510
57693
57877
58066
58258
58436
58586
58714
58827
58919
58994
59056
59111
59166
59214
59246
59268
59288
59309
59319
59312
59288
59240
59175
59116
59075
59039
58998
58960
58933
58909
58883
58863
58848
58821
58779
58733
58691
58645
58588
58528
58488
58471
58460
58453
58445
58436
58430
58432
58446
58469
58490
58508
58525
58533
58537
58545
58553
58557
58557
58549
58534
58501
58449
58394
58343
58296
58256
58219
58178
58146
58132
58123
58104
58075
58045
58017
57995
57984
57975
57958
57923
57867
57791
57709
57638
57584
57535
57483
57428
57365
57298
57242
57199
57164
57134
57117
57107
57095
57086
57074
57047
57002
56952
56915
56896
56900
56919
56928
56911
56865
56808
56764
56729
56677
56614
56569
56547
56530
56501
56444
56372
56320
56290
56264
56244
56232
56222
56213
56220
56244
56275
56308
56337
56371
56426
56500
56586
56701
56849
57005
57160
57337
57517
57661
57770
57879
58005
58129
58233
58314
58377
58435
58496
58556
58605
58635
58651
58664
58691
58729
58764
58792
58803
58781
58739
58701
58664
58631
58610
58593
58561
58516
58464
58403
58338
58283
58240
58198
58150
58096
58040
57974
57894
57806
57726
57664
57625
57603
57595
57598
57602
57617
57652
57700
57746
57780
57805
57818
57813
57795
57765
57723
57684
57665
57659
57644
57614
57580
57559
57563
57582
57605
57618
57612
57598
57577
57527
57452
57380
57321
57264
57202
57148
57108
57065
57005
56933
56866
56813
56761
56704
56659
56624
56589
56560
56537
56501
56439
56368
56311
56273
56247
56223
56205
56202
56210
56212
56188
56141
56080
56028
56011
56014
56005
55979
55940
55903
55877
55859
55838
55803
55762
55735
55731
55727
55682
55612
55566
55546
55538
55537
55544
55570
55611
55649
55696
55768
55855
55965
56108
56270
56424
56553
56674
56811
56950
57069
57173
57272
57367
57455
57528
57577
57613
57665
57742
57816
57856
57862
57864
57864
57853
57826
57774
57705
57630
57544
57446
57343
57243
57160
57101
57058
57019
56991
56986
56986
56965
56929
56890
56862
56843
56815
56769
56719
56677
56654
56652
56656
56659
56666
56679
56713
56755
56775
56778
56777
56771
56762
56751
56738
56726
56713
56695
56674
56666
56682
56705
56707
56687
56659
56630
56592
56547
56507
56490
56505
56524
56524
56513
56487
56433
56363
56300
56270
56264
56251
56226
56192
56131
56057
56001
55968
55945
55931
55918
55902
55886
55854
55802
55738
55654
55557
55469
55391
55317
55253
55212
55193
55178
55160
55148
55140
55130
55122
55115
55094
55040
54964
54898
54844
54793
54754
54730
54724
54746
54791
54853
54942
55060
55192
55330
55475
55623
55761
55891
56028
56180
56353
56537
56708
56847
56967
57091
57212
57304
57364
57414
57452
57465
57471
57476
57472
57451
57407
57347
57274
57202
57139
57079
57027
56994
56972
56958
56948
56935
56921
56901
56873
56832
56778
56724
56680
56646
56627
56621
56606
56572
56528
56484
56434
56378
56323
56271
56219
56174
56155
56166
56188
56232
56290
56335
56366
56394
56430
56457
56454
56426
56399
56372
56338
56309
56287
56285
56289
56283
56272
56255
56237
56230
56223
56204
56166
56120
56068
56019
55972
55904
55819
55743
55693
55672
55653
55618
55569
55510
55446
55382
55327
55281
55246
55221
55191
55157
55143
55148
55159
55178
55200
55209
55207
55199
55178
55139
55085
55025
54971
54928
54879
54825
54776
54745
54738
54737
54718
54678
54627
54578
54543
54531
54565
54646
54755
54898
55078
55262
55416
55547
55684
55841
55999
56149
56310
56486
56641
56766
56882
56990
57084
57176
57272
57359
57429
57472
57483
57474
57459
57452
57453
57435
57401
57377
57357
57322
57277
57242
57223
57201
57173
57152
57131
57093
57049
57006
56953
56895
56843
56796
56753
56706
56659
56643
56653
56661
56663
56664
56654
56630
56612
56623
56654
56694
56726
56729
56697
56652
56607
56574
56556
56535
56516
56517
56526
56541
56563
56584
56610
56630
56621
56580
56534
56507
56498
56498
56487
56466
56456
56440
56384
56296
56202
56125
56072
56013
55949
55901
55853
55813
55796
55773
55746
55733
55719
55687
55652
55645
55644
55614
55576
55559
55545
55498
55432
55367
55301
55229
55155
55080
55005
54952
54930
54915
54903
54898
54874
54841
54822
54809
54798
54788
54784
54791
54798
54799
54796
54803
54846
54929
55057
55212
55357
55481
55599
55724
55867
56024
56173
56300
56419
56555
56709
56866
57012
57139
57249
57346
57409
57445
57476
57491
57481
57467
57445
57423
57426
57436
57423
57389
57338
57280
57225
57168
57102
57025
56942
56866
56791
56707
56622
56542
56477
56431
56401
56396
56403
56406
56397
56373
56346
56330
56310
56291
56285
56284
56280
56282
56296
56311
56328
56373
56441
56483
56495
56513
56533
56541
56538
56519
56491
56445
56385
56333
56287
56241
56212
56197
56180
56178
56192
56200
56199
56181
56143
56116
56103
56075
56030
55977
55910
55840
55782
55727
55685
55669
55666
55669
55669
55638
55585
55539
55485
55405
55329
55276
55226
55178
55146
55116
55076
55029
55003
54999
54989
54969
54947
54914
54866
54825
54818
54828
54834
54857
54899
54934
54978
55062
55161
55260
55372
55487
55606
55742
55892
56045
56197
56341
56484
56636
56794
56937
57052
57148
57229
57296
57343
57366
57371
57366
57348
57318
57295
57287
57273
57236
57184
57141
57109
57064
56993
56908
56838
56787
56738
56685
56625
56568
56518
56454
56374
56304
56264
56248
56249
56268
56285
56294
56302
56306
56305
56302
56292
56279
56280
56300
56340
56383
56431
56493
56567
56641
56693
56711
56705
56680
56628
56565
56532
56517
56473
56418
56391
56392
56406
56422
56436
56438
56417
56376
56312
56241
56182
56123
56053
55979
55907
55835
55766
55710
55673
55649
55621
55588
55564
55545
55524
55505
55484
55471
55465
55439
55391
55343
55308
55287
55266
55233
55188
55125
55054
54980
54913
54867
54839
54839
54857
54875
54906
54960
55030
55112
55197
55277
55362
55458
55571
55725
55912
56099
56286
56476
56654
56812
56962
57115
57273
57423
57542
57622
57673
57706
57739
57776
57798
57799
57796
57794
57785
57766
57738
57717
57716
57727
57741
57737
57696
57625
57547
57468
57391
57321
57260
57204
57156
57130
57119
57111
57113
57132
57161
57183
57181
57159
57141
57134
57114
57083
57070
57089
57115
57124
57112
57080
57046
57031
57023
57011
56996
56991
57000
57014
57008
56989
56974
56964
56969
56988
56987
56948
56896
56859
56820
56774
56745
56732
56714
56683
56651
56628
56610
56584
56546
56494
56421
56349
56294
56245
56196
56137
56077
56040
56032
56040
56055
56074
56092
56107
56126
56135
56125
56109
56095
56072
56039
56006
55955
55889
55828
55787
55772
55771
55773
55778
55773
55756
55748
55767
55829
55932
56060
56216
56413
56635
56861
57073
57258
57430
57608
57798
57989
58167
58332
58487
58613
58698
58748
58778
58787
58770
58733
58699
58683
58674
58673
58703
58750
58787
58809
58821
58834
58845
58838
58814
58771
58713
58635
58546
58473
58418
58376
58341
58303
58261
58220
58179
58136
58089
58052
58040
58043
58040
58024
58008
58004
58014
58035
58056
58073
58088
58107
58117
58113
58109
58101
58096
58104
58121
58153
58189
58213
58232
58250
58262
58252
58217
58185
58162
58131
58091
58037
57968
57891
57810
57718
57620
57537
57484
57454
57433
57414
57396
57378
57352
57312
57268
57225
57177
57110
57039
56985
56934
56868
56798
56742
56700
56666
56642
56624
56595
56555
56520
56498
56472
56446
56431
56409
56370
56325
56270
56204
56146
56115
56119
56152
56207
56277
56347
56404
56459
56538
56661
56822
56996
57164
57321
57474
57629
57791
57958
58131
58301
58462
58615
58757
58885
59001
59101
59161
59173
59161
59151
59145
59146
59155
59167
59165
59145
59127
59121
59108
59085
59051
58994
58914
58823
58731
58637
58560
58531
58537
58546
58552
58558
58559
58548
58518
58470
58412
58352
58305
58277
58265
58245
58213
58188
58183
58185
58188
58198
58214
58220
58205
58173
58136
58115
58114
58119
58124
58121
58111
58105
58103
58098
58076
58038
57995
57950
57914
57886
57860
57837
57818
57807
57804
57801
57791
57779
57762
57726
57684
57654
57621
57574
57536
57521
57502
57458
57399
57327
57259
57213
57173
57136
57114
57098
57081
57059
57024
56984
56954
56929
56906
56897
56903
56914
56915
56892
56851
56807
56760
56701
56649
56611
56569
56526
56504
56514
56548
56603
56687
56804
56941
57088
57247
57410
57555
57695
57853
58028
58193
58336
58471
58592
58689
58766
58821
58849
58858
58861
58878
58907
58931
58946
58955
58953
58946
58936
58916
58876
58831
58785
58727
58659
58605
58581
58574
58556
58519
58475
58424
58368
58319
58286
58263
58254
58249
58222
58186
58180
58202
58225
58251
58274
58273
58260
58251
58232
58193
58151
58123
58102
58081
58074
58089
58104
58107
58103
58088
58061
58041
58042
58054
58081
58116
58125
58104
58072
58021
57953
57876
57791
57711
57646
57602
57589
57596
57587
57562
57546
57544
57544
57537
57522
57498
57452
57399
57362
57337
57295
57233
57157
57077
57010
56960
56916
56878
56852
56829
56817
56821
56822
56830
56837
56814
56761
56707
56676
56662
56638
56587
56514
56437
56376
56332
56293
56268
56274
56300
56316
56326
56366
56437
56510
56595
56700
56815
56952
57103
57229
57343
57479
57634
57793
57970
58163
58359
58549
58720
58856
58950
59017
59071
59100
59098
59093
59103
59116
59119
59098
59068
59046
59025
59018
59027
59027
59002
58969
58940
58916
58895
58859
58809
58764
58718
58673
58636
58605
58581
58562
58544
58521
58496
58483
58468
58435
58396
58363
58342
58333
58338
58361
58414
58482
58536
58575
58590
58580
58566
58568
58584
58615
58658
58695
58714
58728
58748
58760
58734
58667
58582
58510
58454
58397
58321
58235
58155
58094
58075
58082
58075
58051
58032
58031
58032
58000
57938
57873
57805
57727
57666
57634
57612
57600
57607
57628
57655
57668
57649
57606
57556
57507
57463
57423
57391
57379
57385
57392
57372
57324
57275
57228
57189
57159
57117
57063
57002
56937
56882
56840
56807
56791
56787
56773
56743
56723
56717
56699
56656
56595
56522
56448
56390
56373
56390
56412
56445
56508
56599
56712
56843
56970
57096
57234
57376
57524
57673
57821
57971
58113
58253
58403
58536
58644
58730
58802
58883
58972
59041
59076
59099
59142
59191
59217
59227
59221
59200
59165
59109
59045
58989
58959
58971
59003
59001
58963
58937
58928
58902
58854
58794
58727
58670
58624
58575
58532
58492
58450
58424
58433
58468
58507
58548
58593
58634
58656
58649
58616
58582
58562
58551
58542
58533
58527
58534
58543
58531
58496
58454
58424
58412
58412
58413
58406
58400
58405
58417
58411
58383
58354
58317
58266
58213
58179
58160
58128
58087
58061
58030
57982
57935
57894
57856
57821
57810
57813
57802
57784
57764
57735
57690
57626
57560
57509
57456
57402
57374
57371
57371
57360
57346
57345
57331
57301
57280
57256
57226
57198
57166
57132
57093
57046
57018
57016
57009
56987
56960
56917
56854
56796
56766
56743
56702
56652
56602
56568
56562
56578
56598
56626
56675
56729
56792
56872
56959
57064
57189
57325
57477
57622
57755
57890
58036
58206
58380
58518
58618
58709
58802
58882
58952
59019
59059
59067
59071
59081
59075
59050
59023
58996
58965
58936
58917
58907
58906
58901
58871
58824
58792
58764
58714
58656
58614
58583
58564
58538
58497
58466
58449
58427
58390
58349
58317
58300
58282
58247
58211
58205
58225
58237
58247
58274
58308
58336
58344
58346
58371
58404
58413
58396
58373
58364
58366
58370
58381
58400
58419
58443
58463
58462
58438
58404
58389
58385
58366
58332
58284
58242
58224
58218
58212
58201
58175
58148
58124
58105
58090
58051
57980
57887
57793
57725
57688
57659
57616
57569
57532
57512
57507
57499
57491
57488
57473
57434
57373
57302
57231
57162
57121
57114
57120
57127
57127
57128
57133
57147
57159
57145
57104
57039
56957
56870
56779
56681
56587
56524
56505
56520
56551
56596
56656
56736
56848
56980
57114
57255
57391
57508
57620
57755
57916
58076
58221
58376
58539
58686
58828
58966
59087
59182
59251
59297
59336
59384
59432
59461
59465
59451
59415
59362
59314
59263
59209
59172
59151
59133
59098
59044
58988
58941
58907
58904
58927
58934
58902
58851
58812
58790
58777
58765
58746
58704
58642
58591
58555
58518
58484
58456
58440
58444
58449
58440
58439
58456
58483
58517
58538
58541
58552
58574
58587
58597
58633
58689
58728
58730
58715
58709
58705
58685
58640
58574
58502
58437
58389
58369
58363
58346
58324
58307
58290
58283
58286
58270
58228
58179
58143
58123
58093
58044
57999
57958
57910
57858
57807
57758
57719
57700
57691
57673
57648
57632
57624
57596
57550
57506
57466
57416
57355
57290
57232
57187
57155
57126
57092
57049
57015
57000
57005
57023
57042
57057
57068
57057
57020
56968
56909
56853
56797
56746
56711
56704
56744
56816
56894
56987
57114
57266
57440
57623
57802
57965
58112
58244
58381
58548
58734
58917
59085
59232
59360
59466
59548
59606
59652
59691
59725
59754
59772
59775
59750
59696
59628
59567
59531
59514
59493
59459
59420
59378
59326
59265
59187
59104
59035
58977
58931
58887
58829
58772
58728
58704
58704
58716
58724
58714
58707
58719
58728
58736
58755
58781
58811
58850
58877
58883
58894
58914
58910
58889
58877
58857
58816
58770
58738
58730
58739
58764
58792
58809
58805
58791
58778
58755
58716
58664
58608
58566
58544
58525
58500
58472
58435
58371
58292
58227
58170
58105
58029
57954
57910
57907
57922
57940
57950
57947
57941
57931
57918
57907
57893
57871
57849
57828
57801
57754
57686
57602
57507
57403
57316
57268
57248
57247
57249
57234
57213
57202
57194
57177
57143
57102
57066
57022
56961
56895
56843
56808
56776
56752
56755
56788
56836
56892
56950
57008
57085
57202
57360
57526
57692
57882
58088
58284
58444
58568
58678
58790
58907
59035
59172
59309
59437
59549
59644
59718
59767
59800
59817
59796
59751
59722
59706
59678
59642
59609
59570
59514
59445
59382
59327
59267
59204
59163
59141
59108
59055
59008
58980
58951
58896
58818
58738
58664
58599
58553
58528
58528
58557
58584
58584
58582
58598
58617
58640
58675
58720
58772
58813
58825
58810
58794
58802
58822
58818
58790
58772
58763
58753
58749
58737
58698
58644
58590
58554
58537
58520
58476
58403
58337
58298
58251
58197
58174
58173
58161
58137
58120
58115
58111
58096
58061
57999
57910
57824
57768
57736
57723
57715
57705
57709
57725
57736
57737
57733
57724
57696
57645
57592
57552
57526
57504
57468
57427
57383
57315
57227
57145
57088
57060
57056
57067
57094
57130
57160
57196
57254
57326
57417
57553
57725
57900
58078
58274
58475
58655
58812
58961
59111
59245
59342
59430
59542
59665
59763
59846
59917
59962
59982
60001
60037
60083
60102
60081
60046
60019
60001
59976
59933
59886
59861
59839
59790
59733
59689
59638
59586
59552
59527
59495
59465
59454
59450
59433
59384
59300
59218
59181
59184
59193
59194
59201
59216
59238
59267
59303
59350
59411
59474
59529
59573
59599
59617
59631
59628
59605
59578
59561
59547
59530
59512
59487
59460
59425
59364
59282
59197
59113
59036
58979
58958
58965
58973
58973
58960
58935
58902
58858
