29108
29220
29118
29452
29306
29130
29088
29523
29237
29276
29246
29319
29342
29665
29130
29173
29299
29726
29450
29481
29350
29388
29583
29329
29445
29317
29599
29351
28988
29198
28978
29318
29539
29009
29519
28972
29068
29144
28709
28914
28954
28677
28750
28764
28656
28530
28672
28997
28684
28848
28618
28734
28663
28705
28746
28617
28403
28654
28548
28513
28332
28505
28790
28613
28661
28478
28365
28613
28774
28830
28387
28663
28665
28947
28812
29016
28505
29062
28913
28645
28629
28941
28799
28471
28635
28413
29031
28992
28871
28654
28697
28815
29122
28764
28777
28680
28616
28587
28692
28729
28755
28692
28802
29011
28791
28994
28864
28903
28832
28756
28944
28671
28802
28902
28875
28888
28623
28804
28606
28840
28907
28840
28814
28892
29109
28804
29248
29066
28944
28998
28776
29036
28989
29103
29031
29150
28854
29267
29071
29433
28930
29117
29249
29194
28797
28852
28886
28884
29294
29131
29421
28921
29088
29127
28768
29325
29141
28891
28900
29260
29228
29207
29061
28995
29132
28966
29128
29298
29046
29202
28989
29223
28916
28837
28980
28670
28942
28761
28738
28712
28359
28635
28830
28397
28706
28391
28383
28430
28775
28556
28625
28160
28199
28587
28639
28531
28173
28036
28392
27954
28235
28283
28379
28245
28442
28153
28023
28392
28192
28179
28274
28211
28480
28217
28458
28274
28348
28215
28033
28383
28189
28370
28501
28636
28391
28595
28420
28601
28276
28662
28559
28271
28410
28325
28244
28458
28254
28621
28723
28249
28525
28546
28714
28453
28519
28376
28623
28743
28895
28342
28453
28440
28393
28715
28607
28834
28639
28588
28629
28888
28666
28535
28682
28796
28644
28893
28594
28949
28971
28495
28918
28952
28569
28830
28498
28923
28857
28645
28539
28844
28535
29002
29242
29096
28907
28693
28480
28561
28717
28838
28999
28993
29097
28681
28859
29095
28679
28633
28826
29195
29084
28813
28690
28939
28784
28840
28698
28898
29247
28914
28807
28876
28955
29075
28804
29073
28898
28673
28716
28838
28763
28643
28653
28263
28577
28470
28458
28554
28372
28508
28391
28375
28106
28474
28538
28102
28421
28210
28350
28156
28106
28441
28449
28026
28409
28361
27993
28204
28385
27890
27996
28142
28053
28466
28135
28475
28111
28423
28442
28105
28427
28054
28203
28241
28466
28306
28029
28284
28643
28312
28421
28427
28453
28568
28652
28533
28746
28324
28612
28189
28474
28535
28497
28560
28800
28656
28595
28893
28587
28629
28747
28590
28579
28425
28882
28505
28592
28791
28944
28811
28949
28550
28969
28448
28765
28933
28719
28681
28798
28539
29041
28621
28743
28535
28743
28523
28887
29019
28770
28828
28846
28795
28766
28771
28872
28872
28852
28886
29037
28899
28753
28825
29118
28915
28711
29031
28601
29147
28770
29163
29137
29170
29099
28932
29155
28924
28805
29199
28962
28649
28774
28888
29155
29303
29042
28649
29100
29019
29181
28920
28952
28887
28669
28752
28971
28702
28618
28795
28416
28640
28495
28446
28390
28609
28403
28151
28419
28552
28280
28378
28343
28361
28195
28144
28245
28421
28340
28056
27821
28279
28114
28253
27987
28085
28372
28332
28164
27910
28210
28183
27745
27938
28101
28361
27824
28007
28220
28500
28009
28209
28261
28108
28314
28257
28401
28461
28330
28246
28502
28341
28226
28385
28505
28389
28392
28376
28348
28367
28173
28414
28545
28406
28373
28318
28425
28685
28506
28781
28531
28405
28290
28711
28342
28449
28722
28325
28445
28526
28477
28412
28392
28571
28597
28384
28561
28584
28557
28880
28361
28791
28645
28570
28699
28492
28627
28925
28807
28482
28629
28881
28729
28576
28848
28769
28904
28654
28603
28577
28900
28766
28897
28787
28697
28647
28709
28580
28442
28673
28327
28508
28848
28542
28698
28779
28714
28683
28571
28577
28653
28764
28551
28865
28585
29094
28743
28877
28635
29096
28771
28865
28944
29077
29159
28831
29178
28892
29103
28893
28676
28898
29019
28755
28697
28870
29135
28940
29167
28683
28733
29192
28756
28896
28840
29248
28860
28785
28973
29024
29039
28971
29071
29115
28787
29114
29235
29015
29024
28943
29110
29030
29305
29074
29151
29022
28932
29209
29054
28834
29281
29070
29163
29003
29144
29288
29117
29161
29110
28980
29005
29346
29285
29291
29250
29285
29177
29131
28883
29153
29483
29133
28861
29396
29161
29420
28964
28990
28989
29350
28990
29455
29349
29431
29304
29152
29282
28958
29171
29472
29136
29507
29068
29038
29258
29518
29051
29343
29183
29353
29327
29169
29686
29547
29313
29358
29140
29580
29535
29562
29491
29169
29416
29143
29400
29660
29417
29226
29363
29039
29131
29679
29384
29625
29182
29114
29390
29582
29180
29694
29330
29309
29367
29606
29288
29346
29123
29592
29282
29409
29498
29551
29489
29682
29558
29541
29444
29392
29445
29605
29271
29060
29271
28883
29016
28854
29158
29113
28937
28916
28914
28733
28339
28569
28611
28454
28840
28583
28219
28763
28413
28523
28800
28618
28708
28705
28222
28266
28501
28470
28163
28443
28469
28348
28231
28000
28361
28188
28571
28389
28524
28448
28343
28403
28676
28438
28517
28547
28401
28323
28552
28640
28330
28641
28578
28461
28267
28766
28508
28232
28525
28574
28570
28694
28377
28375
28583
28542
28778
28400
28414
28472
28986
28581
28882
28814
28753
28462
28575
28469
28931
28939
28625
28612
28475
28980
29003
28512
28764
28826
28708
28808
28705
28692
28746
29086
28882
28725
28856
28927
28876
28913
28721
28890
29050
28931
29121
28962
29179
28939
29323
28940
28737
29255
29264
28874
29060
29171
28984
29327
29224
28821
29096
29095
29144
28799
29337
29181
28932
29021
28927
29341
29082
28960
29187
29148
29038
29173
28923
28918
29506
29397
29016
29187
29292
29006
29107
29392
29360
29094
29108
29093
29443
29410
28996
29295
29320
29074
29304
29092
29297
29008
29154
29093
29541
29422
29384
29240
29038
29244
29482
29342
29503
29325
29300
29288
29322
29282
29343
29206
29357
29057
29264
29642
29356
29022
29505
29750
29271
29477
29525
29470
29279
29681
29250
29589
29264
29462
29788
29495
29747
29358
29193
29361
29628
29634
29428
29659
29489
29771
29536
29263
29607
29203
29573
29871
29626
29802
29448
29825
29368
29306
29398
29403
29404
29489
29757
29729
29535
29669
29936
29551
29814
29705
29601
29683
29409
29780
29737
29724
29572
29534
29785
29898
29684
29990
29640
29980
29830
29639
29612
30120
29545
29775
29529
29528
29627
30083
29854
29870
30105
29986
30074
29928
30104
29581
30193
29688
29971
29836
29929
29887
29953
29909
29971
29849
29874
30026
29895
29655
30032
29689
29751
30214
30108
29763
29956
30096
30104
29824
29956
29707
29824
29643
29236
29342
29447
29494
29603
29389
29227
29218
28945
29024
29408
29120
29082
29163
29145
28688
28842
28637
28787
28737
28908
28623
29114
28625
29117
28638
28696
28689
29075
28982
28949
28956
28714
28831
28697
29013
29108
28643
29263
28654
28560
28818
29051
29210
28854
29068
29008
29264
28920
29312
29076
29275
29224
28922
29178
29008
29357
29100
29328
29120
29056
29108
29147
29096
29150
29162
29224
29179
29030
28996
29105
29260
29071
29453
29042
29215
29138
29325
29065
29329
29201
29239
28931
29548
29219
29294
29062
29466
29154
29229
28958
29155
29317
29153
28979
29293
29452
29264
29291
29368
29269
29356
29288
29314
29327
29683
29370
29486
29219
29403
29531
29359
29443
29429
29373
29642
29343
29528
29435
29224
29376
29193
29439
29578
29169
29480
29201
29466
29655
29512
29421
29518
29399
29540
29446
29515
29521
29538
29525
29584
29491
29464
29415
29482
29384
29463
29356
29484
29313
29222
29103
29242
28787
29085
28882
28952
29227
28967
29164
29178
28853
29125
29126
28899
28866
28671
29071
28902
28839
28839
28704
28812
29020
28685
28949
28640
28975
28858
28814
29059
28623
28717
28598
28914
28732
28906
29012
28750
28857
28943
29089
28998
28793
28928
28894
28996
28962
28676
28869
28726
28951
28970
29092
29126
28833
28955
29137
29004
28954
29158
28782
28977
28742
29159
28783
28951
29225
29298
29456
28880
29083
28931
29378
29168
29141
28975
29065
29096
29112
29209
28986
29401
29290
28955
29443
29526
29083
28944
29362
29346
29210
29282
29272
29251
29101
29344
29298
29292
29358
29284
29136
29416
29169
29380
29384
29535
29467
29049
29473
29629
29218
29048
29306
29106
29389
29645
29375
29103
29515
29030
29361
29260
29556
29349
29128
29409
29663
29453
29360
29527
29294
29330
29151
29208
29443
29319
29136
29395
29414
29165
29249
29303
29009
29429
29196
29420
29136
29195
29092
29020
29146
28705
28854
28793
28857
28917
28771
28718
28418
28829
29014
28868
28649
28595
28549
28831
28615
28578
28878
29012
28451
28918
28717
28382
28847
28645
28872
28570
28613
28761
28770
28803
28732
28427
28832
28675
29088
28860
28853
28620
28983
28742
29021
28778
28749
28857
28728
28619
28635
28817
28924
29020
28837
28571
28902
28826
28824
28595
28946
29213
29122
29080
29041
29029
28909
29101
28722
28980
29322
29068
28687
28823
28787
29004
28916
29186
29315
28828
28722
29319
29264
28792
28924
29298
29105
29050
29290
29504
29116
29184
29082
28980
29197
29084
29271
29195
29386
29148
29376
29227
29025
29293
29471
29171
29073
29014
29253
29149
29291
29040
29226
29446
29127
29294
29475
29584
29420
29568
29446
29079
29562
29431
29178
29499
29647
29381
29650
29412
29418
29382
29612
29366
29191
29390
29166
29221
29191
29240
29194
29343
29151
28975
29120
28901
29111
29121
28988
28906
28917
28685
28918
28583
29019
28893
28682
28915
28820
28863
29014
28889
28480
28734
28760
28796
29104
28618
28868
28714
28486
28743
28505
28717
28884
29004
28767
28949
28806
28683
28771
28836
28627
28577
28677
29241
28838
28613
29037
28794
28725
28928
29011
28735
28671
29102
28727
28733
28905
28788
29279
28879
29082
29136
28893
28841
29075
29211
28993
28999
29019
29136
29008
29042
29105
29298
29178
28907
29037
29085
28918
29044
29097
29091
28854
28924
29319
29289
29113
29265
29009
29358
29511
28984
29338
29040
29438
29386
29414
28880
29349
29415
29091
29307
29363
29531
29234
29111
29292
29455
29324
29338
29152
29346
29545
29336
29274
29357
29553
29330
29272
29422
29332
29377
29264
29599
29610
29405
29642
29473
29574
29419
29488
29230
29182
29694
29245
29642
29447
29410
29281
29333
28904
28842
29045
29166
28732
28982
29024
28807
28828
28899
29008
29055
28556
28745
28809
28834
28812
28836
28698
28833
28654
28791
28755
28430
28607
28394
28647
28703
28522
28702
28743
28756
28888
28915
28697
28660
28806
28863
28656
28663
28690
28760
28668
28692
29093
28999
28808
28775
28921
29019
28873
28697
28912
29107
28821
28921
28853
29216
28983
29200
28885
29151
28913
29037
28827
28958
28741
28972
29190
28995
28948
28965
28916
28982
28995
29123
29217
29113
29036
28865
29165
29340
29007
29084
29132
29437
29104
29379
29356
28852
29164
28957
29002
29466
28999
29373
28945
28934
29389
29337
28933
29249
29495
29259
29278
29131
29240
29098
29461
29372
29333
29178
29292
29357
29239
29034
29213
29112
29259
29571
29273
29370
29369
29406
29262
29409
29345
29399
29658
29306
29196
29505
29148
29274
29442
29270
29490
29567
29635
29473
29724
29679
29670
29271
29434
29492
29662
29805
29548
29478
29258
29544
29430
29303
29452
29503
29334
29468
29383
29500
29624
29563
29501
29624
29911
29521
29834
29691
29470
29928
29437
29693
29535
29879
29883
29724
29699
29748
29572
29859
29604
29756
29589
29667
29826
29529
29650
29791
29880
29954
29824
29850
29673
29858
30060
29855
29684
29885
29908
29917
29844
29888
29967
30048
30004
30115
29856
29963
29908
30179
30101
29985
29908
29704
29804
29921
30025
29672
30183
30354
29807
29813
29984
29815
30258
29822
30140
29790
30052
29928
30179
29943
30077
29841
30219
29943
30189
30335
30063
30350
30154
30311
30114
30018
30157
30260
30134
29907
30190
30233
30062
30136
30164
30186
29914
29875
30278
30202
29858
30145
30275
29936
30016
29967
30117
29909
30155
30078
30027
30363
30084
29789
30243
29838
30261
29958
29948
30117
30007
29864
30240
30409
30295
30077
30176
30154
30034
30084
29889
29987
29667
29908
29588
29635
29862
29481
29880
29272
29172
29326
29608
29390
29257
29458
29406
28942
28918
28928
28992
29391
29219
29027
28708
29082
29144
28908
28933
28930
28745
28853
28785
28908
29127
28783
28844
28890
28931
28738
28896
28677
28999
28686
28983
28814
28941
28932
29065
29122
28913
28878
28808
29151
29160
29070
29100
29120
28712
29135
29098
28959
28782
28909
28840
28821
29122
28932
29094
29145
29324
29395
29295
29155
29255
29375
29307
28901
29052
29033
29240
28904
29366
29416
29049
29355
29012
29198
29490
29373
29296
29321
29505
29110
29358
29154
29426
29147
29344
29184
29229
29137
29312
29019
29383
29344
29318
28987
29176
29283
29369
29445
29532
29331
29564
29281
29166
29109
29382
29247
29302
29393
29260
29538
29362
29199
29138
29634
29595
29645
29411
29248
29794
29779
29518
29362
29510
29548
29493
29492
29467
29434
29437
29446
29367
29558
29623
29662
29423
29439
29034
29371
29322
29129
29294
29058
29140
29015
29002
29229
29175
28893
29023
29101
28645
29173
28883
28590
28707
28669
28796
28947
28660
28802
28759
28444
28829
28881
28542
28847
28371
28523
28915
28634
28961
28546
28409
28625
28853
28522
28589
28857
28692
28520
28581
28966
28598
28995
28666
28675
28771
28777
28805
28632
28664
28636
28805
28785
28896
28803
28664
28903
28584
28915
28800
28905
28697
28805
29013
28853
28791
28681
29106
29156
29132
29093
28667
28956
28733
29119
28784
28813
28776
29210
29143
28715
28946
28860
28810
29309
29239
29194
29278
29149
29083
29055
29098
29081
29224
29151
29049
29149
29079
29131
29182
29293
29097
29299
29162
29190
29141
29352
29103
28955
29031
29194
29241
29186
29203
29459
29032
29007
29206
29496
29227
29275
28993
29344
29066
29296
29651
29343
29161
29487
29524
29263
29631
29253
29387
29204
29371
29172
29291
29530
29171
29566
29040
29465
28971
29148
28981
28877
28843
28932
28729
28923
28838
28903
28609
28839
28611
28703
28480
28546
28672
28645
28742
28630
28633
28633
28571
28550
28577
28798
28433
28216
28658
28875
28773
28299
28457
28225
28450
28478
28461
28575
28581
28434
28409
28770
28594
28775
28714
28425
28875
28904
28781
28909
28480
28801
28869
28538
28661
28458
28750
28469
28751
28809
28779
28668
28766
28808
28790
28806
28725
28776
28881
28823
28713
28808
29169
29018
28724
28986
28931
28932
28909
28678
28808
28770
29233
29001
28862
28796
29188
28811
28877
29065
29026
28774
28916
29009
29168
29341
29013
29047
29337
29084
29312
29072
29103
29172
29007
29089
29226
29244
29219
29298
28942
29046
29004
29435
29066
28870
29267
29345
29202
28839
29331
28835
29306
28991
29374
29379
29154
29200
28996
29282
29336
29337
28850
29069
29059
29376
29366
29003
29073
29181
28723
28771
29092
28678
28914
28841
28803
28785
28567
28636
28623
28740
28353
28736
28375
28850
28551
28498
28675
28376
28470
28432
28537
28434
28325
28412
28138
28323
28514
28327
28550
28364
28340
28273
28406
28538
28294
28474
28479
28716
28503
28650
28274
28196
28240
28258
28630
28530
28362
28479
28354
28723
28467
28484
28249
28424
28425
28713
28259
28355
28709
28685
28421
28375
28386
28584
28526
28755
28604
28753
28596
28375
28610
28706
28563
28691
28683
28641
28657
28873
28903
28696
28741
28572
28803
28783
28634
28879
28523
28978
28529
28913
28758
28782
28730
28964
28835
28826
28957
28878
29072
28832
28854
29041
29001
28821
28995
28767
28956
28932
28813
28916
28768
28969
28880
28951
28942
28955
28900
28995
29165
29015
28877
29026
29034
29113
28931
29021
29047
28733
29014
28761
29035
29276
29185
29248
29069
29261
29190
28786
29116
29068
28636
28765
28580
28721
28883
28696
28560
28534
28690
28466
28327
28440
28297
28323
28424
28093
28344
28472
28105
28458
28372
28208
28448
28336
28262
28289
28065
27979
28133
28131
27948
28113
28277
28113
28374
28140
28361
28196
28300
28223
28406
28309
28337
28255
28336
28477
28145
28358
28195
28529
28383
28663
28368
28589
28218
28654
28558
28089
28346
28207
28541
28723
28395
28646
28205
28378
28692
28360
28414
28329
28326
28497
28718
28342
28404
28405
28695
28531
28418
28699
28435
28270
28488
28629
28580
28880
28598
28477
28585
28474
28579
28323
28449
28556
28752
28598
28678
28769
28443
28618
28392
28656
28405
28751
28720
28706
28870
28753
28653
28541
28695
28437
28830
28978
28766
28901
28511
28425
28889
28298
28879
28695
28927
28591
28653
28880
28493
28897
28899
28806
28868
28808
28566
28817
28778
28919
28962
28989
28864
28754
28805
28764
28861
29006
29000
28682
28954
28957
28887
29230
28955
29046
28855
28592
29167
28982
28835
28705
28835
29053
29189
28908
28929
29202
28812
28987
29197
29015
29283
28828
29151
28961
29087
29371
29011
28893
29124
28976
29039
29344
29171
28978
29226
28883
29378
28931
29013
29294
29308
29111
29402
29239
29532
29340
29434
29404
29487
29105
29567
29507
29393
29314
29038
28992
29216
29613
29404
29431
29407
29111
29243
29273
29306
29154
29463
29186
29400
29420
29318
29391
29568
29449
29580
29461
29400
29454
29555
29611
29675
29490
29390
29259
29400
29404
29788
29811
29633
29246
29412
29537
29680
29264
29659
29811
29599
29673
29544
29262
29687
29358
29908
29729
29831
29531
29425
29611
29428
29652
29779
29545
29419
29718
29705
29471
29545
29787
29527
29591
29762
29590
29580
29367
29829
29597
29652
29659
29489
29899
29554
29626
29745
29663
29727
29683
29951
29769
29435
29706
29281
29661
29697
29332
29757
29629
29549
29314
29009
28851
28989
28729
28790
28608
28788
28915
28651
28525
28440
28460
28505
28556
28694
28191
28138
28336
28175
28545
28308
28432
28111
28128
28077
28013
28528
28262
28397
28016
27974
27859
28245
27857
28049
27876
28063
28193
28099
27956
28100
28448
28011
28058
28287
28212
28086
28222
28215
28293
28565
28381
28217
28541
28106
28158
28068
28196
28457
28248
28130
28492
28520
28615
28284
28064
28352
28055
28356
28549
28235
28546
28522
28366
28520
28592
28615
28385
28423
28377
28171
28419
28716
28592
28233
28303
28612
28515
28446
28515
28481
28781
28690
28304
28677
28274
28645
28887
28588
28781
28807
28686
28533
28812
28794
28808
28714
28615
28491
28711
28704
28682
28621
28673
28913
28595
28604
28517
28354
28508
28341
28642
28716
28747
28489
28899
28498
28455
28789
28433
28682
28453
28906
28952
28742
28717
28540
28677
28523
28616
28761
28737
28522
28729
28693
28826
28701
28707
28832
28731
28654
28383
28287
28182
28304
28303
28330
28483
28152
28136
27938
28278
28048
27978
27822
27987
27783
27731
27769
27889
28171
28197
27683
28032
27805
27965
27836
27703
27532
27994
27642
27652
27777
27916
27952
27925
27792
28078
27613
27916
27859
28043
27846
27538
28027
27849
27836
27840
28036
27957
27984
27937
27909
27984
27852
28002
27753
27982
28122
28115
28146
28001
27759
27938
27813
28177
27862
27888
27908
27831
28294
28174
28337
28011
28111
28488
27986
27863
28062
27979
28491
28181
27974
28296
28363
28253
28460
28246
28453
28219
28590
28450
28130
28605
28699
28195
28155
28598
28438
28338
28501
28408
28267
28500
28509
28415
28501
28426
28514
28443
28500
28568
28548
28426
28200
28522
28637
28629
28619
28496
28309
28484
28630
28437
28702
28512
28702
28405
28940
28758
28498
28845
28831
28524
28714
28354
28633
28505
28664
28894
28654
28985
28440
28733
28896
28687
28537
28424
28195
28375
28326
28423
27963
28232
28242
28130
28227
28042
28037
28042
27957
27881
27921
27749
27865
27678
27870
27796
27794
27823
27884
27688
27743
27668
27645
27641
28068
27859
27989
27643
27897
27882
27875
27708
27951
27878
27801
27925
27484
27525
27929
27975
27809
27744
27759
27863
27851
27715
27807
27913
27765
27872
28094
27675
27937
27989
27963
27966
28179
27984
27826
28035
27707
28049
27692
27825
27973
28113
28149
27998
28046
27783
28024
27880
28043
27795
28047
28323
28207
27862
28040
28361
28365
28174
28392
28010
28276
28021
28222
28165
28365
28236
27985
28052
28273
28456
28109
28479
28054
28211
28406
28278
28033
28331
28281
28648
28289
28576
28315
28189
28284
28458
28479
28151
28109
28586
28049
28103
28206
28127
28065
28528
28230
28077
28123
28415
28074
28542
28672
28528
28527
28616
28473
28302
28414
28287
28427
28452
28449
28304
28537
28198
28397
28600
28556
28461
28508
28450
28197
28316
28616
28356
28613
28572
28488
28327
28693
28649
28589
28321
28197
28574
28821
28500
28648
28534
28563
28535
28584
28567
28627
28665
28780
28617
28524
28555
28426
28588
28563
28822
28659
28656
28514
28630
28726
28913
28548
28592
28424
28644
28917
28780
28825
28900
28715
28801
28833
29054
28688
28787
28871
28789
28841
28532
28787
28493
28733
28887
28653
28859
28804
28889
28763
28880
28598
28929
28833
28932
28772
28820
28449
29041
28746
28831
28781
29075
28718
28958
28857
28881
28713
28543
28665
28752
28871
28852
28987
29077
29011
28938
29053
28803
29029
28695
29121
28843
28817
28899
28908
28751
29094
28664
28773
28805
28976
28731
28626
29093
28974
29203
28878
28635
29032
29214
28892
29063
28992
28694
28809
29018
28712
28748
28811
28971
28849
28895
28772
28893
28641
28940
28972
28814
28869
28673
28756
28655
28564
28566
28452
28192
28431
28265
28362
28200
28140
27844
27928
27944
27965
28254
28162
27735
27941
27636
27582
27893
28012
27991
28076
27875
28067
27877
27635
27691
27513
27890
27968
27574
27752
28054
27639
27631
27800
27627
27728
27582
27743
27883
27950
28090
27842
28193
27681
28039
27764
27868
27979
27813
27664
27935
27971
28036
28252
27900
27970
27970
28065
28003
27854
27865
28035
28090
28002
27740
27997
27786
28070
28054
28151
28005
28040
27842
28059
28175
27988
28213
28217
28118
28313
28119
27895
28045
28396
28282
28486
27934
27864
27933
28518
28170
27959
27927
28280
28228
28202
27950
28121
28029
28292
28444
28176
27921
28348
27980
28000
28183
28019
28086
28493
28091
27915
28089
27975
28114
28512
28162
27984
28244
28539
28340
28289
28306
28326
27949
28463
28027
28340
28320
28308
28386
28443
28433
28227
28227
28127
28146
28232
28117
28275
28227
28588
28282
28116
28058
28106
28050
28189
28020
28120
27748
27915
27851
27981
27479
27916
27438
27718
27780
27541
27292
27500
27649
27593
27308
27434
27209
27348
27307
27422
27734
27605
27557
27314
27493
27655
27285
27335
27233
27524
27284
27213
27627
27511
27265
27503
27766
27573
27768
27487
27425
27598
27300
27705
27841
27763
27833
27782
27853
27665
27747
27553
27772
27435
27584
27769
27642
27765
27757
27770
27813
27754
27867
27692
27712
27578
28048
28009
28031
27625
27933
27806
27689
28047
27713
27922
28186
28082
27908
27643
27759
27918
27872
27894
27948
28193
27992
28005
28020
27935
27976
27701
28144
28102
27976
27784
27911
28065
27667
27962
27657
27966
27874
27852
27685
28013
28192
27762
27861
27962
27811
27923
27771
27727
28064
27768
28010
28186
27913
28000
28090
28058
28302
27729
28307
27764
28265
28111
28081
27829
27794
27968
27793
28065
27874
28157
28136
27942
28150
27876
27968
27753
27877
27592
27527
27591
27665
27824
27505
27447
27594
27528
27448
27488
27388
27640
27603
27344
27199
27451
27322
27476
27566
27181
27210
27109
27543
27157
27542
27197
27224
27084
27251
27501
27155
27159
27203
27131
27447
27197
27500
27723
27366
27058
27261
27553
27543
27593
27259
27555
27783
27615
27364
27625
27795
27607
27869
27677
27687
27616
27499
27410
27924
27521
27775
27349
27632
27549
27573
27758
27588
27728
27949
27528
27716
27678
27706
28073
27689
27736
27701
27942
27759
27923
28139
27946
28119
28028
28061
28039
27754
28227
28236
27914
28091
28163
28141
27886
28169
28310
28202
27887
28381
28245
28411
28410
28218
28315
28057
28094
28309
27914
28207
28087
28114
28073
28138
27837
27693
27995
28140
28115
27598
28126
27841
27798
27845
27926
27910
27631
28005
28007
27949
27625
27971
28080
27897
28035
27916
27875
28062
28061
27785
28119
28326
28206
27762
28016
28340
28036
27925
28196
27815
28298
28301
28225
28112
28193
27995
28240
28160
28146
27981
27922
28063
27848
28150
27791
27970
28124
28034
27961
27910
28294
27962
28045
28004
28344
28127
28107
28493
28015
28343
28269
27825
27907
27854
28164
28104
28332
28377
27917
28030
28090
28079
28373
28068
28397
27987
28228
28210
28114
28340
27834
28149
28190
28417
28254
28356
28256
28166
28258
27891
28139
28389
28251
27856
28246
28028
28050
28147
27986
28115
27923
28194
28142
28002
27858
28187
28319
27993
28030
28232
28339
28006
28109
28423
28076
28278
28017
28278
28206
28033
28248
27822
28226
28370
28384
28157
28164
28413
28250
27971
28084
28372
28269
28108
27953
28075
28272
28009
27981
28238
28090
28032
28214
28234
28285
27958
28167
28271
28098
27919
27970
27636
27870
28015
27910
27665
27810
27722
27448
27510
27771
27332
27409
27384
27530
27451
27080
27169
27195
26997
27086
27352
26913
26948
26795
26916
27324
27316
27278
27364
27154
27312
26812
27355
26827
26787
27037
27246
26994
26897
27126
27032
26816
27030
27241
27096
26883
27059
26927
27088
27070
27047
27211
27171
27258
27062
27118
27202
27311
27504
27150
26923
27284
27273
27042
26997
27409
26914
27428
27505
27416
27016
27111
27328
27264
27227
27166
27411
27237
27146
27423
27200
27089
27159
27166
27413
27336
27326
27386
27442
27353
27420
27322
27129
27395
27561
27237
27320
27156
27397
27382
27485
27582
27446
27694
27394
27520
27528
27630
27551
27309
27203
27240
27310
27663
27440
27763
27666
27531
27501
27572
27709
27647
27690
27447
27204
27702
27474
27491
27213
27687
27624
27320
27518
27287
27464
27724
27456
27264
27281
27315
27150
27610
27293
27134
26985
27025
27005
26734
26925
27139
26954
26979
26583
26957
27093
26911
26820
26905
27072
26564
27128
26599
27069
26779
27024
26481
26697
26512
26903
27004
26630
26535
26804
27059
27021
27033
26615
27155
26957
26826
26986
26878
26799
27029
26728
26976
27169
26912
26942
26859
27130
27034
27238
26838
27261
26975
27088
27184
27092
26913
27122
26878
27246
27433
26925
27001
27115
26783
27282
26791
27393
27068
27330
27165
27041
27052
27224
27381
26899
27401
27232
27000
27091
27363
27237
27499
27265
27364
27274
26996
27303
27286
27316
27381
27409
27438
27168
27189
27456
27139
27277
27250
27305
27323
27433
27391
27567
27343
27603
27486
27192
27255
27668
27503
27187
27640
27268
27585
27337
27610
27546
27504
27707
27482
27447
27740
27558
27185
27174
27581
27449
27134
27534
27269
27160
27091
27088
27082
26887
27022
27011
26991
26737
26956
26855
27091
26980
27022
27024
26625
26939
27081
26812
27124
26916
27031
26590
26843
26877
26582
26736
26624
26931
26653
26836
26751
27070
26805
26624
26954
26957
26960
26703
27100
27086
26999
26816
26738
27219
26691
27120
27179
27080
27087
26920
26984
27208
26807
26906
27210
27285
26867
27162
27074
27132
27089
27010
27033
27419
27074
26859
27135
26947
27328
27007
27102
27168
27338
27309
26997
27203
27069
27181
27453
27183
27162
27428
27086
27454
27554
27417
27159
27324
27174
27432
27032
27070
27447
27431
27480
27575
27368
27623
27196
27305
27514
27437
27528
27607
27260
27691
27222
27591
27246
27577
27605
27394
27741
27405
27186
27628
27434
27367
27337
27292
27414
27636
27533
27166
27552
27222
27520
27130
27237
27150
27399
27328
27315
27319
27141
26930
26984
26980
27110
26878
27093
26776
27123
26838
26970
26618
26720
26917
26614
26662
26920
26778
26786
26728
26662
26491
26570
26652
26719
26513
26649
26569
26677
26295
26545
26321
26640
26804
26915
26715
26923
26633
26461
26728
26955
26651
26572
26526
26847
26689
27093
26839
26806
26670
26731
26604
26890
26585
26836
26810
26901
26975
26746
26864
26829
26580
26627
26710
27055
26946
27200
27050
26671
26828
26754
26802
26919
26941
27056
27210
26971
27154
26745
27112
26906
26741
27055
26726
27050
27050
26999
27098
27146
27334
26938
27081
27111
26918
27072
27124
27345
27129
27415
27127
27136
27069
27521
27298
27507
27356
27072
27378
27402
27248
27060
27001
27295
27372
27111
27548
27333
27398
27262
27204
27261
27236
27429
27366
27419
27099
27175
27187
27583
27117
27490
27174
27388
27320
27367
27215
27152
27066
27336
26961
26929
26843
27032
27147
26893
27114
26846
26975
26921
26713
26740
26680
26698
26705
26660
26623
26642
26537
26597
26604
26664
26501
26740
26452
26443
26452
26410
26338
26875
26341
26533
26592
26536
26719
26637
26655
26603
26742
26604
26786
26827
26978
26690
26775
26549
26982
26804
26812
26899
27014
26715
26871
26954
26779
26467
26769
26525
26718
26621
26978
26473
26877
26817
26746
26660
26873
26874
26729
26742
26825
26712
26868
26988
27103
26699
26640
26810
26852
27021
27106
26852
26899
26750
27047
26957
27100
26748
26808
26825
27146
27094
26925
26837
27307
27161
26828
26894
27361
27191
26839
27293
26833
27071
26952
27139
26971
26908
27092
26827
26776
27075
27289
26968
27012
27354
27117
26912
27155
26803
27113
27135
27273
27038
27152
27032
26995
27297
27272
27150
27215
27164
26917
27242
27425
27063
26973
27043
27125
27191
27270
27177
27108
27416
27289
27511
27406
27001
27304
27130
27417
27283
27440
27641
27461
27186
27523
27335
27723
27291
27220
27405
27580
27345
27619
27559
27811
27347
27410
27340
27418
27326
27500
27589
27452
27855
27553
27899
27687
27873
27743
27691
27710
27347
27807
27531
27708
27674
27694
27652
27557
27614
27783
27666
27722
27754
27523
27753
27597
27529
27473
27874
27647
27706
27680
27420
27689
28001
27568
27984
27765
27492
27801
27662
27771
27634
27557
27474
27828
27774
27763
27661
27919
27745
28021
27666
27990
27883
27542
27695
28106
27872
27577
27697
28170
27576
27621
27996
28038
27834
28006
27609
28087
27711
27990
27873
27805
28142
27704
28152
27940
27786
28212
27804
28041
28067
28296
27911
27714
27909
28048
28063
27813
27989
27895
27980
27822
27982
27905
28243
27856
27959
28014
27870
27884
28167
27769
28052
27666
27674
27643
27445
27438
27862
27790
27527
27703
27486
27290
27381
27616
27271
26976
27010
27152
26891
27138
27226
26969
26800
27067
27229
27104
26694
26744
26684
26818
26612
26935
26747
26758
27031
26777
26884
26674
26827
27018
26768
26798
26898
26818
26908
27082
26856
26749
26824
27082
27147
26862
26839
27051
26876
27166
27007
27232
27357
26912
27353
27409
27363
27071
27481
27339
27437
27235
26999
27465
27305
27156
27241
27299
27434
27469
27104
27360
27087
27542
27199
27149
27248
27345
27090
27267
27360
27389
27484
27389
27590
27406
27095
27460
27687
27165
27134
27311
27157
27718
27245
27575
27330
27614
27494
27143
27378
27078
27559
27450
27613
27681
27474
27409
27786
27300
27725
27512
27210
27359
27518
27437
27729
27535
27310
27748
27477
27721
27620
27443
27528
27330
27531
27525
27596
27611
27610
27813
27601
27461
27517
27694
27815
27592
27472
27925
27791
27487
27619
27481
27595
27412
27505
27457
27236
27694
27412
27304
27369
27536
27328
27067
27222
26990
27144
27199
27111
27432
27112
27131
26967
27119
26847
27167
26865
27103
27273
26867
27105
26996
27055
26872
26630
27039
26980
26779
27222
26920
26619
26785
27026
27182
26818
26623
26816
26754
27030
26769
27187
26897
27024
27299
26853
27375
26895
27218
27351
27106
27452
27082
27467
27214
27174
27368
27246
27243
26956
26974
26987
27457
27651
27058
27309
27385
27372
27329
27295
27402
27445
27044
27394
27260
27083
27092
27260
27072
27399
27424
27160
27395
27664
27331
27359
27527
27723
27398
27507
27458
27525
27264
27679
27356
27546
27685
27561
27804
27604
27555
27600
27677
27610
27490
27645
27318
27621
27355
27801
27628
27385
27528
27926
27553
27665
27578
27582
27612
27672
27566
27416
27708
27521
27941
27753
27492
27588
28022
27873
28016
27550
27789
27770
27823
27669
27695
27914
27902
27851
27776
27823
27632
27813
27343
27154
27550
27652
27390
27013
27170
27453
27427
26947
27244
26974
27022
27047
27435
27028
27310
26963
27000
26991
27180
26958
27409
26904
27265
27267
27298
26876
27141
27076
27346
26810
27123
26827
27293
27296
26978
27208
27248
27164
27269
27418
27075
27265
27541
27334
27582
27402
27042
27365
27302
27375
27389
27506
27171
27232
27502
27259
27341
27338
27245
27409
27302
27363
27337
27157
27500
27732
27662
27135
27273
27203
27339
27729
27616
27615
27268
27607
27529
27541
27638
27425
27358
27740
27690
27382
27623
27384
27561
27481
27649
27491
27753
27452
27617
27392
27599
27930
27666
27631
27716
27576
27868
27690
27675
27934
27526
27694
27814
27553
27740
27559
27796
27839
28031
27672
27566
27726
28062
28002
27751
27688
27940
28047
27811
27544
27865
27635
27893
28126
27695
27485
27851
27857
27727
27679
27724
27822
27885
27493
27790
27519
27743
27613
27123
27494
27623
27228
27102
27409
27170
27076
27012
27060
27333
26960
27256
27272
26946
27008
26988
26832
27004
26661
26876
26751
26812
26939
26965
26764
27246
27007
26671
27009
27141
26835
27057
26917
27320
26826
26777
26911
27285
27306
26755
26937
27069
27002
26900
27233
27281
27300
26980
27121
27376
27226
27211
27086
27235
27015
27432
27255
26950
27296
27166
27184
27349
27193
27204
27240
27351
27292
27216
27353
27351
27383
27359
27538
27356
27083
27210
27039
27312
27360
27196
27365
27398
27058
27306
27450
27359
27292
27073
27412
27368
27276
27096
27167
27096
27421
27095
27579
27369
27125
27310
27630
27143
27334
27368
27173
27321
27352
27317
27372
27437
27348
27268
27460
27527
27519
27574
27361
27180
27467
27376
27589
27415
27566
27163
27409
27553
27606
27395
27531
27360
27563
27298
27530
27378
27124
27514
27558
27219
27280
27189
27205
27036
27387
27065
26874
26811
27357
27069
26792
26684
27080
26741
26963
26651
26685
26620
26727
26524
26775
26511
26620
26616
26643
26583
27052
26765
26473
26954
26794
26895
26990
26827
26952
26887
26802
26884
26910
26915
26871
26999
26913
27146
26898
26863
26953
27080
26958
26709
26921
26868
26827
26699
26945
27175
27168
27263
27123
26877
26957
26889
27286
26861
26834
27072
27154
26942
26753
27218
26867
26996
27084
27115
27280
26861
27253
27092
27309
27294
27275
27169
27097
27506
27398
27366
27159
27166
27170
27178
27125
27207
26985
27385
27079
27357
27280
27353
27208
27451
27449
27176
27121
27419
27363
26991
27329
27373
27256
26958
27262
27521
27254
27130
27470
27540
27033
27234
27491
27424
27040
27233
26975
27346
27631
27229
27131
27316
27476
27562
27068
27303
27591
27298
27295
27738
27394
27733
27503
27729
27410
27202
27421
27189
27363
27484
27325
27249
27255
27410
27755
27530
27188
27613
27716
27591
27259
27320
27494
27789
27672
27353
27629
27602
27781
27394
27811
27669
27411
27522
27522
27296
27697
27336
27577
27829
27755
27331
27431
27589
27891
27528
27733
27634
27772
27576
27466
27724
27776
27690
27682
27853
27682
27763
27856
27684
27439
27463
27745
27667
27552
27864
27707
27824
27863
27684
27546
27900
27777
27964
27590
27741
28005
27546
28111
27562
27823
27918
27949
27899
27857
27795
27887
27875
27933
27757
27766
27840
27940
27701
27895
28152
27855
28117
27805
27788
27887
27823
28001
27941
27791
28167
28207
28056
28049
27918
27913
28011
27815
28138
28123
28029
28421
28058
28186
28263
27981
28361
27894
28448
28116
28115
28283
27935
28227
28460
28049
28271
28096
28472
28481
28027
28450
28094
28133
28141
28026
28273
28001
28277
28447
28388
28284
28369
27923
28155
27954
27938
28145
27996
27661
27936
27654
27856
27405
27768
27476
27656
27154
27546
27128
26957
27209
27088
27046
27113
26970
27118
27141
26983
26970
27108
27285
26857
27296
26835
26626
26760
27056
27055
27162
26932
26943
27272
26988
26916
26812
26684
27116
26826
27154
26786
27127
26840
26811
27068
27025
26947
27205
27079
26906
27006
26924
27108
27097
27238
27028
27258
27252
27153
27069
27318
27122
27393
27012
27364
27247
27386
27144
26972
27174
26955
27333
27037
26971
27055
27315
27059
27339
27298
27004
27202
26885
27304
27445
27237
27197
27331
26997
27218
27182
27352
27229
27342
27202
27234
27169
27511
27204
27255
27357
27163
27494
27294
27536
27044
27449
27339
27187
27161
27060
27231
27381
27213
27541
27233
27053
27275
27454
27151
26985
27239
27079
27249
27566
27311
27559
27419
27324
27412
27464
27226
27175
27187
27472
27678
27544
27326
27484
27465
27388
27422
27476
27437
27376
27387
27319
27266
27383
27248
27179
27175
27135
27204
27162
26904
26932
27241
26828
27153
26736
26716
26674
26782
26643
27008
26744
26509
26604
26834
27040
26882
26587
26866
27082
26800
27052
26827
26705
26870
26565
26845
27041
26622
26839
26685
26739
27018
26817
26548
26847
27074
26914
26789
26897
26817
27148
26782
26857
27240
26959
26722
26757
26974
27121
26888
27142
26966
27053
27156
26672
26892
26820
27189
27238
27052
26965
27249
27063
26778
27067
27169
27170
27365
27051
26763
27140
26978
27165
26887
27023
26884
27017
26970
27252
27142
27200
26988
26740
27103
27084
26953
27072
27171
26891
27287
27058
27297
26872
26765
27016
27285
27030
27132
27020
27148
27189
26921
27094
26874
26973
27354
27284
27105
26989
27027
27297
27139
27327
27207
27170
27082
27391
27274
27360
27408
27155
27354
27164
27008
27235
26990
27334
27053
27560
27193
27158
27076
27383
27454
27476
27125
27258
27317
27344
26992
26973
27176
26980
27176
26824
27057
26992
26679
26715
26857
26663
26720
26882
26806
26738
27025
26875
26657
26597
27019
26737
26346
26813
26746
26443
26412
26434
26804
26781
26450
26593
26605
26605
26582
26329
26622
26928
26685
26419
26506
26712
26887
26785
26707
26968
27044
26552
26906
26759
26458
26743
26823
26857
26723
26678
27059
26984
26866
27057
26906
27111
26795
26819
26860
26553
26714
26875
26983
26665
26841
26797
26988
26976
26767
26841
27210
27014
27328
27060
27214
27135
26840
27202
26775
27233
27079
26831
27314
26944
27377
26993
27162
27221
27207
27267
26936
27229
27292
26982
27054
26808
27071
26920
27261
27212
27202
27161
27147
27120
26925
27144
27163
27207
27127
27176
27140
27153
27189
27142
27234
27114
27207
27260
27198
26917
27002
27373
27166
27505
27414
26938
27420
26958
27157
27436
27076
26877
27237
27343
27429
27429
27257
27292
27188
27024
26902
27245
27340
27208
26733
27028
26695
26652
26868
26969
26761
26715
26696
26696
26711
26449
26708
26723
26676
26627
26613
26679
26715
26408
26336
26603
26738
26519
26574
26537
26734
26362
26575
26647
26301
26301
26461
26662
26223
26364
26243
26328
26462
26421
26809
26897
26577
26517
26437
26980
26568
26648
26969
26796
26763
26634
26749
26849
26455
26798
26770
26933
26837
26944
26723
26999
27073
26812
26776
26896
26800
26904
26799
26639
26966
26590
26790
26905
26832
26909
27054
26929
27060
26761
27169
26626
27275
27019
27305
27045
27105
26927
27060
26955
26936
26954
26787
27212
27335
27318
27169
27421
27329
27092
27280
27071
27066
26870
27128
27282
27204
27113
27272
26991
27121
27156
26997
27220
27406
26994
27199
27247
26886
27030
27261
27045
26889
27345
27375
27144
26993
27032
27290
26936
27198
27427
27265
27399
27079
27306
27339
27319
27075
26756
27225
27255
26954
26957
27362
27273
27017
26729
27124
27066
26848
26628
26524
26699
26531
26742
26530
26705
26793
26807
26625
26752
26481
26699
26465
26645
26684
26218
26306
26689
26627
26609
26448
26478
26668
26410
26432
26482
26445
26340
26531
26478
26581
26345
26218
26509
26311
26683
26440
26873
26456
26488
26626
26827
26706
26883
26685
26387
26959
26427
26651
26394
26825
26838
26640
26548
26527
26833
26558
26781
27109
26761
26856
26907
26971
26764
26832
27027
26982
27127
27209
26998
26703
27236
27042
26647
26847
27272
27048
26946
26925
27161
26807
26875
27206
27179
26973
26958
27299
27171
27087
27166
27093
26923
27136
27224
26895
26908
27089
26877
26939
27206
26853
27035
27073
27298
26968
27364
26936
27133
26845
26748
27066
27330
27051
27099
27236
27153
26944
27157
27029
27121
26845
27167
27345
27159
27111
27202
26972
27320
26954
27008
27131
26863
27054
27361
27053
26897
27075
27164
27223
26798
26985
26726
26656
26564
27020
26609
26687
26526
26583
26606
26436
26517
26343
26543
26406
26473
26773
26542
26287
26724
26648
26498
26690
26337
26487
26620
26454
26213
26583
26195
26589
26604
26481
26285
26583
26714
26750
26538
26493
26602
26369
26621
26268
26547
26962
26591
26594
26552
26495
26705
26326
26922
26442
26979
26742
26651
26789
26979
26773
26870
26643
26646
26515
26615
26730
26768
26490
26773
26472
26811
26697
26745
26850
26797
26860
26790
26954
26869
26705
26817
26991
26760
26909
27105
27058
26613
26708
26856
26854
26948
26815
26862
27008
26883
26900
26648
26746
26672
26872
26999
27102
26748
27185
26759
27006
27134
26960
26861
27207
26782
27242
26876
27253
27209
26892
26999
27069
26885
27127
27336
26903
27130
27306
26888
27176
27103
26964
27289
27109
27174
27184
27182
27337
27204
27104
27017
27017
26983
26836
27285
27223
26981
27322
27006
27026
26767
26942
26731
26807
26742
26880
26546
26826
26479
26741
27002
26508
26735
26524
26602
26430
26701
26642
26707
26428
26292
26497
26566
26276
26266
26419
26650
26555
26586
26262
26393
26535
26458
26374
26347
26468
26433
26519
26469
26481
26517
26503
26464
26535
26531
26575
26529
26547
26534
26903
26617
26452
26466
26950
26780
26584
26518
26362
26651
26630
26897
26547
26901
26639
26734
26815
26873
26553
27047
26612
26731
26509
26439
26602
26437
26995
26473
26575
26769
26692
26714
26623
26748
26754
26922
26985
26926
26667
26853
27201
27019
27006
26775
27030
27128
26826
27064
26960
26745
27025
26956
27043
27078
27166
26778
26917
27300
26889
26961
26733
27107
26729
26986
27331
27124
27095
27209
26673
27110
27180
26801
27250
27169
27277
26767
26992
26981
26945
27006
26938
27153
27007
27258
26956
27218
27103
27393
27241
27152
27051
27082
27055
27166
26857
27154
27237
27191
27199
27230
27104
26990
26862
27308
27301
27371
27211
26868
27181
27219
27068
27422
27192
27436
27114
27265
27393
26930
27493
27216
27108
27398
27024
27066
26987
27434
27395
27349
27604
27501
27598
27364
27125
27069
27238
27152
27423
27127
27435
27139
27493
27119
27468
27439
27343
27165
27369
27425
27399
27345
27458
27576
27410
27314
27202
27619
27461
27603
27546
27546
27540
27545
27311
27477
27646
27517
27402
27756
27339
27500
27312
27735
27432
27786
27479
27515
27506
27266
27813
27718
27840
27749
27811
27610
27551
27670
27808
27549
27579
27596
27522
27695
27605
27676
27700
27699
27620
27722
27824
27742
27690
27783
27735
27826
27737
27477
27748
27726
27906
27929
27788
28060
27958
27909
27951
27484
27749
27687
27752
27902
27735
27862
27731
27912
27963
27828
28014
27985
27462
27540
27522
27966
27802
28046
27785
27538
27695
27664
27630
27655
27545
27544
27475
27425
27408
27223
27281
27223
27063
27127
27170
27034
27202
27012
26760
27003
26604
26825
26891
27006
27087
26653
26853
26948
26794
27020
26760
26529
26771
26689
26668
26725
26610
26580
26527
26622
26815
26820
26915
26794
26988
26632
26954
26780
26902
26703
26991
26727
26877
26776
26747
26625
26739
26895
26722
26882
26759
26939
26751
26549
26674
26924
26973
26822
26619
26842
26922
26998
26848
26937
26920
26839
26834
26817
26627
26801
26502
26934
26986
27034
26671
27010
27027
27109
26725
26998
26761
26584
26874
26730
26838
26625
26763
27079
26687
26607
26910
26728
26805
26840
26642
26682
26766
26896
26981
26705
26812
27059
26824
26916
26734
27033
27004
26766
26658
26923
27011
26909
26964
26945
27121
26761
27119
26793
26730
27067
26975
26575
26712
26954
27223
27065
27031
26895
26828
27115
26664
27025
26858
26804
27005
27010
27109
27057
26751
26905
26857
26881
26929
26762
26854
26935
26715
26904
26647
26616
26616
26485
26599
26495
26576
26379
26425
26484
26437
26315
26444
26401
26669
26355
26728
26072
26268
26211
26100
26073
26675
26377
26286
26149
26318
26134
26222
26353
26366
26600
26056
26275
26425
26126
26250
26585
26419
26413
26704
26410
26734
26377
26515
26582
26238
26616
26455
26448
26649
26636
26419
26699
26448
26303
26490
26307
26544
26457
26523
26704
26552
26408
26341
26573
26673
26849
26742
26608
26261
26537
26860
26771
26843
26507
26762
26663
26344
26785
26944
26380
26307
26888
26994
26483
26895
26960
26731
26427
26711
27002
26809
26792
26994
26558
26610
26722
26883
26803
26852
26868
26732
26852
26977
26859
26711
26934
26694
26926
26748
26870
26979
27087
26738
26980
27085
26729
26822
26730
27075
26682
26824
26705
26817
26789
26840
27254
27118
27058
26776
27058
26995
27147
27278
26964
27217
27200
27218
26995
26561
27065
26552
26542
26743
26789
26702
26485
26494
26437
26511
26818
26592
26767
26534
26719
26496
26598
26325
26222
26246
26517
26651
26320
26558
26393
26402
26120
26014
26267
25988
26364
26466
26428
26537
26299
26513
26393
26286
26160
26318
26344
26386
26664
26321
26399
26525
26464
26306
26673
26307
26729
26277
26191
26270
26334
26346
26701
26578
26731
26309
26353
26821
26424
26530
26792
26383
26745
26673
26606
26705
26647
26635
26375
26617
26571
26713
26831
26729
26706
26682
26662
26843
26702
26690
26829
26634
26817
26859
26824
27057
26837
26570
27024
26633
26934
27156
27072
26795
26826
27026
27051
26731
27219
27136
26729
26936
27173
26975
26922
26808
27068
26875
27307
27085
26992
26860
27172
26966
27136
27156
26973
27025
26965
27281
26856
26797
27137
27127
27049
27107
26863
27045
27348
27153
27098
27091
27251
27137
27233
27160
27098
27192
26939
27234
27162
27140
26984
27055
27020
27077
26878
27008
27053
27042
27330
27169
27270
26852
27172
26759
26821
27354
27318
27017
26800
27121
26945
27232
26752
27049
26932
27043
27192
27158
27319
26957
27170
26960
27283
27217
26981
26902
26961
27444
27107
27321
27341
26971
26990
26925
27384
27307
27044
27383
26939
27041
27328
26958
27362
27304
27018
27020
26872
27339
26834
27154
27290
27385
27098
27150
27205
26964
27265
27504
27086
26987
27104
27593
27423
27368
27404
27242
27146
27245
27308
27258
27139
27288
27287
27306
27240
27290
27297
27348
27243
27247
27399
27503
27379
27397
27369
27163
27250
27099
27476
27092
27578
27444
27404
27525
27552
27652
27484
27223
27186
27548
27111
27532
27597
27214
27615
27543
27435
27136
27549
27417
27099
27361
27503
27691
27447
27528
27384
27436
27400
27633
27448
27383
27413
27308
27387
27583
27430
27371
27562
27210
27141
27114
27378
27225
27079
26928
26688
26923
26828
26547
27017
26669
26892
26377
26409
26522
26635
26600
26286
26533
26684
26751
26714
26608
26538
26560
26117
26280
26148
26561
26248
26323
26348
26201
26010
26251
26328
26431
26482
26297
26474
26279
26425
26253
26519
26525
26399
26587
26416
26674
26381
26557
26535
26746
26315
26554
26599
26413
26432
26470
26657
26369
26337
26345
26431
26409
26377
26437
26290
26518
26635
26450
26531
26633
26280
26558
26728
26656
26723
26572
26430
26506
26674
26210
26402
26342
26607
26503
26634
26690
26424
26560
26362
26689
26714
26657
26285
26709
26654
26516
26728
26479
26474
26684
26532
26605
26759
26474
26564
26615
26613
26468
26816
26918
26656
27087
26749
26818
26573
26468
26859
26514
26762
26905
26762
26769
26610
26640
26882
26816
26930
27028
26935
26648
26592
26817
26954
26570
26637
26636
26703
26456
26825
27028
26847
26989
26558
26786
26606
26658
26556
26255
26210
26465
26120
26432
26033
26294
26266
26259
26451
26159
25879
26070
26395
26180
26327
26326
26144
26198
26132
26374
26061
25807
26013
26002
26196
26006
26246
26206
26150
26086
25933
26167
25846
25951
26474
26105
26459
26075
26267
26282
26413
26278
26569
26039
26289
26124
26003
26189
26380
26601
26219
26478
26455
26319
26160
26052
26169
26629
26311
26358
26275
26265
26490
26339
26378
26410
26096
26227
26327
26205
26209
26408
26183
26586
26361
26451
26585
26580
26506
26228
26386
26627
26531
26565
26453
26475
26511
26460
26354
26754
26423
26497
26732
26429
26830
26422
26671
26473
26466
26582
26326
26646
26768
26763
26620
26411
26854
26821
26783
26670
26643
26767
26591
26850
26661
26866
26701
26853
26560
26357
26594
26664
26845
26491
26979
26570
26993
26557
26426
26688
26988
26453
26689
26486
26754
26762
26486
26599
26205
26456
26467
26436
26441
26475
26025
26020
26123
26227
26069
26117
26002
25936
26069
26015
26035
26059
26240
25985
26181
25969
26149
25940
25750
25920
26071
25916
25900
25830
25882
25946
26037
25993
25826
26071
25815
25891
25785
26174
26200
25865
26181
26348
26006
26343
26167
25836
25927
26385
25850
26242
26424
26246
25922
26108
26458
26262
26449
26204
26234
26109
26210
26239
26228
26224
26227
26269
26222
26243
26253
26331
26267
26498
26402
26477
26544
26262
26108
26573
26435
26492
26131
26591
26703
26604
26685
26430
26124
26282
26424
26675
26251
26670
26546
26220
26550
26276
26532
26191
26514
26490
26563
26253
26368
26373
26433
26555
26695
26682
26353
26606
26635
26545
26485
26639
26662
26740
26989
26771
26759
26517
26734
26678
26871
26956
26857
26488
26952
26721
26706
26934
26542
26991
26774
26694
26893
26882
26497
26814
26451
26746
26555
26593
26367
26400
26659
26321
26017
26074
26529
26375
26321
26085
26088
26198
26037
25861
26059
26102
25995
26157
26061
26256
26031
25890
26077
25859
25926
25990
25914
26124
25996
25957
26352
25834
25818
26067
25774
26007
26028
26168
25943
26167
26241
25895
26204
26056
26063
26131
26228
26396
26154
26451
26219
26223
26286
26385
26147
26351
26311
26353
26329
26182
26101
26025
26015
26317
25959
26230
26411
26434
26257
26316
26086
26026
25984
26168
26314
26145
26250
25960
26156
25990
26435
26538
26338
26486
26215
26340
26340
26134
26505
26120
26518
26269
26545
26371
26147
26326
26233
26260
26432
26205
26151
26312
26257
26241
26419
26522
26188
26081
26211
26295
26439
26309
26488
26619
26146
26481
26534
26490
26414
26127
26550
26221
26457
26318
26600
26221
26695
26383
26195
26254
26421
26340
26412
26231
26193
26024
25866
26001
25952
26137
25921
26113
25888
26030
25609
25743
25794
25671
25674
25741
25488
25604
25503
25728
25949
25528
25789
25692
25613
25517
25606
25396
25615
25638
25680
25362
25697
25854
25720
25352
25599
25487
25776
25620
25694
25824
25553
25775
25747
25885
25489
25854
25900
25607
25494
25646
26038
25860
25633
25736
25973
25908
25710
25596
25929
25595
25546
25578
25852
25532
25782
25575
25881
25721
25771
26085
26056
25873
25778
26037
26132
26047
26249
26201
25856
26016
26447
26191
25908
26245
25961
26385
25954
26069
26516
26326
26201
26085
26384
26087
26304
26639
26416
26362
26192
26660
26241
26086
26494
26074
26242
26534
26485
26260
26279
26281
26595
26367
26182
26474
26181
26553
26630
26675
26142
26447
26244
26345
26605
26711
26415
26655
26426
26404
26395
26278
26374
26361
26096
25896
25983
26096
25843
25716
25933
26003
26061
25747
25986
25717
25520
25815
25600
25669
25815
25777
25624
25334
25505
25608
25424
25182
25397
25272
25531
25447
25440
25216
25270
25513
25573
25206
25299
25152
25406
25341
25289
25378
25056
25515
25273
25516
25082
25201
25384
25581
25444
25424
25663
25678
25297
25713
25592
25174
25402
25341
25503
25519
25553
25566
25420
25470
25392
25531
25468
25572
25324
25893
25430
25688
25667
25502
25884
25670
25372
25463
25342
25824
25975
25548
25750
25707
25849
25985
25740
25516
25856
25574
25750
25596
25919
26138
25736
25699
26109
26081
25736
25770
25728
26010
25900
26069
26013
25998
25693
26093
26039
26177
26008
25882
25689
25818
26069
25752
26210
25897
25971
25830
25902
26352
26166
26168
26042
25927
26140
26074
26098
26032
26314
26210
26371
26195
26298
26171
25772
25923
25847
25934
25728
25968
25962
25619
25790
25629
25481
25737
25570
25304
25538
25558
25784
25583
25584
25565
25454
25427
25437
25218
25708
25261
25672
25423
25172
25342
25245
25387
25412
25476
25681
25389
25360
25427
25428
25275
25333
25398
25449
25423
25459
25364
25517
25502
25461
25414
25484
25698
25766
25505
25396
25711
25789
25362
25549
25909
25952
25525
25974
25710
25985
25650
25936
25888
25812
25525
25500
25679
25764
25571
25829
25866
25617
26106
25803
25965
25856
25877
25938
25865
25957
25796
25705
25533
25657
25829
25736
25859
25683
26049
26086
26135
25934
25966
25941
25853
25892
26168
26119
26290
26176
26337
26094
26134
26083
26147
26050
25910
26088
26250
26038
26298
26095
26104
26119
26126
25931
26106
26223
26103
25953
26266
25923
26513
26493
26097
26337
26389
26500
26487
26533
26459
26158
26429
26256
26646
26520
26036
26442
26191
26102
26419
26160
26194
26258
26211
25952
25799
25722
25936
26075
25751
25531
25631
26025
25598
25931
25764
25549
25918
25802
25665
25483
25635
25635
25869
25527
25252
25525
25567
25403
25553
25406
25432
25358
25464
25285
25411
25242
25521
25805
25444
25436
25584
25398
25515
25367
25718
25605
25663
25524
25825
25765
25967
25626
25658
25619
25586
25739
25801
25912
26078
25625
25882
25651
25963
25567
25696
25877
25990
26161
25803
25863
25850
25571
25650
25594
25992
25987
25870
25697
25950
25984
25588
25855
25641
25945
25845
26107
25706
25797
25895
26095
26052
25847
26074
25961
26185
26007
26146
26038
25978
26080
26140
26043
26019
25992
25884
25902
26333
26276
25924
25994
26126
26212
26311
26197
26493
26231
26075
25994
26316
26361
26527
26332
26352
26229
26280
26256
26257
26277
26331
26404
26317
26380
26342
26306
26399
26217
26336
26292
26382
26368
26304
26319
26370
26332
26572
26057
26173
25955
25917
25966
26142
25978
26034
26041
26150
25855
25460
25617
25987
25554
25528
25756
25570
25765
25866
25433
25652
25396
25364
25551
25382
25398
25798
25538
25669
25420
25210
25449
25270
25424
25470
25362
25385
25415
25472
25436
25531
25417
25487
25358
25391
25873
25713
25734
25766
25638
25828
26005
25870
25457
25656
25359
25574
25548
25856
25600
25695
25864
25686
25928
25527
25998
25905
25901
26074
25772
25656
25567
25834
25835
25813
25747
25846
26005
25905
26078
25898
25914
25877
25796
25913
25922
26076
25942
25847
26022
26251
26078
25869
26105
26016
26036
25713
26105
26079
25941
26464
26355
25793
25946
26149
26172
25948
26095
26267
26149
26227
26216
26089
26191
26216
26174
26439
26249
26007
26261
26096
26313
26453
26306
26265
26295
26297
26346
26233
26274
26329
26348
26410
26415
26387
26594
26406
26628
26402
26170
26300
26748
26549
26348
26451
26127
26475
26063
26627
26630
26628
26216
26053
26192
26119
26178
25967
26235
26040
26093
26268
25978
26189
25683
25955
25597
25870
25702
25920
26149
25806
25767
25812
26028
25740
25849
25799
25933
25876
25761
25586
25781
25560
25864
25857
25766
25914
25877
26010
25808
25678
25870
26183
25854
26095
25960
25880
26159
25915
25966
25708
25982
25963
25557
26115
25979
26127
25578
25784
25930
26166
25627
26022
25905
25722
25866
25749
26042
25651
25877
25808
25874
25996
25887
25951
25974
26004
26051
26057
25771
25930
25679
25885
26272
26133
26032
25866
25676
26240
25834
25839
25721
26264
25946
25991
26211
25897
25924
26331
25834
25747
26056
26507
26149
25933
25918
25869
25936
26141
25852
26174
25944
26000
25980
26125
26277
26211
25892
26056
26123
26175
26081
26168
26126
25978
26174
25983
26154
26403
26176
26267
26295
26345
26003
26106
26376
26016
26064
26296
25983
26479
26520
26456
26035
26556
26420
26599
26453
26212
26415
26550
26653
26496
25961
26166
25953
26014
26066
26010
25796
25986
25883
25582
25747
25830
25632
25632
25578
25936
25692
25711
25452
25639
25494
25588
25415
25713
25739
25711
25894
25622
25559
25822
25638
25584
25689
25318
25730
25661
25855
25834
25572
26095
25615
25582
25918
26283
25617
26291
26254
26243
25910
25988
26307
25785
26128
26367
26043
26083
25851
26391
26571
26192
26194
26347
26068
25845
26236
26491
26339
26373
26329
26132
26239
26256
26246
26372
26384
26353
26193
26345
26418
26374
26512
26364
26543
26386
26415
26337
26318
26516
26084
26359
26405
26254
26353
26469
26331
26685
26289
26756
26434
26386
26601
26183
26847
26491
26800
26870
26504
26672
26612
26448
26641
26682
27010
26710
26541
26579
26524
26629
26652
26673
26376
26500
26594
26623
26636
26627
26648
26475
26650
26642
26651
26472
26793
26863
26933
26818
26911
26411
26488
26970
26460
26919
27117
26617
26784
26772
27019
26584
26948
26501
26872
26359
26409
26344
26472
26117
26400
26046
26372
26343
26110
26342
26397
26175
26337
25889
25984
26373
25931
26188
26323
26337
26401
26056
25954
26131
25970
26018
26432
26124
26029
26190
25971
26260
25858
26020
26263
25941
26120
26136
26447
26575
26143
25995
26202
26239
26272
26405
26520
26329
26569
26252
26234
26220
26304
26261
26275
26487
26312
26300
26583
26467
26437
26642
26183
26511
26221
26337
26681
26612
26326
26515
26638
26787
26422
26272
26636
26526
26531
26514
26589
26488
26404
26612
26807
26413
26707
26433
26897
26405
26956
26587
26422
26853
26750
26679
26669
26644
26685
26845
26517
26590
26771
26528
26664
26790
26635
26408
26428
26726
26802
26521
26523
26714
26513
26665
26535
26781
26582
26593
26849
26647
26497
27088
27122
26832
26680
27132
26931
26971
26765
26541
26753
27166
26738
26815
26923
27013
26915
26716
26748
26651
26739
26708
26646
26796
26622
26727
26527
26722
26378
26583
26352
26743
26517
26754
26812
26661
26312
26270
26259
26530
26191
26276
26518
26312
26127
26211
26303
26263
26470
26151
26100
26313
26410
26211
26427
26285
26059
26148
26293
26310
26268
26240
26471
26165
26320
26319
26120
26430
26446
26245
26318
26629
26415
26561
26278
26389
26160
26090
26337
26272
26374
26411
26348
26478
26448
26463
26472
26512
26440
26534
26574
26447
26506
26399
26930
26390
26575
26539
26549
26559
26539
26642
26627
26680
26692
26606
26610
26507
26606
26574
26607
26730
26601
26609
26660
26722
26615
26688
26678
26664
26735
26598
26870
26605
26697
26547
26791
26424
26740
26617
26673
26754
26495
26680
26742
26572
26640
26635
26619
26696
26498
26925
26592
26516
26579
26809
26454
26856
26980
26700
26835
26892
26996
26761
26841
26864
26975
26819
26753
26676
26786
26649
26696
27133
26682
26620
26699
26777
26776
26759
26817
26881
26749
26855
26753
26782
26667
26759
26628
26728
26485
26562
26805
26445
26277
26375
26354
26328
26217
26329
26366
26380
26291
26286
26253
26167
26234
26239
26248
26218
26269
26308
26270
26303
26254
26155
26273
26301
26204
26256
26318
26215
26230
26260
26530
26410
26260
26527
26607
26112
26019
26585
26344
26279
26405
26632
26412
26302
26515
26628
26428
26718
26174
26424
26570
26267
26602
26348
26353
26257
26720
26285
26550
26281
26291
26359
26549
26541
26267
26581
26658
26381
26560
26730
26626
26235
26550
26821
26586
26387
26485
26287
26509
26558
26641
26524
26529
26589
26564
26461
26649
26535
26739
26641
26425
26544
26457
26661
26890
26654
26761
26735
26813
26465
26663
26848
26429
26469
26395
26469
26627
26719
26735
26916
26399
26593
26492
26419
26431
26856
26971
26560
26693
26562
26941
26744
26888
26780
26635
26565
26701
26736
26444
26791
26449
26257
26500
26831
26394
26233
26247
26100
26368
26114
26081
26526
26008
26233
26004
26238
26254
26048
26136
26229
26166
26247
25909
26071
26416
26302
26383
26099
26325
25998
26273
26064
26215
26312
26179
26491
26388
26059
26412
25989
26320
26692
26084
26197
26199
26148
26438
26389
26140
26362
26687
26203
26627
26635
26691
26604
26677
26512
26672
26628
26424
26718
26421
26259
26520
26866
26582
26755
26687
26853
26497
26790
26575
26305
26548
26625
26440
26511
26359
26826
26732
26710
26976
26840
26457
26765
26701
26908
26577
26723
26537
27043
26793
27075
26940
26777
26807
26612
26821
26696
26689
26660
26687
26558
27047
26610
26629
26899
27020
26841
27069
26787
26996
26907
27162
26882
27016
26753
26648
26939
26860
27115
27191
27094
26682
26948
26849
26698
27037
26950
27001
27269
27207
26816
26939
27066
26892
27200
27034
27210
27381
27139
26707
26943
27176
27018
26600
26887
27120
26661
26718
26677
26452
26497
26502
26731
26714
26237
26611
26240
26599
26405
26570
26173
26284
25996
26615
26067
26529
26534
26114
26473
26329
26198
26668
26300
26525
26438
26170
26501
26538
26160
26403
26600
26297
26489
26141
26173
26643
26476
26567
26799
26658
26239
26422
26339
26389
26627
26711
26984
26726
26889
26526
26724
26429
26662
26791
26769
26496
26670
26577
26827
26633
26713
26460
26584
26719
26400
26725
26700
26664
26601
26564
26577
26741
26690
26632
26704
26735
26658
26922
26961
26705
27024
27192
26935
26898
26719
26931
26735
26655
27128
26895
27113
27111
27051
27193
26675
27080
26915
26883
27030
26935
26962
26930
27185
26917
27167
26980
27065
27105
27000
26840
26797
27045
26958
27182
26911
27075
26828
27228
27182
27210
27161
27194
26807
26848
27148
27307
26918
26908
26955
26888
26764
26871
27024
26947
26979
26773
26668
26908
26899
26994
26886
26878
26645
26942
26592
26880
26696
26826
26494
26277
26282
26554
26275
26616
26304
26284
26598
26178
26036
26334
26109
26335
26522
26322
26590
26211
26218
26540
26386
26315
26192
26299
26185
26239
26115
26008
26283
26103
26355
26212
26535
26163
26458
26075
26647
26133
26416
26362
26263
26463
26718
26505
26133
26491
26427
26356
26833
26564
26701
26404
26381
26731
26263
26659
26583
26848
26486
26887
26543
26767
26352
26773
26375
26513
26508
26798
26584
26403
26770
26850
26771
26704
26843
26729
26930
26920
26984
26903
26958
26768
26779
26894
26881
26752
26828
26690
26845
26832
26869
26926
26800
26933
26837
27047
26937
27068
26797
26933
27136
26986
26998
27120
26981
26950
26739
26812
27307
27228
26735
27012
27302
26920
26948
26957
26988
27344
27159
26741
27095
26807
27042
26719
27240
27101
26811
26774
27018
26733
26905
27008
27162
27106
26968
27086
26574
26822
27079
26722
26519
26514
26646
26455
26290
26551
26554
26648
26368
26702
26668
26296
26225
26487
26498
26445
26322
26154
26245
26517
26277
26272
26468
26410
26155
26366
26588
26309
26190
26323
26287
26350
26588
26201
26407
26246
26113
26410
26637
26489
26403
26697
26310
26835
26662
26570
26561
26589
26443
26593
26534
26207
26405
26392
26273
26710
26762
26487
26791
26447
26784
26661
26903
26596
26727
26713
26352
26460
26545
26769
26585
26958
26706
26617
26760
26804
26771
26472
26613
26986
26790
26784
26622
26735
26977
26886
27072
26811
27067
26677
26734
26731
26577
26898
27012
27019
26871
26798
27139
27013
27106
26891
27124
26960
26955
26901
26964
26938
26837
27058
27015
27287
26800
26798
27027
26970
26974
26986
26958
27012
27049
27020
27017
27042
27045
27054
27042
27151
27206
27158
27054
27114
27151
27090
27079
26906
27072
27042
26902
27161
26682
26935
26776
26470
26584
26737
26509
26841
26521
26718
26476
26605
26475
26790
26839
26813
26479
26369
26867
26639
26575
26369
26692
26729
26408
26527
26727
26661
26691
26629
26574
26778
26641
26524
26648
26638
26616
26741
26730
26693
26930
26678
26809
26749
27054
26752
27132
26602
27180
27023
27099
26785
27176
26712
27118
26981
27023
27141
26772
27213
26909
27131
26693
26992
26765
27155
26957
26997
26739
26987
26690
26973
27086
26999
26808
27012
26841
26960
27204
27052
27098
27251
27378
26910
27133
26986
27084
27288
27027
27456
27034
26931
27186
26870
26956
27035
27008
27215
27275
27529
27470
27500
27228
27414
27611
27306
27726
27383
27739
27428
27106
27335
27324
27492
27443
27517
27524
27143
27352
27540
27293
27438
27333
27659
27361
27202
27379
27505
27522
27671
27642
27231
27713
27484
27222
27478
27573
27303
27118
27274
27452
27219
27292
27177
27207
27012
27094
27276
26983
27050
27012
27158
26924
26647
26818
27076
26937
26513
26884
27133
26613
26839
26673
26616
26671
26583
26507
26711
26959
26632
26466
26823
26899
26926
26913
26912
26481
27005
26881
26651
26889
26792
26701
26520
26822
27068
26723
26897
26881
26766
26777
26737
26791
26834
27091
26787
26612
26859
26774
26897
26927
26979
26645
26928
27071
26710
26634
27048
26733
27176
27027
26923
26786
26982
26898
26744
26985
26691
27183
27293
27241
27264
26850
27298
26762
27198
26996
27089
27073
27249
26951
27052
26884
27072
27309
27154
27406
27045
26953
27083
27230
27020
27353
27166
27239
27402
27405
27245
27354
27603
27527
27585
27223
27104
27193
27723
27123
27326
27428
27399
27264
27301
27226
27701
27885
27569
27332
27732
27636
27750
27648
27722
27314
27579
27478
27257
27680
27378
27372
27708
27233
27456
27193
27222
27113
27159
27241
26888
27022
26992
27271
26855
27270
26991
27040
27072
27041
26980
26729
26721
26711
26679
26905
26885
26780
26856
26843
27026
26775
26752
26749
27025
26860
26772
26637
26820
26552
26809
26599
26965
26885
26927
26868
26962
26862
26766
26545
26731
27282
26719
26678
26818
26732
26662
27120
26910
26988
26889
27068
26759
27072
27002
27014
27206
26864
26930
27103
27101
27133
27063
27306
27017
26993
27066
27269
27179
26973
26923
27367
27014
27389
27168
27126
27370
26830
27000
27011
26908
27272
27358
26965
27463
27050
27010
27377
27481
26951
26848
26989
27013
27268
27190
26805
26931
27366
27087
26811
27192
27122
27023
27249
26957
27007
27008
26934
26980
27025
27068
27044
27276
27061
26967
27080
27165
27012
27236
27068
27283
27227
27180
27221
27101
26752
27045
26961
27000
27102
26742
26611
26730
26917
26647
27090
26501
26509
26568
26808
26754
26582
26834
26372
26393
26386
26412
26319
26334
26169
26406
26433
26306
26311
26183
26082
26238
26183
26307
25989
26180
26501
26220
25907
26069
26185
26333
26352
26553
26296
26100
26388
26153
26179
26569
26425
26396
26143
26595
26538
26084
26439
26170
26616
26642
26679
26225
26095
26601
26328
26442
26772
26551
26434
26607
26232
26589
26331
26336
26603
26583
26567
26660
26549
26287
26573
26779
26599
26601
26632
26513
26670
26672
26439
26591
26485
26800
26687
26633
26497
26654
26677
26617
26870
26559
26694
26755
26654
26598
26620
26763
26838
26860
26702
26901
27039
26774
26749
26641
26866
27117
26690
26837
26915
26685
26522
26511
26617
26636
26889
26641
26808
26682
26532
26735
26717
26763
26605
26900
26710
26829
27039
26662
27136
27083
26756
27206
26925
26448
26689
26819
26417
26650
26644
26223
26233
26424
26583
26423
26103
25975
26073
26231
26421
25931
26410
25892
25781
25963
25761
25813
26165
25850
25871
26198
26147
25678
25890
26107
25996
26297
26182
26083
25875
25632
26202
25956
25773
26264
25736
25898
26133
26083
26425
26053
25832
26356
25921
26300
26533
26113
26147
26397
26239
26466
26173
25982
26377
25959
26349
26401
26316
26681
26334
26552
26239
26297
26436
26456
26479
26539
26778
26500
26178
26469
26355
26476
26784
26495
26273
26814
26442
26442
26631
26531
27051
26769
26602
26917
26929
26917
26612
26709
26643
27024
26608
26723
26863
26786
26871
26901
26943
26950
26854
26922
26983
26932
26686
26893
27263
26933
27207
27091
27136
27096
26958
26974
27100
27095
27004
27324
26931
26830
27112
27414
26947
26949
27156
26909
26908
26863
26873
26906
27382
27069
27422
27042
27320
26961
27206
27045
27374
27112
27060
27026
26961
26902
27003
26978
26821
26836
26923
26417
26902
27103
26563
26360
26402
26409
26671
26360
26414
26745
26618
26521
26315
26306
26691
26526
26254
26287
26184
26446
26379
26708
26537
26310
26537
26601
26839
26515
26572
26470
26510
26658
26461
26440
26435
26884
26599
26642
26640
26625
26703
26869
26535
26680
26886
26876
26833
26931
26935
26962
26613
26852
26698
27231
27281
27030
27297
27301
27138
26789
27019
27467
26992
27178
27324
27063
27306
27015
27065
26928
27195
27167
27175
27299
27248
27309
27263
27289
27572
27223
27219
27205
27154
27322
27312
27508
27305
27369
27088
27489
27393
27296
27467
27269
27563
27251
27353
27233
27194
27211
27533
27494
27196
27227
27285
27285
27125
27387
27603
27349
27394
27412
27507
27379
27274
27266
27554
27412
27290
27162
27373
27300
27489
27750
27531
27535
27524
27498
27335
27158
27224
27355
27400
27562
27202
27059
27394
27234
27038
26819
27202
27071
26590
26910
26788
26712
26539
26939
26875
26894
26479
26365
26667
26471
26577
26313
26739
26598
26650
26632
26580
26759
26687
26762
26375
26451
26704
26563
26631
26607
26766
26588
26795
26591
26822
26754
26786
26664
26595
26884
27017
26505
26516
26512
26853
26779
26575
26777
26654
26752
26679
27033
26891
26886
26827
26889
26971
26700
27118
26858
26715
26880
26905
26862
26838
26950
26787
26932
26887
27004
26986
26953
27005
26845
27015
26942
26861
27142
26925
27120
27000
27317
27136
26783
26906
26798
27060
27105
26977
26863
26899
27118
27246
27082
27343
26854
26722
27030
27268
26915
27201
27098
26932
27279
27126
27154
26967
27031
27003
26832
26913
27121
26795
27079
26915
27025
27208
26668
26843
27213
27161
27084
27260
27092
26986
26898
26925
26762
26715
27033
26819
26783
27033
27128
26900
26591
26876
26931
26807
26626
26811
26393
26612
26595
26575
26425
26347
26586
26359
26290
26178
26265
26405
26149
26275
26205
25927
26165
25846
26210
26038
25887
26007
26066
26330
25849
26310
26112
26223
26167
26209
25968
26225
26072
25925
26103
25951
25821
26259
26088
25842
26068
25925
26076
26209
26110
25918
26143
25893
26134
26248
26198
26016
26159
25775
26007
25988
26323
25785
25831
26004
26197
25832
25753
26141
26029
25692
26031
26165
26227
26221
26043
25830
26114
26297
25957
25793
25996
25975
26009
26233
26031
25964
25973
25995
26078
26061
25926
25982
25846
26031
25798
25956
26066
25958
26268
26123
26244
25805
26226
25998
25995
26169
25998
26048
25844
26074
25923
26187
25851
25981
25951
26326
25800
26165
25807
25747
25801
25790
25967
25911
26279
25991
26273
25904
26291
25790
25641
25811
26326
25806
25939
26238
26111
25689
26224
25668
25909
26310
25951
25850
25971
26055
25778
26041
25924
25745
25917
25580
25787
25664
25490
25710
25484
25298
25542
25625
25409
25669
25403
25222
25332
25697
25640
25503
25365
25508
25544
25255
25589
25697
25578
25453
25592
25621
25681
25639
25682
25758
25710
25647
25590
25641
25690
25769
26052
25865
25956
25891
26078
25794
26007
25659
25612
25732
26077
26283
26030
25736
26146
26118
26026
25958
26285
26056
26024
25741
26077
26214
26203
25915
25788
26064
26031
26133
25779
26073
25795
26161
25773
26173
26041
25991
26327
26079
26081
26211
26235
25949
26389
26340
26162
25941
26359
26371
26163
26423
26420
26600
26229
26009
26397
26478
26396
26052
26567
26350
26484
26184
26420
26207
26239
26484
26439
26494
26358
26167
26675
26163
26169
26343
26402
26724
26275
26100
26331
26115
26251
26450
26296
26320
26227
26235
26256
26252
26303
26118
25940
26066
26023
25886
25685
25760
25632
25861
26110
26045
25502
25537
25516
25440
25681
25631
25553
25876
25386
25619
25781
25328
25823
25224
25510
25336
25544
25492
25583
25360
25705
25552
25458
25686
25991
25656
25810
25802
25767
25651
25661
25734
25673
25578
25965
25899
25800
25608
25803
25772
25848
26093
25700
26046
25993
25591
25969
25657
25731
26016
26048
25851
25954
25805
25588
25895
25826
26149
26233
26003
26165
25795
26177
25885
25792
25958
25791
26002
25993
25921
25987
25739
25808
25948
25828
25684
25865
25840
25836
26237
26128
26172
26145
26132
25985
26128
25805
26131
26344
26038
26040
26095
25937
26190
26059
26381
26009
25995
26080
25928
26308
26116
26328
26026
26391
25995
26137
26337
26475
26412
26568
26489
26274
26524
26323
26572
26496
26530
26359
26329
26623
26690
26385
26223
26387
26278
26505
26123
26313
26198
26344
26053
26010
25913
26179
25872
25997
25932
26008
26036
25819
25903
25747
25846
25611
25814
26028
25799
25613
25790
25711
25731
25815
25715
25670
25707
25668
25522
25846
25476
25675
25624
25837
25824
25736
25482
25718
25970
25533
25972
25976
25963
25614
25588
26101
26121
26172
26033
25707
25810
25630
25783
26270
25895
25831
25828
25944
25984
26252
25859
26158
26383
25985
25739
25946
26354
26128
26089
26210
26285
26169
26035
26091
26028
25863
26233
26443
26187
26233
26168
26398
26259
26492
26148
26116
26323
26374
26263
26433
26431
26423
26766
26407
26181
26512
26691
26278
26520
26702
26306
26365
26221
26475
26468
26276
26574
26425
26411
26199
26590
26807
26650
26206
26687
26238
26669
26354
26689
26573
26437
26499
26546
26663
26580
26595
26541
26436
26299
26404
26380
26702
26325
26862
26471
26426
26525
26361
26624
26581
26568
26863
26713
26636
26350
26410
26306
26342
26282
25946
26089
26304
26402
26008
25849
26097
26172
25948
25812
26094
25757
26147
25629
25709
25827
25869
26002
26092
25770
25690
25799
25580
25747
25985
25719
25962
25946
25770
25642
26160
25831
25802
25849
25821
25820
25849
25859
25868
25866
25877
25923
25919
25958
25941
25878
25913
26036
25854
25746
25875
25918
25909
25876
25890
25898
25907
25917
25969
25913
25968
25862
25888
25864
25881
25905
25905
25937
25949
25598
25683
26020
25878
25912
25952
25894
25899
25877
25896
26093
25903
25757
25936
25942
26077
25745
25886
25743
26161
26049
26229
25987
25756
25866
25902
25901
26061
25898
26039
26014
25968
25658
26027
26058
26055
25818
26089
25989
25964
25979
26135
26009
25870
26170
25735
26201
25965
26028
26311
25828
25696
26214
26295
26019
26289
26290
26099
25835
25811
26299
25943
26040
26148
26151
25980
25984
25928
25970
26124
25969
25994
25783
25842
25988
25575
25690
25934
25603
25705
25753
25310
25623
25470
25689
25545
25358
25355
25310
25464
25169
25418
25313
25417
25342
25368
25468
25428
25387
25255
25738
25394
25734
25696
25614
25517
25514
25369
25583
25534
25612
25817
25709
25560
25780
25953
25774
25855
25625
25787
26027
26004
25812
25825
25559
25902
25607
25937
25926
25768
25858
25813
25679
25765
26232
26119
25999
26020
25978
26217
26060
26259
26049
25845
26103
26159
26172
26336
26282
26310
26034
26105
26164
26266
26130
26091
26329
26448
26221
26361
26347
26587
26333
26514
26581
26200
26651
26293
26540
26446
26625
26239
26366
26670
26263
26617
26516
26368
26292
26615
26481
26437
26727
26490
26215
26596
26676
26564
26645
26575
26473
26697
26317
26771
26856
26819
26731
26442
26506
26488
26898
26917
26495
26727
26585
26874
26935
26366
26456
26886
26470
26920
26380
26742
26327
26489
26224
26411
26110
26338
26427
26218
26347
26274
26039
26181
26095
26181
26209
26282
26230
25772
26057
26310
25984
26038
26137
26303
26112
26242
26200
26277
25817
25924
26255
25932
25763
25966
25991
25941
25912
26241
26134
25997
25985
26172
25988
26132
26147
26310
26106
26150
26112
25903
26264
25933
26315
26447
26345
26139
26469
26479
26412
26474
26403
26245
26520
26165
25941
26329
26370
26305
26461
26146
26270
26385
26532
26359
26335
26286
26165
26557
26050
26091
26388
26558
26511
26517
26457
26129
26274
26463
26546
26168
26391
26691
26156
26508
26723
26438
26409
26391
26572
26362
26180
26349
26333
26372
26342
26370
26298
26337
26332
26379
26363
26300
26271
26506
26243
26022
26524
26122
26429
26332
26285
26302
26170
26604
26393
26349
26211
26186
26547
26468
26215
26149
26142
26259
26110
26178
26612
26458
26405
26448
26315
25955
26359
26104
26134
26361
26181
25826
26146
25792
25942
25768
26010
25965
25667
25837
26046
25784
26072
25699
25939
