51713
52422
53105
53700
54195
54631
55006
55276
55459
55614
55732
55762
55722
55673
55621
55527
55402
55285
55162
55000
54827
54686
54547
54379
54221
54102
53983
53834
53696
53594
53475
53309
53147
53016
52865
52677
52501
52350
52177
51981
51820
51708
51583
51438
51341
51297
51245
51191
51196
51248
51276
51284
51338
51427
51486
51525
51591
51660
51691
51707
51740
51758
51720
51672
51650
51602
51494
51385
51309
51207
51058
50923
50826
50704
50535
50377
50243
50080
49889
49727
49598
49438
49247
49094
48975
48822
48654
48526
48414
48276
48137
48041
47957
47832
47702
47623
47562
47464
47362
47301
47247
47158
47067
47009
46953
46870
46797
46760
46720
46651
46586
46541
46477
46379
46299
46255
46198
46126
46098
46129
46188
46285
46476
46776
47153
47618
48202
48873
49559
50262
51007
51753
52432
53042
53621
54148
54567
54894
55183
55416
55558
55635
55681
55671
55591
55494
55412
55301
55139
54979
54850
54708
54534
54376
54252
54115
53947
53799
53687
53558
53401
53256
53122
52946
52734
52557
52410
52225
52016
51857
51734
51586
51438
51345
51279
51195
51127
51127
51149
51143
51161
51248
51344
51397
51453
51542
51607
51616
51636
51698
51746
51754
51766
51793
51785
51731
51693
51671
51602
51478
51354
51242
51099
50923
50775
50659
50509
50329
50178
50060
49927
49774
49650
49550
49425
49282
49168
49075
48960
48829
48717
48613
48493
48387
48324
48273
48206
48146
48107
48055
47973
47902
47852
47778
47676
47595
47546
47482
47394
47327
47287
47228
47145
47084
47043
46990
46960
47010
47125
47273
47496
47849
48297
48787
49341
49991
50693
51380
52065
52774
53454
54043
54561
55038
55435
55726
55960
56168
56301
56344
56355
56358
56308
56202
56105
56036
55932
55783
55660
55575
55463
55320
55201
55100
54968
54824
54721
54632
54495
54344
54228
54113
53949
53775
53641
53510
53332
53155
53041
52940
52804
52687
52637
52596
52525
52490
52534
52590
52611
52651
52743
52830
52890
52972
53089
53176
53210
53248
53299
53301
53255
53224
53212
53155
53057
52987
52940
52849
52726
52629
52534
52389
52225
52098
51970
51783
51589
51448
51313
51135
50965
50849
50735
50581
50439
50348
50243
50088
49950
49859
49765
49643
49541
49479
49403
49292
49203
49153
49081
48980
48907
48862
48789
48688
48620
48576
48500
48415
48375
48351
48294
48229
48201
48177
48107
48022
47980
47950
47880
47795
47741
47689
47603
47515
47453
47385
47295
47234
47228
47250
47302
47433
47671
47983
48359
48854
49481
50172
50891
51658
52452
53205
53896
54545
55121
55579
55951
56289
56576
56776
56910
57023
57098
57101
57074
57070
57059
56992
56910
56863
56816
56732
56644
56590
56538
56459
56391
56360
56328
56278
56247
56240
56206
56126
56052
56004
55925
55805
55689
55573
55415
55230
55073
54947
54811
54675
54584
54526
54451
54370
54337
54345
54346
54340
54372
54432
54469
54493
54550
54618
54660
54695
54739
54756
54727
54698
54696
54666
54577
54485
54416
54321
54188
54068
53970
53845
53675
53513
53385
53239
53063
52916
52800
52652
52477
52342
52230
52077
51913
51804
51716
51589
51457
51367
51275
51138
51006
50932
50869
50762
50638
50548
50468
50365
50267
50202
50137
50049
49972
49928
49877
49796
49726
49687
49634
49554
49492
49452
49389
49299
49226
49168
49079
48965
48875
48805
48701
48574
48486
48450
48419
48402
48469
48626
48828
49111
49526
50033
50584
51207
51922
52659
53346
54017
54691
55288
55757
56163
56548
56860
57079
57261
57432
57531
57545
57546
57558
57525
57443
57376
57326
57243
57140
57074
57031
56957
56871
56823
56789
56717
56630
56574
56533
56459
56365
56298
56241
56145
56019
55906
55784
55621
55447
55296
55142
54968
54818
54719
54619
54495
54410
54394
54384
54351
54345
54380
54405
54407
54440
54507
54542
54540
54563
54604
54601
54570
54565
54562
54511
54439
54393
54342
54236
54109
54016
53920
53766
53585
53430
53284
53108
52921
52761
52605
52425
52251
52111
51974
51819
51675
51550
51408
51234
51076
50956
50826
50672
50534
50418
50286
50144
50033
49951
49852
49745
49677
49631
49550
49444
49364
49300
49202
49080
48993
48937
48864
48782
48739
48709
48645
48577
48540
48487
48378
48269
48199
48113
47981
47867
47803
47733
47628
47534
47471
47392
47289
47221
47209
47208
47226
47340
47569
47869
48255
48772
49387
50038
50731
51495
52280
53009
53686
54340
54933
55412
55800
56143
56416
56584
56693
56797
56859
56839
56777
56716
56624
56487
56361
56273
56170
56026
55899
55813
55710
55576
55469
55403
55313
55184
55077
54998
54882
54728
54591
54456
54268
54054
53883
53740
53571
53401
53277
53163
53012
52873
52801
52757
52687
52636
52654
52687
52683
52692
52758
52825
52848
52879
52948
52994
52988
52985
53004
52988
52917
52855
52822
52758
52646
52545
52463
52342
52177
52036
51921
51764
51572
51425
51313
51162
50979
50822
50683
50511
50328
50190
50069
49913
49755
49641
49526
49367
49218
49126
49041
48915
48805
48753
48700
48606
48511
48437
48346
48230
48144
48100
48038
47944
47876
47843
47778
47681
47618
47579
47498
47386
47309
47254
47162
47056
46986
46922
46826
46736
46704
46701
46679
46686
46794
46985
47224
47558
48028
48581
49158
49792
50509
51236
51920
52589
53248
53837
54331
54779
55188
55499
55702
55867
56007
56068
56052
56026
55999
55911
55771
55657
55561
55420
55258
55138
55030
54879
54722
54616
54518
54372
54219
54108
53981
53786
53580
53420
53255
53034
52816
52653
52492
52296
52118
51995
51879
51747
51656
51632
51612
51573
51568
51612
51654
51687
51759
51858
51919
51946
52000
52074
52110
52125
52164
52195
52170
52124
52109
52090
52008
51896
51806
51712
51571
51412
51280
51150
50988
50819
50679
50541
50376
50212
50071
49921
49744
49579
49446
49301
49127
48976
48867
48755
48629
48523
48435
48328
48202
48101
48025
47932
47834
47772
47728
47658
47575
47524
47492
47431
47358
47318
47289
47227
47153
47109
47064
46977
46883
46826
46775
46692
46609
46555
46507
46449
46426
46466
46546
46661
46882
47240
47689
48205
48817
49513
50229
50943
51676
52416
53096
53700
54266
54782
55191
55500
55767
55991
56131
56197
56251
56289
56264
56190
56116
56037
55916
55776
55653
55529
55378
55237
55128
55014
54879
54759
54665
54554
54409
54273
54157
54015
53837
53662
53500
53318
53112
52926
52774
52613
52445
52323
52243
52151
52051
52001
52000
51987
51967
52001
52075
52124
52152
52208
52282
52328
52361
52412
52444
52428
52409
52421
52412
52345
52271
52220
52148
52029
51919
51837
51729
51578
51437
51321
51183
51012
50862
50744
50601
50422
50260
50117
49945
49755
49605
49492
49359
49211
49105
49029
48928
48807
48716
48644
48544
48427
48337
48258
48155
48053
47983
47920
47843
47779
47741
47686
47597
47526
47499
47458
47377
47304
47259
47198
47112
47053
47028
46979
46897
46838
46800
46722
46609
46532
46487
46417
46330
46281
46245
46164
46073
46036
46021
45990
46003
46126
46330
46583
46947
47472
48096
48753
49476
50290
51121
51909
52681
53439
54116
54674
55167
55618
55969
56206
56390
56539
56609
56609
56598
56580
56517
56420
56335
56259
56149
56021
55926
55849
55748
55635
55551
55489
55401
55284
55190
55113
55009
54891
54790
54682
54544
54408
54296
54157
53964
53778
53633
53475
53280
53111
52989
52865
52729
52633
52595
52558
52501
52474
52484
52480
52459
52479
52536
52557
52551
52587
52646
52658
52635
52635
52627
52564
52489
52448
52396
52282
52156
52073
51983
51835
51669
51525
51369
51179
50996
50846
50683
50483
50302
50165
50014
49833
49671
49540
49400
49241
49100
48989
48869
48731
48620
48539
48428
48291
48195
48135
48046
47939
47866
47801
47696
47592
47542
47503
47416
47323
47276
47239
47165
47078
47011
46948
46872
46814
46788
46748
46671
46598
46551
46487
46388
46307
46263
46209
46126
46068
46041
45986
45899
45858
45870
45878
45904
46025
46242
46521
46887
47395
48026
48709
49427
50207
51022
51803
52551
53288
53961
54513
54987
55428
55789
56032
56207
56357
56449
56465
56454
56447
56404
56310
56217
56148
56052
55911
55783
55693
55591
55469
55372
55301
55200
55069
54966
54884
54758
54594
54459
54338
54174
53993
53843
53688
53480
53265
53096
52946
52761
52576
52446
52346
52232
52130
52073
52034
51989
51966
51986
52003
51995
52009
52063
52108
52126
52155
52203
52223
52211
52211
52220
52183
52095
52020
51959
51847
51702
51594
51496
51348
51187
51067
50952
50795
50621
50479
50352
50192
50010
49853
49702
49525
49350
49207
49058
48881
48725
48616
48503
48353
48219
48130
48039
47921
47825
47765
47687
47578
47493
47444
47368
47261
47186
47145
47076
46980
46919
46885
46817
46731
46694
46676
46608
46527
46487
46448
46363
46280
46253
46227
46144
46057
46018
45971
45874
45777
45720
45660
45568
45503
45494
45476
45421
45393
45425
45479
45562
45747
46061
46456
46935
47562
48313
49090
49873
50696
51518
52268
52957
53619
54217
54698
55093
55452
55745
55925
56021
56088
56123
56091
56017
55948
55863
55737
55602
55485
55354
55190
55034
54907
54776
54626
54505
54423
54325
54195
54075
53980
53863
53710
53563
53423
53247
53037
52851
52698
52525
52333
52178
52052
51902
51746
51646
51592
51527
51466
51454
51469
51468
51477
51526
51572
51578
51589
51639
51668
51643
51627
51655
51665
51618
51563
51526
51466
51367
51286
51231
51138
50994
50851
50723
50561
50361
50190
50054
49883
49684
49534
49418
49268
49102
48978
48859
48694
48525
48407
48296
48139
47985
47883
47789
47657
47534
47458
47378
47259
47157
47112
47069
46993
46926
46888
46825
46724
46642
46595
46523
46417
46341
46304
46246
46157
46096
46066
46001
45915
45870
45843
45771
45679
45620
45565
45473
45381
45334
45297
45222
45144
45125
45143
45157
45198
45316
45501
45742
46088
46575
47159
47802
48526
49325
50134
50919
51696
52451
53116
53672
54168
54614
54958
55204
55404
55552
55618
55624
55612
55569
55451
55292
55161
55043
54886
54697
54526
54368
54180
53975
53809
53671
53518
53359
53225
53088
52919
52744
52581
52397
52173
51960
51787
51611
51413
51234
51093
50950
50789
50656
50575
50499
50415
50372
50377
50385
50386
50423
50492
50531
50538
50574
50634
50656
50650
50675
50717
50720
50702
50708
50705
50641
50553
50486
50396
50246
50091
49971
49834
49644
49461
49323
49174
48986
48810
48672
48524
48350
48199
48085
47948
47771
47612
47487
47341
47175
47050
46963
46848
46713
46627
46576
46490
46392
46340
46297
46209
46112
46056
46006
45919
45833
45801
45778
45709
45629
45584
45545
45485
45434
45410
45375
45311
45261
45245
45213
45142
45082
45049
44999
44920
44854
44822
44799
44794
44862
45015
45219
45497
45908
46450
47062
47726
48467
49262
50031
50758
51480
52171
52767
53282
53755
54154
54441
54666
54871
55010
55045
55030
55012
54946
54805
54651
54523
54375
54185
54007
53856
53670
53436
53222
53049
52852
52623
52419
52235
52018
51775
51557
51352
51108
50854
50648
50471
50278
50088
49941
49822
49690
49560
49484
49452
49415
49391
49420
49477
49525
49582
49666
49741
49794
49863
49962
50037
50061
50079
50111
50111
50068
50034
50025
49989
49913
49840
49773
49665
49521
49386
49257
49094
48916
48779
48668
48526
48360
48223
48110
47968
47799
47660
47549
47419
47278
47168
47077
46972
46870
46793
46709
46604
46518
46469
46414
46334
46269
46233
46182
46100
46031
45996
45953
45880
45813
45767
45709
45638
45593
45562
45496
45403
45345
45327
45293
45255
45281
45381
45516
45704
46014
46452
46970
47568
48270
49036
49807
50580
51357
52091
52745
53345
53902
54370
54729
55023
55277
55445
55516
55551
55573
55537
55436
55328
55233
55107
54938
54774
54626
54453
54248
54066
53906
53708
53473
53258
53064
52838
52579
52347
52146
51926
51688
51482
51302
51107
50908
50740
50587
50423
50286
50202
50132
50055
50016
50038
50067
50079
50125
50223
50315
50377
50452
50552
50632
50678
50723
50770
50777
50748
50734
50735
50693
50608
50539
50478
50369
50226
50110
50009
49865
49689
49534
49387
49203
49016
48863
48705
48506
48320
48190
48058
47885
47730
47632
47535
47412
47305
47227
47124
46975
46849
46776
46696
46589
46511
46470
46404
46305
46235
46198
46131
46043
45997
45972
45903
45815
45757
45697
45596
45495
45448
45414
45332
45247
45217
45207
45165
45129
45146
45195
45261
45402
45664
46021
46462
47035
47743
48521
49330
50190
51088
51941
52705
53419
54082
54633
55073
55452
55759
55953
56061
56147
56205
56191
56126
56064
55994
55875
55728
55602
55476
55304
55109
54947
54804
54635
54454
54298
54155
53996
53846
53720
53578
53395
53214
53059
52895
52706
52529
52375
52205
52003
51820
51682
51544
51397
51293
51236
51178
51116
51098
51122
51134
51135
51184
51269
51321
51344
51392
51458
51490
51500
51536
51566
51541
51502
51493
51464
51366
51248
51155
51044
50881
50723
50608
50472
50283
50101
49956
49795
49604
49433
49296
49139
48949
48791
48674
48533
48365
48230
48115
47972
47825
47725
47645
47535
47416
47334
47265
47163
47055
46986
46938
46865
46774
46705
46649
46570
46483
46414
46337
46228
46124
46047
45970
45879
45813
45791
45762
45711
45708
45789
45922
46110
46411
46851
47393
48018
48749
49567
50387
51182
51988
52785
53493
54105
54666
55162
55537
55814
56054
56230
56294
56301
56321
56306
56206
56081
55981
55855
55663
55460
55295
55120
54903
54698
54533
54365
54174
54004
53868
53714
53523
53343
53188
53000
52773
52559
52357
52130
51891
51684
51506
51317
51137
51021
50945
50851
50757
50713
50708
50697
50683
50706
50759
50800
50839
50913
51001
51063
51116
51187
51238
51242
51238
51241
51207
51123
51038
50973
50883
50752
50622
50509
50374
50200
50042
49910
49750
49558
49396
49262
49096
48905
48754
48629
48464
48285
48156
48043
47888
47730
47619
47513
47370
47236
47158
47084
46964
46849
46788
46736
46650
46571
46529
46483
46406
46340
46301
46244
46152
46077
46030
45958
45857
45782
45734
45668
45590
45551
45551
45556
45595
45725
45940
46218
46601
47139
47795
48497
49251
50086
50945
51754
52515
53252
53921
54465
54917
55326
55658
55884
56044
56167
56218
56187
56132
56087
55999
55850
55694
55552
55370
55143
54933
54754
54545
54307
54107
53945
53760
53557
53385
53224
53015
52784
52592
52411
52185
51953
51764
51587
51382
51192
51074
50991
50888
50800
50775
50776
50764
50776
50842
50920
50978
51051
51160
51257
51316
51383
51474
51538
51561
51594
51644
51660
51631
51606
51584
51513
51406
51310
51210
51064
50900
50769
50652
50497
50328
50186
50045
49863
49681
49549
49420
49241
49066
48950
48843
48698
48559
48465
48365
48219
48084
48003
47926
47821
47726
47656
47568
47453
47361
47311
47245
47146
47074
47041
46987
46909
46853
46810
46733
46636
46577
46544
46491
46445
46462
46529
46618
46764
47027
47410
47870
48411
49068
49812
50578
51361
52173
52967
53695
54367
54987
55506
55899
56214
56484
56674
56772
56831
56873
56856
56774
56684
56607
56492
56329
56168
56023
55853
55656
55486
55345
55171
54969
54804
54667
54493
54293
54122
53958
53747
53525
53343
53167
52953
52745
52589
52440
52259
52106
52020
51953
51872
51827
51846
51872
51879
51919
52011
52097
52153
52222
52316
52379
52399
52432
52483
52496
52469
52457
52465
52433
52352
52288
52233
52125
51977
51855
51751
51615
51470
51361
51246
51072
50892
50760
50623
50431
50239
50094
49941
49741
49559
49433
49305
49143
49002
48910
48813
48697
48612
48566
48499
48389
48292
48226
48136
48022
47942
47898
47825
47720
47648
47606
47528
47428
47365
47315
47225
47130
47077
47026
46930
46848
46840
46859
46859
46906
47073
47341
47686
48168
48812
49547
50311
51132
52010
52864
53643
54375
55061
55640
56092
56471
56795
57019
57149
57252
57329
57341
57307
57274
57227
57127
56998
56888
56783
56638
56476
56345
56224
56071
55909
55781
55672
55538
55393
55275
55155
54993
54818
54657
54482
54277
54084
53927
53757
53549
53368
53254
53152
53037
52951
52903
52848
52786
52771
52809
52834
52832
52871
52955
53011
53040
53105
53190
53232
53248
53300
53356
53349
53312
53301
53278
53192
53086
53000
52902
52758
52604
52475
52339
52171
52007
51869
51716
51532
51352
51193
51024
50835
50666
50534
50392
50224
50082
49979
49864
49727
49614
49524
49403
49255
49149
49078
48971
48841
48759
48705
48621
48527
48467
48405
48297
48192
48140
48092
47991
47883
47819
47756
47655
47558
47492
47426
47340
47269
47239
47216
47192
47231
47375
47596
47892
48315
48878
49531
50244
51035
51883
52703
53464
54204
54903
55483
55955
56390
56778
57063
57268
57444
57564
57592
57576
57573
57545
57442
57307
57191
57075
56928
56783
56676
56571
56438
56318
56232
56132
55998
55873
55769
55640
55475
55327
55203
55042
54832
54634
54456
54252
54039
53867
53728
53575
53433
53353
53309
53248
53189
53178
53197
53206
53221
53283
53362
53404
53425
53472
53528
53557
53582
53626
53652
53638
53620
53617
53582
53494
53399
53320
53216
53073
52945
52847
52718
52542
52379
52234
52065
51878
51713
51563
51391
51214
51073
50945
50782
50605
50459
50329
50173
50011
49888
49788
49657
49511
49398
49308
49197
49080
48991
48910
48816
48735
48678
48608
48508
48427
48384
48334
48251
48181
48141
48082
47982
47894
47832
47751
47643
47561
47508
47430
47335
47289
47284
47259
47234
47298
47453
47658
47957
48409
48974
49588
50280
51079
51908
52689
53450
54221
54926
55504
56000
56449
56799
57032
57208
57357
57434
57416
57369
57328
57247
57114
56982
56865
56721
56544
56381
56240
56074
55879
55706
55561
55395
55216
55068
54935
54761
54552
54370
54219
54047
53856
53696
53542
53349
53162
53033
52915
52765
52623
52531
52455
52362
52305
52314
52331
52328
52352
52423
52489
52529
52582
52654
52699
52698
52695
52705
52686
52636
52596
52560
52491
52392
52305
52224
52096
51927
51779
51656
51501
51322
51174
51035
50856
50672
50534
50398
50213
50027
49892
49759
49577
49389
49240
49092
48926
48786
48688
48586
48458
48349
48279
48192
48068
47965
47902
47833
47742
47667
47614
47550
47471
47424
47406
47354
47270
47223
47197
47124
47033
46981
46929
46828
46726
46670
46628
46557
46485
46455
46452
46453
46506
46651
46864
47134
47521
48058
48685
49354
50091
50898
51706
52470
53218
53949
54589
55116
55586
56000
56301
56496
56643
56740
56749
56699
56644
56575
56447
56286
56147
56016
55845
55646
55469
55307
55118
54916
54743
54574
54368
54161
53992
53807
53567
53327
53132
52938
52711
52507
52360
52213
52035
51889
51799
51712
51616
51565
51559
51547
51532
51559
51624
51680
51730
51816
51918
51975
51997
52046
52117
52151
52155
52176
52188
52142
52075
52030
51966
51838
51691
51575
51449
51275
51102
50972
50844
50688
50535
50402
50251
50065
49896
49770
49638
49483
49352
49257
49151
49021
48902
48806
48692
48556
48462
48411
48331
48222
48151
48106
48024
47934
47887
47843
47754
47655
47599
47557
47473
47376
47321
47276
47191
47097
47031
46969
46892
46832
46802
46754
46674
46625
46648
46705
46793
46980
47298
47707
48197
48810
49538
50301
51064
51869
52692
53438
54095
54720
55294
55756
56125
56451
56707
56845
56911
56967
56991
56937
56843
56764
56676
56540
56380
56237
56091
55921
55761
55631
55484
55298
55126
54993
54849
54675
54512
54366
54192
53981
53784
53617
53421
53191
52993
52836
52659
52479
52357
52275
52182
52107
52096
52119
52124
52130
52189
52277
52338
52389
52474
52574
52647
52706
52780
52833
52833
52824
52841
52823
52745
52662
52604
52527
52409
52287
52178
52039
51863
51697
51553
51390
51197
51018
50867
50699
50509
50355
50230
50068
49876
49722
49594
49438
49279
49160
49049
48905
48762
48671
48602
48495
48368
48276
48201
48104
48009
47943
47878
47794
47726
47696
47650
47557
47471
47425
47367
47274
47196
47145
47072
46972
46896
46857
46794
46690
46615
46572
46497
46405
46360
46351
46337
46356
46476
46688
46963
47345
47888
48550
49259
50021
50856
51712
52520
53277
54004
54664
55223
55705
56128
56453
56662
56808
56926
56980
56955
56904
56854
56761
56618
56485
56375
56227
56034
55863
55728
55573
55398
55251
55113
54946
54770
54624
54487
54304
54091
53906
53743
53551
53341
53162
52987
52773
52570
52426
52295
52137
52009
51950
51902
51820
51757
51753
51760
51752
51773
51835
51890
51921
51970
52046
52094
52102
52118
52143
52130
52081
52037
51983
51878
51737
51617
51509
51357
51170
51012
50880
50716
50536
50389
50247
50063
49877
49742
49606
49419
49232
49101
48977
48807
48634
48503
48376
48227
48101
48015
47918
47789
47682
47620
47548
47449
47365
47305
47233
47147
47079
47030
46957
46864
46808
46783
46716
46615
46551
46515
46448
46361
46305
46252
46155
46055
46005
45964
45890
45841
45878
45966
46071
46239
46520
46904
47376
47961
48657
49392
50120
50874
51658
52399
53064
53689
54275
54772
55163
55488
55760
55931
56000
56038
56059
56006
55895
55795
55683
55506
55300
55126
54955
54737
54508
54326
54160
53957
53743
53566
53405
53223
53036
52861
52672
52454
52247
52071
51877
51643
51428
51262
51094
50908
50768
50685
50604
50516
50476
50487
50495
50501
50549
50625
50674
50705
50769
50852
50900
50925
50975
51039
51061
51046
51038
51028
50967
50888
50843
50791
50675
50545
50450
50335
50161
49988
49854
49703
49510
49339
49223
49101
48942
48792
48670
48529
48354
48198
48076
47934
47768
47639
47547
47438
47322
47248
47192
47106
47011
46950
46902
46814
46712
46647
46601
46529
46442
46384
46342
46276
46203
46156
46113
46047
45994
45977
45945
45868
45811
45821
45862
45921
46069
46343
46698
47116
47652
48305
48996
49695
50445
51226
51966
52651
53306
53905
54398
54798
55153
55448
55631
55716
55768
55793
55750
55655
55557
55444
55281
55102
54953
54793
54580
54367
54202
54030
53804
53581
53399
53210
52986
52778
52610
52421
52186
51964
51778
51577
51357
51167
51010
50845
50675
50548
50465
50387
50323
50319
50359
50387
50408
50474
50577
50656
50721
50822
50932
50993
51035
51103
51160
51158
51142
51155
51146
51069
50980
50916
50826
50685
50548
50438
50303
50125
49957
49825
49680
49503
49340
49203
49056
48885
48726
48584
48416
48228
48076
47956
47812
47647
47526
47443
47337
47220
47153
47111
47034
46948
46902
46855
46760
46675
46647
46619
46543
46467
46433
46389
46302
46224
46185
46138
46058
45987
45946
45886
45791
45716
45683
45639
45572
45542
45565
45607
45686
45857
46130
46489
46953
47563
48291
49053
49830
50654
51497
52281
52990
53661
54275
54779
55184
55537
55823
56010
56132
56225
56258
56207
56129
56061
55961
55800
55640
55515
55370
55176
54994
54845
54672
54471
54302
54170
54015
53839
53704
53604
53463
53285
53122
52962
52763
52550
52374
52217
52036
51860
51740
51653
51540
51417
51339
51297
51251
51216
51220
51234
51235
51255
51318
51380
51412
51450
51510
51550
51550
51556
51582
51579
51528
51479
51440
51365
51251
51142
51043
50902
50722
50568
50444
50282
50083
49916
49783
49623
49449
49311
49181
49004
48819
48686
48560
48384
48207
48086
47978
47839
47711
47632
47550
47433
47336
47295
47251
47165
47084
47031
46963
46869
46793
46744
46672
46568
46486
46435
46368
46285
46228
46187
46121
46039
45985
45953
45889
45799
45744
45713
45653
45586
45573
45601
45628
45697
45870
46122
46422
46836
47417
48092
48790
49543
50369
51191
51954
52687
53395
54011
54508
54944
55336
55628
55809
55942
56049
56081
56041
55996
55952
55850
55697
55557
55422
55247
55052
54880
54716
54526
54334
54185
54053
53883
53693
53536
53398
53231
53047
52881
52712
52510
52310
52131
51934
51706
51505
51358
51225
51088
50990
50950
50915
50860
50836
50857
50878
50886
50918
50977
51022
51052
51108
51178
51199
51175
51168
51173
51134
51063
51024
50998
50918
50804
50714
50622
50482
50334
50226
50111
49942
49774
49645
49500
49311
49133
49001
48856
48666
48494
48370
48243
48091
47957
47850
47720
47561
47442
47363
47260
47135
47043
46972
46871
46755
46681
46629
46552
46475
46447
46432
46374
46293
46241
46199
46120
46026
45966
45923
45855
45779
45732
45690
45621
45545
45489
45424
45337
45279
45274
45275
45268
45317
45457
45658
45923
46301
46813
47410
48062
48797
49606
50404
51161
51913
52644
53282
53816
54295
54711
55003
55195
55355
55472
55499
55471
55440
55382
55262
55122
55004
54865
54672
54471
54298
54113
53893
53686
53512
53326
53114
52924
52772
52607
52414
52233
52070
51879
51650
51439
51266
51084
50893
50740
50626
50498
50355
50263
50220
50160
50094
50086
50120
50137
50153
50213
50278
50302
50327
50397
50461
50466
50465
50499
50506
50450
50389
50352
50291
50177
50065
49978
49865
49704
49554
49436
49298
49132
48982
48845
48678
48491
48329
48182
48005
47819
47672
47547
47402
47256
47148
47059
46934
46785
46670
46583
46471
46352
46270
46203
46114
46033
45997
45956
45866
45786
45760
45726
45647
45581
45559
45525
45457
45401
45370
45311
45221
45161
45136
45072
44969
44900
44861
44797
44724
44688
44676
44648
44635
44699
44841
45019
45250
45597
46066
46609
47217
47908
48649
49383
50107
50837
51521
52109
52641
53150
53576
53876
54105
54304
54425
54450
54439
54418
54333
54176
54016
53868
53675
53439
53224
53030
52805
52559
52345
52153
51932
51696
51498
51323
51118
50889
50677
50477
50246
49997
49782
49595
49392
49200
49065
48947
48807
48693
48643
48606
48550
48532
48585
48654
48700
48768
48882
48982
49043
49114
49204
49260
49271
49286
49316
49310
49260
49214
49173
49095
48993
48914
48841
48727
48583
48455
48336
48173
47983
47831
47713
47568
47409
47281
47160
47009
46864
46759
46649
46501
46368
46287
46199
46072
45966
45909
45847
45752
45674
45632
45571
45480
45417
45390
45338
45255
45198
45172
45127
45069
45041
45023
44969
44895
44853
44831
44775
44692
44639
44618
44583
44549
44574
44659
44777
44957
45248
45623
46049
46574
47221
47914
48595
49301
50046
50748
51358
51929
52486
52958
53320
53630
53892
54054
54125
54173
54205
54162
54042
53918
53795
53611
53384
53185
53001
52779
52545
52356
52174
51939
51691
51483
51270
51002
50721
50479
50242
49966
49692
49469
49258
49031
48834
48698
48578
48449
48351
48304
48280
48263
48290
48373
48457
48520
48607
48732
48849
48939
49032
49123
49164
49161
49180
49221
49213
49159
49128
49109
49038
48932
48848
48758
48614
48462
48352
48235
48055
47873
47746
47624
47462
47306
47192
47067
46896
46736
46620
46498
46345
46215
46125
46022
45898
45808
45757
45685
45587
45531
45511
45457
45375
45325
45291
45216
45130
45092
45076
45022
44958
44926
44896
44822
44743
44710
44693
44641
44574
44538
44506
44439
44366
44318
44266
44187
44124
44100
44072
44028
44024
44090
44198
44350
44600
44966
45410
45927
46564
47311
48095
48883
49686
50476
51199
51843
52437
52975
53406
53734
54020
54263
54416
54484
54520
54524
54458
54346
54234
54102
53914
53715
53545
53366
53145
52936
52770
52595
52381
52191
52045
51881
51673
51478
51315
51134
50927
50744
50589
50407
50194
50021
49888
49733
49564
49450
49384
49308
49235
49224
49248
49243
49234
49275
49327
49335
49347
49422
49509
49550
49579
49637
49689
49695
49682
49675
49638
49552
49464
49395
49301
49166
49040
48943
48826
48673
48536
48431
48297
48120
47965
47838
47682
47501
47361
47249
47100
46932
46808
46707
46570
46423
46319
46226
46094
45963
45887
45831
45741
45648
45597
45550
45461
45363
45296
45228
45137
45055
44996
44923
44829
44767
44757
44739
44676
44608
44560
44494
44399
44319
44269
44207
44133
44103
44126
44148
44183
44311
44541
44819
45158
45624
46210
46840
47515
48269
49045
49767
50459
51147
51769
52273
52701
53098
53417
53622
53771
53909
53991
53990
53953
53913
53828
53682
53528
53382
53195
52964
52752
52571
52365
52134
51922
51729
51518
51296
51102
50922
50703
50456
50247
50061
49835
49589
49391
49224
49036
48853
48727
48625
48498
48385
48334
48301
48243
48213
48253
48306
48336
48388
48484
48565
48605
48651
48719
48751
48732
48715
48715
48687
48621
48554
48495
48405
48281
48177
48098
47979
47818
47685
47576
47430
47273
47155
47039
46877
46705
46573
46457
46311
46150
46020
45906
45772
45648
45571
45511
45431
45355
45307
45248
45152
45071
45029
44975
44885
44817
44792
44745
44666
44621
44613
44584
44537
44514
44496
44436
44358
44310
44276
44206
44112
44046
44011
43964
43907
43886
43902
43915
43947
44053
44223
44423
44708
45140
45669
46241
46891
47633
48385
49097
49802
50512
51155
51692
52171
52611
52957
53195
53385
53546
53640
53664
53661
53633
53550
53421
53301
53186
53018
52806
52626
52474
52283
52072
51903
51747
51548
51339
51172
51001
50771
50536
50353
50176
49954
49735
49566
49405
49226
49077
48983
48898
48798
48734
48730
48731
48712
48728
48791
48850
48890
48954
49051
49135
49190
49258
49335
49362
49348
49354
49374
49340
49258
49188
49123
49014
48889
48804
48715
48563
48401
48287
48177
48017
47850
47716
47582
47418
47265
47150
47027
46869
46724
46621
46514
46386
46279
46207
46123
46010
45918
45869
45815
45738
45681
45645
45580
45497
45457
45446
45398
45318
45265
45223
45138
45037
44978
44928
44838
44749
44712
44693
44644
44589
44574
44578
44574
44600
44701
44858
45059
45361
45797
46329
46923
47599
48352
49116
49849
50576
51299
51950
52499
52992
53433
53764
53990
54182
54341
54413
54417
54422
54407
54320
54198
54095
53977
53795
53596
53434
53273
53062
52850
52693
52541
52337
52117
51923
51720
51481
51248
51042
50823
50574
50350
50166
49975
49770
49605
49492
49387
49278
49217
49209
49197
49181
49209
49265
49304
49336
49402
49487
49542
49583
49656
49730
49753
49747
49758
49771
49739
49676
49627
49573
49477
49366
49276
49179
49047
48910
48789
48650
48471
48302
48169
48020
47833
47663
47539
47411
47259
47123
47015
46893
46744
46619
46532
46436
46324
46233
46159
46056
45931
45848
45807
45751
45679
45633
45601
45534
45448
45396
45365
45310
45247
45216
45190
45136
45078
45036
44979
44884
44803
44768
44726
44650
44593
44577
44552
44499
44469
44475
44474
44474
44548
44717
44933
45206
45614
46160
46778
47466
48241
49051
49831
50584
51337
52047
52645
53146
53605
54005
54298
54502
54665
54775
54807
54798
54785
54734
54615
54483
54382
54261
54087
53917
53779
53623
53441
53284
53165
53024
52849
52699
52578
52422
52228
52057
51903
51721
51524
51353
51195
51009
50813
50661
50550
50428
50301
50224
50192
50151
50107
50105
50134
50154
50180
50241
50295
50307
50323
50377
50413
50394
50369
50367
50335
50248
50163
50103
50007
49858
49722
49613
49472
49294
49130
48983
48805
48604
48431
48276
48095
47909
47768
47653
47511
47352
47223
47109
46966
46809
46692
46608
46505
46393
46315
46246
46152
46064
46006
45934
45821
45721
45667
45609
45519
45448
45417
45373
45300
45246
45224
45180
45098
45028
44990
44925
44829
44775
44755
44700
44622
44584
44566
44517
44467
44469
44499
44513
44550
44675
44875
45112
45412
45829
46354
46939
47578
48280
48997
49677
50335
50980
51563
52058
52493
52880
53177
53366
53502
53615
53664
53646
53611
53569
53478
53336
53186
53034
52842
52626
52443
52289
52108
51903
51723
51560
51352
51111
50898
50711
50495
50260
50054
49856
49627
49402
49217
49031
48812
48620
48500
48394
48260
48158
48126
48109
48077
48079
48140
48199
48226
48277
48360
48412
48429
48475
48552
48594
48595
48619
48659
48643
48589
48567
48554
48487
48393
48327
48249
48108
47951
47835
47720
47555
47377
47241
47117
46964
46814
46698
46582
46441
46311
46213
46107
45975
45862
45785
45692
45571
45475
45416
45342
45237
45155
45098
45022
44934
44872
44827
44759
44678
44629
44597
44532
44448
44398
44368
44307
44225
44172
44138
44071
43991
43949
43929
43895
43885
43946
44058
44202
44431
44779
45194
45646
46193
46850
47531
48187
48853
49527
50141
50673
51172
51645
52022
52285
52499
52674
52760
52775
52787
52782
52711
52599
52497
52381
52202
51985
51781
51585
51358
51109
50882
50671
50435
50186
49964
49743
49490
49238
49018
48794
48540
48305
48120
47933
47719
47541
47436
47350
47253
47205
47219
47227
47214
47239
47313
47374
47414
47485
47574
47623
47646
47700
47770
47801
47812
47850
47890
47883
47844
47812
47774
47687
47569
47468
47364
47213
47060
46951
46836
46680
46543
46460
46368
46235
46129
46081
46022
45915
45819
45753
45661
45533
45432
45368
45279
45165
45091
45053
44986
44899
44853
44828
44771
44709
44689
44680
44628
44559
44520
44492
44422
44331
44277
44242
44180
44117
44093
44083
44055
44044
44082
44144
44219
44352
44577
44866
45203
45637
46189
46796
47414
48069
48754
49406
50004
50579
51131
51609
52001
52352
52664
52874
52983
53060
53106
53070
52978
52896
52803
52657
52491
52355
52209
52004
51784
51607
51435
51217
50987
50785
50577
50341
50112
49908
49686
49430
49200
49021
48843
48641
48454
48303
48154
47999
47878
47805
47739
47673
47661
47713
47763
47803
47889
48010
48096
48149
48240
48354
48423
48459
48514
48562
48553
48528
48539
48540
48477
48392
48335
48266
48149
48021
47918
47806
47660
47524
47418
47298
47143
46996
46875
46737
46569
46423
46322
46208
46068
45962
45897
45810
45701
45633
45592
45515
45420
45367
45333
45254
45162
45116
45085
45015
44941
44912
44898
44849
44784
44745
44719
44676
44633
44614
44588
44524
44469
44457
44443
44403
44390
44441
44519
44619
44809
45117
45488
45919
46480
47160
47867
48575
49321
50078
50777
51419
52043
52608
53055
53413
53740
54016
54201
54317
54419
54493
54491
54433
54374
54302
54181
54039
53917
53789
53629
53476
53363
53247
53094
52947
52837
52712
52548
52400
52289
52152
51976
51811
51666
51486
51264
51066
50907
50723
50522
50384
50302
50205
50108
50071
50072
50053
50036
50077
50138
50161
50181
50244
50301
50302
50297
50333
50369
50361
50351
50375
50384
50345
50300
50272
50222
50125
50028
49952
49843
49686
49537
49411
49253
49058
48876
48716
48539
48350
48192
48060
47905
47737
47617
47539
47433
47301
47202
47129
47030
46924
46859
46799
46692
46582
46524
46474
46383
46301
46271
46239
46170
46112
46091
46054
45969
45898
45872
45829
45744
45669
45619
45553
45466
45404
45378
45348
45317
45350
45457
45609
45825
46163
46627
47173
47793
48516
49302
50071
50816
51571
52305
52955
53523
54050
54520
54893
55184
55428
55607
55697
55744
55782
55779
55719
55653
55608
55529
55388
55249
55149
55043
54910
54796
54720
54639
54535
54449
54387
54298
54172
54059
53958
53817
53641
53482
53337
53142
52913
52718
52564
52398
52227
52097
51994
51872
51748
51673
51619
51547
51494
51492
51490
51460
51453
51494
51522
51510
51518
51569
51603
51599
51607
51633
51625
51567
51510
51472
51395
51275
51180
51106
50985
50832
50705
50588
50433
50267
50138
50010
49836
49656
49525
49416
49270
49100
48952
48809
48638
48460
48311
48171
48013
47867
47754
47641
47511
47401
47326
47241
47123
47024
46967
46902
46808
46736
46701
46655
46587
46535
46499
46441
46361
46312
46288
46228
46140
46090
46068
46014
45932
45874
45826
45741
45652
45612
45585
45519
45468
45489
45540
45592
45720
45987
46350
46776
47323
48013
48766
49531
50328
51148
51914
52593
53229
53827
54320
54700
55040
55347
55561
55685
55776
55837
55834
55792
55761
55724
55635
55516
55427
55355
55241
55100
54987
54894
54780
54660
54573
54491
54372
54251
54162
54055
53891
53724
53589
53434
53238
53055
52914
52759
52571
52406
52282
52137
51960
51809
51702
51602
51509
51458
51446
51431
51409
51421
51464
51478
51469
51500
51556
51567
51546
51556
51570
51531
51471
51444
51407
51311
51203
51128
51042
50900
50750
50638
50517
50350
50187
50055
49900
49699
49518
49379
49219
49024
48857
48731
48587
48414
48278
48180
48049
47888
47761
47656
47517
47364
47255
47165
47040
46908
46825
46753
46641
46530
46474
46427
46337
46249
46216
46190
46115
46036
45994
45950
45872
45812
45800
45784
45727
45678
45657
45619
45547
45490
45460
45403
45308
45235
45195
45130
45039
44977
44947
44914
44896
44940
45039
45160
45343
45658
46106
46635
47243
47960
48751
49542
50321
51107
51861
52531
53132
53680
54136
54466
54730
54979
55163
55247
55287
55318
55303
55225
55134
55053
54935
54766
54605
54476
54330
54160
54012
53891
53758
53612
53494
53392
53244
53058
52898
52758
52580
52372
52194
52030
51833
51625
51458
51305
51122
50945
50825
50716
50573
50444
50376
50323
50250
50205
50222
50242
50232
50242
50296
50338
50344
50360
50399
50407
50372
50349
50341
50284
50183
50100
50025
49912
49782
49671
49561
49415
49253
49121
49003
48845
48666
48519
48388
48225
48041
47880
47735
47575
47421
47300
47182
47040
46905
46799
46692
46567
46468
46409
46330
46207
46100
46028
45941
45825
45722
45653
45576
45483
45422
45399
45354
45280
45231
45208
45149
45062
45011
44992
44940
44867
44837
44820
44754
44681
44658
44641
44578
44513
44493
44467
44390
44316
44292
44260
44178
44105
44078
44042
43977
43951
44001
44081
44185
44387
44709
45095
45540
46103
46774
47477
48187
48943
49718
50430
51081
51713
52291
52755
53132
53473
53749
53920
54026
54121
54172
54139
54071
54019
53945
53809
53649
53506
53348
53152
52957
52793
52625
52429
52244
52092
51923
51713
51516
51348
51157
50933
50727
50540
50323
50081
49874
49703
49519
49340
49219
49136
49042
48958
48929
48935
48927
48929
48989
49075
49132
49178
49253
49328
49358
49368
49407
49445
49440
49421
49412
49377
49298
49216
49151
49066
48945
48835
48751
48643
48495
48358
48246
48114
47956
47821
47706
47554
47366
47215
47102
46954
46787
46674
46590
46468
46334
46247
46168
46049
45925
45847
45780
45673
45563
45505
45468
45400
45326
45280
45242
45188
45147
45133
45104
45042
44991
44971
44939
44880
44833
44807
44760
44684
44628
44604
44559
44487
44442
44426
44377
44300
44259
44257
44241
44227
44288
44422
44577
44788
45125
45563
46055
46633
47325
48066
48782
49500
50252
50965
51571
52105
52606
53037
53362
53622
53836
53966
54005
54009
54010
53960
53844
53720
53604
53455
53270
53093
52930
52744
52537
52361
52212
52023
51796
51600
51432
51230
50998
50794
50610
50390
50151
49954
49780
49579
49385
49244
49111
48947
48808
48738
48685
48611
48573
48604
48636
48630
48644
48704
48755
48781
48830
48908
48955
48956
48970
49002
48987
48934
48902
48872
48797
48689
48592
48500
48372
48223
48108
48019
47896
47746
47625
47508
47347
47185
47069
46948
46778
46614
46500
46384
46222
46072
45982
45894
45770
45657
45578
45484
45356
45255
45202
45135
45042
44979
44953
44904
44829
44783
44762
44712
44639
44603
44587
44533
44466
44435
44415
44359
44292
44263
44251
44202
44135
44102
44085
44038
43978
43944
43910
43847
43786
43756
43719
43652
43604
43614
43639
43660
43737
43903
44126
44409
44813
45356
45978
46647
47390
48188
48968
49709
50438
51139
51743
52242
52694
53096
53390
53589
53755
53887
53938
53924
53905
53871
53778
53650
53536
53420
53271
53110
52966
52806
52602
52401
52239
52074
51878
51697
51548
51376
51162
50959
50794
50612
50395
50204
50050
49875
49672
49499
49370
49227
49072
48974
48931
48868
48795
48776
48798
48803
48810
48870
48938
48955
48969
49039
49114
49129
49122
49141
49148
49100
49040
49001
48940
48832
48730
48662
48575
48443
48319
48223
48104
47952
47821
47718
47588
47423
47279
47157
47008
46844
46716
46609
46477
46338
46240
46160
46037
45888
45773
45690
45589
45479
45408
45360
45280
45181
45111
45059
44989
44920
44873
44822
44751
44699
44679
44637
44555
44485
44447
44399
44327
44275
44254
44209
44126
44059
44020
43964
43893
43849
43822
43771
43712
43694
43700
43679
43653
43687
43790
43930
44125
44434
44850
45327
45877
46540
47279
48021
48757
49500
50213
50859
51451
51997
52450
52787
53058
53291
53449
53518
53543
53550
53496
53367
53219
53071
52885
52661
52449
52254
52037
51799
51584
51386
51160
50916
50702
50507
50275
50022
49801
49599
49365
49114
48901
48707
48483
48266
48099
47951
47785
47640
47552
47471
47360
47280
47269
47266
47238
47239
47287
47325
47343
47394
47493
47574
47610
47647
47695
47707
47683
47678
47692
47653
47558
47486
47438
47345
47215
47112
47018
46876
46719
46601
46487
46323
46156
46039
45926
45772
45623
45524
45420
45269
45134
45064
44994
44885
44787
44722
44645
44535
44447
44399
44337
44246
44180
44146
44095
44021
43975
43962
43920
43842
43793
43771
43713
43624
43567
43539
43475
43379
43317
43288
43239
43173
43132
43109
43067
43023
43008
42984
42915
42849
42832
42822
42795
42812
42910
43033
43156
43355
43673
44059
44493
45028
45671
46352
47043
47775
48528
49216
49815
50388
50925
51350
51673
51953
52179
52305
52356
52385
52368
52263
52114
51982
51839
51631
51396
51183
50964
50703
50433
50195
49962
49710
49469
49258
49035
48782
48538
48317
48082
47823
47588
47396
47199
46981
46796
46663
46535
46406
46327
46296
46250
46184
46166
46195
46206
46202
46250
46345
46427
46505
46622
46741
46804
46846
46920
46981
46979
46964
46985
46985
46911
46827
46778
46713
46594
46482
46410
46323
46193
46070
45973
45855
45704
45575
45480
45355
45192
45062
44967
44845
44702
44601
44525
44411
44279
44189
44123
44032
43943
43902
43869
43796
43714
43678
43659
43598
43522
43488
43469
43418
43363
43338
43307
43239
43175
43140
43096
43023
42964
42943
42914
42862
42836
42856
42882
42908
42989
43144
43338
43578
43918
44358
44858
45420
46069
46774
47456
48111
48781
49433
49998
50481
50926
51317
51605
51795
51940
52032
52030
51960
51867
51745
51573
51384
51201
50992
50740
50500
50294
50077
49831
49595
49387
49163
48906
48662
48443
48202
47928
47664
47417
47158
46898
46682
46510
46331
46149
46025
45952
45873
45792
45758
45758
45746
45746
45802
45869
45895
45933
46035
46137
46178
46212
46287
46351
46364
46375
46411
46423
46384
46343
46326
46280
46187
46104
46044
45952
45822
45697
45590
45463
45322
45211
45121
44999
44856
44740
44651
44537
44405
44307
44238
44137
44010
43920
43862
43783
43694
43637
43590
43518
43448
43416
43379
43303
43234
43203
43161
43085
43033
43025
43004
42946
42902
42892
42866
42804
42752
42726
42680
42606
42559
42548
42510
42433
42383
42360
42303
42227
42202
42224
42243
42276
42387
42558
42747
42998
43372
43831
44330
44917
45626
46387
47122
47854
48609
49312
49907
50438
50934
51340
51628
51851
52039
52149
52169
52160
52145
52068
51928
51778
51626
51436
51219
51023
50840
50621
50387
50191
50018
49819
49608
49423
49251
49045
48813
48610
48429
48219
47989
47789
47606
47407
47218
47066
46922
46768
46649
46596
46557
46495
46466
46500
46536
46547
46581
46656
46719
46753
46812
46908
46968
46983
47018
47077
47088
47051
47036
47042
47000
46916
46859
46814
46723
46605
46514
46416
46264
46106
45998
45896
45750
45601
45503
45412
45280
45142
45034
44921
44777
44642
44545
44446
44324
44225
44171
44110
44026
43962
43932
43891
43825
43778
43763
43728
43659
43615
43599
43544
43454
43399
43380
43330
43260
43232
43228
43182
43113
43081
43059
42997
42931
42902
42870
42797
42739
42740
42741
42702
42692
42760
42853
42953
43136
43442
43816
44244
44782
45436
46135
46851
47612
48399
49131
49789
50419
51007
51477
51838
52166
52445
52616
52713
52800
52849
52809
52717
52638
52539
52372
52193
52056
51914
51718
51519
51372
51226
51028
50829
50673
50506
50294
50096
49938
49758
49531
49317
49138
48940
48720
48537
48406
48265
48110
48005
47951
47874
47777
47734
47732
47704
47672
47700
47758
47778
47785
47835
47896
47917
47935
47998
48056
48057
48053
48093
48117
48063
47982
47935
47880
47778
47675
47599
47498
47341
47191
47079
46953
46793
46649
46538
46411
46259
46135
46045
45934
45797
45683
45585
45460
45328
45231
45152
45045
44925
44841
44784
44697
44587
44509
44453
44366
44260
44183
44121
44043
43965
43918
43878
43820
43774
43759
43739
43689
43648
43634
43601
43534
43486
43477
43456
43404
43365
43356
43329
43273
43237
43229
43198
43144
43131
43172
43226
43308
43475
43737
44044
44410
44904
45516
46176
46875
47636
48407
49119
49794
50460
51053
51517
51907
52265
52535
52687
52788
52884
52927
52891
52838
52802
52727
52596
52460
52340
52193
52009
51837
51695
51529
51322
51130
50968
50785
50578
50404
50259
50076
49853
49655
49477
49267
49038
48846
48684
48509
48329
48188
48081
47972
47875
47818
47778
47736
47721
47744
47773
47789
47823
47884
47937
47967
48016
48094
48142
48142
48150
48170
48151
48094
48044
47999
47914
47798
47698
47607
47480
47335
47221
47123
46999
46865
46765
46680
46556
46404
46276
46163
46024
45882
45774
45672
45545
45429
45350
45267
45158
45063
45001
44930
44834
44757
44713
44656
44570
44508
44478
44433
44370
44327
44304
44258
44195
44164
44150
44102
44034
43992
43970
43920
43852
43817
43801
43744
43660
43609
43585
43538
43482
43460
43469
43483
43524
43634
43795
43984
44251
44631
45092
45608
46200
46870
47554
48209
48864
49517
50117
50644
51131
51569
51902
52133
52321
52468
52532
52532
52531
52515
52427
52298
52191
52077
51908
51720
51562
51400
51182
50956
50781
50609
50392
50179
50009
49826
49593
49370
49198
49020
48792
48575
48414
48252
48063
47912
47818
47726
47619
47559
47559
47570
47577
47618
47700
47772
47824
47912
48031
48119
48172
48244
48336
48393
48412
48447
48490
48485
48444
48423
48403
48337
48251
48188
48113
47986
47854
47753
47638
47481
47332
47221
47100
46941
46796
46691
46574
46421
46281
46176
46063
45927
45813
45733
45638
45530
45456
45411
45350
45275
45227
45205
45155
45085
45054
45044
44997
44924
44879
44857
44808
44739
44697
44663
44594
44520
44478
44431
44348
44273
44239
44204
44151
44140
44210
44314
44438
44640
44948
45322
45748
46265
46875
47504
48117
48746
49384
49965
50478
50965
51422
51785
52050
52286
52496
52622
52669
52699
52717
52678
52598
52531
52459
52339
52204
52097
51978
51809
51635
51486
51307
51070
50834
50630
50396
50102
49817
49577
49327
49048
48794
48584
48360
48110
47899
47732
47549
47356
47225
47155
47080
47006
47004
47055
47081
47102
47184
47292
47363
47437
47569
47705
47785
47854
47968
48071
48106
48124
48173
48198
48161
48123
48119
48079
47976
47880
47824
47748
47631
47526
47451
47342
47186
47053
46958
46843
46698
46577
46491
46376
46232
46129
46059
45951
45818
45724
45655
45560
45462
45405
45351
45251
45156
45117
45082
44995
44908
44872
44838
44760
44683
44652
44616
44533
44464
44444
44417
44356
44313
44307
44281
44215
44169
44157
44113
44033
43978
43955
43900
43815
43774
43779
43760
43729
43766
43865
43978
44144
44430
44814
45251
45784
46461
47216
47968
48741
49559
50352
51054
51700
52320
52847
53240
53566
53873
54109
54246
54341
54419
54428
54351
54257
54180
54068
53910
53769
53654
53509
53339
53205
53106
52984
52846
52736
52625
52464
52286
52138
51995
51812
51609
51439
51285
51099
50899
50737
50602
50457
50315
50207
50116
50018
49945
49925
49913
49874
49858
49892
49923
49931
49963
50034
50086
50101
50129
50190
50221
50198
50182
50182
50136
50044
49971
49918
49818
49675
49563
49474
49341
49183
49059
48947
48787
48617
48491
48365
48182
47993
47852
47707
47509
47307
47152
47005
46834
46685
46579
46466
46324
46200
46114
46026
45918
45830
45768
45684
45566
45463
45394
45318
45231
45177
45150
45098
45025
44977
44948
44888
44809
44766
44741
44670
44566
44487
44428
44344
44253
44209
44194
44164
44144
44178
44249
44334
44472
44693
44979
45333
45810
46423
47105
47808
48547
49316
50050
50716
51344
51935
52432
52823
53157
53445
53648
53772
53868
53927
53908
53840
53782
53718
53594
53429
53277
53128
52931
52707
52520
52356
52158
51949
51778
51621
51440
51255
51091
50914
50697
50482
50300
50113
49899
49701
49545
49390
49217
49073
48977
48881
48777
48712
48691
48667
48638
48648
48685
48700
48709
48758
48825
48860
48882
48934
48994
49006
48996
49015
49036
49000
48928
48869
48799
48679
48537
48412
48285
48131
47985
47870
47747
47594
47449
47324
47179
47001
46847
46737
46618
46467
46329
46220
46100
45963
45849
45764
45668
45559
45489
45452
45387
45299
45239
45201
45130
45037
44979
44949
44887
44801
44742
44698
44626
44540
44480
44427
44349
44279
44248
44219
44168
44135
44137
44137
44134
44185
44316
44482
44675
44953
45342
45801
46314
46915
47592
48276
48945
49634
50320
50931
51460
51950
52389
52720
52954
53157
53321
53388
53382
53372
53341
53240
53102
52973
52822
52615
52410
52253
52086
51860
51637
51463
51283
51062
50839
50635
50407
50140
49896
49699
49485
49235
49010
48829
48641
48443
48281
48160
48038
47922
47857
47842
47832
47825
47873
47964
48037
48097
48200
48333
48439
48526
48639
48748
48802
48831
48878
48902
48865
48810
48770
48697
48563
48435
48356
48263
48119
47984
47886
47768
47611
47471
47366
47235
47066
46924
46818
46680
46511
46382
46286
46158
46008
45905
45833
45729
45613
45544
45493
45408
45328
45302
45285
45220
45146
45120
45098
45024
44942
44901
44862
44794
44735
44705
44665
44602
44564
44568
44555
44499
44467
44479
44493
44507
44591
44770
45004
45296
45710
46250
46859
47527
48274
49052
49794
50499
51197
51850
52396
52840
53227
53548
53768
53920
54063
54166
54176
54129
54086
54022
53898
53754
53624
53473
53281
53094
52932
52748
52533
52341
52185
52012
51808
51627
51479
51301
51079
50874
50696
50494
50274
50091
49937
49753
49561
49426
49326
49209
49107
49067
49055
49023
49012
49073
49160
49212
49256
49344
49441
49500
49550
49629
49695
49712
49721
49749
49751
49702
49645
49595
49509
49378
49259
49167
49042
48874
48723
48596
48441
48264
48112
47980
47817
47630
47477
47343
47181
47020
46908
46812
46682
46545
46453
46377
46262
46143
46075
46019
45926
45839
45807
45774
45681
45581
45522
45460
45367
45289
45246
45188
45093
45019
44989
44944
44872
44824
44806
44767
44710
44695
44732
44771
44822
44955
45183
45468
45838
46353
46998
47700
48446
49255
50089
50867
51575
52250
52875
53401
53838
54221
54526
54727
54870
54996
55066
55053
55013
54986
54925
54804
54680
54579
54447
54271
54112
53993
53865
53708
53572
53466
53343
53193
53074
52989
52869
52701
52548
52412
52235
52024
51842
51688
51506
51315
51173
51065
50940
50823
50757
50711
50645
50596
50602
50614
50592
50581
50619
50653
50647
50652
50694
50716
50689
50675
50699
50700
50661
50630
50617
50576
50495
50427
50377
50276
50119
49970
49841
49679
49487
49323
49191
49027
48829
48660
48518
48349
48160
48006
47881
47738
47591
47481
47389
47276
47157
47065
46982
46882
46794
46738
46670
46571
46483
46422
46346
46238
46146
46082
45983
45845
45743
45683
45598
45491
45423
45384
45324
45259
45238
45243
45231
45239
45333
45514
45752
46074
46534
47113
47744
48420
49172
49957
50703
51414
52111
52759
53318
53808
54248
54597
54839
55022
55176
55270
55294
55298
55306
55270
55173
55069
54974
54849
54699
54565
54450
54319
54173
54052
53950
53820
53671
53548
53431
53270
53087
52929
52773
52565
52336
52145
51965
51749
51537
51378
51239
51076
50925
50830
50756
50666
50609
50618
50628
50604
50603
50657
50707
50721
50750
50808
50838
50827
50838
50878
50871
50813
50776
50760
50704
50618
50564
50528
50438
50312
50217
50135
50012
49873
49762
49642
49459
49260
49105
48955
48763
48579
48447
48311
48127
47955
47837
47717
47555
47401
47291
47178
47038
46924
46860
46791
46687
46590
46514
46418
46298
46198
46122
46028
45917
45832
45764
45669
45564
45498
45449
45364
45274
45240
45253
45279
45340
45491
45735
46039
46431
46960
47590
48258
48972
49748
50534
51280
51991
52666
53255
53727
54120
54476
54765
54972
55140
55272
55318
55279
55223
55166
55061
54912
54777
54648
54476
54280
54118
53983
53832
53682
53571
53459
53295
53102
52927
52743
52502
52241
52021
51817
51583
51340
51135
50946
50746
50571
50449
50345
50240
50167
50146
50138
50121
50140
50211
50276
50313
50379
50483
50564
50613
50678
50755
50790
50790
50815
50848
50833
50794
50776
50749
50666
50561
50484
50405
50272
50119
49999
49887
49733
49566
49431
49300
49133
48962
48832
48713
48577
48457
48372
48282
48165
48060
47984
47896
47774
47667
47599
47524
47424
47338
47279
47204
47109
47040
46996
46918
46805
46714
46648
46552
46432
46351
46311
46259
46213
46233
46311
46410
46573
46870
47274
47746
48328
49045
49816
50568
51332
52122
52863
53504
54084
54624
55076
55411
55682
55924
56095
56172
56212
56243
56232
56172
56109
56058
55972
55851
55747
55653
55523
55363
55225
55094
54919
54725
54563
54414
54228
54025
53853
53690
53488
53276
53108
52952
52758
52556
52389
52242
52091
51972
51915
51880
51841
51834
51868
51895
51906
51950
52037
52108
52151
52225
52333
52412
52451
52510
52586
52607
52577
52575
52589
52544
52456
52393
52344
52249
52128
52036
51942
51792
51628
51501
51370
51190
51010
50879
50742
50547
50356
50222
50093
49927
49775
49670
49559
49416
49300
49239
49170
49069
48986
48930
48845
48722
48633
48589
48526
48427
48344
48285
48194
48080
48005
47958
47875
47763
47681
47625
47544
47454
47418
47433
47461
47533
47709
47988
48348
48815
49417
50115
50856
51647
52479
53290
54035
54734
55390
55948
56383
56752
57081
57323
57474
57591
57688
57721
57695
57678
57669
57611
57522
57461
57413
57326
57230
57186
57160
57088
57008
56977
56949
56868
56781
56737
56686
56570
56441
56349
56244
56078
55908
55780
55642
55459
55298
55201
55110
54993
54902
54860
54811
54745
54723
54763
54806
54829
54873
54940
54990
55021
55079
55157
55196
55197
55215
55243
55232
55193
55175
55165
55106
55008
54931
54864
54760
54637
54535
54437
54306
54163
54043
53918
53760
53605
53472
53320
53135
52961
52821
52667
52483
52320
52186
52037
51868
51729
51624
51499
51350
51240
51165
51067
50958
50895
50857
50776
50673
50610
50558
50465
50364
50310
50265
50165
50053
49990
49937
49841
49745
49691
49624
49508
49404
49348
49283
49183
49113
49115
49150
49214
49377
49680
50076
50547
51138
51850
52613
53380
54165
54950
55663
56286
56857
57366
57767
58071
58335
58554
58682
58749
58822
58878
58873
58843
58845
58842
58778
58704
58684
58665
58594
58522
58484
58425
58317
58225
58183
58130
58037
57950
57886
57794
57659
57541
57460
57354
57208
57076
56969
56836
56670
56538
56453
56355
56237
56159
56123
56070
55997
55973
56001
56019
56025
56072
56156
56220
56266
56333
56405
56440
56462
56515
56563
56563
56544
56539
56514
56438
56351
56278
56177
56036
55908
55814
55701
55545
55406
55295
55152
54971
54813
54688
54536
54348
54184
54050
53882
53686
53532
53423
53289
53132
53014
52929
52813
52673
52564
52481
52375
52254
52164
52092
52005
51920
51865
51812
51740
51682
51655
51612
51531
51450
51390
51312
51195
51087
51013
50921
50794
50683
50596
50491
50378
50305
50269
50234
50234
50339
50542
50808
51173
51683
52308
52984
53714
54514
55308
56021
56677
57315
57876
58306
58655
58975
59228
59384
59500
59613
59679
59673
59660
59670
59651
59579
59506
59453
59378
59265
59164
59092
59001
58883
58784
58707
58611
58495
58402
58316
58189
58047
57936
57827
57673
57500
57360
57221
57034
56844
56707
56587
56442
56317
56259
56211
56122
56055
56066
56099
56110
56150
56249
56347
56404
56479
56596
56693
56743
56791
56846
56862
56826
56788
56767
56714
56617
56523
56437
56316
56171
56057
55955
55809
55638
55505
55379
55202
55008
54852
54700
54499
54296
54146
53997
53796
53600
53462
53332
53165
53014
52913
52805
52657
52524
52433
52335
52214
52114
52052
51972
51856
51756
51683
51587
51470
51385
51328
51245
51143
51073
51014
50914
50803
50728
50664
50558
50440
50366
50299
50190
50090
50051
50029
49982
49977
50086
50275
50514
50865
51376
51990
52659
53414
54261
55106
55879
56605
57288
57876
58349
58753
59109
59373
59546
59685
59802
59861
59870
59879
59886
59841
59762
59699
59626
59498
59353
59252
59163
59028
58882
58777
58672
58516
58356
58245
58131
57956
57761
57603
57443
57237
57028
56855
56677
56461
56272
56147
56029
55897
55807
55779
55763
55744
55775
55865
55948
56006
56101
56242
56359
56444
56558
56699
56791
56835
56901
56974
56986
56953
56941
56941
56890
56799
56729
56665
56559
56427
56309
56183
56015
55843
55705
55565
55395
55228
55080
54911
54710
54533
54402
54265
54096
53937
53806
53664
53502
53365
53263
53148
53013
52903
52816
52705
52583
52491
52415
52310
52192
52114
52052
51954
51842
51769
51708
51607
51496
51430
51376
51275
51155
51065
50980
50873
50788
50766
50781
50815
50926
51159
51487
51897
52437
53115
53856
54611
55405
56227
56987
57651
58257
58799
59227
59555
59840
60079
60226
60310
60389
60448
60444
60401
60374
60341
60254
60141
60055
59971
59842
59694
59575
59461
59307
59146
59026
58911
58757
58600
58471
58326
58138
57951
57785
57597
57370
57161
56995
56825
56639
56491
56389
56282
56171
56121
56128
56118
56102
56146
56228
56288
56349
56470
56611
56704
56776
56877
56970
57008
57029
57084
57119
57079
57015
56985
56941
56838
56731
56663
56576
56436
56304
56208
56077
55885
55697
55539
55363
55161
54985
54840
54664
54454
54282
54151
53997
53818
53672
53546
53387
53217
53090
52979
52829
52673
52562
52458
52311
52159
52052
51958
51826
51699
51633
51578
51480
51380
51322
51260
51160
51079
51050
51010
50919
50836
50789
50724
50623
50544
50506
50443
50339
50260
50214
50136
50021
49938
49897
49841
49786
49821
49957
50150
50441
50903
51512
52204
52988
53886
54819
55691
56516
57325
58056
58643
59132
59576
59935
60176
60358
60525
60625
60626
60601
60591
60548
60458
60375
60322
60238
60103
59979
59879
59751
59591
59461
59371
59257
59109
58999
58919
58790
58620
58482
58361
58194
58003
57852
57706
57505
57290
57125
56975
56792
56626
56532
56466
56374
56310
56324
56358
56362
56384
56461
56540
56587
56656
56777
56883
56940
57003
57084
57126
57122
57130
57154
57131
57051
56990
56952
56868
56743
56641
56548
56412
56251
56118
55985
55800
55602
55449
55313
55137
54943
54781
54632
54451
54259
54098
53947
53771
53605
53476
53345
53191
53049
52941
52829
52694
52580
52500
52403
52272
52157
52077
51984
51865
51769
51712
51649
51565
51513
51490
51434
51352
51299
51264
51188
51081
51008
50967
50896
50803
50745
50705
50629
50537
50477
50417
50316
50226
50201
50201
50197
50265
50473
50784
51173
51699
52383
53151
53945
54796
55700
56563
57333
58049
58707
59242
59649
59995
60288
60479
60582
60672
60750
60770
60749
60734
60707
60630
60528
60447
60362
60220
60051
59913
59788
59626
59445
59290
59148
58988
58829
58701
58568
58395
58217
58064
57901
57709
57523
57357
57173
56960
56777
56645
56516
56381
56286
56242
56209
56178
56191
56253
56311
56356
56438
56553
56638
56702
56806
56929
57003
57046
57113
57178
57177
57148
57144
57122
57031
56920
56832
56722
56559
56406
56300
56174
55985
55797
55648
55485
55282
55101
54964
54810
54621
54451
54315
54153
53957
53787
53651
53482
53277
53109
52983
52835
52667
52538
52438
52303
52145
52031
51958
51865
51749
51657
51591
51505
51398
51311
51237
51137
51033
50954
50880
50792
50719
50680
50637
50563
50500
50471
50428
50351
50279
50230
50160
50055
49962
49895
49810
49710
49640
49596
49549
49528
49596
49756
49977
50302
50803
51456
52185
52983
53874
54820
55731
56583
57393
58129
58742
59252
59694
60048
60288
60463
60609
60683
60668
60635
60623
60571
60453
60337
60251
60143
60003
59876
59767
59621
59426
59254
59109
58927
58713
58534
58381
58191
57977
57794
57618
57395
57161
56974
56802
56592
56377
56223
56104
55963
55822
55732
55676
55613
55570
55583
55615
55631
55672
55761
55852
55918
56003
56123
56223
56277
56340
56428
56488
56503
56517
56536
56515
56445
56377
56324
56220
56065
55937
55835
55687
55502
55344
55203
55022
54828
54685
54555
54379
54193
54050
53906
53714
53522
53380
53236
53044
52869
52757
52644
52484
52334
52232
52124
51977
51849
51772
51683
51555
51446
51374
51277
51145
51042
50980
50888
50761
50672
50623
50544
50436
50366
50333
50269
50177
50124
50097
50034
49945
49884
49846
49778
49687
49621
49564
49477
49386
49323
49259
49177
49117
49106
49112
49131
49234
49464
49799
50233
50812
51548
52369
53229
54149
55097
55992
56810
57567
58242
58792
59232
59606
59907
60098
60196
60263
60302
60278
60214
60162
60101
59983
59824
59682
59542
59361
59158
58977
58793
58567
58333
58130
57928
57699
57478
57284
57078
56840
56613
56414
56195
55941
55709
55515
55312
55099
54927
54803
54677
54547
54467
54434
54401
54379
54413
54485
54549
54620
54747
54904
55025
55117
55231
55351
55426
55464
55506
55541
55531
55499
55479
55443
55360
55261
55173
55057
54892
54730
54600
54446
54242
54050
53899
53736
53543
53369
53224
53056
52859
52690
52561
52408
52217
52059
51938
51782
51597
51449
51322
51154
50975
50848
50739
50592
50451
50371
50302
50184
50064
49994
49932
49831
49737
49687
49633
49539
49447
49391
49334
49254
49182
49132
49058
48946
48850
48789
48711
48600
48509
48452
48390
48318
48284
48295
48317
48368
48531
48828
49207
49685
50327
51107
51939
52805
53725
54638
55468
56224
56946
57584
58082
58490
58855
59129
59276
59365
59440
59451
59374
59281
59210
59102
58925
58741
58577
58376
58121
57878
57667
57425
57141
56884
56661
56405
56120
55866
55627
55351
55064
54816
54587
54328
54068
53857
53676
53481
53289
53143
53037
52932
52845
52816
52828
52843
52889
52991
53103
53187
53293
53452
53608
53725
53852
54010
54135
54195
54248
54309
54317
54268
54224
54194
54121
54008
53913
53830
53697
53524
53376
53239
53060
52862
52697
52541
52349
52149
51996
51862
51690
51496
51334
51191
51025
50854
50714
50588
50453
50331
50240
50139
50003
49877
49788
49690
49567
49467
49405
49335
49239
49164
49126
49065
48962
48880
48830
48753
48646
48572
48534
48468
48379
48344
48355
48348
48346
48421
48563
48740
49013
49448
50005
50625
51335
52170
53059
53913
54733
55541
56289
56932
57490
57985
58383
58669
58901
59109
59244
59286
59288
59279
59220
59100
58966
58833
58655
58434
58224
58034
57807
57543
57298
57068
56791
56474
56190
55926
55614
55275
54978
54708
54419
54134
53896
53674
53436
53231
53101
52998
52873
52786
52788
52822
52852
52928
53075
53231
53364
53526
53735
53917
54057
54213
54393
54532
54620
54720
54836
54900
54904
54917
54940
54912
54849
54803
54748
54631
54481
54355
54231
54056
53863
53710
53572
53396
53203
53044
52894
52712
52527
52379
52241
52080
51932
51823
51711
51572
51453
51373
51279
51143
51023
50942
50845
50716
50607
50536
50462
50366
50284
50223
50133
50011
49921
49865
49782
49674
49603
49563
49493
49404
49360
49353
49338
49352
49464
49669
49940
50324
50873
51542
52270
53078
53973
54861
55676
56448
57196
57849
58366
58805
59206
59518
59714
59852
59961
59998
59957
59903
59862
59782
59649
59528
59423
59273
59087
58935
58809
58640
58446
58300
58180
58018
57848
57723
57587
57384
57163
56981
56794
56554
56318
56144
55980
55776
55590
55471
55370
55257
55189
55197
55216
55214
55250
55349
55452
55534
55639
55780
55896
55977
56090
56238
56341
56391
56460
56540
56567
56555
56557
56548
56474
56363
56271
56165
55999
55822
55687
55550
55363
55172
55033
54899
54716
54524
54371
54215
54021
53843
53713
53571
53383
53208
53076
52934
52760
52606
52494
52364
52200
52074
51993
51883
51740
51637
51569
51471
51353
51279
51229
51136
51024
50948
50876
50753
50617
50519
50433
50322
50222
50191
50212
50254
50372
50637
51027
51506
52099
52828
53630
54444
55280
56131
56925
57614
58233
58795
59247
59581
59862
60103
60251
60305
60330
60341
60306
60243
60193
60149
60074
59972
59888
59813
59688
59521
59382
59272
59137
58982
58857
58742
58586
58412
58264
58119
57933
57738
57570
57395
57193
57008
56867
56721
56542
56387
56286
56191
56080
56004
55987
55981
55965
55991
56074
56158
56226
56321
56439
56525
56572
56635
56717
56750
56734
56736
56748
56709
56631
56570
56515
56411
56278
56169
56071
55937
55785
55650
55510
55339
55172
55034
54875
54666
54463
54300
54136
53947
53779
53656
53526
53363
53220
53115
52996
52849
52718
52617
52505
52376
52273
52192
52082
51952
51855
51783
51684
51568
51489
51438
51353
51236
51143
51072
50975
50864
50788
50744
50706
50700
50775
50931
51154
51489
51967
52551
53212
53971
54816
55665
56455
57207
57925
58549
59057
59497
59885
60174
60361
60506
60626
60682
60679
60666
60646
60579
60481
60405
60341
60227
60074
59952
59853
59724
59583
59476
59373
59233
59104
59025
58942
58804
58660
58550
58413
58208
57997
57823
57643
57432
57248
57118
56984
56824
56706
56653
56608
56561
56567
56625
56672
56702
56775
56884
56969
57035
57128
57227
57279
57306
57354
57397
57388
57349
57334
57328
57278
57191
57116
57049
56948
56823
56709
56583
56415
56248
56112
55967
55787
55610
55457
55291
55097
54921
54781
54629
54450
54295
54181
54057
53908
53778
53673
53547
53393
53274
53193
53074
52923
52815
52742
52638
52522
52444
52368
52247
52122
52043
51985
51892
51779
51695
51626
51529
51427
51355
51275
51160
51054
50983
50899
50782
50697
50685
50692
50695
50765
50945
51207
51556
52055
52699
53409
54162
54995
55873
56692
57432
58136
58777
59296
59710
60069
60355
60530
60635
60734
60807
60800
60738
60682
60626
60529
60411
60310
60200
60052
59908
59799
59678
59512
59357
59251
59137
58986
58852
58753
58625
58454
58294
58158
57991
57782
57601
57461
57300
57117
56969
56858
56747
56656
56629
56638
56627
56594
56588
56623
56651
56676
56752
56855
56922
56978
57070
57148
57164
57165
57194
57204
57152
57090
57061
57015
56914
56802
56705
56582
56415
56249
56107
55942
55737
55540
55374
55195
54989
54807
54658
54489
54296
54133
53998
53836
53652
53514
53404
53257
53099
52988
52887
52744
52597
52507
52437
52332
52216
52137
52076
51996
51912
51852
51777
51658
51551
51488
51414
51300
51202
51145
51069
50956
50865
50808
50723
50597
50505
50461
50396
50311
50279
50309
50356
50454
50682
51034
51455
51965
52612
53353
54116
54895
55707
56505
57219
57845
58423
58933
59323
59613
59856
60039
60134
60177
60198
60161
60054
59940
59854
59742
59573
59412
59290
59150
58977
58822
58691
58529
58326
58147
58004
57823
57592
57386
57206
56982
56727
56503
56292
56047
55805
55629
55489
55331
55190
55119
55085
55033
54992
55012
55066
55103
55143
55226
55331
55418
55512
55638
55757
55840
55917
56003
56048
56036
56019
56023
55995
55914
55831
55766
55676
55546
55418
55306
55159
54970
54807
54670
54489
54282
54119
53982
53810
53632
53506
53397
53241
53073
52951
52838
52676
52508
52392
52300
52189
52078
51994
51909
51803
51714
51662
51596
51492
51402
51354
51298
51205
51120
51059
50978
50866
50775
50715
50625
50496
50402
50356
50293
50230
50249
50347
50482
50686
51028
51486
52000
52595
53309
54087
54846
55590
56347
57070
57695
58224
58687
59071
59354
59569
59755
59885
59939
59955
59955
59903
59791
59677
59582
59451
59264
59081
58929
58761
58560
58374
58214
58026
57804
57604
57424
57202
56947
56731
56536
56300
56048
55838
55644
55422
55212
55064
54957
54842
54736
54685
54673
54657
54660
54720
54797
54855
54929
55046
55156
55226
55310
55436
55541
55591
55643
55716
55748
55729
55715
55712
55661
55561
55468
55385
55265
55115
54988
54873
54715
54524
54361
54220
54049
53857
53699
53565
53404
53231
53100
52975
52806
52644
52535
52425
52266
52116
52021
51936
51828
51738
51687
51622
51519
51428
51374
51306
51202
51107
51037
50951
50833
50721
50629
50522
50400
50312
50259
50181
50079
50021
50008
49983
49965
50031
50189
50401
50705
51169
51750
52373
53068
53867
54696
55474
56227
56982
57671
58232
58702
59123
59465
59702
59882
60042
60139
60153
60139
60124
60069
59960
59846
59752
59636
59486
59351
59243
59125
58990
58882
58800
58687
58543
58434
58346
58207
58031
57883
57735
57524
57294
57106
56926
56707
56495
56346
56220
56064
55922
55850
55811
55764
55748
55787
55835
55865
55914
56002
56081
56126
56183
56272
56343
56375
56409
56462
56492
56486
56494
56515
56487
56406
56332
56267
56153
55996
55860
55748
55597
55414
55263
55132
54966
54789
54646
54501
54306
54114
53977
53847
53672
53503
53394
53287
53129
52978
52873
52764
52625
52507
52439
52361
52248
52157
52100
52019
51913
51840
51801
51742
51662
51614
51585
51514
51418
51346
51273
51156
51024
50933
50865
50774
50691
50674
50699
50730
50815
51022
51336
51719
52202
52823
53540
54298
55101
55948
56771
57516
58205
58844
59377
59781
60118
60419
60642
60783
60898
60997
61031
60999
60962
60933
60866
60763
60680
60614
60523
60422
60353
60301
60217
60120
60062
60034
59980
59908
59865
59833
59759
59648
59542
59425
59269
59109
58981
58840
58655
58485
58364
58237
58082
57965
57912
57866
57802
57775
57802
57823
57824
57865
57949
58013
58050
58105
58170
58198
58195
58208
58229
58207
58149
58107
58082
58017
57913
57822
57742
57626
57494
57390
57276
57110
56939
56808
56664
56464
56267
56118
55971
55792
55625
55499
55367
55200
55042
54921
54787
54620
54478
54377
54272
54147
54043
53970
53884
53774
53696
53655
53580
53468
53391
53342
53255
53150
53088
53041
52954
52862
52814
52770
52678
52576
52516
52468
52381
52277
52199
52123
52021
51928
51872
51822
51760
51744
51816
51939
52110
52417
52895
53471
54112
54857
55689
56514
57290
58056
58799
59424
59922
60369
60764
61049
61243
61412
61548
61610
61629
61661
61676
61620
61528
61462
61411
61321
61211
61127
61052
60955
60868
60817
60756
60654
60571
60541
60498
60404
60310
60241
60146
60002
59860
59739
59585
59390
59219
59091
58949
58784
58654
58561
58468
58390
58369
58383
58383
58378
58416
58486
58527
58542
58592
58668
58714
58741
58793
58842
58847
58841
58866
58874
58815
58742
58705
58649
58534
58418
58341
58254
58124
57987
57863
57718
57537
57368
57233
57087
56913
56755
56632
56501
56344
56206
56091
55946
55772
55632
55521
55377
55212
55091
55007
54911
54814
54758
54696
54579
54448
54355
54274
54161
54043
53959
53884
53785
53687
53617
53541
53441
53362
53325
53284
53205
53128
53079
53015
52918
52837
52788
52712
52603
52526
52474
52376
52244
52147
52069
51959
51856
51835
51882
51951
52084
52344
52709
53143
53679
54356
55129
55921
56718
57537
58330
59026
59631
60172
60624
60970
61253
61503
61676
61747
61782
61820
61814
61747
61689
61666
61624
61545
61475
61429
61350
61234
61149
61104
61033
60942
60888
60852
60779
60689
60626
60571
60476
60360
60273
60189
60048
59867
59711
59576
59416
59250
59121
59013
58889
58779
58722
58690
58662
58671
58729
58783
58805
58842
58929
59012
59056
59103
59173
59224
59239
59257
59284
59274
59226
59188
59153
59072
58958
58852
58752
58621
58471
58348
58238
58086
57902
57744
57603
57429
57237
57074
56926
56749
56561
56411
56276
56123
55978
55861
55737
55588
55456
55362
55262
55131
55015
54932
54835
54705
54593
54520
54439
54333
54250
54200
54122
54005
53918
53862
53766
53638
53552
53496
53406
53301
53243
53202
53116
53023
52978
52934
52839
52735
52669
52606
52503
52397
52330
52258
52137
52016
51930
51837
51720
51617
51552
51491
51425
51424
51526
51697
51941
52324
52855
53481
54186
54994
55869
56721
57525
58303
59025
59630
60123
60551
60908
61150
61300
61429
61540
61582
61568
61556
61532
61449
61349
61280
61199
61061
60919
60813
60690
60518
60361
60257
60142
59988
59850
59750
59636
59488
59350
59237
59097
58914
58736
58577
58394
58196
58037
57913
57772
57628
57542
57511
57470
57426
57443
57507
57550
57585
57670
57777
57851
57926
58044
58157
58211
58253
58331
58387
58368
58330
58322
58297
58220
58136
58076
57988
57846
57712
57614
57489
57315
57152
57008
56834
56632
56459
56315
56146
55954
55796
55661
55496
55317
55172
55054
54911
54750
54625
54526
54397
54252
54150
54066
53951
53838
53773
53704
53576
53442
53351
53261
53140
53036
52977
52917
52827
52753
52716
52667
52586
52521
52485
52431
52346
52280
52244
52193
52113
52054
52019
51960
51872
51800
51739
51639
51506
51405
51338
51244
51131
51063
51036
51006
51013
51126
51320
51563
51924
52457
53093
53765
54510
55354
56218
57032
57807
58550
59206
59744
60205
60613
60925
61129
61280
61407
61467
61458
61432
61398
61313
61180
61061
60957
60809
60622
60469
60343
60171
59975
59822
59686
59513
59339
59209
59087
58923
58739
58581
58433
58253
58059
57889
57713
57498
57299
57154
57014
56852
56728
56676
56640
56588
56578
56634
56693
56730
56810
56948
57075
57173
57285
57407
57493
57540
57585
57621
57606
57551
57517
57499
57431
57317
57221
57139
57013
56855
56720
56587
56406
56222
56091
55962
55781
55597
55451
55292
55085
54886
54732
54570
54366
54183
54056
53927
53766
53627
53530
53415
53272
53156
53074
52965
52824
52718
52649
52557
52447
52368
52301
52202
52089
52007
51944
51848
51740
51674
51635
51570
51488
51435
51399
51335
51254
51198
51149
51072
50996
50956
50904
50810
50726
50687
50642
50558
50486
50454
50398
50293
50205
50151
50073
49958
49863
49806
49741
49673
49666
49727
49804
49927
50189
50590
51077
51674
52420
53268
54143
55040
55976
56885
57686
58387
59036
59607
60055
60397
60671
60867
60970
61024
61065
61061
60990
60894
60806
60689
60525
60371
60249
60104
59913
59728
59578
59417
59234
59081
58960
58815
58639
58494
58376
58210
58001
57826
57679
57491
57283
57120
56980
56810
56644
56538
56451
56330
56228
56202
56196
56156
56134
56174
56224
56246
56289
56386
56481
56536
56599
56692
56764
56794
56823
56865
56873
56831
56789
56764
56703
56600
56506
56421
56294
56125
55959
55794
55595
55381
55217
55093
54938
54752
54597
54462
54287
54090
53925
53768
53572
53382
53251
53126
52952
52788
52684
52585
52441
52303
52207
52105
51966
51850
51790
51722
51622
51540
51493
51426
51326
51248
51200
51122
51019
50956
50925
50862
50781
50733
50699
50631
50553
50512
50483
50409
50317
50265
50230
50154
50052
49978
49922
49839
49752
49701
49662
49601
49560
49589
49670
49803
50044
50430
50918
51482
52168
52980
53842
54704
55579
56454
57261
57972
58617
59198
59655
59986
60260
60486
60608
60633
60638
60632
60559
60443
60345
60238
60074
59884
59723
59564
59354
59118
58911
58728
58533
58338
58167
57993
57789
57601
57458
57296
57072
56850
56667
56465
56219
55993
55812
55625
55422
55259
55147
55037
54919
54839
54807
54777
54751
54780
54853
54901
54926
54994
55096
55164
55207
55282
55353
55360
55347
55369
55377
55313
55228
55180
55131
55027
54891
54764
54628
54463
54301
54161
53999
53797
53608
53455
53279
53061
52867
52715
52544
52344
52174
52047
51896
51705
51539
51412
51254
51069
50925
50814
50676
50535
50446
50369
50244
50111
50031
49967
49866
49762
49707
49664
49582
49497
49460
49424
49337
49238
49179
49125
49043
48969
48927
48877
48800
48738
48712
48666
48578
48501
48454
48392
48304
48236
48207
48186
48172
48223
48358
48541
48787
49172
49711
50335
51035
51847
52731
53599
54443
55293
56093
56770
57362
57920
58396
58734
58975
59174
59309
59352
59339
59309
59235
59097
58940
58793
58606
58361
58115
57894
57657
57392
57141
56923
56692
56437
56210
56019
55806
55564
55349
55159
54931
54666
54431
54225
53988
53749
53579
53455
53319
53197
53138
53111
53075
53058
53106
53185
53242
53302
53405
53521
53612
53705
53820
53916
53971
54018
54076
54108
54093
54079
54086
54061
53980
53893
53820
53709
53557
53421
53305
53146
52942
52767
52621
52437
52234
52072
51928
51745
51552
51406
51282
51127
50960
50828
50724
50601
50474
50386
50304
50188
50083
50024
49954
49840
49746
49708
49665
49585
49523
49509
49473
49385
49307
49265
49201
49100
49016
48960
48886
48791
48724
48687
48628
48550
48525
48569
48624
48707
48902
49205
49567
50030
50649
51373
52125
52921
53788
