21801
21935
21935
21714
21843
21726
21893
21814
21730
21699
21647
21611
21652
21469
21523
21293
21230
21282
21219
21142
21163
21067
21051
21134
21004
21013
20932
21054
20919
20788
20921
20755
20850
20832
20845
20716
20751
20639
20715
20759
20531
20651
20696
20596
20640
20548
20690
20584
20495
20640
20673
20544
20503
20480
20602
20590
20519
20685
20643
20493
20669
20753
20612
20766
20647
20642
20792
20788
20666
20788
20795
20795
20651
20721
20741
20786
20849
20811
20740
20680
20805
20695
20799
20815
20723
20831
20786
20852
20763
20728
20798
20820
20786
20846
20776
20687
20859
20773
20901
20729
20841
20869
20837
20819
20772
20763
20920
20856
20856
20837
20739
20775
20762
20883
20834
20858
20823
20870
20897
20920
20862
21073
21067
20911
21051
20957
21002
21026
21025
21140
21157
21092
21193
21209
21293
21201
21291
21285
21347
21290
21469
21328
21413
21511
21320
21536
21508
21511
21509
21591
21465
21501
21582
21547
21514
21581
21669
21646
21567
21664
21626
21653
21713
21729
21763
21749
21875
21811
21788
21762
21969
21870
21778
21862
21902
21862
21846
21964
22081
21903
22052
22128
22022
22118
21979
21995
22031
22072
22067
22022
22147
21996
22120
22034
22181
21997
22077
22043
21998
22093
22019
22073
22160
22116
21916
21983
21953
21812
21757
21716
21643
21824
21633
21532
21534
21496
21441
21452
21534
21528
21379
21335
21326
21268
21202
21169
21382
21263
21235
21232
21242
21228
21226
21225
21251
21129
21192
21200
21144
21079
21057
21054
21063
21127
21067
21124
21087
21052
21050
21270
21057
21134
21112
21083
21251
21086
21067
21227
21158
21272
21360
21365
21365
21360
21406
21226
21301
21251
21226
21257
21321
21370
21414
21413
21377
21307
21431
21382
21455
21520
21508
21446
21483
21556
21566
21486
21596
21589
21689
21607
21588
21637
21696
21612
21691
21716
21691
21601
21721
21679
21768
21782
21829
21667
21808
21870
21795
21805
21751
21838
21933
21961
21938
22008
21845
22019
22051
22009
22072
21891
21980
22022
22082
22049
22140
22058
22090
22165
22018
22084
22015
22114
22029
22112
22236
22109
22130
22188
22152
22133
22257
22128
22101
22112
22152
22299
22362
22223
22363
22308
22285
22278
22191
22326
22219
22356
22301
22282
22388
22327
22479
22468
22353
22423
22420
22397
22524
22371
22408
22593
22517
22396
22640
22637
22525
22606
22542
22560
22588
22506
22634
22669
22598
22602
22647
22638
22636
22659
22781
22687
22719
22668
22724
22749
22697
22901
22756
22789
22777
22727
22820
22813
22689
22682
22724
22723
22744
22661
22634
22530
22568
22464
22364
22312
22345
22242
22260
22150
22095
22065
22169
22166
22165
22056
22102
22106
21972
22018
21930
21901
21922
21805
21808
21965
21946
21731
21758
21796
21862
21870
21853
21713
21662
21667
21760
21772
21600
21753
21665
21807
21655
21706
21780
21795
21702
21703
21848
21716
21852
21852
21831
21797
21769
21981
21856
21774
21934
21944
21781
21814
21938
21923
21802
21883
21813
21897
21924
21862
21995
21866
21921
21843
21935
21861
21875
21882
21925
21890
21922
21876
21924
21872
21964
21999
22014
22015
21957
22122
22059
22114
22014
21947
22071
22168
22060
22044
22063
22120
22157
22177
22065
22029
22078
22170
22190
22033
22077
22102
22062
22230
22172
22090
22118
22140
22165
22145
22130
22225
22155
22167
22165
22221
22231
22137
22127
22246
22243
22220
22211
22238
22233
22181
22358
22229
22282
22325
22302
22290
22310
22304
22291
22300
22336
22360
22337
22317
22437
22376
22461
22389
22434
22393
22441
22419
22447
22499
22473
22470
22501
22491
22492
22490
22496
22494
22516
22571
22552
22530
22526
22542
22557
22536
22495
22550
22558
22529
22530
22638
22575
22515
22559
22654
22577
22524
22614
22688
22649
22606
22664
22529
22555
22560
22507
22480
22410
22364
22313
22296
22209
22185
22157
22089
21893
21980
21932
21868
21848
21922
21757
21730
21739
21711
21684
21647
21649
21633
21701
21535
21671
21623
21671
21538
21659
21605
21479
21640
21598
21653
21534
21597
21552
21663
21576
21564
21565
21519
21602
21553
21593
21607
21544
21505
21503
21545
21562
21635
21670
21709
21571
21652
21688
21612
21694
21738
21618
21803
21713
21677
21750
21650
21830
21798
21689
21847
21730
21747
21716
21763
21734
21803
21733
21738
21798
21738
21798
21865
21832
21857
21778
21984
21887
21865
21921
21933
21930
21932
21988
21998
21965
21951
22117
22018
22061
22064
22115
22067
22045
22231
22255
22193
22227
22244
22290
22220
22277
22338
22307
22319
22367
22257
22322
22480
22423
22443
22443
22488
22430
22492
22394
22562
22589
22600
22439
22528
22484
22580
22551
22536
22618
22632
22624
22539
22633
22585
22637
22638
22653
22640
22682
22656
22680
22639
22632
22747
22701
22716
22659
22779
22813
22755
22747
22788
22834
22970
22791
22885
22988
23024
23046
22963
23011
23038
23030
23058
22995
22898
23045
23033
23000
22956
23003
22910
23025
23064
23049
22972
22930
23036
23061
23033
23070
23078
23059
23111
23080
23019
23059
23209
23013
22965
22916
22913
22896
22913
22868
22694
22714
22603
22679
22506
22491
22473
22517
22451
22429
22276
22269
22264
22245
22271
22223
22306
22230
22208
22205
22189
22233
22200
22209
22100
22003
22152
22134
22053
22036
22052
22070
22083
22031
21964
22113
22020
21926
22022
21966
22005
22003
22135
22047
22106
22127
22063
22203
22200
22106
22295
22084
22133
22127
22142
22166
22149
22234
22196
22191
22295
22313
22283
22256
22200
22232
22255
22277
22353
22304
22179
22204
22354
22212
22263
22232
22322
22262
22409
22432
22351
22284
22363
22349
22344
22472
22485
22496
22572
22540
22429
22574
22586
22555
22585
22519
22449
22509
22528
22572
22512
22535
22596
22609
22574
22590
22601
22624
22640
22647
22673
22609
22657
22675
22652
22744
22676
22819
22778
22680
22740
22737
22714
22836
22825
22866
22879
22824
22908
22921
22840
22934
22959
22861
23049
23006
22895
22991
22987
22948
23019
23084
22993
23053
23137
22952
23051
23255
23280
23162
23176
23226
23116
23258
23302
23280
23145
23205
23242
23216
23262
23179
23243
23300
23305
23386
23340
23324
23312
23421
23392
23335
23393
23418
23445
23314
23428
23352
23481
23355
23529
23574
23562
23386
23550
23540
23460
23508
23412
23535
23517
23378
23376
23481
23393
23380
23360
23397
23347
23356
23288
23177
23172
23114
23007
23018
22958
22914
22759
22690
22596
22647
22567
22550
22559
22500
22334
22335
22370
22432
22212
22216
22346
22261
22254
22165
22217
22100
22140
22060
22083
22057
22065
22083
22028
22070
22114
22138
22101
22041
21945
22066
22046
22007
21954
22069
22109
22032
21989
22034
21998
22022
22197
22125
22057
22197
22153
22144
22239
22087
22082
22189
22089
22218
22163
22091
22116
22127
22112
22223
22125
22174
22191
22293
22237
22176
22157
22252
22203
22288
22182
22329
22190
22363
22288
22244
22424
22272
22253
22369
22343
22408
22386
22427
22491
22410
22393
22443
22486
22430
22491
22454
22474
22431
22498
22454
22428
22420
22437
22455
22376
22412
22475
22436
22388
22448
22393
22454
22459
22515
22463
22395
22453
22510
22597
22514
22588
22571
22547
22609
22602
22637
22583
22595
22594
22544
22658
22618
22594
22604
22493
22620
22618
22659
22564
22442
22684
22510
22490
22490
22548
22618
22501
22469
22579
22509
22591
22518
22609
22574
22636
22624
22642
22594
22547
22589
22555
22649
22653
22575
22665
22548
22646
22555
22603
22648
22589
22610
22523
22542
22619
22655
22512
22615
22694
22645
22594
22734
22625
22708
22737
22790
22655
22745
22662
22732
22590
22687
22616
22601
22453
22436
22343
22442
22401
22237
22271
22107
22089
22127
22038
21950
22048
22005
22018
21860
21950
22006
21832
21917
21907
21673
21746
21782
21729
21791
21773
21654
21696
21670
21583
21646
21717
21658
21552
21592
21686
21563
21563
21505
21476
21658
21624
21602
21769
21602
21646
21627
21844
21824
21843
21912
21728
21874
21856
21886
21880
21820
21860
21967
21956
21805
21973
21904
22012
21965
21819
21887
21995
21968
21938
21909
21942
21921
21984
21981
22034
22062
22064
22032
22142
22124
22138
22099
22172
22197
22200
22190
22224
22209
22252
22279
22211
22262
22253
22280
22313
22323
22295
22331
22351
22365
22379
22423
22432
22445
22434
22465
22493
22483
22461
22557
22567
22506
22473
22534
22570
22478
22585
22626
22596
22589
22623
22659
22669
22657
22700
22690
22720
22679
22717
22739
22667
22881
22768
22784
22748
22827
22783
22759
22860
22947
22860
22822
22888
22842
22909
22832
22907
23021
22933
22925
22957
22978
22886
22949
23036
23005
22936
22993
23042
23026
23033
23033
23102
23111
23082
23132
23208
23185
23074
23055
23249
23093
23092
23212
23117
23159
23284
23287
23252
23081
23221
23124
23253
23157
23353
23288
23331
23293
23367
23329
23398
23324
23453
23244
23343
23414
23294
23333
23279
23319
23438
23454
23445
23553
23346
23324
23460
23396
23529
23468
23409
23435
23542
23430
23405
23463
23352
23320
23289
23419
23240
23250
23154
23246
22978
23007
22966
23009
22867
22822
22738
22598
22625
22652
22561
22574
22503
22589
22451
22353
22389
22372
22320
22218
22137
22218
22106
22235
22122
22089
22204
22138
22070
22090
22080
22037
22114
22186
22119
22075
22185
22131
22130
22013
22124
22030
22070
22242
22086
22032
22197
22198
22247
22169
22120
22085
22174
22083
22242
22113
22144
22193
22204
22167
22284
22095
22205
22313
22126
22231
22346
22202
22180
22216
22286
22175
22284
22219
22303
22241
22248
22209
22253
22224
22324
22237
22249
22304
22280
22198
22170
22216
22320
22262
22203
22269
22208
22270
22204
22340
22285
22401
22277
22425
22361
22400
22411
22377
22434
22335
22317
22499
22480
22369
22339
22509
22516
22323
22355
22486
22380
22348
22445
22472
22517
22448
22519
22462
22407
22465
22534
22580
22513
22562
22523
22474
22521
22563
22641
22490
22601
22534
22674
22523
22710
22726
22564
22567
22657
22567
22516
22663
22598
22601
22663
22567
22777
22628
22553
22725
22621
22628
22749
22822
22706
22659
22669
22781
22803
22730
22716
22731
22752
22705
22728
22788
22732
22653
22693
22742
22754
22792
22853
22789
22682
22776
22829
22776
22658
22821
22784
22845
22820
22689
22652
22609
22607
22584
22559
22450
22415
22354
22360
22302
22237
22260
22196
22142
22146
22109
22060
22030
22103
22000
21959
21968
21941
21872
21864
21863
21876
21822
21819
21855
21922
21770
21674
21754
21743
21661
21694
21612
21687
21660
21674
21652
21645
21611
21648
21653
21684
21622
21605
21674
21612
21669
21625
21709
21596
21675
21874
21743
21723
21761
21869
21793
21869
21778
21692
21896
21882
21810
21800
21745
21888
21907
21837
21828
21931
21876
21927
21802
21937
21917
21884
21913
21946
21990
21969
21913
21882
21934
21938
21984
21955
21952
21932
21965
21968
21902
21969
21891
21983
21940
21943
21916
22064
22034
22034
21978
22112
21980
22166
22106
22013
22019
22126
22086
22110
22166
22167
22161
22129
22153
22171
22281
22274
22174
22226
22282
22318
22333
22278
22244
22297
22333
22323
22256
22383
22401
22291
22242
22246
22333
22266
22243
22366
22339
22249
22356
22321
22365
22389
22375
22476
22370
22439
22388
22408
22425
22404
22469
22496
22472
22483
22442
22542
22441
22479
22652
22638
22565
22666
22569
22603
22469
22700
22573
22653
22605
22651
22694
22536
22517
22761
22544
22568
22675
22783
22705
22734
22548
22695
22755
22636
22671
22748
22763
22853
22868
22965
22926
22971
22934
23031
22835
23024
23079
23019
22929
22954
23000
22912
22806
22876
22665
22724
22592
22485
22471
22496
22430
22411
22435
22289
22376
22268
22239
22231
22299
22237
22203
22250
22243
22197
22179
22197
22175
22231
22180
22133
22145
22012
22126
22078
22069
22004
22015
21962
22053
21911
21988
22053
22032
22014
21920
21990
22071
21994
21970
21980
21983
22133
22200
22196
22012
22164
22127
22145
22174
22109
22151
22289
22321
22210
22227
22249
22292
22260
22310
22315
22304
22392
22427
22292
22454
22351
22423
22310
22289
22382
22366
22425
22426
22522
22471
22470
22441
22436
22535
22388
22578
22445
22466
22465
22516
22577
22524
22577
22586
22407
22548
22569
22521
22605
22544
22622
22551
22624
22745
22661
22671
22539
22642
22715
22617
22682
22633
22630
22615
22750
22710
22631
22683
22692
22702
22569
22708
22714
22714
22692
22731
22791
22723
22737
22721
22803
22833
22703
22641
22757
22851
22788
22853
22781
22758
22702
22711
22684
22786
22717
22676
22763
22816
22825
22824
22679
22820
22807
22730
22860
22897
22732
22806
22721
22822
22833
22763
22824
22912
22838
22799
22825
22818
22888
22942
22830
22944
22999
22921
22838
22866
22914
23034
23026
23015
22930
23054
23013
23007
22985
22908
23084
22882
22879
22986
22967
22951
22909
23008
22927
22851
22938
22911
22960
22857
22899
23060
23006
22963
23075
23111
22941
22918
23033
23126
22974
23069
22975
23116
22931
23017
22984
23072
22858
22843
22766
22826
22821
22715
22615
22503
22485
22583
22512
22273
22317
22210
22315
22274
22203
22131
22147
22151
22137
22066
22019
21936
22084
22027
21872
21974
21977
21977
21864
21860
21982
21765
21765
21896
21896
21822
21728
21828
21813
21710
21692
21609
21733
21632
21728
21737
21641
21595
21684
21696
21807
21857
21907
21954
21783
21894
21857
21970
21860
21989
21948
21955
22016
22018
21887
22021
22022
21932
21897
22019
21860
21962
21976
21915
21966
22083
21912
22037
21955
21966
21942
21917
22010
22068
22018
22014
22125
21964
22090
22121
22159
22183
22161
22231
22255
22192
22261
22178
22145
22302
22230
22129
22195
22128
22256
22213
22270
22278
22164
22205
22318
22298
22215
22326
22159
22338
22380
22304
22266
22328
22423
22308
22226
22366
22404
22445
22437
22355
22451
22363
22391
22405
22448
22551
22396
22373
22412
22411
22533
22375
22461
22518
22583
22464
22427
22602
22412
22599
22395
22453
22499
22578
22427
22449
22380
22576
22392
22463
22630
22502
22505
22637
22654
22676
22489
22687
22623
22504
22551
22642
22526
22596
22626
22590
22605
22594
22702
22649
22672
22654
22721
22654
22659
22687
22732
22739
22578
22618
22702
22702
22616
22497
22697
22535
22524
22529
22345
22365
22332
22294
22096
22254
22170
22068
21952
22057
22001
22045
21856
21863
21956
21904
21858
21808
21919
21871
21731
21828
21892
21822
21726
21726
21653
21702
21689
21646
21724
21605
21695
21677
21706
21627
21644
21661
21733
21729
21664
21576
21691
21661
21706
21675
21844
21769
21653
21758
21837
21715
21800
21806
21862
21779
21936
21876
21722
21793
21893
21827
21901
22003
21971
21772
21974
21849
22003
22052
22022
22095
22032
21933
21997
21960
21929
21984
21969
22026
21965
22078
22102
22072
22034
22118
22069
22222
22182
22070
22212
22126
22242
22177
22215
22192
22189
22179
22243
22210
22335
22444
22225
22252
22396
22376
22437
22374
22446
22442
22411
22381
22496
22468
22370
22513
22574
22481
22567
22680
22512
22462
22510
22643
22652
22628
22688
22568
22600
22627
22564
22722
22687
22690
22750
22737
22789
22578
22819
22652
22687
22683
22843
22878
22824
22873
22888
22849
22918
22890
23018
22954
23038
22936
23044
22880
22951
23018
23023
22943
23007
23040
23025
23023
23064
23104
23070
23026
23129
23126
23113
23069
23184
23166
23242
23204
23128
23256
23029
23180
23267
23186
23263
23142
23160
23182
23233
23301
23366
23202
23353
23322
23200
23156
23204
23295
23240
23365
23274
23224
23233
23213
23304
23214
23019
23067
23082
22997
22866
22884
22729
22760
22629
22596
22630
22470
22481
22649
22519
22540
22373
22312
22395
22243
22245
22370
22186
22309
22317
22230
22261
22113
22222
22115
22025
22031
22165
22098
21941
22071
22092
22104
21826
22038
22027
21930
21948
21842
22011
21870
21876
21910
21912
21947
21970
21900
22025
22030
22016
21992
22141
22063
22038
22010
22074
22089
22051
22152
22027
22141
22076
22117
22105
22027
22162
21976
21977
22142
22007
21996
22022
21965
22043
21947
22060
22033
22073
22005
22089
22110
22071
22071
22169
22129
22132
22071
22121
22092
22124
22105
22046
22089
22004
22075
22026
22131
22072
22144
22137
22071
22009
22120
22149
22165
22016
22168
22142
22052
22248
22235
22167
22136
22167
22186
22267
22333
22157
22221
22220
22211
22187
22268
22210
22306
22293
22277
22324
22398
22283
22229
22423
22311
22243
22407
22260
22422
22323
22425
22369
22392
22347
22299
22408
22402
22372
22409
22404
22456
22434
22429
22390
22441
22468
22430
22464
22491
22519
22554
22481
22512
22494
22540
22444
22420
22532
22452
22516
22411
22389
22524
22493
22340
22440
22473
22555
22428
22500
22530
22429
22546
22494
22595
22613
22615
22707
22620
22665
22582
22690
22583
22579
22605
22423
22390
22415
22226
22294
22229
22172
21976
22107
21859
21976
21849
21927
21880
21680
21782
21653
21666
21600
21641
21546
21603
21623
21702
21496
21656
21519
21650
21584
21481
21445
21492
21582
21458
21546
21583
21443
21459
21451
21381
21426
21503
21469
21423
21402
21508
21441
21471
21554
21520
21445
21506
21463
21542
21526
21511
21665
21656
21573
21507
21504
21555
21659
21653
21507
21668
21629
21632
21674
21690
21605
21560
21587
21686
21705
21766
21707
21621
21752
21704
21585
21754
21819
21776
21696
21668
21711
21814
21838
21754
21664
21732
21752
21816
21712
21673
21791
21826
21784
21832
21776
21826
21827
21797
21824
21885
21888
21989
21990
22003
22030
21949
22001
22053
21931
21980
21996
22094
22000
22002
22173
22196
22049
22232
22252
22249
22101
22162
22201
22176
22218
22343
22206
22144
22300
22297
22266
22276
22300
22299
22351
22311
22433
22338
22356
22334
22413
22386
22342
22402
22285
22399
22428
22419
22489
22418
22559
22493
22546
22412
22473
22483
22533
22465
22612
22575
22495
22670
22603
22592
22562
22697
22608
22774
22618
22680
22751
22850
22839
22829
22761
22869
22775
22861
23010
23040
22974
22998
23064
23156
23099
23201
23202
23118
23142
23226
23141
23075
22999
22949
23003
22935
22916
22798
22774
22663
22491
22627
22405
22436
22442
22465
22305
22331
22314
22453
22413
22477
22408
22277
22217
22263
22310
22367
22321
22336
22264
22107
22300
22252
22229
22176
22234
22224
22144
22099
22254
22235
22276
22200
22123
22264
22212
22229
22348
22347
22291
22310
22359
22517
22375
22628
22524
22560
22600
22508
22610
22662
22649
22633
22717
22591
22499
22612
22592
22522
22709
22627
22659
22528
22561
22592
22547
22605
22474
22540
22486
22685
22563
22555
22623
22683
22648
22567
22580
22776
22760
22586
22608
22779
22702
22657
22677
22660
22645
22744
22667
22751
22654
22785
22834
22852
22708
22788
22954
22978
22846
22911
22917
23019
22951
22956
23022
22880
23008
23172
23135
22970
23103
23077
23212
23122
23226
23250
23229
23113
23173
23204
23189
23131
23167
23208
23112
23144
23338
23165
23304
23208
23332
23209
23324
23136
23284
23170
23095
23098
23310
23262
23172
23323
23304
23079
23279
23203
23319
23290
23183
23294
23382
23378
23444
23382
23321
23392
23472
23366
23429
23443
23601
23481
23641
23549
23772
23747
23793
23683
23766
23772
23846
23814
23813
23902
23712
23866
23863
23835
23763
23785
23813
23865
23813
23891
23805
23838
23918
23861
23807
23892
23998
23911
23953
23933
23882
23961
23937
23973
23965
23882
23921
23883
23888
23953
23954
24008
23912
24006
23947
23890
23925
23852
23903
23929
23809
23802
23822
23721
23547
23433
23396
23452
23390
23278
23220
23126
23147
23160
22976
22924
22965
23025
22897
22843
22861
22929
22856
22828
22768
22837
22745
22700
22744
22749
22800
22725
22835
22670
22724
22733
22754
22687
22671
22775
22628
22734
22763
22737
22657
22754
22762
22870
22864
22834
22772
22843
22871
22822
22880
22748
22790
22900
22908
22855
22796
22722
22832
22806
22905
22838
22877
22860
22803
22812
22864
22897
22795
22913
22770
22742
22814
22880
22870
22905
22870
22954
22866
22893
22895
23035
22891
22837
22897
22963
22905
22897
23013
22981
23013
22974
22955
23005
23076
22906
22988
22996
22967
23026
23088
23101
22851
22938
23126
23122
22946
23122
23165
23097
22984
23164
23069
23141
23167
23120
23047
23021
23209
23077
23114
23095
23121
23135
23004
23099
23015
23109
23001
23095
23167
23106
23096
23173
23133
23085
23103
23281
23241
23107
23181
23156
23234
23127
23228
23149
23193
23180
23193
23336
23312
23258
23258
23235
23336
23369
23329
23240
23240
23357
23277
23382
23233
23289
23231
23400
23389
23351
23446
23292
23348
23445
23475
23447
23471
23407
23447
23465
23380
23459
23432
23504
23472
23506
23492
23457
23442
23455
23348
23396
23434
23400
23347
23133
23225
23081
22957
22960
23086
22839
22801
22784
22922
22886
22835
22737
22836
22636
22700
22617
22754
22751
22748
22606
22690
22722
22503
22535
22483
22501
22483
22462
22513
22429
22392
22521
22393
22379
22492
22463
22464
22488
22476
22459
22534
22490
22545
22506
22597
22485
22675
22565
22632
22725
22699
22785
22680
22831
22761
22689
22878
22793
22794
22739
22750
22732
22780
22863
22859
22830
22865
22831
22906
22858
22972
22926
22973
22924
22890
22944
22937
22978
22967
22972
22984
23007
23010
23052
23003
23005
23040
23048
22990
23073
23087
23097
23152
23136
23213
23041
23047
23244
23143
23173
23298
23272
23268
23125
23170
23320
23222
23168
23300
23297
23192
23141
23332
23203
23304
23145
23396
23375
23378
23314
23390
23406
23348
23345
23291
23382
23311
23381
23351
23429
23411
23373
23449
23477
23415
23521
23553
23424
23480
23415
23472
23603
23462
23483
23465
23540
23489
23552
23647
23632
23655
23607
23687
23564
23663
23579
23610
23749
23651
23623
23746
23766
23699
23637
23695
23799
23770
23797
23766
23805
23748
23616
23672
23674
23781
23682
23798
23717
23653
23714
23636
23745
23571
23779
23781
23701
23708
23709
23869
23847
23683
23765
23665
23870
23626
23819
23857
23799
23776
23850
23774
23596
23769
23615
23550
23543
23449
23447
23373
23258
23173
23124
22959
23057
23093
22927
22935
22873
22799
22835
22642
22687
22720
22590
22688
22572
22558
22515
22536
22488
22535
22640
22553
22456
22398
22337
22458
22476
22313
22212
22417
22324
22222
22358
22416
22294
22172
22234
22301
22270
22417
22418
22298
22316
22360
22586
22488
22503
22434
22451
22501
22400
22444
22471
22548
22506
22486
22523
22571
22413
22553
22386
22445
22356
22431
22485
22484
22581
22575
22471
22588
22578
22520
22517
22438
22609
22520
22551
22546
22596
22589
22629
22570
22692
22601
22562
22602
22694
22691
22657
22691
22670
22715
22623
22614
22677
22636
22669
22818
22764
22649
22822
22704
22736
22799
22833
22891
22837
22897
22855
22980
22930
22845
22969
22990
22872
22956
22930
22929
22982
22968
22891
22884
22884
22915
22882
22814
22907
22985
22916
22877
22911
23002
22973
22908
22995
22999
23033
22983
23036
23033
22944
23075
23001
23165
22962
23091
23070
22991
22997
23186
23040
23054
22973
23040
23220
23063
23016
23269
23044
23087
23201
23144
23071
23132
23061
23157
23225
23236
23138
23259
23246
23188
23115
23267
23202
23189
23091
23253
23218
23266
23218
23329
23293
23197
23277
23207
23346
23257
23330
23193
23141
23297
23281
23073
23064
23114
23060
22854
22924
22930
22717
22870
22867
22601
22541
22636
22669
22603
22533
22470
22548
22461
22335
22361
22373
22329
22356
22425
22257
22275
22267
22303
22270
22322
22182
22187
22168
22105
22233
22180
22154
22254
22105
22272
22095
22124
22211
22258
22255
22212
22225
22249
22322
22298
22266
22335
22304
22301
22326
22282
22348
22436
22334
22321
22317
22494
22411
22474
22371
22431
22525
22435
22487
22466
22434
22613
22521
22526
22509
22584
22659
22535
22518
22640
22628
22696
22619
22705
22659
22683
22718
22755
22694
22754
22757
22776
22756
22673
22838
22696
22687
22669
22742
22876
22823
22879
22972
22861
22862
22863
22929
22887
22828
22903
23058
22917
22979
23055
22977
23020
23035
22975
23023
22947
23002
23048
23120
23108
23031
23175
23057
23119
23229
23208
23208
23190
23217
23348
23213
23270
23327
23362
23262
23429
23495
23396
23395
23357
23447
23411
23364
23376
23455
23547
23436
23547
23487
23380
23492
23422
23539
23476
23432
23617
23620
23599
23692
23554
23708
23546
23636
23704
23751
23650
23808
23807
23858
23871
23780
23830
23781
23771
23737
23806
23764
23778
23783
23812
23826
23806
23828
23742
23818
23914
23911
23858
23866
23924
24005
23873
24055
23954
23963
24018
23846
23945
23965
23754
23900
23621
23645
23523
23583
23491
23323
23266
23321
23267
23104
23023
23151
23014
22960
23014
23002
22852
22893
22872
22861
22733
22802
22953
22763
22753
22734
22740
22788
22678
22731
22650
22544
22541
22756
22595
22606
22610
22534
22506
22486
22563
22615
22541
22483
22639
22542
22500
22591
22617
22585
22601
22641
22674
22657
22646
22680
22698
22674
22697
22751
22737
22698
22719
22753
22785
22721
22631
22762
22749
22587
22653
22701
22705
22612
22667
22778
22774
22686
22713
22621
22766
22674
22704
22640
22567
22726
22750
22705
22723
22888
22777
22763
22802
22911
22843
22776
22893
22822
22821
22893
22780
22904
22861
22807
22958
22870
22777
22798
22824
22927
22896
22839
22864
22873
22799
23009
22898
22953
22857
22901
22933
23023
22885
23040
22909
23002
23082
23109
23052
23008
23095
22946
23129
22992
23070
23019
22969
22996
23140
23123
23085
23035
23070
23153
23187
23012
23027
23057
23169
23241
23082
23102
23153
23135
23164
23264
23207
23265
23226
23311
23190
23274
23264
23245
23351
23248
23277
23262
23233
23240
23178
23224
23272
23400
23273
23204
23389
23307
23258
23267
23367
23228
23250
23397
23474
23485
23401
23457
23454
23457
23468
23493
23350
23371
23343
23477
23353
23365
23456
23300
23173
23152
23087
23020
22878
22955
22989
22789
22749
22894
22667
22794
22682
22686
22576
22680
22478
22570
22556
22410
22527
22550
22474
22368
22381
22375
22431
22368
22371
22369
22211
22279
22388
22246
22331
22305
22329
22175
22247
22217
22366
22169
22203
22173
22246
22172
22303
22217
22318
22285
22369
22340
22286
22361
22348
22424
22429
22412
22367
22444
22302
22317
22283
22451
22366
22394
22502
22343
22483
22418
22532
22515
22391
22502
22441
22527
22472
22483
22577
22566
22477
22492
22509
22627
22602
22527
22508
22616
22615
22632
22521
22624
22678
22589
22523
22724
22587
22763
22538
22586
22630
22748
22692
22842
22807
22700
22827
22804
22796
22721
22893
22791
22962
22915
22830
22912
22953
22961
22954
22897
22968
22920
22966
22997
23083
23024
23036
23065
22963
23101
23155
23004
23002
23144
23046
23224
23073
23141
23103
23084
23252
23221
23251
23188
23279
23250
23286
23302
23309
23284
23190
23295
23454
23362
23383
23321
23396
23453
23316
23386
23450
23432
23545
23539
23528
23579
23522
23466
23507
23647
23559
23665
23663
23542
23537
23653
23642
23613
23637
23749
23743
23733
23658
23618
23699
23748
23789
23801
23802
23838
23779
23724
23714
23689
23750
23794
23654
23801
23665
23761
23637
23671
23551
23429
23365
23334
23381
23334
23171
23146
23211
23044
23011
23135
23025
22988
23053
22906
22978
22868
22890
22910
22799
22903
22877
22766
22816
22875
22676
22764
22761
22833
22759
22681
22706
22677
22808
22622
22721
22624
22673
22806
22669
22690
22650
22637
22677
22737
22711
22744
22812
22776
22857
22770
22804
22750
22740
22800
22815
22755
22824
22742
22823
22898
22840
22937
22928
22728
22793
22781
22788
22943
22824
22896
22810
22818
22860
22858
22854
22852
22787
22892
22835
22787
22965
22787
22955
22884
22932
22879
22818
22849
22995
22929
22825
22952
22841
22817
23002
22968
22882
22834
22853
22998
23025
22871
23041
23024
23009
22991
22911
22930
22937
22920
22951
23088
23030
23109
23018
23096
23111
23066
23073
22932
23024
23099
23046
23030
23045
23007
23088
22905
23141
23105
23119
23096
23125
23120
22986
23035
23193
23118
23169
23107
23022
23178
23054
23072
23048
23194
23009
23155
23210
23213
23144
23080
23263
23095
23085
23225
23078
23054
23122
23272
23177
23105
23106
23255
23234
23199
23140
23240
23239
23192
23246
23318
23113
23291
23285
23362
23331
23344
23270
23370
23423
23327
23405
23323
23475
23428
23355
23272
23438
23359
23297
23356
23293
23247
23146
23091
23163
23023
23022
22864
22797
22767
22695
22638
22682
22566
22518
22437
22422
22446
22353
22372
22346
22417
22338
22418
22344
22350
22305
22207
22376
22324
22154
22153
22253
22104
22186
22194
22105
22145
22184
22070
22012
22115
22126
22034
22191
22159
22021
22145
22039
22237
22153
22068
22210
22104
22298
22160
22267
22276
22225
22251
22269
22407
22321
22259
22289
22369
22365
22364
22350
22340
22410
22346
22357
22371
22371
22319
22487
22441
22286
22395
22383
22468
22275
22375
22463
22465
22332
22410
22353
22369
22457
22465
22526
22380
22433
22560
22410
22549
22534
22569
22474
22482
22545
22577
22494
22498
22459
22531
22511
22599
22609
22578
22512
22677
22591
22584
22657
22616
22604
22701
22608
22707
22652
22701
22702
22631
22680
22697
22808
22702
22729
22613
22640
22782
22639
22767
22871
22697
22778
22723
22877
22687
22869
22899
22823
22906
22751
22837
22901
22846
22886
22822
22830
22919
22842
22843
22983
22901
22969
22912
22928
22863
22962
22959
22884
23031
22980
22973
22924
23020
22903
22958
23060
22982
22882
23005
22832
22965
23096
22964
22962
23056
23061
22965
23013
23074
23154
23092
23141
23115
23081
23079
23131
23083
22994
23007
23064
22982
22978
22926
22900
22837
22745
22810
22663
22571
22634
22486
22525
22430
22504
22345
22349
22388
22447
22361
22348
22424
22352
22413
22337
22173
22183
22272
22177
22236
22358
22271
22115
22150
22100
22311
22227
22166
22194
22116
22232
22273
22220
22131
22203
22158
22262
22101
22233
22189
22312
22271
22360
22263
22331
22378
22420
22355
22544
22372
22453
22411
22503
22505
22496
22595
22541
22492
22476
22631
22557
22637
22560
22643
22637
22541
22642
22622
22721
22760
22718
22627
22637
22624
22582
22651
22695
22762
22608
22653
22597
22639
22767
22723
22661
22756
22794
22697
22703
22859
22893
22854
22839
22777
22813
23020
22923
22980
22921
23083
23019
23061
22911
22920
22981
22915
23040
22989
22996
23076
22990
23080
23137
23111
23069
23063
23044
23071
23187
23171
22998
23020
23170
23054
23121
23285
23178
23178
23097
23155
23288
23081
23267
23177
23269
23219
23219
23349
23271
23408
23346
23232
23303
23337
23369
23324
23396
23304
23394
23467
23360
23320
23429
23407
23310
23381
23325
23414
23484
23377
23365
23393
23424
23312
23433
23320
23399
23437
23407
23407
23422
23409
23411
23388
23439
23403
23400
23447
23437
23413
23325
23430
23471
23387
23433
23415
23356
23466
23196
23401
23327
23229
23061
23117
22956
22889
22831
22968
22795
22693
22766
22703
22633
22662
22484
22575
22414
22326
22470
22423
22262
22303
22423
22326
22206
22290
22287
22217
22199
22292
22168
22060
22110
22160
22094
22131
22078
22082
21974
21969
22055
22177
22054
22150
21996
22158
22005
21990
22209
22185
22151
22212
22143
22141
22246
22308
22358
22246
22136
22130
22205
22263
22218
22228
22307
22236
22206
22237
22350
22242
22237
22267
22240
22284
22246
22263
22359
22307
22225
22318
22368
22394
22499
22399
22459
22351
22398
22369
22334
22437
22414
22477
22479
22456
22411
22542
22426
22414
22465
22407
22418
22456
22445
22447
22616
22524
22657
22580
22501
22607
22532
22557
22699
22609
22580
22565
22688
22601
22537
22659
22624
22670
22557
22584
22645
22604
22613
22708
22660
22752
22650
22764
22684
22706
22827
22877
22744
22877
22713
22802
22731
22882
22837
22789
22891
22832
22778
22883
22785
22882
22885
22899
22744
22980
22759
22776
22834
22866
22922
22846
22813
22977
22968
22940
22903
22904
22894
22985
22886
22860
22799
22923
22904
22915
22944
22914
22911
22891
22968
22949
23008
22893
22899
23043
22959
23084
22979
22911
23042
22921
23031
22949
23029
22871
22984
22838
22937
22758
22718
22694
22706
22587
22615
22475
22539
22383
22407
22271
22292
22339
22234
22223
22242
22185
22223
22091
22039
22075
22015
22045
21965
21988
22010
21965
21975
21973
21896
21898
21853
21926
21830
21824
21865
21842
21884
21829
21734
21802
21816
21758
21772
21759
21802
21934
21911
21870
21801
21978
21901
21864
22003
22032
22035
22018
21938
22002
21930
22130
22114
21920
22015
21912
21918
21990
21999
22013
22030
22001
21963
22017
22000
22008
21992
22052
22030
22039
22086
22159
22067
22122
22061
22140
22136
22272
22203
22184
22327
22305
22327
22379
22379
22369
22251
22404
22457
22401
22422
22416
22279
22410
22344
22484
22338
22472
22434
22423
22478
22550
22459
22425
22472
22430
22550
22497
22537
22490
22629
22664
22562
22721
22567
22549
22689
22630
22755
22711
22832
22776
22757
22750
22719
22758
22698
22750
22951
22801
22747
22935
22915
22856
22932
22845
22960
22801
22853
23010
22863
22871
22962
22987
22946
22866
23092
23071
23060
22988
23001
23107
23050
23076
23156
23130
23036
23159
23127
23124
23120
23188
23204
23179
23188
23169
23268
23267
23205
23220
23202
23179
23203
23162
23244
23136
23357
23244
23343
23281
23328
23352
23293
23192
23391
23253
23295
23380
23423
23258
23388
23224
23335
23256
23119
23134
23059
23066
22938
22814
22855
22712
22722
22712
22660
22573
22557
22610
22650
22562
22612
22556
22463
22592
22407
22504
22456
22452
22355
22444
22391
22352
22336
22230
22231
22203
22381
22175
22285
22356
22329
22216
22188
22284
22292
22163
22196
22306
22176
22158
22227
22357
22329
22234
22287
22354
22433
22349
22416
22380
22488
22324
22325
22491
22490
22372
22428
22413
22308
22346
22374
22472
22319
22398
22337
22429
22305
22371
22466
22322
22313
22437
22350
22371
22509
22499
22452
22434
22536
22450
22368
22458
22563
22416
22425
22462
22438
22438
22411
22428
22485
22410
22515
22405
22510
22566
22463
22509
22588
22419
22527
22454
22552
22443
22638
22645
22635
22658
22668
22594
22623
22657
22648
22605
22521
22607
22668
22531
22660
22663
22567
22665
22421
22590
22511
22603
22707
22674
22720
22558
22710
22582
22647
22729
22651
22675
22695
22649
22793
22679
22608
22682
22649
22683
22655
22688
22775
22769
22796
22815
22782
22784
22696
22757
22668
22658
22701
22787
22728
22817
22648
22806
22725
22838
22848
22905
22854
22767
22903
22899
22738
22785
22965
22892
22889
22793
22817
22969
22941
22989
22883
22856
22929
22864
22858
22940
22954
22929
22970
22826
22862
22756
22832
22689
22680
22745
22684
22570
22411
22389
22477
22357
22376
22278
22197
22208
22258
22161
22180
22236
22255
22243
22006
22045
22054
22091
22050
22142
22051
22080
21972
21931
22000
22048
21940
21926
21907
21958
22012
21860
21906
21884
22001
21911
21897
21850
21866
21912
21810
22018
21922
21898
21926
22109
21959
22121
22065
21969
21973
22114
22147
22036
22098
22013
22077
22224
22052
22227
22222
22205
22116
22118
22095
22070
22107
22184
22134
22127
22126
22086
22090
22113
22162
22166
22210
22160
22221
22138
22160
22192
22170
22082
22181
22065
22163
22110
22141
22177
22130
22281
22153
22101
22314
22185
22143
22268
22341
22255
22325
22245
22304
22273
22238
22367
22264
22245
22228
22451
22494
22320
22448
22414
22454
22339
22391
22467
22377
22341
22519
22371
22573
22548
22430
22507
22433
22492
22648
22631
22555
22556
22495
22558
22644
22622
22549
22613
22537
22628
22624
22621
22607
22717
22697
22731
22678
22757
22669
22729
22755
22812
22677
22766
22645
22759
22802
22707
22692
22689
22703
22862
22870
22815
22871
22819
22901
22812
22925
22804
22937
22810
22844
22740
22801
22847
22859
22787
22830
22904
22917
22772
22847
22745
22937
22846
22795
22830
22806
22965
22802
22790
22891
22853
22682
22745
22643
22565
22591
22535
22503
22513
22363
22336
22343
22428
22276
22293
22251
22150
22149
22261
22109
22184
22145
22184
22054
22051
22000
22032
22080
21973
22025
22046
21930
21993
22006
21924
21876
22020
22107
21923
21991
22031
22064
21986
21878
21962
22105
21985
22002
22005
22113
22119
22092
22158
22203
22152
22079
22199
22264
22255
22097
22194
22258
22178
22290
22243
22163
22196
22356
22223
22209
22282
22366
22244
22199
22211
22418
22389
22331
22365
22312
22384
22441
22269
22435
22297
22462
22320
22345
22306
22505
22450
22538
22430
22427
22435
22524
22480
22462
22495
22505
22469
22670
22472
22523
22599
22582
22580
22742
22693
22722
22701
22640
22679
22799
22768
22837
22727
22686
22808
22779
22773
22719
22782
22738
22851
22761
22828
22986
22903
22763
22872
22892
22832
22784
22958
22944
22849
22903
22776
22898
22802
22856
22996
22888
22781
22883
22811
22944
22804
22939
22922
22829
22882
23029
22872
22950
22969
22865
22912
23010
22998
23012
22982
22912
22885
22890
23002
22795
22841
22959
22940
22941
22979
22834
22848
22991
22981
22869
23005
22892
23047
22920
23042
22990
23058
23042
22890
23089
23084
22955
23042
23000
23100
23027
23075
23085
23091
22997
23174
23063
22953
23047
23022
23059
23125
23044
23050
23031
22992
23100
23191
23027
23116
23060
23140
23189
23187
23070
23198
23097
23123
23188
23069
23178
23204
23207
23125
23004
23031
23088
22951
22975
22934
22870
22743
22756
22802
22675
22473
22458
22383
22381
22375
22257
22363
22199
22211
22242
22221
22142
22126
22188
22119
22133
22109
22051
22105
21913
22037
21889
21885
21820
22019
22064
21864
21890
21809
21911
21863
21850
21930
21906
21931
21941
21971
21922
21879
21859
21858
21834
21885
21941
21988
22016
21992
22005
22050
21923
21924
22065
21997
22046
21946
22068
21989
21900
22034
21988
22014
22089
22004
22053
22116
21993
22160
21994
22110
22048
22092
22134
22070
22028
22081
22013
22089
22048
22066
21986
22131
22029
22142
22116
22166
22141
22171
22091
22242
22198
22042
22179
22198
22267
22258
22213
22295
22134
22098
22319
22229
22300
22154
22185
22245
22359
22362
22232
22247
22227
22343
22364
22293
22318
22339
22374
22286
22321
22432
22391
22420
22414
22311
22456
22351
22431
22512
22494
22422
22521
22498
22560
22516
22520
22602
22585
22589
22474
22508
22427
22508
22695
22581
22647
22594
22631
22624
22598
22746
22607
22587
22623
22621
22670
22578
22653
22727
22639
22549
22638
22720
22590
22694
22732
22663
22747
22663
22773
22694
22781
22677
22794
22753
22847
22784
22808
22832
22702
22707
22769
22815
22722
22771
22707
22765
22739
22809
22728
22593
22697
22533
22449
22417
22514
22326
22279
22184
22286
22156
22130
22150
22222
22119
22161
22042
21993
22114
22082
22015
21921
21864
21982
21923
21875
21822
21842
21787
21894
21807
21836
21697
21774
21735
21695
21708
21714
21656
21694
21753
21652
21668
21700
21636
21646
21729
21815
21738
21694
21658
21781
21754
21773
21728
21857
21912
21802
21949
21804
21828
21898
21865
21867
21817
22004
21938
21898
21963
21932
21936
21991
21847
21889
21882
21903
21946
22061
21930
22064
22020
22129
21941
22074
22082
22025
22079
22118
22180
22110
22071
22158
22092
22195
22198
22185
22263
22158
22211
22323
22221
22344
22262
22241
22328
22209
22354
22426
22368
22363
22342
22281
22405
22293
22346
22310
22492
22327
22522
22444
22454
22468
22584
22482
22420
22539
22629
22626
22436
22548
22668
22566
22684
22548
22600
22630
22642
22766
22783
22629
22655
22671
22686
22618
22777
22782
22828
22825
22789
22857
22713
22832
22924
22940
22815
22891
22951
22893
22852
22968
22913
22891
22969
22855
22992
23044
22938
23036
23032
22955
23086
23020
22971
23121
22971
23192
23186
23110
23186
23037
23112
23157
23266
23226
23194
23197
23144
23190
23152
23221
23252
23168
23153
23194
23199
23244
23190
23247
23240
23105
23256
23256
23287
23166
23212
23300
23248
23252
23418
23262
23412
23407
23249
23290
23235
23410
23309
23406
23308
23235
23303
23249
23031
23143
23132
23009
22917
22823
22788
22715
22695
22546
22656
22491
22547
22560
22565
22449
22486
22428
22289
22247
22234
22275
22263
22311
22241
22240
22125
22218
22057
22178
22072
22076
22120
22054
21959
22143
22015
21920
21979
21961
21990
21993
22011
21945
22026
21921
21952
21933
21970
22080
21978
22079
22143
22026
22045
22018
22196
22127
22012
22070
22057
22041
22195
22195
22132
22125
22179
22254
22179
22225
22166
22205
22212
22135
22128
22137
22262
22205
22141
22119
22141
22151
22239
22198
22206
22198
22122
22165
22287
22226
22309
22286
22212
22190
22359
22241
22283
22194
22205
22395
22380
22285
22294
22467
22342
22397
22392
22409
22425
22413
22356
22397
22433
22498
22516
22439
22422
22415
22428
22465
22317
22366
22477
22418
22468
22377
22457
22537
22493
22458
22523
22602
22555
22471
22596
22467
22559
22577
22571
22623
22667
22684
22538
22586
22598
22567
22540
22567
22555
22689
22709
22661
22680
22630
22711
22619
22651
22648
22654
22584
22747
22732
22761
22630
22677
22738
22676
22752
22844
22695
22807
22703
22738
22756
22773
22765
22712
22747
22792
22821
22855
22907
22966
22813
22811
22912
22756
22776
22860
22906
22870
22887
22698
22842
22769
22591
22668
22494
22565
22560
22356
22512
22408
22280
22321
22188
22124
22152
22237
22167
22059
22141
22080
22101
22029
22033
22004
22021
22055
21979
21992
21898
21929
21844
21915
21875
21816
21882
21854
21776
21786
21772
21722
21678
21769
21802
21657
21640
21660
21647
21764
21713
21702
21726
21812
21677
21763
21789
21790
21910
21896
21801
21875
21830
21917
21873
21962
21980
21831
21825
21988
21843
21961
21987
21952
21880
21824
21806
21810
21943
21955
21944
21875
21940
21987
21864
22009
22043
21912
21943
21843
22018
21993
22061
22004
21933
22077
21931
22110
22094
22073
22134
22160
22161
22142
22178
22004
22027
22070
22162
22038
22237
22219
22122
22113
22118
22232
22250
22182
22127
22157
22132
22131
22242
22241
22192
22191
22207
22250
22165
22285
22350
22328
22332
22256
22256
22311
22365
22401
22292
22429
22364
22402
22398
22273
22428
22501
22301
22486
22342
22461
22375
22362
22337
22356
22452
22474
22536
22470
22354
22420
22588
22520
22399
22544
22588
22412
22583
22430
22613
22547
22529
22456
22534
22538
22540
22742
22597
22498
22555
22735
22680
22646
22679
22670
22669
22609
22675
22660
22713
22675
22718
22715
22571
22710
22738
22704
22688
22774
22865
22684
22733
22805
22844
22757
22850
22721
22804
22685
22751
22764
22682
22710
22515
22616
22406
22443
22359
22397
22254
22172
22136
22192
22192
22052
22049
22014
22022
21975
22115
22010
22094
21938
22083
21928
22059
21959
21963
21976
21967
21995
21996
21941
21952
21981
21943
21894
21863
21902
21888
21729
21941
21859
21728
21850
21898
21899
21955
21855
21981
21845
21967
22083
21977
21957
22091
22119
21992
22090
22169
22161
22067
22013
22147
22040
22143
22169
22204
22173
22143
22041
22106
22126
22199
22153
22070
22178
22090
22130
22108
22182
22231
22109
22237
22209
22110
22126
22268
22318
22221
22212
22199
22189
22268
22223
22200
22270
22324
22438
22310
22248
22369
22299
22312
22309
22299
22439
22338
22430
22350
22378
22508
22462
22526
22454
22387
22452
22600
22615
22531
22651
22560
22450
22547
22555
22616
22605
22494
22573
22593
22701
22570
22648
22547
22643
22695
22687
22637
22635
22543
22619
22676
22684
22595
22656
22633
22658
22726
22693
22562
22554
22647
22521
22574
22726
22683
22686
22631
22694
22617
22566
22556
22655
22644
22647
22560
22673
22741
22724
22733
22759
22663
22637
22837
22712
22710
22637
22831
22747
22613
22699
22749
22771
22654
22790
22737
22747
22790
22731
22757
22759
22717
22729
22826
22787
22703
22771
22800
22646
22697
22542
22627
22518
22596
22418
22357
22334
22340
22205
22081
22158
22057
22149
22070
22060
22056
22040
21999
21864
21996
21912
21828
21818
21957
21894
21805
21779
21856
21727
21764
21747
21695
21715
21685
21734
21686
21647
21594
21679
21688
21683
21748
21601
21766
21606
21775
21650
21697
21689
21707
21676
21687
21803
21691
21671
21777
21736
21749
21820
21934
21888
21935
21849
21911
21810
21877
21870
21797
21956
21929
21824
21886
21867
21945
21940
21981
22042
21960
21881
21931
22076
21949
21921
21970
21996
21961
22020
21947
22058
21994
22006
22133
21991
22197
22143
22061
22151
22190
22120
22185
22177
22147
22204
22107
22161
22133
22107
22117
22067
22237
22292
22171
22192
22272
22244
22243
22274
22173
22337
22270
22297
22210
22257
22355
22382
22215
22331
22267
22395
22199
22255
22433
22392
22353
22400
22411
22388
22349
22409
22385
22480
22323
22369
22384
22290
22315
22335
22465
22311
22466
22530
22399
22369
22537
22586
22595
22530
22511
22568
22396
22605
22549
22470
22590
22507
22645
22596
22559
22657
22659
22594
22485
22540
22605
22540
22507
22514
22480
22637
22593
22509
22628
22538
22517
22574
22510
22599
22613
22590
22485
22564
22556
22566
22603
22493
22477
22377
22308
22402
22206
22119
22172
22151
22113
21981
21954
22071
21890
21938
21975
21867
21938
21818
21827
21829
21813
21773
21761
21687
21664
21587
21677
21735
21700
21642
21645
21674
21664
21518
21577
21559
21523
21666
21561
21529
21566
21688
21572
21603
21542
21650
21637
21685
21555
21666
21704
21632
21630
21751
21671
21749
21745
21735
21795
21695
21689
21827
21721
21785
21802
21875
21730
21961
21929
21843
21814
21940
21814
21871
21816
21870
21926
21862
21918
21871
21920
21892
22064
22053
22094
22022
21968
22118
22026
22041
22185
22124
22127
22196
22113
22074
22205
22195
22268
22196
22171
22182
22202
22275
22279
22243
22292
22368
22354
22373
22300
22479
22327
22407
22407
22475
22430
22459
22373
22473
22584
22572
22364
22581
22521
22451
22445
22452
22457
22600
22467
22459
22587
22637
22535
22685
22617
22529
22631
22653
22625
22612
22747
22775
22647
22740
22846
22802
22682
22758
22743
22859
22807
22763
22774
22798
22885
22905
22935
22811
22937
22777
22956
22892
22892
23013
22900
22935
23026
23050
23018
22962
23013
23020
23032
23031
23055
23040
23036
23030
23133
23073
23036
23072
23042
23108
23083
23121
23116
23150
23135
23169
23139
23075
23085
23101
23039
22986
22954
22881
22835
22779
22738
22721
22637
22570
22508
22518
22519
22386
22314
22408
22303
22258
22354
22294
22266
22256
22218
22220
22188
22172
22104
22141
22189
22105
22019
22063
21992
21984
22041
22031
21936
21910
21910
21853
21995
21950
21981
21914
22042
21946
22001
21937
21965
21921
21869
21959
21970
22047
22035
22043
22037
22007
21969
22104
22092
21955
22116
22047
22095
22133
22144
22034
22007
21932
22018
22160
22118
21979
22096
22144
22029
22095
22089
22017
22092
22195
22095
22156
22007
22123
22035
22058
21997
22181
22112
22072
22055
22062
22121
22054
22118
22116
22137
22154
22122
22125
22181
22117
22166
22214
22217
22156
22273
22165
22244
22217
22124
22307
22190
22165
22188
22152
22286
22241
22372
22277
22161
22366
22230
22301
22332
22248
22197
22225
22239
22404
22385
22344
22383
22305
22420
22251
22290
22385
22280
22431
22493
22389
22490
22429
22430
22503
22403
22560
22483
22586
22501
22419
22461
22514
22395
22578
22407
22470
22414
22533
22506
22576
22546
22600
22541
22458
22528
22473
22567
22630
22534
22466
22554
22498
22599
22534
22484
22514
22587
22670
22537
22618
22626
22603
22628
22593
22664
22596
22642
22662
22669
22693
22637
22643
22621
22475
22453
22515
22541
22363
22497
22358
22174
22250
22254
22142
22181
22047
22149
22115
21953
21918
21915
21988
21947
21830
21852
21977
21891
21930
21890
21734
21729
21666
21770
21633
21685
21610
21694
21597
21759
21650
21629
21633
21675
21683
21671
21558
21715
21633
21658
21546
21629
21734
21569
21713
21781
21650
21692
21622
21845
21816
21831
21788
21824
21646
21827
21808
21791
21756
21701
21784
21756
21739
21833
21808
21801
21749
21677
21691
21783
21762
21775
21652
21755
21746
21800
21746
21811
21744
21930
21944
21804
21992
21890
21972
22003
22022
21984
21850
21903
21955
21921
21974
22077
21947
21951
21945
22130
22030
22042
22105
22147
22079
21998
22046
22071
22033
22078
22101
22108
22173
22151
22122
22138
22087
22102
22222
22238
22186
22316
22290
22349
22251
22413
22356
22380
22311
22387
22428
22337
22525
22355
22553
22567
22517
22447
22586
22461
22592
22648
22482
22501
22655
22627
22705
22537
22655
22719
22668
22760
22733
22687
22751
22831
22771
22746
22796
22862
22808
22852
22813
22910
22940
22885
22834
22965
22890
22948
22892
23047
22865
22933
23079
23021
23041
23030
22934
23136
23070
23147
23071
23067
23077
23109
23024
22871
22897
22925
22904
22762
22725
22726
22628
22545
22595
22512
22524
22419
22493
22403
22350
22331
22299
22261
22267
22211
22267
22267
22226
22264
22235
22097
22230
22294
22122
22213
22100
22038
22154
22023
22057
22103
22012
21992
22030
22081
22006
22040
22114
22025
22086
22059
22110
22187
22129
22018
22233
22225
22081
22084
22148
22258
22233
22260
22251
22301
22250
22285
22329
22333
22300
22215
22272
22355
22402
22289
22297
22238
22452
22284
22329
22213
22455
22289
22284
22274
22243
22301
22413
22243
22350
22282
22284
22352
22341
22362
22364
22249
22301
22331
22358
22292
22309
22313
22444
22284
22353
22302
22399
22379
22522
22394
22355
22427
22409
22402
22345
22461
22414
22462
22518
22453
22406
22593
22489
22477
22498
22401
22543
22505
22560
22660
22639
22584
22539
22695
22483
22570
22688
22606
22497
22646
22664
22642
22540
22567
22675
22650
22692
22577
22736
22600
22544
22633
22716
22720
22626
22588
22694
22535
22646
22657
22598
22556
22547
22602
22632
22649
22726
22504
22550
22694
22623
22667
22630
22640
22633
22601
22672
22573
22750
22607
22504
22635
22730
22608
22612
22776
22656
22782
22680
22793
22738
22733
22761
22744
22826
22777
22751
22716
22727
22740
22790
22619
22669
22636
22611
22433
22419
22376
22246
22241
22276
22236
22058
22016
22042
22129
22067
22068
22044
21974
21933
21953
21879
21862
21823
21801
21801
21736
21768
21737
21652
21647
21583
21558
21727
21657
21671
21643
21549
21713
21548
21557
21650
21572
21554
21616
21580
21564
21730
21692
21679
21757
21631
21754
21702
21669
21696
21862
21823
21793
21742
21765
21794
21773
21729
21832
21928
21919
21924
21906
21786
21801
21768
21943
21780
21829
21804
21997
21866
21763
21907
21823
21907
21992
21926
21936
21802
21889
21929
21972
21972
21920
21978
21895
21891
21982
21932
22041
22052
22063
22100
22056
22011
22148
22038
22079
22186
22153
22048
22185
22070
22013
22152
22039
22069
22220
22054
22050
22168
22099
22072
22113
22180
22105
22261
22181
22301
22090
22153
22169
22280
22201
22240
22213
22286
22241
22327
22348
22282
22337
22316
22411
22281
22497
22394
22273
22373
22373
22396
22341
22423
22421
22421
22382
22386
22401
22450
22373
22458
22429
22484
22433
22562
22454
22533
22491
22607
22460
22434
22640
22643
22485
22573
22645
22716
22506
22710
22606
22703
22526
22689
22579
22591
22711
22730
22631
22731
22703
22582
22641
22641
22632
22784
22699
22723
22702
22741
22547
22520
22564
22467
22457
22383
22340
22358
22358
22200
22289
22201
22185
22072
22008
22045
21984
22083
22028
22031
21907
21849
21887
21814
21902
21917
21918
21873
21776
21742
21731
21797
21768
21770
21857
21733
21697
21742
21822
21659
21651
21821
21741
21819
21904
21836
21734
21891
21776
21869
21919
21865
21960
21895
21963
22102
21960
22109
22115
22056
21996
22014
22116
22216
22195
22006
22070
22095
22227
22172
22233
22175
22088
22152
22251
22228
22149
22195
22320
22254
22301
22245
22300
22293
22331
22353
22273
22338
22290
22266
22366
22431
22432
22320
22340
22315
22342
22468
22419
22412
22646
22527
22417
22628
22614
22506
22455
22561
22577
22569
22664
22720
22599
22603
22554
22608
22615
22749
22673
22695
22670
22752
22660
22757
22778
22593
22774
22642
22675
22639
22697
22800
22754
22794
22694
22767
22860
22874
22878
22812
22763
22918
22814
22911
22870
22827
22889
22886
22871
23012
22913
22828
22904
22926
22995
22949
22946
23066
22916
22884
23059
23072
22955
23032
23023
22979
22891
23042
22996
23059
23052
22977
23069
23104
22891
22991
23067
22921
22909
22918
23004
22949
22876
22928
22983
22861
23051
23063
22971
22943
23032
23083
22997
22989
22913
23015
22995
23031
23054
22962
22850
22953
22974
22755
22690
22728
22739
22587
22407
22372
22358
22372
22224
22315
22232
22188
22019
22180
22119
21979
22074
21903
21873
21896
21844
21899
21839
21919
21887
21839
21822
21781
21888
21753
21850
21818
21710
21654
21669
21592
21626
21691
21597
21734
21681
21735
21603
21627
21727
21754
21699
21702
21671
21809
21719
21865
21748
21878
21787
21884
21801
21828
21971
21799
21921
21949
21936
21967
21958
21796
21924
21922
21915
21830
21870
21749
21813
21892
21847
21759
21824
21943
21837
21903
21969
21897
21853
21942
21955
21975
21953
21909
21909
21908
21903
22050
21980
22033
22031
21943
22022
22124
22058
21946
22060
22059
22029
22156
22132
22057
22107
22111
22029
22092
22059
22147
22105
22166
22245
22223
22069
22231
22124
22224
22237
22194
22161
22338
22150
22264
22391
22275
22213
22301
22384
22310
22250
22378
22335
22296
22254
22211
22273
22373
22383
22379
22297
22343
22401
22390
22302
22365
22350
22427
22462
22420
22551
22345
22315
22385
22374
22352
22458
22449
22593
22540
22506
22598
22484
22561
22563
22586
22603
22486
22475
22548
22574
22506
22592
22589
22473
22583
22540
22666
22494
22666
22575
22653
22686
22691
22638
22657
22603
22713
22764
22718
22687
22500
22614
22550
22327
22317
22394
22205
22285
22103
22041
22040
22041
22026
21920
21895
21823
21899
21876
21828
21831
21741
21699
21831
21718
21783
21695
21683
21735
21791
21638
21703
21658
21623
21607
21581
21675
21694
21636
21683
21618
21540
21467
21500
21464
21414
21515
21573
21488
21569
21710
21500
21658
21607
21617
21744
21644
21646
21832
21807
21832
21835
21816
21825
21780
21905
21836
21813
21834
21787
21905
21831
21912
21854
21824
21793
21997
21909
21992
21871
21892
22062
21841
21905
22041
22087
21955
21949
21982
22035
22097
21995
22086
22097
22159
22088
22106
22106
22274
22317
22147
22161
22279
22207
22168
22207
22276
22228
22228
22239
22402
22374
22230
22319
22417
22329
22409
22279
22448
22407
22376
22415
22472
22388
22462
22563
22499
22483
22470
22524
22549
22587
22510
22549
22665
22608
22629
22669
22706
22723
22589
22703
22782
22656
22759
22801
22641
22678
22756
22774
22702
22757
22737
22729
22678
22739
22863
22865
22799
22752
22895
22832
22826
22943
22895
22924
22811
22851
22997
22934
22865
22947
23007
22979
22885
22845
22814
23013
22929
23042
22995
22943
22914
22908
22938
22984
22871
22926
22966
22920
22868
22811
22944
22953
22951
22924
22844
22865
22869
22744
22820
22632
22550
22536
22530
22401
22245
22236
22239
22158
22103
22075
22039
22035
22010
21895
21902
21858
21934
21808
21905
21780
21894
21763
21875
21711
21703
21723
21831
21733
21665
21714
21633
21595
21713
21644
21550
21660
21647
21608
21568
21599
21672
21712
21680
21508
21726
21740
21741
21677
21710
21634
21649
21669
21785
21774
21796
21702
21685
21751
21740
21772
21776
21717
21715
21800
21750
21772
21798
21855
21785
21814
21808
21802
21845
21843
21830
21783
21837
21757
21769
21857
21827
21915
21787
21816
21932
21779
21787
21862
21827
21816
21924
21992
21928
21986
21903
21963
21949
21961
21924
21966
21862
21974
21954
21953
22014
22070
21956
21947
22065
22074
22029
22132
22046
22051
22080
22146
22081
22084
22185
22109
22163
22003
22052
22152
22121
22082
22070
22243
22036
22140
22107
22150
22164
22178
22181
22196
22224
22213
22235
22221
22236
22249
22191
22216
22279
22225
22273
22204
22273
22264
22253
22284
22280
22314
22296
22297
22320
22372
22319
22325
22343
22343
22290
22320
22390
22433
22420
22401
22475
22307
22307
22404
22320
22454
22346
22354
22511
22356
22427
22481
22415
22448
22559
22545
22444
22402
22442
22541
22485
22461
22518
22336
22430
22336
22195
22206
22088
22008
22062
21943
21933
21829
21854
21724
21765
21723
21678
21696
21685
21634
21569
21546
21673
21553
21649
21582
21427
21533
21449
21431
21512
21563
21369
21378
21359
21360
21369
21398
21372
21359
21521
21334
21322
21415
21277
21405
21312
21323
21421
21420
21367
21348
21395
21468
21520
21377
21636
21544
21418
21494
21595
21512
21537
21535
21516
21490
21500
21547
21520
21494
21602
21687
21545
21532
21509
21513
21536
21489
21629
21722
21568
21713
21526
21699
21580
21589
21558
21610
21743
21710
21778
21757
21697
21712
21727
21688
21613
21705
21820
21818
21747
21764
21801
21779
21733
21876
21825
21845
21842
21943
21854
21795
21805
21945
21791
21960
21877
21794
21942
21873
21941
21900
21884
21939
21973
22040
21904
21933
21867
22050
21928
21912
21993
22093
21975
22096
22080
22039
22101
22120
22157
22085
22201
22187
22211
22173
22155
22232
22198
22232
22332
22270
22172
22333
22169
22287
22363
22246
22240
22281
22409
22348
22531
22539
22322
22507
22530
22379
22563
22432
22469
22443
22524
22533
22531
22556
22510
22432
22614
22486
22553
22537
22528
22575
22708
22592
22718
22622
22646
22639
22579
22617
22674
22570
22653
22743
22565
22662
22507
22595
22554
22373
22445
22281
22361
22265
22264
22138
22148
22141
22086
22125
21986
22105
21991
22065
21881
22041
21942
21880
21806
21815
21973
21904
21831
21834
21797
21825
21785
21720
21849
21755
21839
21837
21728
21728
21765
21661
21738
21741
21793
21732
21737
21762
21901
21836
21849
21892
21851
21842
21931
21864
21897
21864
21942
22029
22026
22017
21943
22049
21993
22024
22116
22147
22042
21955
22061
22008
22015
22068
21974
22003
21988
22084
22194
22056
22004
22152
22174
22168
22054
22168
22205
22039
21974
22077
22031
22066
22053
22145
22084
22131
22115
22090
22109
22201
22105
22218
22243
22173
22132
22264
22247
22173
22184
22127
22144
22229
22162
22184
22111
22182
22129
22246
22288
22128
22295
22248
22241
22204
22220
22251
22241
22236
22293
22297
22307
22310
22357
22315
22401
22425
22261
22333
22371
22374
22401
22335
22297
22374
22334
22317
22418
22417
22257
22341
22253
22233
22401
22267
22425
22399
22382
22422
22321
22426
22460
22472
22390
22437
22518
22408
22481
22489
22388
22444
22539
22388
22379
22467
22361
22452
22373
22345
22419
22457
22435
22427
22368
22539
22469
22448
22442
22487
22410
22531
22490
22513
22432
22512
22366
22424
22375
22252
22168
22199
22180
22119
22150
22038
22017
21938
21826
21913
21780
21776
21674
21796
21752
21779
21633
21620
21608
21618
21609
21665
21571
21544
21674
21519
21518
21630
21485
21446
21598
21480
21359
21344
21521
21414
21463
21336
21305
21341
21415
21429
21303
21460
21444
21429
21420
21511
21419
21433
21448
21382
21478
21610
21562
21521
21504
21608
21564
21533
21449
21549
21607
21617
21554
21517
21654
21619
21691
21492
21525
21503
21565
21575
21547
21592
21607
21570
21687
21606
21564
21650
21592
21604
21580
21662
21619
21602
21644
21632
21614
21628
21676
21613
21702
21682
21712
21664
21723
21738
21706
21787
21759
21825
21824
21826
21883
21820
21707
21725
21808
21910
21921
21893
21786
21754
21843
22003
21826
22000
21888
21973
21907
21843
21986
21960
21986
21927
22062
21994
21887
21966
21990
22036
21955
21910
21980
21970
21947
22046
22004
22011
21946
21916
21994
21950
21947
21967
21910
21962
21961
22120
21975
22063
22158
22115
22094
21975
22145
22076
22097
22100
22156
22033
22131
22150
22119
22115
22161
22060
22105
22066
22187
22093
22057
22095
22212
22187
22200
22087
22251
22269
22200
22204
22290
22242
22169
22239
22171
22177
22241
22079
22148
22010
22069
21919
21824
21884
21686
21699
21677
21789
21551
21626
21519
21542
21566
21445
21419
21463
21440
21518
21483
21405
21374
21339
21382
21397
21387
21367
21433
21321
21328
21350
21300
21361
21260
21365
21327
21217
21317
21191
21339
21253
21317
21321
21260
21371
21287
21352
21459
21526
21481
21328
21543
21413
21494
21545
21550
21583
21582
21536
21439
21583
21471
21524
21624
21620
21565
21592
21610
21682
21666
21744
21628
21563
21648
21762
21745
21706
21667
21637
21676
21791
21805
21765
21696
21695
21813
21874
21700
21740
21908
21758
21795
21877
21743
21892
21754
21851
21786
21872
21850
21937
21923
21921
21880
21908
22006
21968
21983
21900
22010
22007
21952
22092
22042
22009
22166
22168
22117
22019
22108
22197
22034
22209
22064
22208
22070
22231
22331
22312
22235
22360
22284
22198
22291
22443
22366
22383
22336
22313
22394
22242
22307
22274
22347
22437
22457
22306
22314
22427
22476
22383
22460
22445
22322
22410
22380
22374
22550
22493
22424
22571
22510
22482
22393
22498
22479
22366
22363
22425
22355
22328
22355
22367
22466
22321
22433
22435
22492
22277
22403
22436
22344
22340
22259
22313
22211
22316
22283
22283
22218
22340
22150
22144
22193
22021
22000
21951
21865
21989
21904
21807
21701
21731
21724
21664
21666
21600
21427
21539
21531
21367
21302
21348
21275
21299
21293
21268
21148
21199
21187
21269
21085
21148
21161
21185
21054
21160
21040
21016
21056
21052
20974
21010
21096
21150
20994
21139
21099
21101
21053
21073
21161
21101
21210
21150
21160
21194
21133
21229
21191
21158
21146
21213
21232
21239
21160
21137
21263
21169
21244
21205
21179
21179
21140
21154
21288
21134
21254
21224
21242
21253
21168
21244
21231
21277
21307
21243
21328
21308
21195
21260
21370
21302
21295
21399
21337
21450
21396
21339
21357
21415
21457
21381
21339
21533
21427
21473
21382
21524
21514
21501
21518
21456
21528
21553
21508
21566
21554
21552
21533
21601
21605
21671
21464
21702
21678
21668
21640
21727
21657
21640
21667
21628
21679
21675
21703
21687
21655
21629
21691
21734
21783
21660
21699
21705
21670
21746
21866
21734
21684
21826
21809
21757
21903
21827
21784
21822
21694
21979
21935
21909
21896
21919
21988
21953
21871
21861
21848
21818
21833
21986
21920
21823
21843
21943
21955
21956
22093
22022
21983
22022
22007
22078
21985
22028
22060
22032
22088
22051
21955
21907
22039
21955
21893
21859
21791
21769
21784
21593
21705
21691
21469
21390
21551
21336
21391
21403
21406
21384
21259
21294
21294
21175
21207
21274
21197
21095
21119
21069
21208
21051
21059
21183
21094
21136
21084
21136
21123
21129
20992
20989
21026
20928
20971
20993
21088
21057
21051
21068
21124
21150
21130
21190
21097
21157
21115
21119
21209
21202
21168
21188
21364
21262
21344
21305
21375
21377
21447
21265
21367
21400
21450
21399
21454
21504
21545
21450
21460
21524
21549
21535
21494
21631
21511
21605
21550
21710
21657
21596
21682
21591
21710
21764
21802
21701
21832
21758
21794
21786
21884
21872
21762
21778
21942
21828
21941
21942
21939
22061
21946
22015
22011
22101
22126
22131
22056
22226
22115
22098
22225
22139
22167
22217
22218
22247
22210
22158
22265
22196
22300
22281
22381
22344
22306
22345
22351
22386
22468
22398
22336
22478
22428
22425
22360
22578
22449
22600
22536
22483
22503
22592
22618
22475
22665
22686
22566
22604
22684
22737
22756
22769
22740
22798
22766
22858
22681
22697
22667
22759
22764
22778
22727
22816
22763
22763
22926
22911
22841
22824
22986
22951
22937
22993
22926
22880
23038
22998
23006
22893
22923
22802
22836
22874
22764
22764
22622
22574
22616
22527
22564
22430
22306
22376
22298
22293
22277
22261
22311
22288
22272
22207
22030
22055
22063
22023
22102
22119
22088
22111
22028
21977
21946
21994
21989
21908
21903
21788
21862
21723
21793
21809
21808
21807
21731
21719
21868
21785
21899
21770
21903
21911
21880
21889
21857
21896
21895
21910
21917
21852
21841
21937
21879
21943
21937
21960
21907
21877
21899
21826
21876
21911
21962
21961
21758
21840
21796
21836
21836
21836
21819
21856
21849
21833
21888
21790
21834
21832
21887
21920
21946
21912
21881
21964
21896
22072
22011
22020
22004
22070
21936
22022
22074
21977
21992
21894
21953
22059
21939
22078
21897
21917
21989
22057
22047
22090
22031
22118
21981
22038
22043
22190
22029
22157
22164
22022
22082
22180
22195
22161
22096
22133
22123
22266
22145
22188
22283
22235
22198
22302
22347
22291
22303
22191
22333
22363
22216
22234
22227
22186
22291
22259
22294
22240
22246
22356
22406
22342
22335
22470
22461
22297
22449
22339
22457
22475
22499
22357
22358
22478
22414
22495
22418
22488
22400
22407
22596
22576
22578
22398
22514
22619
22532
22613
22560
22575
22540
22581
22599
22448
22503
22353
22407
22336
22340
22353
22289
22239
22243
22162
22148
22025
22082
21978
22008
21879
21833
21933
21907
21694
21742
21779
21790
21752
21757
21668
21544
21514
21545
21568
21518
21399
21452
21529
21370
21406
21303
21400
21385
21409
21341
21419
21215
21266
21292
21315
21306
21379
21304
21399
21314
21461
21366
21291
21343
21532
21404
21495
21529
21374
21400
21419
21544
21598
21458
21472
21386
21520
21425
21435
21508
21446
21441
21580
21474
21537
21567
21510
21532
21625
21558
21525
21637
21573
21539
21623
21641
21689
21703
21690
21767
21605
21670
21756
21605
21743
21800
21656
21713
21746
21745
21787
21814
21691
21831
21864
21680
21789
21721
21872
21756
21950
21681
21767
21845
22005
21801
21882
21881
21817
21873
21984
21909
21927
21968
21948
21957
21962
22056
21958
21991
22020
21904
22040
21971
22065
22052
21997
22066
22085
22032
22189
22041
22002
22057
22035
22077
22134
22227
22126
22201
22090
22249
22204
22245
22308
22209
22330
22203
22183
22213
22214
22197
22161
22208
22319
22225
22231
22325
22250
22316
22328
22242
22178
22285
22373
22260
22181
22285
22308
22317
22434
22306
22291
22354
22368
22391
22510
22486
22524
22425
22357
22440
22337
22400
22358
22160
22289
22151
22091
22040
21957
21983
22013
21908
21818
21858
21870
21766
21734
21699
21638
21660
21733
21699
21622
21645
21638
21683
21506
21601
21574
21484
21551
21591
21556
21543
21420
21615
21547
21363
21532
21388
21519
21376
21497
21511
21448
21426
21383
21404
21344
21436
21537
21440
21497
21630
21522
21609
21762
21557
21659
21730
21720
21594
21738
21676
21739
21744
21783
21713
21782
21828
21736
21845
21845
21789
21786
21821
21911
21752
21695
21873
21879
21923
21861
21995
21884
21894
22005
21849
21965
21926
21996
22012
22089
22097
21969
21982
22059
22094
22185
22086
22129
22059
22235
22100
22235
22154
22174
22157
22120
22140
22209
22152
22211
22182
22243
22269
22200
22294
22313
22203
22326
22252
22329
22394
22312
22323
22374
22370
22345
22475
22368
22456
22394
22417
22502
22452
22391
22570
22503
22542
22419
22557
22531
22556
22653
22623
22640
22478
22642
22495
22578
22673
22512
22549
22678
22632
22633
22655
22566
22573
22765
22661
22786
22669
22664
22706
22856
22736
22656
22770
22874
22798
22902
22789
22751
22731
22742
22866
22816
22718
22795
22875
22766
22801
22791
22816
22736
22767
22766
22729
22740
22788
22860
22789
22652
22676
22646
22751
22682
22585
22663
22508
22366
22525
22518
22254
22196
22148
22125
22128
22113
22136
22066
21969
21982
22008
22013
21984
21873
21948
21921
21826
21759
21734
21798
21807
21831
21709
21603
21625
21770
21621
21544
21630
21543
21538
21676
21637
21527
21641
21702
21610
21571
21639
21698
21647
21594
21655
21760
21709
21639
21598
21669
21739
21810
21717
21759
21751
21693
21723
21701
21765
21623
21772
21767
21803
21827
21789
21861
21786
21717
21899
21781
21869
21768
21928
21803
21743
21790
21851
21810
21887
21793
21944
21864
21814
21939
22016
21885
21927
21918
21854
21888
21839
21929
21854
21837
21932
21923
22040
21970
21908
22004
21972
21998
22020
22026
22106
22063
22161
22076
22057
22090
22116
22107
22138
22161
22191
22086
22093
22144
22209
22128
22140
22099
22280
22291
22155
22323
22158
22255
22213
22263
22257
22128
22296
22378
22293
22348
22317
22306
22322
22244
22305
22324
22339
22379
22404
22361
22497
22410
22395
22440
22487
22545
22552
22450
22434
22440
22528
22416
22501
22587
22429
22393
22565
22577
22549
22550
22613
22503
22452
22546
22418
22604
22434
22444
22576
22503
22571
22518
22566
22660
22541
22586
22581
22533
22577
22577
22569
22515
22590
22565
22475
22422
22430
22379
22253
22313
22217
22144
22114
22088
22025
22007
21951
21933
21916
21879
21743
21934
21789
21768
21724
21658
21744
21692
21666
21686
21641
21621
21585
21557
21537
21506
21506
21541
21527
21467
21500
21458
21459
21382
21377
21412
21413
21461
21360
21408
21452
21510
21408
21421
21514
21457
21565
21532
21445
21541
21534
21480
21524
21683
21690
21482
21704
21621
21535
21602
21544
21670
21593
21630
21587
21641
21632
21635
21678
21695
21659
21606
21690
21731
21722
21628
21743
21786
21740
21756
21767
21812
21837
21791
21825
21805
21795
21847
21820
21711
21758
21878
21779
21828
21962
21861
21852
21902
21908
21896
21901
21938
21821
21985
21881
21943
21976
21915
21943
21903
21990
21907
21992
21996
21984
22007
22056
22054
22023
22005
22039
22062
22073
22083
22047
22070
22122
22148
22044
22093
22188
22192
22113
22252
22233
22343
22366
22165
22201
22376
22303
22284
22277
22322
22441
22400
22311
22276
22342
22465
22475
22307
22378
22371
22432
22513
22443
22461
22559
22452
22514
22505
22474
22635
22594
22485
22559
22533
22586
22549
22629
22516
22607
22645
22646
22585
22607
22656
22601
22691
22662
22749
22639
22766
22818
22756
22749
22772
22897
22760
22704
22813
22868
22774
22764
22746
22571
22551
22432
22537
22426
22380
22369
22364
22251
22207
22164
22041
22175
22022
21962
22080
22017
22058
22049
21943
21936
21975
22019
21898
21966
21946
21831
21870
21941
21866
21780
21885
21838
21888
21843
21785
21815
21848
21855
21842
21822
21895
21842
21803
21929
21896
21845
21888
21869
21931
21939
21962
21936
21952
22022
22057
21966
22015
22002
22027
22060
21955
22017
22081
22089
22063
22143
22094
22129
21956
22098
22212
22030
22164
22059
22101
22131
22101
22181
22078
22075
22198
22241
22183
22189
22256
22135
22167
22276
22130
22178
22337
22207
22199
22283
22143
22241
22295
22227
22240
22274
22287
22322
22233
22227
22283
22257
22297
22349
22387
22454
22355
22433
22444
22453
22476
22477
22435
22424
22450
22361
22358
22436
22454
22323
22432
22446
22458
22419
22445
22428
22358
22384
22484
22540
22496
22486
22549
22656
22607
22557
22573
22582
22652
22531
22670
22630
22704
22581
22542
22674
22556
22553
22585
22715
22617
22599
22636
22573
22697
22600
22607
22624
22597
22641
22759
22673
22666
22777
22791
22706
22763
22886
22801
22874
22754
22792
22837
22725
22873
22873
22762
22833
22852
22937
22865
22891
22994
22883
22916
22902
22834
22924
22946
22938
22896
22894
22835
22791
22803
22630
22670
22553
22486
22440
22497
22368
22474
22331
22277
22230
22262
22195
22255
22224
22196
22113
22198
22159
22146
22109
22182
22185
22157
22096
22040
22103
21996
21933
22000
21942
21917
21991
21899
21915
21863
21829
21825
21805
21851
21855
21760
21817
21930
21884
21966
21852
21843
21975
21993
21848
22036
21951
21979
22057
22037
21963
21908
21976
22073
22062
21957
22063
22132
22114
21969
22135
22010
21955
21989
22030
22050
21967
22137
22034
22112
21994
22035
22003
21978
22039
22128
22119
22160
22108
22050
22099
22120
22114
22036
21993
22115
22000
22136
21979
22089
22061
22076
21974
22105
22022
22041
22065
22021
22004
22070
22060
22094
22039
22117
22064
22159
22133
22162
22024
22059
22099
22075
22041
22021
22030
22112
22109
22198
22035
22134
22209
22174
22160
22242
22154
22134
22102
22129
22208
22164
22151
22327
22286
22290
22260
22236
22188
22217
22261
22226
22255
22346
22343
22239
22207
22267
22298
22275
22208
22242
22251
22282
22345
22320
22347
22323
22290
22394
22347
22377
22335
22321
22426
22329
22377
22369
22531
22471
22529
22480
22512
22381
22385
22497
22505
22381
22543
22446
22434
22520
22492
22444
22406
22500
22603
22505
22471
22610
22539
22632
22582
22523
22556
22453
22533
22440
22334
22386
22350
22213
22163
22135
22088
22110
21981
21966
21920
21947
21869
21877
21849
21852
21909
21893
21860
21956
21869
21886
21838
21885
21889
21772
21859
21662
21790
21683
21722
21675
21718
21857
21651
21729
21754
21743
21710
21630
21735
21714
21807
21721
21656
21731
21830
21803
21793
21944
21862
21896
21886
21937
21859
22072
21974
21991
21976
22088
22079
22136
22097
22150
22072
22101
22034
22070
22150
22039
22156
22184
22160
22204
22108
22170
22063
22166
22085
22270
22302
22202
22242
22178
22226
22230
22242
22361
22266
22236
22294
22400
22337
22425
22340
22282
22295
22296
22324
22378
22233
22459
22288
22443
22378
22376
22434
22359
22403
22419
22431
22412
22609
22548
22540
22463
22623
22468
22586
22702
22575
22531
22724
22759
22752
22625
22795
22712
22719
22847
22776
22818
22716
22662
22793
22768
22839
22750
22862
22779
22759
22808
23017
22946
22977
22920
23006
22922
23007
23057
23029
23048
23043
23092
23133
23143
23118
23149
23152
23131
23180
23193
23210
23120
23153
23257
23302
23173
23163
23282
23106
23292
23403
23214
23394
23405
23273
23291
23254
23439
23449
23357
23357
23388
23421
23281
23406
23366
23390
23397
23337
23369
23380
23238
23218
23298
23199
23260
23346
23287
23330
23235
23222
23241
23345
23245
23389
23388
23381
23462
23401
23328
23400
23485
23257
23299
23448
23412
23402
23203
23381
23144
23166
23220
23084
22949
22999
22851
22920
22710
22747
22671
22627
22694
22527
22455
22574
22513
22444
22402
22379
22264
22279
22355
22278
22264
22239
22180
22251
22220
22181
22157
22130
22155
22084
22025
22028
21999
22072
22052
22069
22078
22099
22118
22092
22002
22114
22113
22039
22021
22067
22144
22030
22126
22093
22043
22096
22123
22090
22075
22122
22256
22194
22065
22247
22180
22126
22150
22056
22186
22121
22171
22066
22138
22111
22228
22069
22164
22156
22319
22180
22153
22113
22149
22271
22121
22159
22345
22127
22295
22159
22325
22259
22282
22211
22246
22289
22250
22270
22391
22369
22299
22352
22312
22261
22295
22442
22348
22449
22414
22316
22362
22477
22495
22444
22547
22480
22498
22463
22446
22375
22490
22476
22461
22474
22489
22465
22509
22584
22532
22560
22519
22561
22541
22488
22540
22605
22624
22510
22546
22585
22520
22618
22700
22720
22581
22622
22590
22723
22583
22711
22623
22634
22685
22685
22662
22677
22737
22687
22718
22718
22656
22612
22704
22646
22739
22679
22706
22696
22695
22707
22673
22724
22712
22742
22620
22729
22686
22787
22768
22771
22740
22810
22761
22862
22833
22879
22761
22896
22879
22780
22758
22704
22735
22817
22699
22636
22692
22478
22461
22465
22453
22468
22254
22322
22263
22280
22124
22248
22206
22081
22118
22126
22124
22106
21970
22132
22036
22140
21975
22022
21969
22008
21986
21854
21990
22018
21785
21946
21780
21926
21903
21858
21896
21838
21719
21762
21677
21817
21884
21845
21900
21927
21850
21887
21900
21923
21920
21919
21910
21947
22032
21948
21982
22094
21997
21938
22059
21927
21996
22208
22150
22204
22154
22087
22156
22155
22181
22142
22174
22154
22233
22261
22171
22187
22271
22228
22293
22249
22150
22216
22292
22223
22317
22389
22314
22312
22294
22339
22425
22339
22358
22327
22538
22451
22497
22495
22517
22425
22578
22495
22637
22484
22562
22588
22553
22555
22564
22689
22603
22612
22575
22467
22549
22617
22632
22716
22599
22600
22620
22722
22638
22612
22655
22707
22753
22753
22692
22838
22855
22779
22813
22875
22724
22817
22855
22859
22787
22770
22842
22891
22759
22925
22949
22930
22901
22998
22909
22939
22900
22874
22934
22899
22942
23132
23117
23172
23020
23010
23148
23041
23016
23118
23027
23227
