31043
31601
32200
32816
33424
34021
34601
35149
35666
36156
36606
37006
37347
37629
37866
38059
38214
38333
38402
38416
38393
38350
38285
38189
38065
37918
37754
37581
37401
37217
37029
36842
36662
36486
36308
36108
35894
35695
35504
35309
35104
34888
34676
34491
34340
34209
34086
33973
33870
33772
33679
33604
33553
33523
33518
33529
33554
33590
33632
33688
33758
33832
33904
33970
34031
34097
34161
34220
34280
34341
34397
34447
34497
34534
34562
34584
34590
34581
34561
34526
34475
34414
34343
34251
34140
34029
33936
33850
33752
33650
33559
33471
33375
33266
33149
33034
32931
32836
32740
32637
32535
32440
32346
32255
32165
32059
31938
31818
31710
31614
31531
31450
31367
31301
31244
31181
31107
31030
30958
30892
30835
30787
30746
30710
30682
30648
30601
30554
30510
30462
30415
30370
30325
30286
30268
30281
30321
30385
30487
30635
30841
31120
31475
31888
32347
32846
33363
33881
34414
34966
35538
36125
36705
37265
37780
38227
38611
38948
39255
39534
39777
39964
40083
40149
40175
40158
40099
40013
39910
39788
39645
39497
39342
39167
38972
38762
38545
38325
38099
37865
37620
37371
37131
36900
36668
36429
36195
35990
35811
35640
35467
35293
35112
34930
34770
34639
34537
34460
34402
34361
34338
34337
34367
34422
34491
34569
34653
34743
34838
34943
35059
35157
35222
35271
35305
35328
35354
35369
35368
35362
35352
35336
35312
35276
35230
35176
35116
35042
34959
34877
34802
34727
34641
34547
34457
34367
34270
34168
34056
33938
33828
33727
33630
33528
33415
33286
33154
33034
32927
32833
32745
32662
32583
32500
32411
32319
32229
32143
32059
31984
31918
31851
31787
31731
31679
31619
31550
31488
31440
31407
31382
31350
31303
31244
31173
31100
31035
30983
30945
30914
30877
30824
30757
30694
30640
30598
30572
30554
30543
30559
30615
30719
30891
31142
31475
31872
32312
32794
33315
33866
34439
35015
35577
36127
36674
37212
37723
38181
38576
38913
39185
39407
39603
39762
39869
39934
39959
39947
39914
39868
39793
39671
39520
39364
39211
39045
38851
38645
38435
38224
38016
37810
37609
37415
37224
37026
36816
36603
36390
36183
35983
35794
35615
35443
35283
35140
35016
34905
34803
34728
34693
34689
34714
34766
34827
34886
34945
35010
35084
35166
35257
35357
35457
35552
35651
35751
35845
35930
35995
36032
36041
36021
35984
35944
35896
35843
35802
35766
35719
35653
35558
35442
35321
35206
35096
34990
34897
34809
34704
34590
34467
34330
34199
34077
33955
33832
33706
33575
33447
33327
33214
33099
32994
32902
32812
32727
32651
32584
32527
32471
32405
32324
32231
32137
32058
31997
31951
31915
31882
31848
31806
31746
31675
31601
31526
31454
31383
31316
31255
31197
31142
31094
31051
31016
30996
31000
31042
31135
31282
31486
31747
32064
32442
32886
33380
33908
34464
35042
35623
36184
36711
37198
37642
38040
38390
38692
38955
39186
39392
39565
39689
39760
39783
39761
39705
39630
39523
39381
39227
39064
38885
38694
38493
38292
38087
37864
37625
37390
37162
36919
36661
36405
36157
35921
35693
35475
35268
35075
34890
34718
34561
34425
34303
34185
34082
34001
33945
33911
33905
33937
34007
34097
34192
34290
34399
34517
34636
34748
34846
34935
35021
35095
35163
35236
35308
35366
35402
35414
35406
35391
35377
35357
35323
35280
35236
35187
35132
35063
34969
34860
34752
34649
34553
34458
34348
34220
34090
33965
33851
33749
33649
33553
33460
33358
33244
33128
33013
32898
32793
32707
32639
32583
32528
32472
32406
32327
32252
32180
32101
32016
31931
31850
31771
31687
31608
31526
31431
31336
31255
31199
31170
31160
31166
31196
31263
31374
31532
31737
32001
32336
32743
33213
33727
34269
34825
35386
35946
36501
37048
37582
38086
38539
38939
39292
39600
39853
40052
40207
40317
40395
40447
40466
40461
40436
40378
40290
40170
40016
39836
39637
39422
39194
38955
38707
38462
38229
38001
37774
37554
37336
37109
36868
36619
36374
36150
35948
35765
35596
35441
35302
35178
35066
34962
34876
34830
34817
34817
34823
34845
34879
34927
34985
35048
35125
35220
35323
35422
35517
35605
35689
35768
35836
35893
35944
35984
36009
36022
36023
36006
35971
35919
35857
35789
35711
35627
35542
35454
35363
35257
35136
35014
34896
34782
34675
34575
34473
34367
34256
34145
34034
33921
33817
33728
33652
33571
33477
33386
33309
33238
33162
33082
33000
32916
32825
32730
32638
32558
32488
32415
32339
32266
32196
32126
32053
31970
31879
31791
31715
31643
31573
31507
31451
31414
31388
31361
31333
31305
31278
31258
31260
31293
31370
31503
31709
31993
32346
32764
33244
33781
34365
34979
35614
36259
36901
37537
38160
38751
39314
39842
40317
40732
41080
41364
41598
41784
41918
42005
42049
42061
42043
41989
41897
41777
41632
41468
41287
41078
40835
40582
40341
40100
39862
39643
39441
39259
39082
38887
38684
38479
38272
38064
37849
37636
37437
37262
37108
36966
36834
36720
36629
36555
36493
36449
36420
36402
36392
36393
36415
36465
36542
36633
36721
36809
36900
36989
37063
37122
37179
37239
37295
37343
37377
37397
37399
37381
37342
37296
37255
37218
37175
37123
37059
36965
36843
36717
36615
36532
36441
36325
36202
36090
35984
35888
35806
35731
35636
35518
35400
35274
35138
35012
34899
34775
34632
34489
34366
34276
34215
34166
34096
34001
33908
33820
33722
33613
33517
33444
33375
33306
33256
33220
33182
33129
33065
33011
32967
32907
32832
32764
32694
32604
32498
32393
32303
32226
32164
32122
32092
32073
32078
32097
32128
32186
32282
32429
32643
32923
33268
33677
34136
34629
35155
35726
36346
36988
37621
38227
38804
39353
39872
40339
40736
41079
41379
41634
41834
41975
42065
42118
42137
42118
42054
41952
41820
41662
41478
41280
41078
40858
40627
40406
40199
40010
39842
39678
39505
39328
39152
38972
38774
38546
38293
38032
37777
37545
37333
37136
36962
36810
36673
36542
36416
36312
36242
36216
36227
36246
36269
36317
36387
36453
36513
36570
36614
36656
36721
36813
36907
36975
37021
37076
37141
37183
37197
37206
37206
37184
37141
37081
37004
36898
36768
36633
36509
36409
36325
36233
36126
36022
35921
35819
35722
35632
35540
35446
35353
35247
35126
35001
34879
34759
34636
34504
34372
34249
34124
33996
33871
33746
33617
33492
33386
33292
33202
33119
33038
32957
32876
32800
32735
32673
32608
32544
32478
32421
32367
32303
32237
32183
32146
32114
32077
32035
31986
31923
31852
31776
31691
31600
31508
31420
31344
31285
31232
31181
31151
31154
31176
31210
31271
31387
31565
31797
32093
32456
32881
33352
33857
34394
34962
35555
36155
36738
37298
37835
38350
38835
39266
39624
39921
40163
40347
40482
40573
40627
40662
40673
40640
40560
40438
40282
40107
39924
39730
39526
39313
39088
38846
38588
38337
38106
37886
37665
37443
37220
37001
36777
36542
36309
36088
35874
35670
35485
35319
35177
35055
34954
34867
34780
34689
34611
34568
34572
34610
34661
34720
34789
34874
34981
35100
35222
35342
35455
35553
35637
35710
35778
35831
35859
35868
35861
35837
35803
35767
35739
35720
35696
35651
35581
35492
35390
35290
35201
35113
35018
34913
34798
34675
34547
34429
34325
34225
34123
34012
33879
33734
33591
33452
33326
33214
33116
33027
32949
32875
32798
32720
32647
32573
32494
32412
32330
32245
32158
32074
31989
31902
31815
31737
31669
31610
31572
31548
31518
31475
31425
31368
31305
31240
31169
31097
31036
30977
30912
30849
30797
30762
30741
30745
30789
30874
30999
31178
31420
31719
32073
32482
32945
33459
34008
34566
35116
35644
36148
36630
37089
37518
37913
38264
38562
38808
39008
39167
39289
39375
39415
39397
39337
39254
39150
39033
38902
38753
38586
38405
38215
38018
37817
37616
37413
37203
36982
36755
36521
36274
36024
35780
35546
35326
35108
34895
34694
34502
34322
34167
34050
33960
33880
33806
33749
33726
33737
33770
33804
33840
33889
33944
33997
34059
34134
34219
34315
34415
34506
34582
34649
34709
34767
34823
34883
34932
34954
34946
34922
34884
34823
34743
34658
34565
34465
34369
34281
34195
34109
34016
33920
33821
33705
33572
33437
33306
33183
33072
32974
32903
32848
32784
32716
32640
32541
32426
32303
32182
32074
31980
31894
31814
31736
31664
31606
31556
31493
31412
31331
31257
31184
31112
31049
30999
30950
30894
30836
30770
30687
30602
30526
30457
30397
30341
30283
30230
30185
30162
30195
30308
30491
30726
31000
31306
31657
32062
32516
33007
33525
34075
34660
35258
35844
36397
36915
37403
37853
38262
38628
38949
39216
39419
39558
39629
39639
39614
39567
39502
39424
39333
39222
39090
38939
38767
38570
38353
38125
37888
37642
37407
37202
37009
36804
36587
36369
36152
35932
35706
35481
35270
35080
34905
34736
34577
34427
34284
34162
34070
34005
33958
33929
33920
33940
33980
34028
34081
34141
34213
34298
34385
34455
34509
34563
34626
34696
34757
34802
34831
34853
34868
34871
34873
34877
34880
34880
34872
34848
34800
34723
34637
34558
34488
34418
34335
34240
34134
34022
33905
33785
33663
33547
33438
33331
33218
33100
32989
32890
32794
32690
32577
32467
32363
32260
32169
32094
32019
31946
31883
31828
31774
31714
31649
31588
31530
31471
31410
31352
31306
31269
31230
31195
31161
31118
31063
31000
30936
30872
30808
30749
30698
30654
30620
30600
30592
30577
30548
30519
30506
30528
30608
30757
30964
31216
31516
31882
32320
32805
33323
33879
34469
35073
35680
36285
36878
37453
38005
38524
38983
39373
39698
39954
40143
40278
40372
40434
40462
40457
40431
40384
40307
40200
40062
39900
39726
39536
39328
39114
38910
38717
38528
38345
38168
37990
37803
37608
37407
37207
37009
36818
36641
36474
36305
36134
35972
35828
35699
35578
35471
35395
35341
35301
35284
35278
35283
35306
35338
35385
35453
35533
35618
35699
35775
35849
35920
35982
36034
36073
36104
36131
36157
36170
36160
36142
36122
36095
36058
36012
35963
35915
35863
35800
35727
35651
35573
35483
35382
35286
35199
35106
35005
34903
34800
34690
34575
34464
34353
34245
34148
34052
33947
33840
33734
33623
33509
33404
33312
33221
33125
33033
32951
32871
32790
32709
32629
32560
32508
32462
32414
32365
32312
32249
32173
32083
31992
31901
31821
31760
31700
31631
31563
31503
31447
31390
31343
31316
31294
31276
31276
31287
31313
31379
31502
31687
31933
32236
32599
33013
33471
33966
34484
35021
35574
36131
36681
37212
37719
38200
38642
39034
39380
39676
39910
40089
40216
40299
40350
40381
40385
40350
40280
40196
40097
39962
39790
39592
39383
39169
38951
38733
38518
38307
38100
37897
37695
37506
37323
37123
36904
36681
36462
36245
36047
35871
35708
35561
35440
35348
35271
35198
35136
35089
35047
35008
34983
34981
35003
35040
35085
35139
35200
35260
35322
35392
35464
35517
35548
35583
35623
35653
35679
35703
35727
35741
35733
35712
35681
35627
35555
35479
35408
35336
35256
35164
35066
34966
34857
34742
34633
34527
34409
34275
34142
34017
33895
33772
33652
33534
33420
33316
33218
33119
33024
32931
32829
32723
32625
32520
32403
32289
32191
32107
32024
31933
31843
31761
31686
31615
31546
31481
31432
31386
31324
31247
31162
31082
31015
30950
30876
30796
30714
30637
30571
30513
30458
30399
30332
30259
30181
30105
30052
30039
30061
30114
30209
30363
30579
30853
31179
31547
31947
32373
32819
33281
33755
34236
34718
35187
35644
36076
36463
36809
37114
37383
37614
37796
37918
37983
38009
38007
37970
37908
37823
37705
37549
37379
37225
37075
36905
36719
36528
36326
36116
35908
35707
35511
35314
35122
34935
34755
34567
34362
34162
33975
33781
33585
33398
33220
33061
32937
32835
32748
32686
32638
32604
32603
32635
32681
32738
32813
32890
32963
33044
33146
33256
33348
33412
33447
33464
33487
33522
33558
33586
33607
33621
33621
33604
33574
33541
33513
33480
33434
33385
33332
33270
33201
33125
33040
32947
32851
32759
32667
32576
32491
32409
32307
32188
32074
31978
31898
31815
31717
31604
31482
31365
31260
31163
31072
30992
30911
30826
30749
30683
30623
30577
30534
30482
30423
30358
30289
30216
30145
30078
30012
29938
29862
29799
29748
29703
29659
29611
29560
29514
29480
29455
29442
29444
29464
29519
29624
29775
29968
30198
30465
30773
31124
31519
31954
32414
32884
33354
33809
34246
34658
35037
35384
35700
35995
36263
36491
36675
36809
36888
36917
36908
36871
36809
36728
36633
36528
36413
36273
36107
35928
35740
35547
35356
35163
34972
34782
34582
34368
34148
33934
33731
33536
33342
33157
32979
32811
32667
32552
32452
32365
32296
32246
32223
32225
32235
32250
32258
32259
32268
32294
32331
32372
32422
32489
32565
32641
32713
32783
32849
32912
32971
33024
33062
33078
33085
33084
33069
33047
33022
32994
32950
32884
32809
32738
32670
32605
32547
32492
32428
32352
32271
32189
32097
32005
31921
31835
31742
31645
31543
31440
31340
31253
31178
31107
31033
30953
30872
30786
30701
30618
30539
30475
30421
30365
30308
30244
30161
30067
29974
29887
29810
29734
29654
29579
29518
29472
29431
29401
29393
29412
29466
29554
29675
29846
30078
30372
30719
31109
31531
31972
32430
32901
33375
33841
34298
34740
35147
35508
35832
36122
36367
36569
36743
36894
37020
37116
37177
37194
37161
37074
36950
36813
36663
36499
36325
36140
35949
35757
35560
35357
35149
34937
34730
34530
34330
34125
33914
33708
33521
33347
33179
33012
32844
32679
32528
32400
32283
32175
32080
32004
31948
31909
31898
31908
31927
31964
32026
32095
32161
32231
32306
32384
32472
32569
32650
32706
32744
32777
32803
32816
32822
32838
32868
32893
32899
32893
32880
32862
32833
32793
32747
32683
32588
32476
32363
32263
32183
32116
32048
31970
31887
31800
31706
31618
31542
31470
31402
31337
31262
31183
31108
31030
30946
30854
30761
30678
30609
30556
30513
30468
30418
30367
30320
30278
30235
30180
30122
30071
30027
29984
29934
29868
29798
29741
29691
29643
29606
29587
29589
29620
29686
29785
29920
30117
30404
30781
31232
31732
32268
32837
33441
34064
34681
35280
35855
36395
36892
37338
37731
38074
38367
38614
38816
38972
39086
39150
39156
39114
39035
38927
38796
38644
38483
38322
38165
38011
37853
37690
37518
37329
37123
36912
36707
36510
36321
36143
35964
35779
35591
35406
35222
35044
34883
34737
34607
34494
34399
34329
34278
34225
34172
34127
34092
34066
34050
34051
34076
34123
34188
34260
34341
34440
34553
34665
34766
34852
34918
34967
35005
35026
35022
35009
34998
34979
34951
34914
34871
34827
34777
34718
34659
34607
34555
34488
34400
34307
34220
34129
34022
33907
33804
33714
33619
33512
33409
33319
33232
33133
33023
32916
32819
32723
32630
32547
32470
32395
32320
32240
32152
32056
31963
31879
31802
31735
31682
31639
31601
31561
31510
31447
31375
31297
31213
31118
31025
30949
30883
30818
30766
30736
30725
30721
30731
30770
30843
30957
31122
31340
31611
31939
32325
32760
33238
33754
34304
34880
35460
36034
36602
37155
37675
38147
38571
38956
39293
39570
39786
39936
40034
40092
40105
40081
40031
39960
39867
39750
39603
39426
39234
39038
38837
38638
38441
38244
38048
37852
37658
37460
37246
37024
36812
36617
36435
36260
36097
35952
35822
35698
35579
35484
35412
35340
35272
35220
35176
35135
35099
35073
35058
35053
35055
35072
35110
35158
35213
35273
35340
35418
35499
35576
35647
35709
35756
35792
35816
35825
35826
35826
35818
35799
35772
35734
35679
35616
35556
35489
35406
35317
35223
35130
35044
34966
34892
34820
34743
34660
34579
34500
34417
34329
34230
34120
34017
33930
33853
33776
33692
33607
33510
33398
33284
33159
33009
32843
32694
32570
32463
32379
32327
32287
32225
32136
32040
31959
31900
31848
31799
31768
31745
31705
31644
31571
31492
31413
31345
31303
31285
31268
31219
31140
31069
31033
31027
31030
31049
31114
31235
31415
31670
32006
32414
32873
33359
33862
34376
34900
35436
35966
36480
36993
37498
37956
38344
38682
38981
39230
39428
39576
39672
39715
39708
39668
39605
39524
39417
39275
39117
38959
38801
38635
38457
38268
38067
37846
37613
37386
37166
36956
36758
36560
36356
36147
35926
35691
35455
35236
35047
34896
34781
34688
34599
34514
34439
34377
34321
34264
34210
34173
34160
34173
34204
34241
34291
34364
34460
34550
34620
34684
34758
34839
34910
34968
35022
35060
35074
35075
35068
35049
35013
34960
34907
34855
34798
34735
34657
34573
34495
34414
34332
34254
34172
34083
33985
33883
33781
33682
33585
33483
33372
33258
33155
33061
32969
32871
32766
32664
32567
32473
32378
32282
32193
32107
32016
31926
31844
31770
31704
31638
31566
31497
31435
31385
31341
31298
31261
31219
31168
31104
31019
30927
30842
30771
30713
30659
30608
30554
30497
30448
30416
30399
30401
30430
30497
30602
30739
30922
31163
31469
31843
32273
32746
33251
33780
34314
34832
35336
35823
36285
36728
37139
37517
37856
38141
38370
38538
38652
38733
38771
38763
38729
38678
38595
38474
38334
38189
38029
37852
37675
37494
37296
37085
36868
36644
36412
36177
35945
35719
35497
35278
35069
34867
34665
34461
34262
34079
33914
33765
33632
33528
33445
33361
33271
33192
33142
33129
33147
33186
33243
33317
33409
33518
33630
33749
33877
34005
34127
34235
34323
34393
34444
34473
34488
34499
34506
34504
34493
34478
34464
34441
34393
34319
34236
34156
34078
34001
33921
33823
33719
33624
33539
33455
33361
33257
33142
33023
32912
32814
32726
32643
32562
32474
32372
32260
32149
32049
31961
31881
31808
31737
31663
31588
31514
31446
31375
31300
31217
31129
31041
30957
30877
30800
30726
30646
30559
30481
30424
30384
30359
30350
30353
30373
30421
30514
30657
30849
31095
31406
31777
32191
32637
33118
33629
34152
34670
35179
35669
36132
36569
36961
37299
37592
37844
38053
38206
38311
38381
38414
38399
38346
38268
38172
38061
37939
37805
37656
37489
37310
37121
36924
36722
36520
36316
36100
35878
35656
35429
35188
34939
34704
34512
34357
34212
34066
33916
33786
33679
33564
33444
33340
33261
33215
33184
33162
33163
33183
33221
33267
33319
33392
33490
33607
33722
33829
33939
34051
34150
34219
34259
34296
34329
34352
34374
34393
34405
34421
34442
34445
34410
34351
34289
34226
34152
34067
33979
33889
33782
33656
33529
33415
33312
33207
33094
32984
32894
32824
32763
32707
32658
32593
32499
32398
32312
32250
32197
32146
32112
32089
32057
32005
31934
31852
31767
31687
31613
31527
31409
31275
31147
31024
30913
30806
30700
30610
30535
30473
30422
30393
30406
30469
30575
30726
30948
31263
31664
32130
32639
33174
33720
34270
34844
35453
36074
36673
37231
37740
38195
38598
38951
39250
39494
39684
39830
39946
40035
40097
40139
40142
40091
39998
39879
39740
39585
39430
39284
39129
38941
38732
38520
38293
38048
37816
37611
37418
37225
37031
36838
36645
36448
36247
36063
35917
35799
35692
35582
35470
35365
35274
35200
35142
35116
35119
35130
35152
35193
35250
35311
35364
35408
35468
35551
35643
35748
35849
35925
35976
36011
36050
36104
36170
36234
36277
36286
36265
36223
36170
36112
36044
35953
35849
35751
35662
35592
35538
35473
35383
35278
35183
35091
34992
34898
34813
34725
34619
34496
34377
34273
34188
34121
34052
33974
33893
33817
33746
33675
33609
33549
33502
33474
33453
33421
33371
33305
33231
33154
33071
32990
32916
32846
32772
32701
32638
32577
32518
32458
32394
32341
32320
32349
32430
32552
32702
32889
33128
33440
33819
34242
34706
35215
35762
36338
36929
37520
38105
38681
39236
39760
40237
40648
41008
41324
41574
41752
41878
41968
42028
42057
42036
41965
41855
41721
41581
41438
41285
41114
40925
40735
40549
40365
40172
39962
39743
39524
39314
39124
38949
38776
38596
38410
38228
38048
37867
37691
37542
37418
37304
37203
37131
37084
37042
37006
36986
36979
36982
37001
37041
37096
37157
37217
37278
37352
37436
37508
37571
37634
37686
37726
37766
37800
37828
37857
37889
37916
37921
37903
37874
37824
37746
37654
37550
37430
37307
37193
37081
36972
36871
36767
36651
36541
36435
36324
36215
36111
36001
35878
35755
35634
35502
35372
35267
35180
35091
34991
34891
34802
34717
34623
34518
34406
34293
34186
34090
34003
33924
33854
33788
33720
33651
33588
33539
33504
33467
33422
33373
33317
33248
33181
33126
33064
32982
32894
32816
32763
32739
32720
32687
32641
32586
32528
32494
32505
32572
32704
32901
33155
33476
33872
34331
34838
35387
35975
36574
37155
37717
38259
38773
39244
39679
40077
40425
40732
40994
41204
41356
41456
41521
41555
41549
41493
41391
41266
41133
40992
40845
40687
40506
40310
40113
39914
39710
39518
39340
39158
38967
38768
38565
38381
38226
38077
37919
37751
37584
37437
37311
37195
37088
36991
36905
36828
36763
36719
36694
36683
36690
36717
36766
36827
36892
36972
37075
37186
37291
37397
37505
37603
37691
37777
37849
37898
37930
37953
37968
37970
37965
37956
37936
37899
37846
37784
37713
37636
37552
37456
37343
37224
37114
37010
36903
36791
36679
36575
36487
36412
36342
36272
36189
36098
36013
35925
35809
35673
35544
35424
35302
35181
35071
34965
34865
34772
34696
34639
34587
34526
34454
34380
34317
34265
34211
34165
34124
34080
34043
34010
33974
33935
33885
33828
33774
33719
33659
33599
33539
33489
33445
33402
33360
33316
33269
33219
33161
33109
33095
33123
33183
33286
33438
33639
33896
34213
34586
35002
35453
35947
36473
37019
37574
38130
38674
39183
39649
40063
40425
40746
41027
41258
41437
41558
41614
41619
41591
41537
41457
41351
41222
41066
40887
40701
40525
40363
40199
40019
39835
39646
39453
39263
39074
38884
38702
38529
38352
38176
38006
37836
37658
37473
37298
37146
37010
36884
36768
36672
36600
36549
36507
36466
36436
36433
36461
36515
36590
36679
36779
36891
37008
37110
37192
37275
37366
37445
37499
37531
37547
37556
37559
37545
37517
37495
37473
37426
37354
37270
37181
37079
36977
36887
36801
36716
36628
36526
36409
36295
36205
36134
36071
36011
35946
35859
35748
35613
35465
35327
35208
35105
35002
34897
34810
34733
34661
34606
34562
34516
34467
34417
34367
34321
34277
34228
34179
34140
34108
34070
34028
33992
33955
33911
33852
33779
33706
33641
33589
33550
33517
33485
33455
33431
33420
33431
33487
33604
33782
34010
34281
34597
34966
35391
35870
36393
36955
37546
38144
38730
39295
39828
40320
40757
41134
41454
41716
41923
42078
42181
42245
42279
42279
42242
42181
42103
42002
41876
41728
41560
41385
41206
41016
40818
40610
40382
40153
39939
39734
39535
39341
39138
38926
38709
38495
38286
38078
37881
37709
37562
37435
37323
37224
37145
37093
37066
37054
37055
37072
37103
37145
37201
37266
37346
37449
37567
37687
37803
37906
37990
38074
38161
38222
38248
38258
38273
38302
38338
38360
38369
38384
38406
38419
38413
38382
38309
38197
38069
37938
37800
37658
37524
37398
37276
37162
37057
36964
36882
36794
36692
36582
36467
36348
36224
36098
35980
35877
35780
35679
35574
35467
35361
35260
35167
35081
35001
34915
34830
34767
34716
34658
34607
34576
34552
34521
34479
34436
34398
34357
34309
34264
34228
34195
34147
34084
34024
33969
33911
33844
33778
33727
33685
33641
33589
33523
33453
33391
33336
33289
33260
33262
33303
33396
33553
33786
34096
34474
34916
35429
36004
36607
37222
37863
38530
39213
39894
40551
41155
41694
42180
42603
42955
43236
43456
43626
43743
43808
43827
43808
43745
43644
43532
43419
43305
43174
43014
42838
42671
42516
42370
42232
42094
41942
41777
41607
41428
41227
41003
40769
40540
40339
40175
40039
39919
39809
39701
39592
39487
39391
39312
39250
39203
39176
39179
39205
39240
39270
39298
39353
39431
39517
39618
39724
39827
39911
39972
40025
40080
40135
40186
40233
40273
40300
40303
40272
40214
40143
40073
40004
39929
39844
39740
39632
39554
39505
39457
39393
39317
39232
39128
38985
38814
38650
38505
38373
38259
38161
38056
37939
37824
37712
37613
37537
37456
37345
37203
37053
36915
36789
36670
36555
36442
36339
36253
36179
36111
36043
35983
35931
35880
35815
35737
35673
35631
35598
35566
35536
35510
35489
35464
35426
35366
35281
35188
35105
35036
34982
34937
34895
34856
34819
34777
34734
34685
34622
34558
34514
34501
34517
34579
34698
34872
35097
35383
35752
36207
36729
37298
37900
38523
39151
39776
40399
41010
41581
42106
42589
43020
43391
43703
43971
44199
44366
44467
44521
44538
44514
44456
44380
44294
44193
44073
43932
43768
43596
43420
43231
43030
42825
42617
42412
42231
42086
41950
41781
41582
41381
41195
41028
40878
40737
40579
40400
40226
40069
39927
39798
39681
39578
39491
39430
39407
39414
39433
39468
39524
39589
39641
39677
39712
39749
39791
39842
39886
39929
39997
40070
40126
40169
40196
40192
40171
40164
40164
40132
40072
40007
39926
39824
39702
39559
39411
39285
39170
39049
38924
38805
38710
38634
38543
38422
38283
38135
37987
37840
37694
37546
37410
37299
37204
37115
37018
36906
36785
36654
36516
36385
36278
36194
36112
36019
35930
35858
35791
35723
35656
35584
35500
35419
35352
35289
35227
35157
35074
34987
34906
34836
34774
34723
34691
34680
34671
34659
34649
34647
34637
34605
34563
34519
34475
34433
34379
34306
34226
34147
34063
33969
33872
33792
33731
33688
33674
33701
33787
33938
34156
34435
34763
35154
35610
36112
36654
37239
37843
38438
39020
39595
40160
40686
41141
41534
41885
42195
42460
42681
42864
43002
43076
43092
43076
43043
42982
42869
42717
42560
42397
42226
42053
41869
41672
41462
41230
40982
40731
40483
40243
40014
39804
39619
39447
39269
39078
38882
38696
38528
38380
38260
38154
38043
37924
37811
37715
37647
37602
37577
37567
37566
37583
37637
37720
37804
37882
37971
38086
38220
38358
38476
38565
38644
38704
38730
38737
38738
38733
38718
38694
38657
38606
38539
38465
38388
38295
38177
38051
37938
37833
37730
37630
37517
37378
37232
37113
37036
36995
36963
36926
36872
36795
36705
36592
36442
36281
36131
35978
35827
35713
35646
35593
35518
35431
35364
35316
35264
35201
35126
35042
34946
34854
34778
34708
34639
34587
34541
34488
34433
34379
34319
34260
34193
34111
34036
33991
33962
33927
33884
33844
33809
33774
33735
33688
33633
33572
33507
33452
33422
33432
33505
33644
33831
34068
34360
34703
35094
35528
35996
36492
37009
37534
38076
38635
39185
39690
40133
40513
40823
41064
41254
41402
41516
41600
41654
41673
41661
41625
41558
41450
41325
41190
41045
40897
40740
40565
40372
40164
39962
39774
39572
39356
39159
38987
38830
38684
38530
38349
38143
37922
37698
37488
37297
37125
36974
36845
36739
36655
36588
36532
36495
36474
36464
36482
36535
36601
36672
36756
36844
36932
37024
37118
37201
37277
37359
37441
37517
37585
37636
37666
37675
37673
37658
37628
37586
37541
37485
37421
37351
37259
37152
37052
36949
36844
36755
36669
36568
36454
36335
36211
36091
35969
35839
35711
35581
35452
35327
35207
35092
34969
34835
34706
34613
34552
34489
34410
34337
34284
34241
34196
34128
34026
33909
33816
33750
33680
33585
33476
33376
33283
33189
33111
33069
33050
33020
32979
32958
32962
32974
32988
33011
33056
33160
33333
33557
33818
34125
34488
34901
35368
35885
36424
36977
37547
38104
38635
39136
39597
40008
40370
40693
40979
41227
41431
41589
41700
41764
41776
41745
41686
41609
41512
41400
41279
41143
40981
40793
40597
40404
40212
40015
39812
39609
39417
39228
39027
38818
38608
38400
38193
37990
37800
37631
37479
37339
37217
37108
36987
36853
36735
36657
36619
36607
36607
36639
36717
36826
36937
37026
37095
37169
37241
37288
37334
37414
37517
37612
37707
37819
37938
38039
38114
38159
38184
38184
38151
38095
38043
38007
37975
37927
37865
37795
37718
37624
37511
37382
37233
37065
36888
36719
36584
36490
36420
36352
36274
36193
36114
36025
35930
35838
35748
35659
35567
35469
35371
35277
35180
35089
35007
34918
34823
34733
34646
34560
34474
34397
34338
34297
34271
34247
34214
34171
34115
34043
33966
33896
33837
33785
33746
33726
33702
33647
33569
33482
33392
33310
33251
33210
33192
33202
33241
33317
33441
33623
33867
34175
34551
35003
35517
36079
36690
37328
37975
38626
39282
39936
40571
41178
41754
42288
42773
43197
43556
43863
44117
44319
44464
44552
44593
44594
44561
44498
44417
44331
44233
44125
44004
43858
43690
43500
43283
43051
42819
42600
42398
42207
42024
41855
41705
41571
41429
41255
41068
40894
40732
40573
40421
40278
40143
40013
39901
39818
39761
39735
39737
39753
39778
39815
39866
39928
40000
40077
40153
40231
40309
40386
40463
40538
40611
40692
40783
40883
40964
40996
40991
40989
40991
40976
40938
40876
40794
40698
40601
40528
40470
40402
40328
40235
40102
39949
39812
39693
39566
39431
39306
39180
39043
38912
38804
38719
38636
38529
38399
38264
38135
38014
37903
37794
37673
37539
37413
37324
37277
37250
37217
37165
37097
37028
36974
36928
36870
36779
36668
36576
36515
36473
36444
36423
36392
36335
36265
36196
36139
36083
36010
35934
35875
35814
35741
35668
35615
35571
35515
35443
35379
35354
35384
35471
35633
35892
36239
36660
37156
37718
38321
38959
39638
40346
41063
41762
42416
43018
43568
44066
44523
44936
45289
45580
45803
45957
46060
46127
46155
46141
46099
46041
45959
45857
45740
45597
45428
45242
45034
44806
44573
44351
44136
43910
43683
43462
43250
43046
42844
42633
42422
42231
42048
41861
41682
41513
41352
41206
41078
40969
40886
40811
40726
40636
40559
40501
40465
40448
40449
40470
40519
40600
40693
40780
40874
40982
41084
41170
41239
41292
41324
41336
41338
41336
41317
41284
41255
41231
41209
41190
41169
41139
41095
41025
40923
40801
40681
40571
40475
40388
40303
40215
40114
39991
39859
39729
39602
39496
39402
39296
39188
39095
39014
38929
38821
38689
38557
38432
38296
38153
38015
37891
37788
37707
37642
37580
37506
37427
37350
37273
37193
37115
37043
36975
36903
36823
36746
36680
36626
36579
36539
36503
36467
36435
36410
36383
36350
36314
36276
36239
36204
36181
36164
36149
36129
36099
36068
36043
36029
36023
36025
36040
36083
36163
36275
36426
36629
36891
37211
37581
38010
38512
39076
39686
40334
41015
41724
42431
43106
43738
44328
44879
45389
45866
46309
46696
47007
47249
47436
47565
47640
47673
47680
47671
47644
47594
47516
47405
47253
47068
46869
46669
46472
46286
46103
45910
45714
45525
45335
45135
44929
44720
44505
44284
44071
43875
43685
43496
43322
43163
43003
42841
42695
42572
42478
42415
42378
42361
42364
42386
42426
42488
42568
42661
42759
42845
42930
43036
43159
43279
43378
43446
43480
43493
43494
43481
43463
43460
43467
43454
43413
43341
43235
43098
42941
42782
42626
42484
42363
42250
42143
42033
41913
41789
41662
41517
41350
41178
41003
40826
40659
40503
40353
40211
40080
39955
39823
39678
39529
39383
39249
39129
39010
38882
38761
38660
38569
38479
38387
38304
38228
38156
38089
38028
37982
37949
37916
37880
37839
37792
37738
37673
37594
37511
37436
37355
37265
37172
37074
36977
36884
36797
36731
36700
36715
36776
36881
37033
37238
37514
37862
38270
38736
39258
39821
40412
41016
41622
42207
42756
43271
43746
44168
44532
44849
45126
45352
45521
45649
45738
45778
45772
45725
45640
45534
45414
45267
45083
44873
44640
44389
44139
43904
43679
43456
43237
43018
42788
42540
42283
42026
41772
41526
41295
41074
40853
40629
40413
40210
40019
39842
39681
39535
39406
39301
39217
39153
39108
39077
39061
39073
39110
39162
39232
39318
39417
39523
39628
39734
39836
39927
40004
40070
40129
40179
40211
40224
40224
40217
40206
40176
40114
40049
39991
39929
39867
39799
39716
39626
39529
39413
39274
39125
38986
38857
38733
38609
38493
38388
38284
38174
38058
37934
37814
37704
37593
37480
37363
37234
37102
36982
36885
36798
36705
36612
36523
36432
36358
36294
36217
36121
36014
35905
35807
35723
35647
35577
35505
35415
35315
35226
35152
35087
35041
35019
35025
35076
35185
35364
35619
35933
36286
36685
37130
37628
38183
38775
39390
40026
40670
41294
41878
42421
42921
43369
43766
44129
44460
44754
44983
45129
45220
45287
45328
45331
45297
45228
45127
44995
44830
44641
44431
44201
43967
43752
43547
43331
43093
42844
42604
42371
42138
41910
41692
41468
41229
40986
40746
40508
40272
40046
39851
39686
39531
39395
39291
39212
39153
39121
39118
39139
39171
39214
39272
39334
39395
39466
39548
39638
39742
39854
39971
40087
40184
40256
40321
40392
40446
40465
40464
40466
40468
40450
40405
40343
40279
40223
40181
40148
40097
40015
39928
39840
39734
39618
39492
39343
39175
39011
38851
38679
38504
38343
38203
38082
37970
37871
37790
37718
37646
37556
37445
37328
37210
37099
36996
36899
36808
36721
36636
36555
36483
36417
36346
36268
36189
36113
36035
35960
35879
35792
35711
35634
35564
35509
35461
35413
35359
35302
35247
35192
35133
35075
35024
34986
34975
35003
35074
35205
35407
35674
36006
36403
36857
37368
37937
38564
39234
39908
40575
41246
41904
42509
43053
43552
44005
44408
44780
45116
45377
45565
45718
45840
45912
45930
45902
45839
45736
45602
45454
45302
45156
45014
44863
44706
44547
44371
44154
43900
43627
43354
43097
42859
42628
42396
42163
41929
41709
41516
41336
41153
40973
40807
40662
40542
40442
40355
40281
40230
40196
40150
40085
40020
39987
39999
40040
40097
40163
40229
40301
40372
40444
40526
40604
40662
40708
40744
40754
40729
40681
40625
40560
40487
40418
40364
40317
40267
40225
40196
40165
40123
40058
39955
39823
39686
39548
39418
39300
39182
39053
38913
38765
38613
38461
38316
38184
38066
37952
37829
37703
37581
37463
37345
37229
37123
37033
36959
36882
36800
36709
36605
36509
36422
36328
36229
36127
36025
35929
35856
35811
35781
35759
35737
35692
35632
35573
35512
35450
35386
35307
35212
35109
35009
34911
34815
34733
34672
34638
34634
34668
34755
34901
35109
35387
35735
36154
36633
37162
37752
38402
39082
39769
40449
41114
41753
42357
42905
43389
43823
44205
44532
44809
45026
45172
45266
45325
45360
45376
45365
45318
45229
45103
44951
44782
44606
44424
44223
44001
43764
43514
43265
43034
42819
42606
42383
42152
41919
41684
41454
41233
41011
40780
40544
40306
40069
39853
39688
39564
39452
39355
39281
39220
39160
39102
39066
39057
39065
39085
39120
39166
39212
39268
39348
39433
39502
39556
39609
39672
39736
39798
39872
39952
40011
40041
40058
40062
40041
39989
39906
39807
39705
39597
39487
39392
39319
39249
39168
39081
38990
38885
38773
38659
38540
38420
38303
38189
38064
37932
37799
37658
37510
37370
37242
37124
37011
36895
36768
36639
36509
36368
36226
36109
36027
35956
35876
35787
35701
35610
35507
35407
35315
35229
35150
35078
35013
34953
34891
34812
34715
34616
34521
34432
34357
34300
34251
34195
34128
34063
34005
33949
33899
33852
33806
33771
33766
33807
33903
34056
34277
34571
34935
35356
35815
36313
36849
37416
38006
38611
39225
39834
40430
40999
41525
42016
42466
42859
43198
43487
43712
43867
43956
43980
43949
43884
43808
43712
43583
43426
43247
43045
42816
42568
42317
42070
41827
41595
41366
41137
40911
40681
40448
40226
40017
39817
39623
39427
39219
39000
38789
38595
38414
38245
38090
37960
37847
37746
37663
37607
37590
37603
37640
37702
37777
37860
37956
38063
38180
38306
38442
38580
38709
38831
38938
39015
39070
39120
39182
39247
39295
39324
39350
39372
39375
39346
39285
39211
39137
39051
38950
38845
38732
38612
38490
38359
38224
38097
37976
37851
37723
37592
37459
37335
37222
37118
37012
36901
36797
36698
36595
36484
36374
36263
36149
36044
35958
35878
35796
35719
35648
35577
35501
35422
35342
35258
35174
35088
34995
34899
34798
34697
34605
34521
34450
34410
34399
34409
34442
34517
34652
34849
35114
35448
35841
36285
36774
37299
37858
38444
39054
39676
40272
40821
41335
41814
42236
42593
42894
43140
43332
43494
43646
43765
43826
43826
43786
43727
43641
43501
43310
43091
42857
42619
42394
42181
41969
41766
41569
41360
41129
40880
40620
40345
40065
39807
39570
39324
39068
38814
38569
38341
38150
37994
37846
37690
37535
37407
37313
37246
37207
37209
37257
37340
37427
37501
37568
37633
37695
37760
37834
37915
37999
38080
38157
38229
38290
38348
38424
38502
38553
38575
38563
38533
38504
38465
38402
38322
38240
38180
38138
38083
38011
37935
37851
37748
37630
37508
37376
37226
37063
36902
36767
36667
36591
36522
36438
36345
36270
36220
36174
36111
36048
35988
35913
35825
35727
35619
35507
35399
35303
35228
35163
35095
35016
34926
34843
34779
34731
34694
34650
34579
34487
34401
34338
34286
34227
34169
34121
34077
34027
33965
33904
33871
33874
33894
33939
34036
34207
34448
34754
35132
35572
36070
36649
37315
38039
38781
39515
40225
40908
41570
42195
42765
43290
43767
44182
44539
44850
45116
45327
45484
45586
45628
45622
45581
45506
45383
45216
45033
44844
44648
44452
44248
44032
43810
43582
43355
43139
42929
42709
42481
42249
42018
41789
41560
41337
41130
40930
40725
40520
40329
40145
39959
39775
39602
39452
39327
39230
39163
39122
39109
39122
39151
39191
39248
39328
39433
39553
39681
39806
39924
40041
40144
40226
40291
40343
40384
40404
40390
40359
40340
40337
40339
40329
40298
40249
40179
40081
39957
39830
39710
39593
39473
39345
39213
39088
38970
38853
38743
38646
38550
38439
38310
38179
38050
37914
37778
37649
37524
37393
37261
37137
37020
36909
36804
36704
36605
36512
36422
36324
36221
36120
36027
35938
35848
35770
35705
35636
35559
35502
35473
35456
35434
35390
35323
35246
35168
35088
35002
34917
34837
34762
34697
34644
34616
34639
34714
34836
35006
35233
35516
35843
36200
36592
37056
37611
38242
38927
39642
40361
41062
41718
42322
42880
43391
43850
44253
44591
44866
45085
45237
45336
45420
45480
45496
45462
45384
45272
45120
44942
44767
44580
44362
44124
43874
43620
43379
43152
42935
42714
42476
42229
41985
41764
41552
41326
41114
40911
40688
40458
40250
40075
39916
39748
39570
39405
39270
39163
39068
38978
38904
38865
38858
38877
38924
38992
39068
39156
39259
39361
39465
39581
39701
39814
39900
39962
40027
40111
40197
40259
40282
40277
40253
40204
40142
40094
40055
40017
39974
39906
39806
39701
39599
39486
39366
39236
39094
38943
38778
38611
38456
38316
38180
38050
37927
37801
37671
37548
37441
37343
37245
37151
37046
36921
36795
36680
36581
36496
36415
36326
36220
36101
35968
35830
35700
35584
35486
35405
35343
35290
35233
35178
35130
35075
35015
34970
34932
34883
34820
34755
34695
34639
34575
34490
34401
34354
34357
34396
34473
34621
34855
35167
35552
35991
36469
36996
37579
38195
38824
39457
40079
40674
41233
41754
42248
42704
43110
43456
43725
43914
44037
44112
44157
44195
44209
44166
44070
43943
43800
43656
43504
43316
43097
42881
42682
42490
42301
42095
41864
41625
41381
41137
40887
40624
40361
40100
39837
39584
39347
39134
38940
38750
38558
38376
38218
38077
37955
37870
37813
37781
37782
37801
37826
37856
37894
37944
38017
38128
38279
38443
38607
38780
38951
39091
39204
39315
39412
39476
39514
39537
39544
39535
39516
39488
39444
39390
39321
39237
39153
39070
38977
38885
38791
38680
38563
38448
38335
38225
38126
38042
37968
37897
37827
37752
37648
37501
37339
37200
37072
36934
36788
36635
36477
36328
36204
36098
35997
35909
35841
35793
35760
35720
35659
35576
35468
35331
35186
35070
34984
34898
34803
34713
34646
34605
34581
34577
34606
34667
34772
34938
35158
35435
35786
36204
36679
37204
37767
38353
38948
39540
40122
40688
41232
41738
42198
42617
42984
43287
43530
43717
43854
43936
43954
43931
43886
43826
43750
43648
43513
43353
43181
42996
42797
42591
42381
42166
41937
41695
41434
41161
40889
40629
40381
40147
39934
39736
39538
39332
39124
38920
38725
38549
38397
38273
38176
38096
38025
37962
37914
37888
37890
37919
37972
38053
38162
38300
38457
38609
38757
38900
39032
39145
39230
39291
39344
39396
39448
39507
39563
39605
39642
39675
39689
39676
39643
39591
39520
39425
39314
39196
39075
38952
38827
38688
38533
38381
38255
38139
38008
37870
37744
37639
37545
37447
37344
37238
37125
37016
36918
36830
36750
36673
36587
36496
36409
36330
36238
36124
36010
35906
35808
35715
35626
35541
35453
35348
35236
35132
35037
34950
34864
34783
34719
34681
34671
34691
34755
34875
35057
35319
35665
36085
36568
37101
37680
38300
38955
39619
40275
40909
41512
42074
42586
43049
43466
43834
44146
44406
44610
44756
44853
44904
44904
44863
44794
44696
44573
44437
44287
44111
43912
43710
43508
43299
43082
42858
42625
42398
42182
41968
41745
41509
41278
41075
40895
40710
40518
40330
40144
39959
39790
39648
39530
39432
39350
39282
39239
39242
39284
39342
39414
39498
39580
39650
39720
39800
39882
39974
40086
40202
40315
40429
40547
40661
40752
40815
40855
40871
40864
40836
40794
40744
40680
40607
40540
40488
40449
40401
40327
40231
40130
40030
39925
39805
39668
39526
39390
39260
39124
38973
38816
38673
38554
38452
38353
38255
38153
38048
37945
37843
37737
37632
37533
37434
37330
37230
37145
37065
36975
36880
36798
36744
36714
36714
36759
36864
37036
37271
37570
37944
38395
38914
39490
40103
40734
41379
42025
42661
43287
43881
44416
44893
45315
45678
45988
46251
46459
46615
46733
46817
46871
46885
46853
46782
46673
46531
46357
46151
45927
45697
45464
45227
44993
44777
44570
44355
44139
43927
43708
43473
43227
42973
42712
42462
42243
42058
41906
41789
41709
41651
41584
41497
41408
41340
41294
41274
41277
41281
41266
41245
41253
41303
41394
41517
41647
41766
41865
41949
42025
42082
42124
42169
42208
42224
42225
42222
42210
42184
42150
42109
42060
42005
41949
41887
41820
41751
41668
41579
41483
41377
41272
41161
41032
40899
40778
40662
40548
40428
40295
40161
40032
39899
39757
39619
39496
39392
39301
39220
39144
39061
38967
38868
38773
38681
38584
38478
38373
38287
38224
38172
38132
38124
38167
38262
38421
38657
38977
39376
39851
40397
41003
41648
42310
42972
43633
44287
44917
45504
46038
46516
46935
47296
47606
47867
48070
48221
48329
48398
48432
48418
48357
48255
48113
47943
47762
47562
47341
47108
46868
46620
46373
46136
45905
45671
45436
45201
44971
44763
44578
44399
44218
44027
43825
43623
43435
43263
43105
42965
42848
42754
42684
42647
42633
42623
42630
42660
42711
42786
42874
42961
43045
43141
43247
43349
43445
43540
43630
43701
43747
43772
43777
43757
43716
43662
43600
43542
43512
43504
43497
43482
43448
43384
43288
43165
43026
42881
42742
42619
42503
42385
42266
42150
42037
41918
41793
41671
41561
41452
41336
41218
41098
40981
40861
40741
40630
40527
40415
40293
40176
40074
39998
39951
39913
39861
39793
39715
39617
39500
39379
39270
39172
39074
38979
38904
38845
38800
38788
38823
38918
39078
39299
39589
39952
40383
40881
41445
42059
42703
43365
44026
44666
45269
45826
46328
46783
47213
47606
47928
48169
48342
48456
48529
48582
48605
48590
48544
48453
48316
48148
47963
47766
47561
47351
47132
46904
46666
46421
46172
45923
45679
45434
45178
44926
44702
44502
44310
44126
43947
43766
43584
43398
43222
43075
42960
42871
42795
42725
42682
42676
42696
42750
42832
42925
43016
43100
43189
43288
43393
43504
43618
43726
43817
43889
43949
43992
44007
44006
44006
44000
43984
43963
43930
43880
43823
43766
43697
43611
43516
43414
43300
43178
43049
42911
42767
42620
42480
42349
42218
42083
41936
41780
41635
41508
41395
41289
41189
41094
41002
40910
40818
40734
40652
40557
40455
40362
40286
40211
40123
40037
39962
39882
39810
39755
39695
39621
39538
39450
39360
39272
39186
39105
39024
38952
38905
38869
38822
38773
38738
38734
38784
38897
39066
39297
39600
39972
40405
40895
41424
41968
42512
43061
43619
44170
44701
45208
45679
46098
46460
46764
47007
47198
47342
47434
47478
47480
47447
47387
47301
47194
47060
46884
46677
46462
46249
46038
45825
45606
45380
45144
44903
44662
44408
44144
43897
43679
43480
43291
43102
42903
42692
42479
42291
42144
42031
41942
41873
41827
41809
41812
41815
41813
41814
41830
41880
41964
42066
42166
42259
42347
42435
42517
42589
42656
42719
42772
42814
42845
42865
42879
42883
42869
42842
42813
42777
42723
42653
42567
42468
42362
42253
42140
42023
41901
41786
41693
41612
41521
41409
41272
41112
40945
40790
40656
40536
40421
40304
40183
40054
39929
39818
39712
39616
39537
39459
39380
39301
39217
39128
39035
38942
38853
38761
38666
38572
38479
38386
38296
38219
38161
38117
38082
38053
38023
37990
37961
37931
37891
37846
37803
37754
37700
37648
37600
37557
37505
37431
37351
37286
37227
37170
37116
37055
36992
36934
36884
36839
36802
36790
36804
36849
36941
37093
37303
37567
37904
38325
38810
39339
39910
40517
41148
41792
42431
43043
43613
44129
44590
45013
45394
45707
45935
46087
46182
46243
46281
46297
46294
46261
46193
46111
46035
45960
45864
45742
45597
45428
45238
45041
44841
44636
44439
44252
44055
43838
43618
43418
43236
43059
42888
42714
42544
42393
42263
42141
42030
41940
41859
41777
41712
41669
41637
41613
41601
41609
41649
41708
41774
41847
41930
42017
42102
42182
42257
42328
42395
42455
42504
42538
42556
42567
42572
42561
42534
42485
42419
42346
42268
42179
42080
41983
41896
41816
41738
41658
41566
41457
41329
41196
41073
40954
40841
40745
40658
40559
40434
40287
40128
39965
39805
39656
39523
39409
39301
39193
39103
39029
38955
38873
38783
38690
38603
38524
38442
38358
38281
38212
38147
38091
38038
37983
37920
37852
37791
37738
37691
37653
37625
37588
37541
37496
37446
37387
37322
37254
37195
37146
37102
37058
37001
36935
36882
36844
36809
36770
36720
36658
36579
36491
36405
36316
36224
36135
36051
35967
35881
35801
35730
35668
35616
35575
35552
35566
35631
35744
35908
36137
36426
36758
37142
37591
38103
38667
39270
39887
40495
41086
41648
42166
42639
43072
43459
43786
44056
44283
44460
44581
44647
44665
44653
44627
44579
44495
44388
44283
44174
44042
43872
43673
43473
43286
43109
42931
42743
42549
42356
42161
41956
41742
41531
41343
41175
41007
40826
40655
40506
40369
40237
40105
39974
39859
39769
39705
39668
39643
39630
39634
39655
39689
39735
39793
39861
39940
40022
40093
40158
40229
40302
40365
40414
40447
40465
40474
40472
40460
40443
40425
40397
40351
40291
40231
40169
40107
40045
39975
39896
39808
39708
39602
39500
39408
39318
39224
39129
39030
38915
38795
38686
38580
38461
38331
38200
38070
37939
37814
37704
37612
37519
37413
37312
37217
37119
37027
36951
36885
36823
36758
36686
36615
36563
36533
36515
36503
36476
36416
36331
36231
36127
36015
35896
35792
35703
35619
35546
35481
35415
35352
35303
35261
35219
35175
35133
35098
35062
35017
34969
34925
34885
34844
34798
34750
34703
34660
34623
34589
34563
34555
34571
34620
34712
34860
35066
35327
35645
36019
36447
36924
37442
37986
38534
39066
39572
40053
40505
40920
41292
41614
41875
42066
42199
42289
42343
42362
42353
42321
42262
42180
42074
41935
41763
41577
41390
41203
41007
40792
40570
40366
40175
39978
39784
39602
39429
39253
39070
38892
38720
38543
38368
38208
38058
37922
37812
37714
37609
37502
37405
37325
37278
37266
37284
37324
37371
37422
37477
37536
37607
37688
37773
37865
37962
38054
38131
38188
38223
38244
38260
38278
38289
38280
38254
38219
38177
38122
38058
38004
37956
37905
37847
37786
37724
37658
37588
37521
37454
37377
37288
37191
37092
36992
36883
36771
36666
36568
36466
36363
36269
36181
36087
35987
35891
35807
35731
35658
35581
35501
35423
35347
35273
35203
35141
35085
35028
34976
34929
34885
34844
34809
34781
34745
34695
34641
34596
34559
34524
34492
34471
34445
34398
34331
34256
34180
34100
34016
33941
33883
33843
33820
33813
33836
33910
34040
34222
34459
34755
35102
35492
35924
36398
36910
37448
37991
38529
39051
39542
40006
40446
40846
41199
41494
41734
41929
42069
42158
42211
42233
42224
42189
42130
42052
41960
41848
41712
41555
41381
41197
41005
40812
40621
40434
40252
40070
39890
39714
39531
39331
39126
38927
38731
38544
38372
38214
38072
37943
37828
37726
37637
37565
37504
37452
37418
37400
37388
37378
37374
37381
37400
37440
37494
37553
37628
37721
37829
37944
38048
38133
38205
38272
38338
38402
38461
38501
38506
38481
38446
38408
38358
38301
38251
38203
38137
38044
37937
37834
37732
37630
37531
37432
37322
37196
37059
36918
36790
36692
36619
36557
36491
36418
36333
36238
36144
36046
35935
35829
35737
35651
35564
35474
35376
35271
35169
35081
35009
34942
34882
34824
34753
34667
34584
34519
34475
34449
34430
34395
34340
34278
34216
34152
34094
34044
34001
33956
33903
33839
33768
33703
33653
33615
33571
33508
33426
33336
33252
33185
33142
33120
33120
33162
33275
33459
33697
33997
34372
34811
35285
35778
36296
36835
37381
37926
38462
38994
39515
39997
40424
40806
41148
41435
41668
41870
42041
42169
42250
42283
42269
42212
42122
42016
41902
41783
41653
41510
41346
41166
40984
40799
40598
40386
40181
39989
39802
39604
39399
39206
39022
38850
38695
38547
38404
38261
38121
37989
37866
37750
37642
37554
37492
37451
37429
37427
37432
37438
37444
37449
37460
37488
37538
37602
37680
37769
37862
37955
38039
38113
38181
38239
38293
38348
38396
38428
38444
38441
38415
38376
38345
38314
38268
38211
38139
38046
37950
37858
37757
37658
37578
37512
37443
37351
37233
37094
36952
36818
36701
36596
36490
36383
36273
36160
36052
35943
35843
35757
35670
35573
35470
35367
35271
35184
35103
35031
34970
34908
34837
34764
34690
34617
34550
34481
34414
34355
34307
34264
34220
34179
34137
34082
34021
33965
33907
33847
33792
33730
33655
33585
33526
33466
33402
33334
33270
33214
33161
33100
33036
32997
32996
33040
33134
33281
33492
33766
34092
34459
34869
35322
35813
36341
36891
37453
38015
38565
39093
39591
40060
40494
40880
41207
41463
41654
41802
41917
41995
42042
42049
42018
41963
41891
41802
41697
41569
41413
41232
41038
40841
40651
40469
40297
40126
39943
39745
39542
39349
39173
38999
38809
38607
38403
38204
38013
37835
37665
37500
37345
37207
37095
37008
36940
36878
36820
36775
36758
36774
36821
36894
36981
37077
37179
37274
37362
37450
37535
37623
37718
37811
37896
37977
38052
38106
38130
38126
38104
38076
38039
37994
37947
37896
37839
37775
37696
37602
37508
37415
37313
37198
37073
36953
36849
36754
36648
36535
36425
36305
36169
36046
35945
35850
35763
35676
35583
35493
35397
35296
35214
35149
35076
34986
34880
34765
34652
34551
34468
34402
34343
34294
34250
34199
34141
34088
34050
34022
33990
33947
33900
33854
33812
33776
33738
33693
33638
33572
33500
33421
33343
33265
33185
33106
33027
32953
32901
32886
32906
32944
33009
33124
33276
33456
33693
34013
34408
34862
35349
35848
36358
36879
37405
37926
38432
38920
39381
39807
40191
40519
40789
41006
41171
41283
41345
41374
41386
41377
41330
41233
41094
40926
40744
40556
40359
40154
39939
39723
39519
39318
39113
38914
38728
38547
38356
38155
37947
37738
37537
37350
37179
37013
36848
36695
36551
36419
36300
36195
36105
36024
35944
35879
35851
35858
35886
35934
35998
36075
36161
36257
36359
36463
36574
36696
36816
36924
37015
37094
37167
37221
37242
37245
37243
37247
37247
37229
37202
37170
37132
37086
37028
36956
36871
36778
36676
36564
36448
36334
36235
36143
36035
35916
35803
35692
35574
35452
35340
35245
35153
35057
34967
34888
34813
34743
34675
34612
34549
34483
34422
34367
34307
34240
34165
34082
33994
33903
33817
33745
33688
33634
33572
33502
33435
33381
33329
33280
33249
33246
33279
33356
33485
33670
33909
34193
34516
34893
35329
35807
36313
36842
37387
37933
38471
38990
39475
39919
40325
40684
40985
41227
41413
41545
41635
41688
41701
41672
41594
41473
41330
41186
41035
40866
40689
40513
40340
40166
39979
39780
39580
39386
39191
38991
38790
38596
38400
38192
37980
37771
37566
37370
37189
37014
36858
36730
36605
36480
36372
36284
36223
36187
36167
36170
36206
36271
36357
36451
36545
36647
36754
36862
36969
37067
37153
37225
37285
37329
37361
37394
37411
37396
37366
37344
37332
37319
37296
37262
37210
37140
37064
36990
36916
36834
36748
36660
36562
36456
36352
36257
36168
36074
35985
35905
35829
35756
35678
35581
35472
35369
35280
35202
35124
35045
34968
34891
34824
34758
34680
34596
34513
34436
34367
34303
34243
34180
34112
34041
33974
33911
33848
33786
33710
33629
33560
33497
33434
33378
33333
33305
33300
33327
33396
33502
33654
33873
34164
34525
34953
35441
35979
36558
37169
37803
38455
39097
39715
40321
40909
41457
41953
42392
42764
43062
43295
43476
43607
43686
43715
43701
43650
43573
43471
43342
43189
43025
42858
42691
42514
42336
42171
42019
41871
41721
41557
41369
41167
40969
40781
40604
40430
40250
40060
39870
39687
39507
39353
39237
39144
39059
38997
38975
38981
38997
39007
39006
39014
39040
39077
39133
39205
39290
39389
39496
39600
39693
39774
39851
39919
39957
39969
39980
39999
40019
40040
40055
40052
40035
40006
39962
39899
39812
39705
39590
39471
39353
39241
39133
39029
38932
38848
38767
38680
38587
38484
38360
38233
38114
37987
37848
37713
37601
37496
37385
37287
37211
37137
37056
36980
36896
36806
36722
36639
36559
36485
36414
36344
36266
36173
36074
35982
35907
35852
35807
35778
35781
35820
35894
35998
36142
36335
36583
36896
37281
37748
38294
38885
39495
40130
40781
41432
42076
42689
43260
43787
44264
44684
45050
45358
45609
45805
45947
46031
46070
46076
46048
45982
45883
45757
45603
45417
45207
44995
44794
44609
44437
44268
44092
43908
43716
43518
43328
43153
42975
42776
42561
42336
42110
41903
41734
41592
41460
41349
41255
41157
41061
40972
40896
40830
40778
40752
40755
40790
40850
40915
40978
41050
41142
41255
41379
41501
41615
41723
41828
41918
41984
42036
42074
42095
42108
42119
42120
42105
42068
42008
41933
41846
41739
41619
41499
41372
41243
41124
41020
40926
40840
40763
40693
40617
40519
40410
40307
40197
40075
39961
39855
39738
39614
39508
39425
39336
39238
39138
39039
38951
38856
38751
38646
38540
38448
38376
38310
38253
38208
38187
38210
38283
38413
38601
38850
39166
39552
40016
40552
41145
41782
42447
43113
43757
44383
45005
45608
46165
46664
47110
47498
47814
48058
48239
48367
48454
48509
48538
48536
48500
48433
48343
48231
48108
47969
47806
47627
47441
47251
47050
46834
46612
46395
46176
45945
45703
45460
45226
45009
44810
44628
44450
44272
44103
43946
43796
43655
43534
43433
43350
43287
43252
43233
43221
43237
43293
43370
43448
43524
43590
43640
43694
43759
43823
43897
43993
44092
44179
44244
44276
44282
44279
44264
44232
44188
44144
44101
44042
43960
43862
43749
43628
43519
43417
43322
43233
43131
43011
42882
42735
42583
42455
42362
42277
42179
42080
41982
41874
41764
41652
41529
41403
41288
41182
41081
40979
40879
40784
40690
40597
40508
40402
40271
40137
40017
39913
39817
39728
39650
39575
39500
39430
39368
39327
39334
39398
39509
39680
39929
40254
40659
41133
41662
42235
42838
43463
44111
44772
45417
46031
46605
47131
47605
48023
48384
48688
48925
49082
49174
49219
49221
49191
49127
49020
48878
48717
48546
48369
48179
47984
47791
47588
47368
47129
46871
46619
46391
46174
45956
45734
45500
45258
45022
44796
44582
44387
44213
44059
43925
43802
43679
43561
43451
43355
43283
43234
43212
43227
43274
43334
43393
43454
43530
43628
43745
43875
44009
44137
44243
44331
44415
44490
44550
44608
44658
44694
44711
44694
44642
44565
44472
44381
44291
44197
44097
43990
43880
43768
43661
43554
43441
43330
43219
43102
42974
42843
42716
42591
42468
42352
42228
42087
41942
41809
41697
41599
41502
41394
41288
41197
41114
41033
40943
40844
40754
40682
40617
40559
40506
40451
40382
40308
40238
40168
40098
40032
39969
39903
39835
39769
39700
39622
39538
39454
39388
39344
39308
39287
39303
39375
39505
39679
39902
40190
40544
40960
41447
42001
42598
43210
43820
44427
45026
45600
46123
46590
47008
47392
47743
48039
48271
48429
48516
48548
48540
48503
48430
48322
48184
48016
47826
47623
47402
47154
46890
46630
46380
46139
45905
45677
45455
45234
45018
44800
44584
44372
44155
43949
43771
43612
43454
43294
43135
42981
42842
42722
42637
42590
42559
42540
42544
42580
42655
42760
42887
43022
43139
43233
43316
43401
43491
43579
43657
43722
43787
43859
43922
43961
43984
43995
43995
43979
43939
43867
43773
43673
43574
43472
43356
43227
43092
42953
42813
42673
42528
42384
42243
42095
41951
41832
41743
41671
41600
41524
41440
41344
41242
41133
41009
40869
40724
40598
40490
40377
40262
40170
40105
40054
40003
39946
39882
39809
39728
39642
39552
39460
39368
39273
39176
39078
38983
38908
38871
38881
38937
39034
39175
39368
39619
39930
40308
40749
41230
41739
42274
42829
43390
43928
44428
44897
45350
45777
46158
46489
46782
47033
47235
47377
47434
47421
47386
47338
47251
47124
46986
46848
46682
46476
46241
45987
45718
45458
45238
45045
44839
44614
44367
44086
43789
43497
43214
42938
42673
42425
42192
41967
41753
41558
41380
41225
41099
40999
40921
40867
40848
40870
40913
40954
41010
41087
41164
41230
41302
41393
41478
41544
41615
41688
41729
41737
41733
41728
41740
41760
41778
41787
41765
41721
41678
41639
41599
41559
41518
41457
41367
41265
41161
41053
40936
40819
40702
40576
40450
40333
40220
40105
39989
39881
39770
39638
39502
39396
39314
39232
39132
39013
38890
38766
38639
38510
38393
38291
38187
38082
37992
37913
37836
37756
37671
37585
37510
37444
37367
37287
37227
37178
37126
37075
37025
36981
36935
36873
36787
36681
36573
36479
36399
36324
36259
36218
36216
36265
36370
36530
36752
37041
37404
37849
38367
38949
39580
40238
40927
41634
42321
42969
43568
44112
44596
45019
45399
45737
46023
46251
46424
46560
46662
46731
46776
46785
46751
46684
46597
46496
46373
46223
46045
45839
45613
45368
45107
44848
44608
44378
44139
43896
43673
43478
43290
43106
42937
42770
42610
42468
42336
42215
42098
41980
41859
41737
41630
41548
41490
41463
41465
41483
41519
41573
41650
41750
41877
42023
42167
42302
42434
42549
42643
42724
42792
42841
42871
42894
42915
42930
42939
42942
42940
42928
42899
42842
42754
42653
42566
42497
42438
42376
42306
42234
42154
42063
41951
41812
41655
41490
41328
41167
41003
40835
40657
40475
40304
40160
40041
39935
39854
39790
39729
39671
39605
39523
39432
39341
39248
39151
39050
38947
38857
38785
38720
38658
38593
38529
38483
38448
38405
38350
38292
38234
38170
38100
38028
37956
37882
37812
37748
37677
37603
37559
37554
37574
37617
37700
37835
38018
38258
38561
38936
39389
39913
40494
41120
41778
42448
43103
43719
44280
44789
45259
45676
46028
46319
46556
46744
46880
46965
47025
47068
47076
47039
46953
46823
46655
46457
46249
46044
45837
45632
45430
45226
45032
44851
44672
44480
44257
44011
43774
43556
43343
43127
42907
42682
42454
42222
41985
41765
41581
41425
41284
41162
41069
41008
40973
40949
40934
40939
40983
41085
41228
41384
41544
41697
41827
41930
42020
42116
42214
42299
42363
42410
42448
42483
42507
42518
42521
42520
42516
42503
42474
42421
42342
42253
42158
42047
41924
41798
41672
41534
41387
41250
41118
40976
40823
40670
40525
40394
40277
40170
40062
39949
39834
39718
39598
39476
39359
39254
39158
39065
38977
38894
38814
38737
38660
38597
38554
38511
38457
38390
38311
38232
38162
38095
38023
37936
37832
37723
37616
37514
37425
37351
37286
37225
37169
37123
37096
37102
37148
37232
37361
37544
37779
38072
38432
38852
39328
39860
40429
41010
41592
42168
42721
43250
43758
44234
44662
45034
45358
45640
45874
46045
46151
46211
46232
46204
46129
46020
45879
45708
45528
45344
45161
44993
44827
44638
44426
44206
43983
43750
43501
43248
43003
42770
42545
42315
42076
41839
41608
41392
41191
41008
40845
40698
40566
40454
40376
40310
40244
40200
40185
40189
40203
40224
40258
40313
40386
40459
40534
40621
40715
40797
40861
40920
40984
41050
41112
41161
41193
41203
41197
41179
41139
41062
40960
40858
40764
40674
40595
40527
40457
40376
40290
40196
40081
39946
39805
39670
39534
39398
39270
39147
39013
38877
38746
38614
38479
38342
38211
38091
37973
37843
37710
37586
37465
37347
37237
37136
37051
36988
36941
36896
36840
36779
36721
36660
36587
36506
36430
36364
36309
36269
36235
36194
36144
36086
36020
35948
35873
35794
35706
35613
35531
35463
35412
35387
35390
35437
35539
35693
35896
36155
36483
36894
37380
37930
38532
39175
39843
40514
41179
41829
42454
43057
43626
44143
44602
44993
45319
45580
45766
45886
45958
45984
45963
45897
45791
45655
45501
45344
45196
45052
44886
44676
44427
44168
43925
43699
43489
43297
43119
42950
42777
42589
42379
42154
41931
41721
41521
41321
41122
40926
40738
40566
40413
40284
40191
40118
40057
40015
39988
39975
39982
40006
40051
40113
40186
40282
40399
40517
40621
40715
40798
40873
40943
41003
41049
41075
41087
41089
41083
41066
41035
40990
40937
40879
40818
40750
40665
40561
40444
40324
40201
40077
39955
39825
39688
39549
39410
39274
39146
39022
38893
38761
38633
38509
38383
38252
38119
37984
37857
37743
37638
37534
37428
37333
37257
37188
37102
36990
36867
36754
36666
36591
36508
36425
36369
36326
36272
36214
36166
36128
36089
36048
36012
35976
35932
35884
35829
35770
35717
35660
35586
35514
35452
35395
35340
35285
35236
35209
35220
35272
35373
35530
35743
36019
36369
36783
37253
37776
38348
38956
39584
40223
40867
41505
42118
42688
43203
43661
44076
44445
44757
45016
45236
45408
45527
45605
45647
45642
45585
45491
45372
45225
45057
44876
44692
44498
44290
44076
43861
43633
43393
43153
42915
42692
42492
42299
42101
41904
41711
41536
41378
41213
41036
40860
40689
40532
40396
40268
40151
40059
39990
39942
39920
39917
39922
39935
39967
40018
40074
40128
40188
40252
40314
40380
40452
40539
40629
40710
40775
40827
40878
40915
40924
40908
40866
40806
40736
40661
40583
40492
40368
40217
40074
39950
39832
39720
39613
39496
39368
39238
39113
38990
38867
38750
38640
38536
38418
38285
38149
38009
37863
37717
37586
37460
37332
37210
37094
36991
36903
36813
36719
36638
36557
36467
36382
36300
36206
36102
36002
35913
35841
35786
35727
35660
35592
35527
35483
35445
35396
35347
35295
35241
35188
35127
35050
34959
34858
34768
34691
34604
34501
34406
34333
34286
34261
34261
34281
34318
34395
34528
34717
34959
35256
35621
36049
36521
37033
37580
38156
38752
39349
39934
40503
41044
41543
42001
42422
42811
43146
43400
43580
43704
43787
43847
43883
43878
43823
43721
43581
43402
43183
42935
42667
42397
42145
41900
41650
41399
41146
40892
40647
40419
40212
40019
39835
39657
39486
39326
39172
39015
38852
38687
38537
38409
38297
38185
38081
38004
37937
37864
37793
37750
37747
37769
37811
37880
37974
38075
38170
38258
38339
38422
38510
38599
38680
38748
38806
38861
38913
38954
38960
38937
38910
38881
38855
38831
38786
38709
38606
38497
38391
38280
38180
38104
38036
37959
37874
37782
37680
37567
37445
37316
37190
37067
36936
36800
36669
36536
36398
36262
36134
36023
35925
35834
35747
35655
35553
35455
35376
35305
35228
35150
35079
35011
34942
34883
34827
34764
34707
34664
34629
34584
34529
34470
34406
34328
34248
34182
34127
34071
34013
33957
33907
33857
33800
33741
33696
33673
33662
33659
33683
33753
33873
34049
34295
34616
34999
35433
35921
36459
37028
37608
38180
38719
39220
39681
40093
40467
40810
41116
41386
41620
41814
41954
42039
42079
42078
42039
41968
41875
41764
41645
41521
41375
41197
40987
40768
40550
40329
40110
39889
39662
39432
39197
38952
38699
38440
38185
37948
37736
37541
37355
37173
37001
36847
36718
36602
36498
36412
36347
36311
36307
36327
36362
36403
36446
36492
36547
36615
36697
36782
36865
36953
37049
37152
37248
37334
37412
37484
37553
37608
37637
37656
37680
37696
37692
37670
37631
37571
37492
37408
37327
37245
37153
37056
36956
36844
36717
36582
36439
36296
36162
36036
35916
35804
35696
35586
35484
35395
35304
35211
35121
35029
34932
34839
34755
34683
34616
34536
34446
34351
34258
34172
34093
34014
33932
33845
33745
33630
33520
33413
33300
33196
33120
33073
33040
33013
32997
32997
33028
33105
33236
33426
33674
33981
34341
34749
35208
35721
36280
36862
37451
38046
38639
39206
39723
40188
40602
40965
41284
41564
41804
41992
42124
42204
42230
42216
42177
42114
42027
41914
41782
41631
41457
41269
41077
40878
40674
40465
40253
40035
39810
39582
39358
39139
38913
38683
38456
38228
38006
37801
37615
37445
37298
37166
37035
36910
36797
36693
36608
36556
36540
36547
36566
36596
36635
36687
36761
36855
36958
37054
37143
37235
37326
37417
37505
37582
37656
37718
37763
37801
37829
37846
37853
37840
37811
37773
37724
37670
37619
37571
37526
37474
37403
37309
37200
37088
36976
36866
36755
36639
36532
36435
36337
36233
36130
36035
35943
35846
35743
35635
35518
35391
35272
35162
35045
34923
34819
34742
34667
34581
34496
34423
34355
34285
34210
34133
34064
34001
33934
33866
33802
33732
33648
33560
33476
33392
33315
33252
33209
33189
33198
33248
33354
33525
33766
34087
34482
34940
35452
36012
36604
37216
37847
38490
39132
39767
40378
40942
41448
41895
42275
42605
42893
43129
43304
43407
43446
43441
43393
43306
43186
43044
42894
42733
42548
42326
42076
41817
41546
41258
40962
40672
40401
40149
39914
39692
39464
39230
39011
38819
38646
38472
38297
38127
37962
37804
37653
37514
37391
37281
37189
37118
37059
36997
36933
36890
36878
36898
36962
37069
37198
37335
37474
37618
37764
37899
38015
38103
38164
38218
38287
38369
38445
38491
38510
38516
38503
38474
38435
38387
38331
38264
38178
38067
37944
37832
37737
37647
37555
37467
37380
37277
37155
37026
36907
36792
36669
36545
36429
36305
36160
36016
35892
35780
35675
35580
35493
35420
35355
35284
35199
35100
35012
34935
34854
34779
34725
34682
34628
34551
34458
34363
34264
34165
34078
34001
33925
33851
33776
33700
33626
33570
33533
33523
33557
33636
33753
33909
34112
34379
34723
35147
35645
36196
36779
37383
38005
38639
39260
39852
40424
40968
41467
41916
42317
42668
42978
43237
43434
43584
43690
43739
43724
43658
43553
43413
43249
43073
42888
42698
42507
42307
42088
41857
41624
41384
41137
40890
40649
40421
40211
40012
39801
39565
39322
39084
38864
38672
38493
38325
38174
38026
37885
37765
37661
37570
37507
37477
37480
37513
37564
37623
37688
37762
37848
37956
38083
38219
38356
38485
38598
38701
38791
38865
38927
38984
39034
39064
39070
39061
39039
39003
38956
38908
38855
38800
38754
38701
38634
38556
38469
38376
38272
38154
38037
37928
37817
37707
37608
37508
37392
37260
37128
37012
36906
36795
36674
36541
36401
36266
36147
36039
35940
35860
35795
35734
35674
35609
35538
35471
35406
35336
35271
35212
35143
35062
34981
34913
34856
34800
34735
34658
34586
34521
34454
34392
34337
34290
34267
34276
34322
34417
34576
34790
35061
35401
35798
36244
36737
37276
37858
38459
39064
39670
40260
40826
41360
41854
42295
42674
43009
43311
43575
43791
43941
44015
44021
43971
43881
43760
43617
43459
43282
43086
42886
42688
42487
42269
42038
41809
41581
41360
41148
40930
40705
40474
40238
40006
39770
39528
39288
39049
38811
38576
38360
38180
38041
37936
37857
37801
37761
37736
37721
37718
37730
37771
37844
37940
38058
38204
38361
38516
38669
38809
38924
39017
39106
39181
39235
39277
39304
39312
39303
39272
39233
39205
39183
39163
39141
39106
39047
38954
38831
38693
38555
38433
38323
38215
38098
37969
37833
37698
37562
37426
37310
37223
37140
37052
36961
36854
36728
36604
36493
36393
36307
36223
36127
36025
35933
35852
35772
35687
35600
35514
35430
35348
35260
35157
35050
34965
34908
34879
34866
34867
34906
34995
35130
35320
35577
35899
36270
36686
37152
37657
38187
38735
39287
39839
40385
40912
41410
41873
42288
42639
42938
43192
43389
43530
43633
43700
43720
43697
43641
43548
43421
43273
43115
42944
42759
42556
42332
42093
41835
41564
41305
41064
40827
40580
40321
40064
39825
39601
39371
39128
38879
38640
38422
38229
38055
37905
37780
37663
37557
37476
37430
37420
37425
37433
37463
37522
37600
37673
37729
37784
37853
37946
38050
38141
38212
38276
38337
38390
38424
38447
38492
38551
38600
38653
38711
38742
38718
38641
38550
38467
38397
38330
38248
38147
38026
37900
37796
37714
37638
37552
37445
37318
37189
37062
36931
36798
36668
36555
36470
36403
36336
36267
36200
36121
36016
35900
35796
35705
35614
35517
35427
35343
35251
35152
35047
34930
34813
34711
34619
34536
34470
34426
34402
34400
34428
34493
34616
34825
35131
35537
36039
36615
37255
37936
38622
39304
39978
40632
41261
41850
42390
42875
43298
43651
43941
44172
44348
44493
44625
44729
44794
44824
44816
44775
44711
44624
44508
44356
44172
43964
43752
43557
43376
43188
42983
42765
42550
42343
42131
41912
41687
41443
41180
40908
40642
40410
40215
40036
39870
39726
39601
39482
39367
39270
39206
39179
39175
39179
39189
39210
39253
39327
39427
39554
39704
39855
39988
40111
40220
40319
40417
40501
40575
40643
40697
40738
40754
40740
40700
40639
40579
40521
40458
40391
40314
40227
40132
40029
39917
39803
39693
39581
39473
39360
39228
39091
38968
38860
38757
38642
38507
38361
38221
38099
37988
37882
37780
37686
37601
37526
37457
37382
37298
37227
37178
37129
37062
36989
36919
36848
36777
36710
36648
36578
36500
36430
36363
36290
36230
36200
36199
36214
36243
36314
36449
36660
36960
37337
37782
38301
38889
39530
40207
40894
41584
42272
42950
43595
44189
44733
45237
45699
46102
46444
46725
46937
47081
47175
47232
47256
47246
47202
47126
47018
46878
46713
46527
46317
46100
45886
45664
45431
45197
44966
44734
44503
44275
44043
43803
43567
43345
43133
42926
42720
42523
42341
42177
42033
41897
41761
41634
41523
41430
41346
41273
41228
41213
41222
41250
41295
41364
41445
41534
41641
41765
41893
42013
42129
42244
42347
42433
42501
42547
42579
42601
42609
42603
42582
42549
42516
42483
42436
42372
42294
42201
42089
41959
41810
41651
41501
41366
41235
41107
40978
40842
40708
40581
40453
40319
40188
40064
39944
39821
39698
39582
39464
39338
39207
39072
38937
38804
38658
38503
38356
38229
38125
38025
37918
37813
37714
37627
37567
37516
37457
37397
37338
37272
37205
37138
37072
37001
36927
36874
36854
36850
36842
36853
36917
37043
37238
37510
37845
38242
38701
39213
39772
40359
40956
41567
42191
42814
43408
43943
44413
44841
45241
45610
45926
46179
46376
46536
46657
46725
46733
46692
46609
46493
46350
46181
45998
45795
45570
45328
45068
44809
44578
44373
44174
43976
43783
43590
43376
43139
42902
42682
42476
42278
42091
41933
41797
41658
41511
41367
41241
41143
41066
41004
40957
40931
40929
40946
40970
40997
41033
41079
41132
41192
41257
41331
41411
41501
41608
41723
41829
41908
41955
41989
42011
42013
42005
41992
41958
41898
41817
41720
41617
41522
41433
41347
41258
41162
41061
40951
40825
40682
40538
40396
40246
40093
39954
39831
39708
39579
39452
39329
39196
39052
38918
38801
38695
38604
38525
38450
38378
38295
38193
38086
37990
37898
37804
37722
37658
37600
37538
37477
37415
37345
37273
37199
37116
37038
36976
36920
36865
36808
36739
36663
36591
36515
36443
36389
36366
36382
36436
36532
36671
36858
37093
37379
37719
38113
38553
39030
39536
40067
40621
41177
41704
42194
42655
43088
43477
43817
44111
44351
44539
44687
44791
44836
44814
44726
44601
44468
44326
44164
43980
43785
43596
43409
43201
42964
42709
42446
42184
41919
41643
41371
41108
40835
40555
40290
40046
39812
39584
39376
39193
39016
38832
38656
38495
38341
38207
38103
38026
37968
37941
37955
37984
38005
38023
38037
38052
38082
38135
38215
38320
38431
38530
38609
38661
38685
38692
38693
38688
38681
38664
38632
38609
38597
38565
38499
38415
38317
38204
38084
37957
37826
37689
37539
37371
37194
37020
36856
36699
36552
36411
36267
36124
35994
35877
35760
35640
35515
35389
35268
35161
35067
34982
34912
34855
34804
34754
34700
34633
34558
34476
34386
34297
34222
34162
34103
34041
33986
33936
33880
33812
33734
33654
33578
33507
33431
33351
33281
33220
33164
33111
33079
33096
33162
33272
33426
33643
33937
34297
34715
35177
35669
36186
36722
37270
37824
38363
38880
39362
39804
40208
40569
40869
41112
41318
41481
41593
41663
41704
41712
41673
41584
41455
41298
41128
40956
40787
40627
40476
40321
40158
39983
39791
39587
39374
39145
38895
38637
38390
38156
37930
37713
37504
37307
37128
36976
36848
36739
36641
36552
36482
36435
36410
36404
36415
36450
36511
36589
36662
36728
36807
36885
36965
37072
37196
37309
37405
37486
37542
37572
37583
37591
37608
37629
37651
37667
37671
37670
37659
37622
37560
37483
37403
37322
37242
37161
37070
36963
36859
36758
36652
36555
36461
36355
36240
36129
36026
35929
35833
35727
35611
35495
35379
35264
35156
35058
34965
34883
34818
34763
34712
34649
34566
34483
34401
34317
34239
34171
34102
34031
33972
33933
33912
33891
33865
33838
33814
33791
33764
33728
33685
33638
33593
33544
33484
33413
33346
33286
33218
33138
33069
33027
33000
32975
32976
33018
33102
33234
33420
33666
33984
34374
34821
35321
35884
36496
37130
37776
38432
39101
39773
40420
41026
41596
42122
42580
42968
43285
43540
43746
43901
43999
44049
44061
44043
43996
43929
43845
43740
43615
43467
43294
43104
42909
42708
42498
42283
42065
41852
41639
41428
41223
41018
40815
40613
40414
40228
40051
39882
39718
39549
39367
39183
39023
38896
38795
38714
38646
38591
38563
38573
38613
38670
38736
38802
38864
38925
38984
39041
39100
39169
39246
39328
39413
39492
39562
39628
39681
39706
39707
39698
39676
39637
39587
39535
39483
39425
39366
39302
39217
39104
38972
38836
38705
38575
38443
38308
38173
38043
37913
37780
37643
37512
37384
37257
37126
36995
36870
36757
36650
36536
36426
36335
36258
36176
36097
36031
35963
35881
35793
35705
35608
35509
35426
35370
35330
35293
35259
35226
35194
35161
35127
35098
35069
35035
34999
34949
34879
34808
34746
34684
34628
34588
34567
34548
34518
34489
34479
34504
34573
34694
34882
35141
35476
35888
36364
36890
37470
38095
38735
39367
39980
40575
41140
41660
42142
42588
42991
43344
43648
43906
44121
44287
44404
44466
44464
44414
44337
44234
44091
43907
43695
43476
43250
43005
42744
42478
42211
41942
41674
41408
41145
40888
40641
40414
40200
39986
39773
39570
39372
39179
38995
38837
38713
38609
38516
38435
38365
38300
38252
38232
38228
38234
38250
38276
38311
38346
38389
38443
38500
38563
38624
38674
38728
38795
38869
38941
39013
39083
39134
39158
39162
39153
39151
39151
39132
39094
39047
38973
38871
38761
38653
38540
38416
38291
38165
38021
37865
37720
37589
37456
37320
37186
37050
36908
36769
36646
36536
36423
36304
36180
36050
35926
35824
35738
35649
35551
35455
35366
35282
35203
35126
35049
34968
34875
34775
34671
34561
34454
34361
34285
34222
34161
34090
34004
33913
33832
33771
33725
33684
33635
33575
33515
33463
33421
33393
33387
33416
33498
33635
33823
34063
34360
34725
35163
35660
36204
36789
37400
38012
38621
39223
39797
40329
40811
41233
41588
41890
42156
42377
42541
42665
42749
42768
42727
42664
42586
42485
42387
42284
42144
41953
41719
41468
41218
40969
40724
40484
40263
40058
39851
39641
39428
39211
38985
38761
38554
38351
38125
37892
37684
37494
37314
37157
37027
36912
36812
36740
36697
36683
36696
36719
36748
36787
36842
36909
36986
37070
37154
37243
37349
37468
37582
37669
37727
37769
37806
37843
37891
37941
37967
37962
37926
37859
37769
37675
37596
37532
37467
37389
37297
37195
37082
36961
36834
36698
36564
36439
36319
36204
36094
35986
