24131
23692
22952
24250
24218
23214
23584
24478
24206
23046
24226
24358
24174
23043
24460
24695
24191
23240
25017
24756
24156
23323
24776
24648
23011
24223
25005
24675
22953
24708
24869
24577
23310
24804
25054
24522
23659
25318
24906
23573
24402
25491
24892
23277
24877
24888
24576
23569
25097
25142
24639
23832
25308
25368
24477
24435
25464
25396
23838
25012
25386
25188
23957
25340
25693
25197
24154
25564
25180
24795
24460
25837
25616
23914
25034
25899
25325
24217
25471
25781
25453
24691
25803
25761
25455
24567
26071
25834
24650
25230
26254
25826
24440
25712
26056
25823
24545
26015
26288
25329
24657
26308
26317
25409
25123
26065
26182
24815
26605
26622
26014
25224
26147
26473
26015
25370
26293
26499
25865
25216
26755
26319
25371
25789
26222
26147
24505
25874
25943
25586
24178
25844
25615
24949
24415
25464
25392
23960
24511
25174
25014
24129
24798
24931
24686
23508
24836
24576
24432
23462
25033
24768
23736
23543
24693
24527
23472
24213
24695
24368
23273
24608
24690
24199
23314
24477
24876
23990
23448
24414
24909
23533
24431
25096
24853
23688
24744
24479
24292
23715
25100
24960
24692
23932
25094
25020
23802
24314
25131
25109
23691
24296
25076
24475
23774
25177
25092
24709
23662
25073
25276
24450
24153
25421
25094
23926
24870
25227
25149
23887
25096
25598
25019
23931
25280
25404
24849
24279
25579
25555
24119
24880
25569
25578
24434
25479
25393
25261
24290
25529
25583
25061
24462
25763
25656
24697
24771
25833
25725
24063
25304
25721
25677
24661
25758
25794
24889
24434
25876
25983
25052
24641
25888
25963
24573
25378
26003
25709
24649
25950
26157
25764
24773
25964
26012
25250
24945
26456
26230
24962
25444
26400
25980
24876
25895
26306
26142
24856
25942
26254
25535
24862
26327
26135
24735
24369
25882
25680
23727
25329
25549
26059
23991
25243
25178
25016
24037
25356
25256
24610
23858
25180
25044
23831
24517
24966
24969
23664
24872
25169
24549
23845
24953
24638
24271
23538
24894
25113
23637
24506
24969
24956
23399
24748
24993
24737
23993
25082
24854
24968
23692
25064
25090
24117
24096
25539
25116
23611
24707
25410
25027
24166
25115
25192
24888
24175
25191
25189
24520
23502
25293
25424
23921
24812
25335
25057
23762
25443
25482
25376
24016
25476
25452
25435
24326
25581
25413
23994
25178
25787
25555
24245
25541
25738
25429
24293
25445
25738
25305
24543
25452
25696
25151
24081
25940
26269
24315
25437
25904
25269
24473
25767
26084
25525
24604
26037
25988
25031
24427
26231
25795
24619
25305
26093
25742
24660
26020
26323
25954
24598
26066
26044
25278
24632
26281
25894
24957
25435
26567
26121
24883
26076
26475
26136
25006
26284
26292
25680
24960
26442
26367
25690
25374
26640
26376
25111
25256
26457
26102
24654
25886
26123
25710
24568
25734
26080
25141
24427
25917
25555
24080
25027
25414
25431
24060
25196
25245
25033
24018
25033
24989
24703
23522
25135
25016
24093
24001
24985
24876
23398
24430
24897
24525
23833
24719
24720
23877
23521
24814
24860
24207
23765
24869
24807
23557
24309
24353
24921
23425
25202
24896
24781
23862
25232
25154
24619
23807
25415
25271
24130
24591
25605
25181
23634
25050
25139
25203
23805
24968
25287
24589
23932
25221
25557
24190
24414
25352
25280
23870
24951
25336
25168
24027
25207
25498
25001
24244
25527
25404
24725
24237
25721
25570
24574
24852
25686
25616
24270
25479
25831
25378
24360
25573
25866
25478
24495
26030
25913
24881
25173
25872
25779
24546
25675
26155
25508
24451
25855
25994
25640
24441
26160
25918
25075
24961
26178
26090
24767
25827
25913
25665
24541
26187
26314
25811
24554
26050
26112
25399
25004
26149
26053
24823
25468
26192
26095
24843
26118
26081
25875
24860
26105
26168
25810
24684
26270
26198
24988
25185
26117
25829
24179
25365
25372
25386
23857
25163
25548
24861
23749
25178
25214
24070
23842
25080
25055
23523
24316
24947
24757
23377
24635
24629
24143
23397
24671
24808
23934
23295
24675
24552
23408
23998
24687
24397
23268
24285
24697
24057
23391
24504
24641
24176
23323
24438
24556
23809
23695
24571
24653
23449
24578
24955
24734
23163
24650
25022
24466
23502
24962
24959
24364
23524
24844
24832
23614
24532
25068
24708
23602
24803
25006
24838
23605
25104
25072
24346
23863
25435
25268
24203
24651
25165
25318
23751
24679
25581
24647
23856
25704
25711
24893
23719
25193
25512
24205
24267
25685
25476
24152
25131
25611
25270
23607
25726
26139
25756
24134
25303
25572
24887
24505
25838
25695
24334
24817
25800
25576
24508
25615
25695
25361
24437
25666
25817
25260
24443
25830
25819
24603
25307
25848
25259
24550
25594
25868
25360
24515
25821
25896
24750
24303
25533
26112
25247
24666
26183
25623
24547
25418
26150
26179
24761
25934
25972
25545
24661
25691
25578
24798
24374
26045
25082
24377
24778
25380
25101
24287
24171
24651
24038
23753
24311
25105
24288
23437
24896
24753
23600
23990
24978
24411
23291
24373
24865
24430
23040
24566
24504
24091
23216
24581
24476
23989
23379
24686
24780
23263
24003
24603
24499
23502
24373
24940
24266
23351
24542
24550
24161
23630
25124
24739
23794
24029
24773
24631
23439
24476
24829
24518
23409
24840
24910
24473
23585
25119
25042
23845
24071
24827
24878
23503
24781
24862
24835
23534
24822
24865
24635
23739
25144
25155
24476
23667
24754
25172
24124
24648
25090
25103
23897
25133
25353
25012
23857
25300
25267
24817
24092
25327
25435
24260
24710
25418
25245
23394
25244
25508
25311
23986
25638
25484
25119
24389
25682
25727
24715
24506
25683
25394
24539
25183
25760
25501
24201
25585
25786
25345
24147
25757
25787
25049
24590
25696
25720
24266
25524
25936
25580
24590
25670
25944
25776
24603
25960
26107
25738
24631
26101
26046
24661
25233
26123
25625
24366
25228
25585
25334
23940
25411
25286
25147
23930
25311
24859
24208
23769
24837
25063
23626
24391
25251
24573
23473
24849
25069
24389
23537
24637
24363
24153
23165
24632
24507
23516
24030
24344
24331
23171
24400
24747
24364
23273
24421
24841
24188
23521
24844
24669
23733
24241
25098
24638
23362
24461
25094
25181
23398
24842
24665
24247
23474
25274
24868
24223
23730
25032
24954
23405
24607
25061
24795
23578
24826
24896
24605
23606
25053
25067
24269
24071
25493
25039
23877
24454
25268
25043
23742
25174
25167
24937
23406
25248
25290
25104
23874
25754
25345
24138
24516
25353
25426
23979
25147
25414
25262
24284
25469
25437
25159
24517
25423
25733
24778
24390
25660
25519
24269
25178
25767
25570
24042
25603
25802
25141
24275
25537
25931
25341
24952
25925
25711
24465
25157
25707
25779
24478
25646
25858
25586
24435
25805
25796
25729
25053
25551
26142
25296
24994
26138
25573
24739
25337
25882
25574
24398
25935
26133
25597
24539
25941
25776
25134
24251
25470
25686
24338
24941
25495
25313
24106
25112
25029
24847
23697
25111
25146
24525
23954
25304
25001
23948
24039
25394
24896
23404
24648
24700
24506
23537
24769
24875
24440
22958
24176
24934
23931
23943
24399
24701
23510
24552
24995
24604
23415
24831
25270
24656
23776
25134
25065
24571
24016
25349
25021
24156
24501
25316
25109
23760
25040
25209
24889
23828
25207
25456
24569
23930
25524
25188
24112
24544
25323
25337
24014
24969
25567
25126
23665
25348
25486
25142
24253
25316
25590
24750
24362
25621
25520
24162
25157
25688
25294
24104
25275
25499
25290
24362
25608
25447
25075
24269
25510
25687
24411
25173
26019
25711
24397
25508
25800
25487
24343
25714
25981
25411
24772
25903
25729
24781
24940
26070
25749
23855
25583
26145
25692
24452
25477
26216
25106
24524
26147
26025
25186
24854
26202
25880
24721
25730
26357
25959
24531
25959
26200
25845
24739
26201
26227
25145
24909
26151
25857
24351
25433
25744
25495
24436
25350
25828
25224
24023
25352
25209
24573
23853
25430
25128
24085
24064
25021
25036
23777
24526
24902
24719
23500
24784
24817
24477
23491
24741
24701
24094
23668
24911
24941
23533
24449
24930
24695
23355
25004
24902
24722
23695
25079
25215
24483
23798
25056
25158
23725
24649
25053
25004
23418
25001
25120
24916
23764
25134
25088
24698
23723
25145
25319
24266
24305
25365
25233
24052
24805
25341
24895
23946
25117
25428
25071
24223
25411
25515
24535
24342
25456
25563
24232
24908
25703
25380
24267
25460
25709
25325
24432
25655
25693
25103
24346
25856
25729
24359
25256
25869
25507
24486
25487
25764
25548
24334
25827
25901
25721
24701
25903
25898
25191
24858
26055
26115
24442
25665
25658
25847
24565
25999
26110
25612
24712
26040
25948
25288
24951
26181
26038
24788
25537
26265
26117
24815
25955
26257
25899
24889
26309
26300
25701
25068
26445
26184
25193
25462
26245
26000
24371
25608
25907
25589
24573
25623
25416
25055
24219
25458
25286
23908
24371
25251
25161
23678
24709
24964
24641
23540
24829
25007
24375
23291
24676
24859
24003
23472
24738
24408
23072
23909
24658
24219
22976
24244
24337
24102
22999
24400
24336
23638
23434
24273
24581
23550
23575
24437
24783
23131
24429
24961
24544
23281
24700
25058
24570
23604
24934
24970
23959
23564
25585
24922
23794
24520
25192
24712
23631
24473
25026
24928
23771
25224
25084
24540
23987
25465
25137
23924
24564
25290
25156
23706
24911
25328
25436
23998
25337
25153
25579
24628
25012
25601
24488
24598
25406
25118
24314
25350
26001
25289
24310
25557
25818
25321
24635
25786
25671
25246
24443
25565
25688
24506
25446
25985
25616
24368
25376
25893
25620
24490
26122
25886
25362
24492
25980
25964
24563
25442
25960
26049
24425
25687
26028
25742
24368
26033
26144
25534
24512
26323
25901
25478
24936
25878
26011
24672
25803
26317
26010
24539
25842
25892
24996
24110
25696
25698
24413
24075
25484
25360
23895
24626
24859
24977
23450
24782
25185
24409
23158
24802
24792
24202
23407
24772
24484
23718
23929
25023
24198
22855
23671
24469
24208
23298
24401
24441
23941
22873
24505
24371
23542
23416
24868
24298
22844
24255
24700
24480
23384
24615
24665
24533
23527
24833
24697
24088
23669
25021
24730
23513
24280
24995
24623
23680
24766
25028
24811
23473
24733
25054
24388
23741
24986
25011
23872
24369
25162
24960
23771
25130
25228
24872
23869
25177
25293
24916
23950
25363
25315
24469
24105
25564
25424
23976
25029
25613
25204
24094
25251
25455
25263
24044
25364
25736
25127
24274
25713
25447
24366
25220
25834
25522
24445
25683
25882
25700
24427
25677
25841
25220
24459
25885
25799
24837
25196
25824
25854
24444
25617
26221
25802
24650
25999
26139
25376
24415
25872
25901
25043
24925
26065
26084
24652
25530
25783
25935
24625
26139
25852
25656
24593
26085
26065
24625
24773
25874
25797
24536
25083
25788
25420
23928
24541
25200
24912
23693
24924
25072
24178
24152
24837
24742
23684
23824
24802
24432
23220
24178
24493
24393
23052
24469
24416
24240
23208
24223
24289
23822
23147
24551
24566
22706
23318
24880
24304
23333
24406
24946
24621
23292
24733
24659
24264
23762
24883
25060
23842
24326
24975
24989
23453
24816
25113
24848
24061
24923
25031
24717
23912
25153
25171
24414
24196
25574
25259
23284
24830
25227
24466
23526
25104
25234
24799
24080
25372
25456
24580
24170
25529
25470
24239
24888
25317
25360
24337
25260
25513
25384
24284
25777
25676
25248
24366
25690
25902
24398
25510
25669
25916
24264
25863
25575
25391
24464
25868
25732
25544
24624
26103
26271
25069
25068
26013
25991
24564
25633
26008
25780
24833
25861
26118
25740
24579
26133
26165
25511
24930
26281
26020
24832
25663
26335
26258
25087
26190
26332
26111
25087
26522
26235
25703
25092
26344
26376
25467
25727
26527
26071
24722
25831
26048
25924
24574
25973
25637
25409
24323
25577
25523
24772
24073
25287
25071
23884
24715
25441
24815
23803
24813
25151
24836
23526
24832
24773
24156
23710
24764
24745
23094
24175
24920
24721
23144
24500
24848
24516
23605
24963
24773
24498
23706
24908
25004
24242
24005
25227
25122
23690
24707
25397
24992
23767
25196
25420
24874
23844
25347
25535
24372
24030
25604
25474
24151
24788
25250
25450
24105
25134
25563
25166
24261
25386
25577
24964
24541
25676
25529
24685
24852
25714
25779
24218
25720
25855
25583
24256
25690
25921
25506
24670
25676
25846
24946
24898
26103
25942
24566
25602
25986
25924
24690
26128
25875
25723
24765
26162
26002
25530
25037
26288
25881
25206
25600
26409
26145
24845
26192
26330
26108
24916
26338
26252
25692
25085
27048
26404
25247
25666
26514
26370
25131
26116
26404
26115
24988
26353
26577
26089
25161
26567
26496
25554
25543
26670
26535
25229
26306
26685
26543
24978
26423
26373
26045
24630
26154
26027
25126
24886
26160
25790
24241
25076
25341
25330
24156
25145
25189
24821
23996
25156
25123
24412
23896
24983
24956
23809
24166
24881
24750
23220
24558
24959
24657
23285
24769
24664
24159
23224
24679
24867
23849
23306
24738
24568
23587
24251
24858
24704
23653
24762
25481
24716
23776
25199
25223
24736
24001
25312
25122
23766
24577
25418
25074
23950
25061
25179
24962
23935
25304
25367
24879
24132
25413
25347
24579
24828
25050
25435
23957
25161
25542
25257
23932
25285
25733
25259
24741
25646
25585
24803
24399
25699
25745
24130
25264
25756
25632
24370
25615
25951
25485
24456
25886
25856
25389
24597
26200
26009
24439
25473
25970
25792
24514
25955
26192
25816
24715
25983
26175
25495
24857
26244
26122
25109
25220
26158
26062
25039
25903
26080
26203
24885
26319
26315
25765
25259
26322
26322
25664
25150
26474
26122
25093
25895
26162
26222
24912
26423
26413
26017
25202
26477
26574
25949
25122
26437
26290
25266
25686
26248
25992
24652
25862
25801
25548
24436
25332
25486
25057
24090
25372
25380
24240
24167
25229
24997
23583
24613
25038
24686
23628
24676
24934
24495
23523
24901
24713
23937
23591
24698
24738
23513
24045
24951
24388
23363
24632
24650
24411
23328
24823
24855
24300
23683
25021
24985
24156
24263
25118
24817
23586
24859
25109
24875
23752
24959
25270
24678
23924
25332
25521
24057
24132
25405
25495
23926
24905
25441
25086
24009
25105
25498
25177
24285
25464
25516
24789
24130
25418
25536
25031
24852
25702
25279
24349
25409
25785
25397
24325
25635
25863
25184
24361
25690
25798
24612
25043
25702
25823
24307
25483
25895
25884
24184
25666
25974
25653
24637
25570
25907
25442
24877
25859
26110
24703
25478
26342
26097
24300
25931
26291
25936
24810
25950
26184
25535
24944
26368
26010
25327
25616
26205
26273
24669
26103
26151
25993
24910
26265
26292
25974
24968
26430
26405
25464
25297
26322
26195
24901
25878
26689
26278
24766
26546
26391
25921
24870
26303
26071
25324
24626
25830
25852
24184
25077
25418
25133
24004
25250
25242
24874
23913
24888
24877
24237
23901
25161
25017
23733
24200
24958
24669
23518
24479
24957
24486
23417
24655
24719
24244
23574
24717
24855
23633
23658
24865
24823
23360
24190
24661
24569
23655
24779
24990
24768
23721
25085
25020
24539
23949
24997
25382
24110
24465
25037
24995
24075
24817
25321
25113
23832
25278
25517
24801
24036
25587
24935
24398
24501
25312
25362
24353
25744
25452
25077
24189
25374
25598
25124
24064
25620
25547
24597
24513
25615
25543
24248
25129
25899
25605
24264
25742
25943
25615
24767
26063
26181
24887
24673
25936
25908
24804
25416
26248
25903
24966
25733
25835
25582
24840
25689
26462
25610
24854
26436
26157
25217
25208
26369
26300
25165
26020
26414
26197
24838
26155
26130
25971
24991
26503
26429
25563
25243
26271
26363
24982
25782
26643
26496
25199
26249
26486
26307
25185
26657
26768
26096
25455
26632
26402
25357
25904
26556
26289
25032
26050
26505
25876
24676
25971
25966
25534
24483
25982
25743
24579
24587
25873
25331
24282
25080
25448
25137
23923
25101
25182
24845
23890
25156
25323
24436
23889
24960
24918
23709
24561
25296
25020
23593
24953
25042
24783
23249
25121
25266
24499
23937
25200
25052
24136
24581
25385
24894
23994
25062
25321
25388
24195
25525
25485
25057
24202
25898
25446
24655
24222
25631
25251
24253
25017
25695
25335
24130
25600
25664
25342
24226
25537
25703
25073
24571
25757
25545
24513
25031
25663
25718
24704
25507
25730
25760
24518
26349
25754
25571
24784
25909
25829
24888
25193
26306
25780
24745
25551
26076
25818
24749
26172
26210
25817
24959
26250
26230
25130
24845
26322
26010
24950
25888
26577
25832
24787
26026
26187
25953
24610
26303
26200
25884
25298
26470
26207
25246
25678
26264
26187
24961
26240
26556
26237
25050
26396
26868
25971
25414
26520
26607
25752
25521
26524
26471
25074
26299
26360
26162
25089
26355
26443
25836
24768
26128
25930
24644
25020
26066
25699
24064
24720
25625
25304
24066
25152
25397
24883
23680
24997
24968
24381
23672
24963
24655
24043
24177
24899
24639
23747
24476
25266
24241
23426
24702
24715
23920
23205
24596
24726
23955
23649
24524
24686
23516
24307
24957
24681
23739
25117
25074
24731
23805
25024
25193
24530
23903
25472
25327
23906
24763
25259
25107
23849
25100
25219
25020
23898
25123
25494
24675
24091
25381
25350
24300
24537
25615
25197
24233
25378
25223
25384
24195
25523
25449
25239
24298
26407
25722
24925
24531
25919
25573
24347
25294
25828
25551
24353
25772
25785
25570
24689
25841
26193
25328
24715
25905
25979
24657
24983
25945
26059
24530
25796
26206
25839
24928
26117
26238
25629
24848
26006
26073
25456
25120
26368
26170
24774
25861
26463
26195
25043
26259
26256
25911
24993
26333
26303
25524
25275
26363
26371
25104
25932
26474
26258
25019
26222
26273
26071
25312
26373
26535
25820
25538
26586
26285
25119
25535
26349
26091
24658
25630
26087
25565
24357
25600
25659
25048
24069
25386
25222
24013
24330
25078
24994
23957
24395
24857
24510
23362
24562
24336
24303
23229
24291
24490
23736
23303
24792
25038
23127
23953
24431
24381
22805
24332
24289
24087
23018
24731
24323
24012
23537
24783
24664
23632
24018
24906
24540
23302
24405
24994
24467
23250
24960
25045
24485
23668
24969
24875
24311
23770
25274
24792
23748
24606
25107
24865
23561
25088
25164
24699
23982
25222
25058
24564
23970
25479
25086
24006
24750
25337
25241
23816
25201
25092
25078
24244
25265
25629
25080
24249
25748
25546
24553
24890
25626
25448
24412
25532
25664
25430
24253
25725
25908
25258
24429
25770
25570
24797
24664
25648
26515
24983
25117
25872
25915
25183
25650
26191
25564
24592
26024
25948
25274
24730
26064
25912
24762
25477
26058
25992
24367
25782
26277
25824
24927
25981
26157
25663
24821
26093
26169
25147
25245
26304
26192
24940
25832
26402
25978
24647
25925
26334
25564
24510
25868
25947
24998
23997
25689
25452
24058
24840
25383
25240
23804
24864
24870
24566
23546
24646
24818
24217
23369
24514
24643
23225
23750
24524
24445
22829
24121
24351
24139
22952
24206
24288
23856
23154
24367
24096
23489
22974
24660
24167
23056
23946
24377
24224
23199
24346
24566
24255
23290
24707
24661
24379
23396
24507
24759
23769
24167
25120
24728
23309
24452
24783
24458
23428
24811
24975
24362
23571
25102
25015
24223
24415
24974
24919
23923
24817
25079
24863
23551
25157
25306
24737
23948
25220
24570
24432
24044
25720
24919
24004
24923
25493
25295
24225
25410
25339
25014
24075
25282
25378
24860
24181
25461
25434
24218
25075
25659
25479
24106
25287
25824
25340
24290
25940
25809
24677
24450
25784
25571
24921
24479
25542
25656
24308
25705
25539
25562
24465
25856
25932
25457
24365
25782
25627
25112
24703
25900
25773
24867
25582
25882
25767
24617
25782
25137
25855
24786
25788
26133
25534
24772
26156
26175
24764
25519
25899
25702
24414
25755
25800
25111
24125
25556
25412
24952
24033
25215
24940
24226
23860
24940
24609
23208
24229
24831
24309
23076
24323
24546
24217
22885
24243
24264
23754
23129
24133
24285
22708
23830
24198
23994
22792
24091
24263
23907
22938
24257
24422
23835
23100
24561
24354
23631
23859
24321
24461
23171
24507
24699
24501
23399
24701
24809
24550
23465
24727
24925
23653
23662
24749
24614
23635
24366
25077
24695
23653
24651
25227
24571
23526
24880
25070
24189
23813
25233
25007
23752
24460
25045
25216
23580
24804
24991
24785
24015
25172
25223
24807
24143
25049
25562
24280
24471
25571
25374
24320
24871
25412
25196
24472
25416
25829
25220
24425
25772
25617
24878
24529
25915
25620
24370
25442
25335
25685
24533
25682
25615
25472
23985
25150
26332
25234
24740
26451
26129
25138
25345
26241
25787
24544
25674
25992
25901
24583
25974
26126
25594
24912
26148
26147
25068
24934
26315
25934
24967
25799
26223
26247
24834
25977
26110
25839
24721
26141
25858
25265
24444
25934
25370
24313
24903
25499
25170
23892
25053
25429
24807
23567
24894
25031
24100
23831
24698
24897
23725
24208
24601
24568
23192
24343
24707
24275
23242
24548
24438
24080
23181
24653
24465
23735
23426
24705
24238
23402
24319
24659
24780
23053
24460
24719
24666
23369
24863
24740
24245
23844
24703
24959
23804
24163
25059
24984
23717
24879
25002
24744
23639
24945
24952
24617
24043
25076
25017
23899
24258
25063
25137
23911
24955
25239
25065
23687
24928
25407
24919
23987
25430
25436
24447
24304
25443
25414
23984
24946
25497
25244
24174
25207
25545
25320
24225
25674
25631
25044
24486
25775
25828
24411
25026
26086
25671
24240
25592
25789
25296
24625
25961
26083
25758
24509
25786
25765
25056
24906
25806
25709
24528
25481
26119
25694
24901
26022
25987
25655
24611
26186
25977
25430
24918
26156
25948
24696
25466
26159
26049
24994
26099
26280
25924
24934
26167
26348
25500
25008
25974
25678
24615
25013
25670
25697
23942
25197
25386
25039
23614
24967
24872
24515
23674
24776
24634
23925
23824
24959
24331
22938
24008
24412
23979
22592
24235
24395
24156
23028
24396
24194
23709
22967
24284
24144
22986
23765
23880
23927
23067
24353
24400
24022
23047
24244
24339
24204
23336
24849
24694
23439
24246
24792
24971
23505
24456
23564
24549
23628
24814
25438
24603
23715
25017
24966
23866
23828
25150
24798
23591
24607
25112
24843
23797
25015
25107
24828
23915
25225
25315
24503
23959
25383
25060
24168
24875
25281
25191
24175
24968
25552
25072
24066
25398
25580
25068
24316
25373
25379
24604
24834
25616
25703
24172
25348
25954
25472
24266
25473
26091
25291
24598
25770
25571
25341
24687
25967
25780
24573
25326
25982
25746
24722
25903
25973
25915
24707
26037
25905
25106
25020
26337
25978
24802
25258
26048
26134
24749
25920
26350
25757
24779
26160
26017
25701
24998
26331
25894
25498
25381
26386
25931
24919
25691
25913
25452
24002
25704
25462
25134
24004
25361
25273
24427
23932
25320
24790
23600
24049
24738
24523
23521
24046
24046
24123
23047
24473
24451
23602
22989
24293
24381
23018
23686
24098
24015
22918
23704
24303
23859
22613
23939
24040
23713
22923
24145
24140
23227
23088
24166
24109
22933
23938
24519
24228
23182
24373
24674
24141
23385
24534
24784
24007
23515
25023
24660
23616
24014
24849
24769
23570
24465
24809
24430
23399
24990
24796
24444
23665
25018
24720
24083
24139
24941
24928
23899
24678
25015
24825
23926
24899
25075
24741
23784
25247
25078
24503
24181
25204
25013
24794
24631
25350
25066
23985
25028
25324
24963
23926
25370
25430
24760
24167
25665
25430
24421
24999
25801
25392
24060
25315
25495
25329
24552
25419
25373
25309
24462
25748
25859
24827
24687
25681
25419
24347
25483
25607
25629
24759
25775
26103
25444
24629
26381
26014
25194
24867
26383
25721
24596
25463
25791
25893
24651
25868
25860
25558
24800
25862
25714
25143
24532
25593
25361
24297
24748
25178
25162
23788
24788
25128
24596
23523
24674
24708
23983
23251
24078
24548
23825
23243
24647
24286
22852
23928
24308
24246
23022
24313
24189
23858
23100
23923
24014
23542
23164
24527
24267
23029
23884
24736
24102
23038
24238
24567
24263
23163
24729
24693
24164
23405
24876
24856
23839
24021
24760
24540
23821
24554
24954
24725
23394
25080
24902
24501
23431
24979
24794
23919
24009
24834
24507
23837
24496
24990
24754
23555
24973
25128
24935
24030
25171
25338
24703
24244
25448
25151
24205
24837
25405
25321
24124
25275
25489
25114
24075
25657
25698
25024
24487
25982
25706
24643
24828
25838
25679
24485
25551
25705
25573
24630
25766
25743
25538
24587
25675
25954
25195
25000
25981
25929
24955
25658
25901
25643
25005
25972
26422
25888
24884
26366
26134
25682
25193
26535
26144
25234
25724
26126
26323
24774
26072
26266
26089
24934
25671
26245
25299
25403
26703
26151
25381
25458
26087
25837
24684
25503
26070
25529
24388
25429
25340
25137
23960
25284
25173
24663
24010
24952
24918
23682
24294
24814
24378
23536
24614
24622
24462
23139
24812
24563
24114
23496
24548
24518
23543
23918
24594
24392
23202
24104
24768
24213
23441
24435
24844
24281
23528
24902
24670
23942
23876
24791
24824
23675
24643
24885
24862
23701
24842
25018
24858
23706
24885
25121
24409
23844
25223
25011
23717
24412
25134
24997
23517
24944
25155
24898
23864
25018
24936
24847
24126
25618
25501
24342
24569
25503
25288
23924
25329
25561
25509
24055
25397
25454
25335
24328
25647
25386
24876
24472
25591
25499
24705
25463
25892
25675
24347
25702
25971
25489
24545
26132
25704
25511
24855
25655
25969
24849
25324
25764
25665
24421
25943
25866
25773
24436
25745
25956
25626
24706
26125
25989
24874
25228
26201
26050
24663
25897
26337
25989
24971
25881
26152
25607
25153
26156
26048
25649
24854
26019
26074
24596
25307
26105
25613
24378
25424
25557
25202
24151
25628
25335
24784
24064
25089
24735
23943
24256
24956
24747
23561
24653
24953
24510
23544
24589
24519
24329
23668
24912
24636
23822
23494
24533
24654
22818
24021
24741
24417
23261
24445
24773
24425
23514
24669
24876
24087
23674
24905
24736
23570
24548
24931
24626
23786
24785
25042
24838
23579
24977
24858
24249
23569
25478
25257
24469
24620
25237
24985
23764
24897
25141
24667
23614
25214
25307
24898
23892
25393
25241
24590
24166
25534
25284
23989
25066
25698
25147
24098
25401
25452
25430
24526
25538
25515
24964
24341
26526
25338
24366
25088
25837
25608
24457
25319
25577
25485
24251
25703
25964
25085
24476
26006
25806
24735
25136
25982
25904
24457
25383
25836
25774
24503
25828
25996
25599
24970
26191
26015
25249
24736
26264
25888
24759
25673
26083
25955
24915
26210
26484
25965
25120
26031
26027
25835
25158
26246
26112
25165
25470
26225
25939
24511
25197
25362
25256
24202
25253
25194
24797
24029
24999
25053
23979
23890
24863
24652
23308
24423
24795
24302
23306
24524
24376
24307
23260
24363
24675
23929
23278
24422
24259
22809
23795
24197
23968
23023
24230
24473
24037
22929
24340
24334
23912
23205
24433
24302
23387
23860
24052
24470
23541
24453
24335
24490
23333
24748
24842
24375
23591
24757
24783
24125
23676
24974
25077
23466
24794
25206
24767
23399
24832
25083
24897
23479
24868
25044
24433
23990
24982
25286
23861
24473
25071
25036
23776
24933
25439
24975
23855
25109
25302
24899
24202
25556
25468
24519
24624
25461
25409
23992
25065
25612
25264
24004
25454
25788
25209
24454
25603
25817
24850
24454
25621
25618
24225
25258
26006
25510
24415
25549
25693
25493
24839
25826
25907
25415
24588
25842
25916
25100
25470
25931
25917
24750
25834
26000
25906
24732
26123
26290
25725
24917
26063
26294
25291
25291
26340
26281
24913
25950
25886
25777
24557
25781
25757
25259
24281
25603
25418
24633
24363
25388
25341
23861
24435
24959
24691
23621
24855
24875
24451
23816
24778
24722
23849
23539
24679
24570
23447
24109
24458
24292
23364
24158
24365
24325
23430
24562
24588
24142
23157
24260
24781
23750
23753
24779
24525
23472
24300
25066
24561
23834
25008
24912
24700
23608
25234
24940
24404
23919
25080
25127
24104
24508
25157
24847
23633
25011
25035
24960
23914
25187
24896
24861
23771
25361
25173
24294
24594
25256
25201
24173
25335
25520
25570
24464
25244
25591
25169
24337
25713
25524
24596
24614
25756
25504
24773
25166
25907
25707
24145
25648
25997
25498
24471
25867
25857
25267
24556
25943
25974
24380
25610
26005
25932
24737
25791
26068
25863
24753
26089
26081
25793
24819
26156
26104
25371
25306
26088
25780
24419
25830
26100
26019
24903
26127
26358
25942
25009
26122
26153
25526
25350
26505
26155
25172
25862
26401
26104
25154
26150
26408
25890
24658
26155
26148
25214
24662
26448
25612
24404
24908
25494
25054
24125
25170
25340
25217
23936
25378
25346
24665
24103
24958
24796
24062
24132
24941
24909
23332
24636
24938
24715
23330
24493
24599
24300
23496
24714
24700
24058
23499
24803
24501
23183
24232
24736
24640
23765
24827
24754
24470
23934
24913
25063
24641
24134
25032
25297
23839
24450
25351
25131
23926
24908
25251
25086
24025
25223
25190
25008
24060
25252
25638
24452
24478
25559
25192
23758
25205
25139
25102
24178
25260
25373
25235
24368
25578
25676
24649
24360
25731
25867
24236
25128
26115
25349
24309
25594
26092
25753
24469
25851
25959
25331
24727
25988
25786
25145
25195
26202
25951
24886
25681
26383
25710
24724
26295
26175
25828
25012
26308
26133
25323
25794
26226
26041
25326
26012
26322
25893
24945
26187
26573
25839
25239
26492
26497
25881
25290
26541
26497
24990
25970
26471
26128
25162
26384
26382
26388
25088
26606
26496
26013
25208
26710
26455
25456
25517
26538
26017
24816
25609
25864
25889
24280
25707
25721
25188
24350
25593
25470
24612
24406
25515
25348
24103
24918
25360
25060
23698
24925
25121
24683
23851
25189
25105
24084
23637
25307
24860
24060
24347
25112
24726
23520
24791
25101
25033
23985
25076
25078
24650
23958
25514
25354
24456
24581
25465
25263
24013
25123
25437
25086
23906
25313
25758
25145
24397
25414
25792
24602
24596
25450
25399
24534
25171
25630
25406
24529
25292
26004
25098
24435
25585
25706
25279
24390
25770
25727
24707
25267
25722
25748
24475
25436
25887
25354
24655
26007
26036
25448
24586
25949
25985
24875
24994
26155
25809
24407
25415
25924
25802
24669
25989
26164
25595
25001
26216
26276
25649
25017
26283
26306
24746
25732
26425
26165
24779
26022
26446
25977
24973
26530
26349
25721
25205
26656
26321
25306
25669
26653
26421
25131
26121
26706
26265
25008
26293
26562
26231
25297
26784
26583
25769
25660
26953
26551
24895
25941
26288
26181
24744
26098
26105
25694
24884
25762
26063
25123
24671
26098
25914
24592
25082
25762
25599
24126
25327
25605
25159
23821
25359
25302
25045
23961
25343
25289
24307
24646
25452
25282
23994
25276
25435
25021
24128
25352
25384
25065
24238
25163
25668
24659
24568
25861
25575
23980
25252
25742
25286
24346
25375
25509
25431
24452
25743
25890
25076
24440
25791
25692
24461
25300
26116
25760
24558
25678
25893
25517
24672
25822
25912
25302
24522
25861
25973
24744
25034
25905
25678
24664
25751
26055
25775
24735
26157
26093
25776
24674
26280
26187
25512
24820
26085
25993
25086
25615
26139
25927
24726
25973
26176
25877
24965
26275
26101
25713
24834
26542
26388
25061
25799
26292
26346
25062
26190
26519
26274
24931
26334
26282
25710
24927
26153
26259
25416
25475
26764
26435
24952
26146
26579
26270
25159
26283
26709
26259
25237
26547
26651
25821
25026
26303
26107
25149
25515
26235
25866
24850
25724
26006
25573
24325
25656
25583
25070
24234
25797
25662
24392
24582
25166
25037
23568
24848
24725
24720
23591
24951
24858
24287
23495
25001
24828
23885
23640
24844
24601
23358
24375
24970
24598
23567
24835
25204
24482
23547
24901
25177
24261
23697
24785
24933
23925
24343
25189
24816
23898
25118
25027
24857
23822
25186
25236
24561
23915
25082
25453
24303
24601
25515
24998
23838
25012
24966
25240
24030
25254
25462
24970
24252
25519
25390
24861
24358
25523
25317
23980
24917
25748
25597
24174
25355
25685
25266
24167
25653
26048
24994
24397
25956
25419
24546
25158
26062
25695
24297
25677
25545
25669
24533
25851
26042
25617
24683
26061
26045
25411
25000
26084
26014
24701
26014
26230
25670
24591
26082
26243
25791
24896
26239
26361
25473
24996
26300
26269
24806
25831
26579
26060
24931
26045
26163
26051
24963
26395
26272
25730
25001
26159
26065
25059
25450
25785
25723
24485
25131
25689
25290
24209
25428
25224
24733
24087
25160
25188
24352
24023
25205
24984
23580
24405
24585
24656
23546
24537
24704
24293
23338
24652
24311
24047
23442
24643
24633
23373
24018
24403
24417
23143
24358
24551
24226
23496
24709
24940
24266
23501
24758
24784
23957
24167
24915
24945
23794
24546
25632
24693
23295
24948
25013
24447
23771
25094
24924
24087
23858
24941
25105
23748
24822
25097
24827
23897
25184
25057
25006
23765
25175
25324
24626
24330
25466
25231
24083
24773
25401
25141
24226
24706
25426
25175
24288
25524
25969
24889
24447
25081
25615
24335
24870
25750
25550
24239
25293
25749
25416
24466
25689
25738
25404
24636
25997
25730
25000
24572
26042
25763
24485
25390
26059
25753
24774
25609
26105
25694
24851
26056
26165
25436
24909
26101
26074
24859
25406
26355
26212
24707
25891
26276
25931
24848
26213
26033
25741
24629
26316
25906
24771
25042
25863
25585
24387
25185
25629
25126
23980
25298
25227
24687
23667
25233
25256
24273
23625
24998
24968
23320
24268
24990
24584
23408
24519
24626
24557
23265
24556
24453
23814
23241
24679
24576
23209
24122
24894
24222
23104
24455
24934
24302
23086
24727
24756
24411
23371
24985
25049
24153
24047
24753
25109
23680
24581
25045
24813
23608
25004
25208
24885
23772
24994
25025
24500
23868
25339
25199
23964
24597
25301
25083
24154
25000
25185
25172
23998
25232
25386
24750
24031
25529
25271
24523
24813
25309
25541
24171
25193
25792
25241
24133
25711
25591
25188
24506
25786
25764
24376
24434
25608
25605
24397
25471
25999
25556
24557
25661
26148
25580
24615
25954
26014
25271
24778
26270
26017
24923
25422
25980
25955
24619
25912
26186
25729
24819
26134
26533
26017
25081
25931
26185
25065
25615
26633
26030
24858
26053
26234
26077
24870
26072
26160
25732
24670
26284
25851
24994
24725
25830
25539
24131
24884
25424
25331
24152
25166
25335
24631
23514
24991
24839
24358
23720
24653
25014
23516
24075
24660
24469
23434
24380
24544
24305
22853
24511
24434
24198
23220
24548
24382
23487
23677
24629
24493
23108
24167
24536
24498
23273
24764
24863
24531
23428
25110
24926
23909
23839
25130
24940
23674
24431
24974
24767
23807
24775
25120
24604
23499
24877
25013
24600
23964
24968
25168
24171
24334
25394
25104
23391
24853
25316
25038
24010
25069
25354
24784
24339
25361
25359
24393
24242
25578
25230
23979
25174
25457
25330
24120
25491
25451
25146
24151
25737
25699
24967
24402
25783
25693
24384
25064
25729
25652
24523
25532
25883
25556
24318
26040
25905
25142
24742
25986
25616
24962
25353
26153
25903
24787
25529
26222
25656
24487
25762
26488
25671
24574
26177
26016
25192
25165
26357
25882
25000
25661
26064
25696
24690
25999
25768
25467
24296
25675
25786
24835
24130
24983
25143
23014
24639
25094
24723
23380
24662
24619
24393
23396
24722
24836
24025
23483
24757
24663
23515
23529
25182
24399
23004
24264
24612
24385
23067
24425
24470
24072
23097
24559
24723
23711
23424
24841
24648
22880
24385
24876
24518
23667
24550
25125
24482
23461
24962
24804
24306
23745
25028
25218
23976
24369
25198
24802
24121
25031
25075
24856
23853
25030
25049
24761
24027
25149
25385
24461
24513
25338
25259
24182
25143
25479
25132
24111
25490
25508
25319
24449
25628
25621
25182
24655
25760
25576
24459
25153
25597
25777
24422
25630
25973
25632
24344
25871
25881
25138
24671
25816
25912
24987
25362
25946
25900
24674
25673
25831
25866
24586
26083
26182
25697
24993
26401
26135
25365
25146
26274
26089
24834
26075
26312
26032
24874
26137
26324
25760
25126
26260
26369
25566
25310
26234
26163
25355
25691
26483
26039
24688
25976
25934
25585
24472
25773
25597
24964
24363
25535
25388
24369
24576
25129
25071
23799
24783
24787
24576
23628
24888
24532
24341
23637
24399
24425
23880
23373
24472
24296
23577
24002
24389
24166
23149
24258
24547
23927
23410
24542
24552
24119
23187
24762
24693
23699
24219
24728
24692
23553
24697
24993
24567
23567
24734
25087
24261
23797
25149
25063
23729
24378
25114
24965
23496
24792
25388
24767
23777
25173
25321
24614
23968
25390
25333
24309
24122
25461
25045
24142
24818
25134
25345
23887
25153
24893
24969
23976
25270
25082
24948
24379
25641
25479
24318
24932
25523
25356
24190
25429
25526
25481
24342
25717
25649
25155
24460
25856
25823
24529
25040
26003
25670
24340
25609
25546
25730
24579
25786
25841
25536
24850
25992
25971
25394
24828
25910
26004
24537
25729
26293
25879
25196
25897
26250
25924
24916
26207
26247
25685
24778
26118
26183
25540
25526
26380
26122
24584
25706
25889
25493
24306
25681
25570
24969
23990
25361
25245
24238
24138
25174
24857
23763
24661
24359
24521
23405
24527
24886
24341
23411
24366
24598
23871
23235
24532
24475
23113
23931
24695
24060
23088
24391
24354
24080
23375
24318
24346
23972
23431
24498
24543
23669
24002
25196
24573
23559
24650
24981
24712
23619
24646
24812
24320
24080
25059
24837
24012
24019
25304
24849
23484
24830
25005
24797
23697
24979
24772
24807
23884
24999
25077
24631
24126
25321
25460
24144
24882
25402
24972
24232
25056
25582
24999
24237
25417
25201
24840
24225
25393
25534
24438
24776
25827
25168
24459
25248
25403
25151
24383
25559
25644
25297
24560
25531
25643
25093
24674
25805
25245
24936
25283
25592
25534
24560
25825
26077
25301
24798
25845
26001
25379
24643
25895
25732
24835
25458
25909
25735
25118
25717
26028
25600
24742
26089
26065
25807
24861
26066
25757
24908
25139
26311
25605
24553
25406
25602
25495
24197
25388
25218
25003
24048
25151
24962
24494
23926
24760
24845
23348
24482
24589
24487
23440
24381
24517
24126
23522
24512
24694
23930
23550
24697
24457
23385
24108
24442
23985
23106
24295
24257
24221
23144
24594
24722
24052
23459
24816
24685
24013
23776
24947
24815
23457
24656
25072
24649
23476
25044
25170
24735
23710
25181
25265
24527
23982
25247
24874
23951
24748
25101
25041
23890
25003
25142
24866
23976
25351
25537
24678
24280
25500
25223
24617
25096
25483
25320
24216
25338
25275
25191
24249
25483
25608
25119
24580
25671
25574
24961
24450
25624
25442
24432
25322
25920
25695
24602
25912
25609
25554
24612
25866
26080
25129
24729
26063
25818
24677
25340
25857
25801
24896
25584
26283
25539
24603
26011
26208
25493
25128
26387
26148
25032
25451
26290
26135
24632
25999
26184
26162
25125
25815
26338
25576
24585
25989
25789
24906
24817
25603
25328
24200
24990
25140
25107
23700
24955
25184
24585
23821
24917
24942
24512
23576
24616
24496
23597
24108
24532
24365
23201
24391
24690
24309
22919
24735
24427
24066
23466
24504
24459
23682
23917
24627
24527
23194
24356
24742
24503
23387
24837
25071
24645
23406
24988
24987
24144
24224
25020
25117
23421
24470
25139
24841
23620
24895
25301
25022
23777
24886
25199
24788
24001
25194
25380
24517
24629
25071
25109
23748
25278
25061
24978
24212
25158
25662
25057
24166
25688
25493
24639
24695
26148
25550
24121
25258
25457
25277
24482
25585
25601
25478
24819
26141
26074
25081
24798
25991
25818
24446
25313
25697
25804
24722
25749
26034
25454
24482
25980
25953
25561
24668
26212
26055
25080
25554
26298
26128
24486
25708
25945
25941
24818
26071
26240
25827
25159
26302
26212
25290
25259
26029
25917
24769
25740
25916
25770
24416
25609
25524
25460
24363
25466
25523
24714
24152
25269
25068
23829
24301
25024
24776
23682
24665
24587
24177
23439
24592
24574
24091
23332
24727
24662
23396
23800
24201
24428
23185
24122
24454
24197
23597
24294
24634
24032
23233
24549
24616
23771
23711
24885
24524
23502
24594
25295
24869
23976
24744
24979
24734
23915
24994
24881
24560
23864
24771
25205
24061
24568
25114
24806
23895
25049
25419
24701
23860
25143
25626
24769
23815
25103
25216
24168
24349
25501
25212
23954
24927
25534
25226
24169
25308
25623
25138
24433
25758
25370
24730
24365
25454
25491
24549
24999
25583
25370
24412
25488
25781
25176
24538
25892
26033
25158
24637
26144
25696
24742
25426
25861
25847
24630
25717
26131
25620
24795
25944
25866
25686
24908
26095
26167
25266
25182
26120
26084
24472
25875
26276
25687
25563
26290
26212
25716
25054
26199
26163
25462
24891
26146
25745
24161
25296
25687
25337
24370
25289
25588
25038
24028
25067
24906
24524
23818
25051
24855
24117
24343
24891
24653
23245
24604
24424
24402
23340
24625
24599
24241
23568
24741
24666
23601
23622
24706
24717
23030
24199
24463
24377
23177
24466
24588
24418
23753
24844
24870
24299
24004
25051
24919
24557
24697
24907
25007
23920
24913
25112
24744
23937
24986
25433
24593
23942
25420
25348
24231
24323
25290
25283
23836
25052
25305
25160
23828
25301
25387
25124
24232
25390
25638
24676
24430
25546
25413
24129
25024
25644
25252
24376
25204
25809
25294
24638
25550
25700
25209
24694
25643
25571
24665
25152
25963
25565
24391
25692
26054
25330
24759
25712
25774
25346
24590
25724
25626
25016
25148
26009
25742
24557
25789
26227
25788
24512
26034
26106
25627
24712
26091
26175
25454
25277
26418
26169
24980
25476
26260
25877
24571
25818
26047
25539
24694
25609
25451
24935
24294
25476
25222
24236
24292
25023
24925
23512
24800
24707
24503
23353
24705
24648
24248
23466
24569
24566
23683
23522
24317
24527
23069
24083
24576
24462
23333
24515
24851
24272
23587
24686
24547
24038
23732
24927
24580
23549
24404
25140
24843
23816
24806
25078
24721
23761
25033
24987
24622
23873
25554
25072
24271
24402
25268
24889
23870
25127
25195
24932
23991
25475
25354
24882
24276
25365
25117
24632
24391
25273
25322
23967
25105
25707
25152
24412
25382
26006
25353
24368
25700
25540
25222
24649
25995
25778
24589
25277
25891
25605
24312
25676
26108
25512
24915
25922
25998
25286
24731
26160
26048
25021
25069
25932
25924
24801
25578
25941
25857
25006
26184
26278
25486
24720
25922
26118
25336
24931
26382
26054
24821
25652
26439
25978
25024
25970
26197
25859
24748
26209
26016
25398
25037
26402
26186
24769
25337
26287
25791
24687
25551
25536
25432
24212
25153
25199
24778
24175
25088
24963
23910
24114
24615
24730
23433
24754
24487
24468
23178
24470
24676
24286
23459
24573
24518
24190
23369
24316
24306
22945
23943
24350
24102
23180
24185
24368
24030
22995
24552
24442
23856
23473
24497
24632
23710
23684
24753
24705
23371
24629
25054
24817
23539
24614
24847
24478
23720
24945
24937
24135
23901
25101
24825
23759
24471
24741
24757
23823
24910
24945
24796
23799
24914
25120
24324
24126
25366
24787
23870
24620
25313
25156
23968
24955
25405
25008
24067
25404
25362
24770
24275
25478
25268
24353
24640
25245
25340
24003
25023
25359
25037
24140
25361
25387
25108
24307
25459
25572
24980
24661
25539
25538
24227
25203
25518
25162
24067
25340
25597
25252
24301
25813
25591
24968
24561
25764
25586
24586
25292
25141
25610
24402
25712
25476
25354
24392
25753
25706
25075
24503
25666
25524
24648
24837
25214
25372
23881
24721
25065
24474
23640
24777
24505
24253
23333
24476
24482
23894
23416
24179
24096
23338
23794
24263
24038
22947
23858
23998
23714
22873
24065
24188
23342
22972
23766
24167
22883
23669
24067
23875
22389
23914
24391
23786
22777
24204
24148
23812
23368
24666
24482
23488
23619
24565
24458
23366
24329
24256
24136
23345
24361
24702
24061
23520
24576
24369
23838
23527
24799
24408
23369
24152
24621
24461
23288
24682
24586
24521
23623
24785
24791
24367
24061
25116
24818
24036
24493
25051
24975
23760
24816
25053
25179
24025
25134
25278
24681
23965
25174
25158
24426
24295
25368
25397
24236
24974
25241
25057
23967
25519
25556
25115
24119
25375
25667
24887
24452
25520
25168
24387
25231
25543
25475
24275
25457
25605
25414
24322
25592
25863
25350
24832
26051
25618
25025
25086
25840
25593
24408
25596
26021
25770
24491
25765
25583
25223
24505
25423
25354
24705
24129
25065
24925
23931
24723
25058
24842
23409
24453
24521
24334
23207
24601
24398
23811
23199
24225
24318
23322
23868
24327
24129
23346
24242
24364
23976
23024
24261
24276
23744
23037
24119
24200
23361
23562
24585
24133
23675
24189
24400
24451
23231
24595
24481
24392
23361
24639
24717
24290
23769
24797
24616
23634
24385
25055
24406
23537
25279
24924
24737
23554
24813
24901
24229
23876
25078
24896
23912
24364
24802
24945
23545
24891
25061
24932
23764
25014
25267
24772
23935
25445
25236
24373
24391
25428
25102
24168
24973
25383
25360
23924
25305
25119
24811
24124
25530
25199
25064
24293
24708
25175
25222
25139
25707
25367
24182
25431
25511
25343
24309
25674
25635
24242
24626
25849
25796
24577
25296
25799
25538
24469
25632
25993
25614
24286
25755
26106
25403
24893
25901
25911
25257
24882
26125
25504
24488
25266
25816
25338
24430
25277
25292
25077
24082
25152
25195
24368
23765
24942
24902
23610
24292
25120
24562
23542
24577
24405
24399
23389
24650
24560
24073
23652
24734
24531
23734
23757
24453
24307
23133
24224
24653
24211
23161
24450
24594
24011
23279
24605
24661
23799
23693
25019
24501
23281
24327
24580
24576
23577
24767
25042
24297
23698
24847
24812
24268
23461
24765
24818
23580
24444
24988
24877
23686
24773
24868
24934
23817
25027
24969
24475
23931
25478
25124
24333
24668
24982
25021
23890
24994
25387
25164
23847
25105
25403
24937
23924
25273
25436
24585
24531
25644
25212
23987
24880
25375
25389
24100
25197
25398
25088
24438
25481
25393
24838
24439
25502
25362
24278
25169
25466
25210
24041
25088
25634
25116
24228
25119
25436
25268
24355
25512
25705
24717
24590
25442
25265
24243
25430
25668
25587
24302
25621
25546
25124
24329
25701
25545
24935
24038
25081
25276
23699
24469
25557
24515
23622
24491
24542
24053
23223
24247
24336
23638
23194
24264
24113
23185
23562
23916
24010
22398
23856
24169
23717
22611
23600
23649
23346
22687
23922
23669
22931
22913
23937
23512
22414
23321
23738
23725
22720
23849
24040
23507
22710
24097
24151
23338
23213
24269
24087
23271
23629
24056
24156
22985
24147
24253
24049
22850
24172
24069
23706
23185
24425
24330
23467
23819
24364
24300
22822
24335
24574
24179
23033
24303
24536
24117
23175
24561
24690
23868
23246
24781
24386
23176
24245
24627
24493
23475
24320
24568
24344
23662
24717
24512
24083
23868
25102
24666
23549
24348
24867
24777
23804
24832
25157
24701
23615
24943
25017
24596
23931
25294
25067
24203
23954
25042
25023
23644
25034
25008
24967
23741
25208
25377
24851
24043
25393
25130
24671
24325
25525
25447
24259
24485
25445
25266
24108
25262
25104
24779
23763
25087
25225
24251
23600
24919
24608
23382
23942
24440
24488
23021
24080
24456
23763
22940
24050
24066
23343
22579
24164
24124
22638
22808
23941
23654
22056
23551
23420
23465
22127
23616
23838
23519
22442
23740
23618
23000
22529
24077
23544
22559
23326
24164
23882
22580
23889
24416
23493
22861
23977
24262
23914
22924
24663
24368
23244
23538
24468
24227
22843
24209
24178
24131
22984
24374
24446
23957
23426
24329
24497
23809
23692
24525
24365
23040
24220
24490
24311
23298
24427
24662
24308
23376
24753
24611
24224
23507
25195
24505
23521
24156
24782
24826
23372
24471
25027
24663
23667
24957
24854
24309
23959
25237
25114
23829
24549
25008
25004
23765
25020
25037
24815
23898
25115
25080
24839
24220
25312
25242
24406
24080
25505
25168
23655
24813
25270
25036
24012
25557
25284
25157
24028
25445
25319
24664
24248
25534
25643
24485
25074
25590
25312
24102
25219
25134
25577
23763
25077
24924
24525
23742
24650
24800
23644
23839
24600
24565
22999
24155
24287
24052
22788
24207
24419
23755
22865
24154
24168
23402
22803
24205
24073
22597
23635
24239
23664
22699
23809
24041
23600
22794
24022
23907
23471
22843
24208
24201
22944
23562
24016
24106
22919
24100
24299
24090
22958
24373
24233
23881
23551
24039
24611
23555
23336
24564
24172
23710
24333
24853
24321
23210
24405
24462
24300
23264
24746
24707
24057
23415
24889
24604
23251
24090
24542
24449
23182
24596
24964
24506
23738
24640
24721
24215
23617
25020
24962
24160
23912
25245
24866
23749
24883
25130
24846
23387
25512
25012
24473
23719
25251
25146
24203
24147
25381
25117
23451
24871
25355
24877
23971
24569
25064
24894
23994
25284
25079
24551
24356
25369
25406
24091
24753
25605
25131
24101
25133
25421
25235
24049
25550
25522
24882
23979
25604
25406
24203
24428
24725
25177
23356
24895
24863
24553
22895
23955
24637
24276
22971
24375
24195
23534
23122
24090
24097
22256
23522
24259
23766
22741
23739
24197
23528
22508
23901
24151
23192
22596
23949
23840
22869
23047
24001
23360
22528
23728
23905
23648
22712
23940
23955
23600
22656
23959
24298
23423
23588
24522
24208
23043
24000
24145
24116
22922
24243
24166
23978
23399
24558
24515
23490
23308
24501
24384
23178
23994
24243
24485
23154
24467
24863
24454
23154
24926
24741
23929
23430
25017
24776
23569
24316
24827
24718
23468
24471
24866
24572
23220
24933
25040
24378
23901
24857
25085
23983
24330
25317
25065
23489
24898
25285
24931
23687
25130
25193
24862
23859
25286
25072
24388
23765
25551
25186
24100
24534
25103
24857
23977
25226
25407
24862
23823
25280
25467
24524
24295
25625
25528
24536
24969
25444
25361
24155
25473
25728
25351
24120
25244
25775
25366
24451
25568
25414
24571
24318
25389
25247
23632
24769
24949
24565
23456
24539
24628
24194
23138
24498
24430
23720
23050
24302
24066
22660
23629
24430
24028
22726
23978
23931
23651
22749
23799
24080
23489
22814
24127
23963
22670
23289
23824
23618
22173
23832
23918
23878
22410
23989
24028
23614
22742
24320
24120
23119
23200
24262
24434
22924
23911
24340
24407
22982
24274
24325
24277
22714
24456
24563
23654
23324
24661
24563
23131
23872
24691
24166
23425
24257
24596
24393
23346
24605
24818
24408
23648
24644
24871
24379
24206
25008
24534
23506
24462
24677
24500
23663
24768
24787
24724
23696
24990
24957
24233
23997
25087
24796
23795
24652
25252
24846
24025
24960
25119
24591
24136
25049
25141
24838
23896
25257
25154
24013
24691
25190
25001
23934
25167
25298
25076
23931
25390
25253
24915
24217
25529
25519
24697
24816
25634
25642
24472
25264
25641
25476
24115
25492
25718
25332
24477
25570
25673
24808
24493
25439
25399
23980
24717
25163
24919
23646
25067
25178
24419
23485
24512
24856
24021
23397
24533
24190
22926
23651
24240
23876
22971
23588
23941
23737
22914
23965
23853
23442
22711
23689
23869
22661
22978
23816
23807
22237
23553
23973
23553
22538
23849
23805
23513
22777
24011
24018
23259
22979
24117
24077
23015
23486
24254
24214
23127
23951
24018
23739
22915
24338
24313
23885
23337
24578
24408
23116
23872
24633
24232
23208
24174
24540
24560
23193
24403
24435
24245
23505
24604
24854
23716
23680
25340
24565
23445
24429
24819
24564
23847
24835
24692
24495
23793
24984
24993
24360
23840
25339
24877
23846
24627
25135
24903
23897
24970
25252
24860
24208
25188
25270
24812
24089
25498
25309
24529
24775
25554
25139
23835
25681
25793
25234
24129
25851
25404
25141
24177
25481
25354
25107
24469
25580
25652
24198
25470
25684
25519
24213
25511
25648
25407
24564
25707
25687
25132
24547
25608
25595
24755
24964
25671
25495
24268
25074
25324
24892
23601
24921
24895
24521
23758
24865
24643
23631
23838
24812
24476
23553
24012
24376
24167
22855
24189
24209
23932
22992
23866
24195
23487
23005
23927
24068
22983
23645
24186
23941
22864
23512
24017
24011
22882
24296
24299
23543
23468
24385
24067
23179
23838
24628
24328
23420
24496
24644
24348
23496
24631
24698
24288
23737
24741
24618
23809
23863
24747
24527
23475
24408
24426
24694
23587
24888
25107
24431
23734
24892
24900
23900
23757
25020
24779
23946
24497
25070
25091
24020
24677
25227
24844
23768
25079
25320
24799
24057
25103
25338
24480
24647
25645
25293
24255
25007
25438
25181
24093
25148
25498
24897
24197
25608
25124
24686
24536
25659
25345
24430
25188
25471
25237
24151
25548
25510
25179
24247
25717
25484
24965
24589
25644
25652
24940
25140
25484
25556
24434
25395
25759
25525
24548
25727
25513
25092
24528
25447
25701
25041
24970
25665
25581
24014
25453
25463
25068
23918
25054
24965
24587
23623
24948
24611
23857
23626
24776
24611
23404
24248
24225
24377
23158
24206
24277
23925
23112
24233
24205
23698
22973
24347
24260
22849
23768
24213
23699
23164
23739
24330
23693
22937
24324
24272
23558
23157
24436
24657
23575
23791
24628
24350
23248
24378
25001
24475
23179
24625
24729
24379
23558
24940
24743
23804
23780
24936
24634
23603
24560
24558
24705
23760
23936
24999
24446
23509
24976
25008
24247
23857
25031
24395
24018
24710
25401
24884
23584
24986
25175
25191
24045
25093
25197
25013
23962
25502
24947
24346
24626
25370
25399
23864
25133
25227
25085
24094
25360
25572
25029
24272
25395
25393
25086
24616
25936
25512
24206
25135
25600
25384
24064
25412
25596
25409
24347
25864
25771
25024
24601
25711
25675
24921
25204
25741
25686
24560
25537
25837
25721
24628
25797
26114
25465
24780
25993
25809
25554
25117
25909
25596
24399
25396
25521
25375
24238
25282
25378
24844
24002
25119
25221
24333
23691
24840
24764
23419
24123
24557
24240
23401
24283
24110
23965
22888
24463
24296
23761
22971
24176
24294
23084
23549
23951
24044
22358
23823
24060
23789
23095
24106
24111
23571
22942
24245
24147
23495
23349
24154
24327
23086
24027
24347
24144
23076
24323
24462
24190
23492
24442
24730
24198
23301
24742
24471
23648
24126
24740
24395
23500
24581
24833
24468
23658
24765
24852
24228
23817
25069
24853
23704
24159
24947
24803
23490
24715
24867
25154
23863
24817
25268
24697
23829
25233
25128
24075
24204
25394
25251
24050
24832
25228
24987
23916
25168
25605
25007
24395
25369
25343
24756
24608
25512
25397
24444
25123
25945
25001
24133
25115
25821
25127
24287
25549
25597
25124
24559
25952
25597
24620
25005
26087
25538
24181
25460
25612
25576
24193
25627
26032
25381
24620
25862
26056
25036
24665
26073
25678
24388
25270
25753
25870
24230
25454
25542
25281
24017
25228
25168
24602
23988
25433
24930
23953
24274
24825
24493
23652
24392
24392
24333
23157
24396
24350
23946
23182
24362
24442
23748
23435
24377
24091
22961
23792
24298
24036
22869
24099
24329
24013
22814
24274
24162
23626
23082
24227
24373
23163
24082
24769
24612
23569
24497
24797
24437
23278
24693
24791
24135
23728
24976
24763
24042
24361
25070
24728
23959
24446
24830
24467
23415
24873
24976
24604
24011
24537
25053
24253
23764
25205
25134
23948
24726
25216
24733
23822
25151
25317
24800
24105
24921
25369
24678
24274
25660
25063
24221
24888
25623
25311
24126
25247
25465
25222
24273
25299
25271
25143
24315
25812
25528
24418
24822
25588
25370
24368
25300
25720
25442
24312
25433
26008
25287
24417
25616
25618
25077
24763
26332
25512
24938
25467
25964
25610
24789
25776
25966
25588
24711
25752
25909
25080
24818
26375
25957
24681
25323
26078
25888
24635
25618
26109
25694
24498
25765
25610
25192
24314
25334
25330
24458
24228
24944
24900
23546
24832
24631
24670
23372
24510
24778
24260
23311
24565
24663
23713
23430
24293
24473
23353
23975
24419
24090
23067
24229
24243
24034
23355
24311
24473
23796
23362
24570
24337
23478
24111
24604
24494
23484
24549
24804
24503
23384
24644
25160
24304
23688
24716
24767
24190
24071
25066
24836
23474
24757
24699
24744
23793
25034
24891
24896
23963
25244
25340
24601
24111
25202
24986
23833
24577
25310
25043
24015
25222
25479
24819
24117
25297
25547
24992
24137
25695
25358
24251
24858
25550
25483
24041
25336
25783
25224
24208
25544
25564
25115
24279
25996
25488
24913
24857
25713
25571
24735
25492
26025
25627
24480
25668
25804
25297
24402
25781
25784
25152
24707
25977
25780
24937
25257
26243
25567
24824
25919
26135
25761
24744
26088
26073
25661
24800
26228
25996
25179
25272
26316
26111
24793
25937
26044
25617
24488
25562
25862
25419
24351
25408
25577
24659
24423
25464
25177
23947
24709
25106
24883
23874
24720
25194
24463
23657
24974
24833
24357
23557
24846
24304
23216
24116
24661
24385
23258
24302
24675
24379
23193
24540
24595
24042
23506
24725
24742
23765
23979
24813
24874
23690
24630
24845
24720
23683
24703
24829
24943
24227
25017
24922
24411
23835
25296
25165
23832
24421
25056
25038
23923
24991
24985
24876
23884
25026
25074
24630
23745
24999
25188
23971
24693
24991
24974
24091
25128
25421
25022
23770
25350
25350
25191
24370
25267
25366
24746
24491
25423
25489
24426
25286
25720
25234
24194
25471
25974
25141
24509
25655
25653
24928
24519
25715
25710
24705
25085
25596
25966
24544
25536
25857
26216
24771
25863
26040
25401
24875
26031
26008
24690
25273
25883
25797
24850
25961
26064
25725
24480
25837
26326
25827
25015
26216
26364
25454
24972
25930
26017
24859
25683
26141
25524
24418
25605
25773
25527
24182
25424
25190
24817
24102
25112
24909
23735
24282
25107
24617
23452
24394
24370
24358
23193
24509
24507
24157
22926
24506
24250
23716
23546
24526
24141
23007
24276
24348
23908
23231
24362
24204
24053
23055
24386
24355
23473
23289
24515
24554
23444
24241
24499
24674
23437
24558
24744
24516
23687
24839
24765
24061
23756
24773
24619
23912
24233
25138
24724
23779
24537
25113
24703
23624
24930
25013
24438
23934
25224
25176
24225
24129
25106
25294
24061
24827
25345
24864
23967
25123
25431
24910
24391
25273
25428
24607
24487
26139
25347
24462
24856
25799
25424
24270
25346
25567
25241
24133
25704
25679
24925
24345
25855
25736
24549
25237
26027
25406
24525
25321
25593
25837
24367
25708
25796
25509
24443
25781
25695
25993
24674
26161
25809
24790
25435
25990
25662
24440
25882
25929
25675
24705
25744
26244
25424
24703
26123
25960
24748
25226
26014
25688
24525
25517
25712
25422
24238
25427
25442
24717
23705
25315
24930
24316
23963
24885
24838
23394
24340
24525
24412
23168
24481
24336
24261
23182
24597
24329
23631
23242
24383
24106
23143
23818
24290
23972
22718
24076
24245
23925
23277
24088
24258
23528
23237
24676
24332
23591
24033
24438
24429
23314
24399
24861
24467
23555
24903
24739
24487
23652
24945
24885
23787
24333
24987
24884
23397
24690
25156
24721
23358
25112
25257
24675
23901
25232
25253
24246
24236
25238
25204
23825
24713
25557
25156
24192
25073
25115
25020
24195
25316
25663
24765
24346
25612
25375
24649
24877
25678
25311
24463
25493
25791
25309
24357
25651
26106
25215
24518
25685
25595
24765
24693
25920
25590
24549
25499
25991
25556
24622
25689
25684
25444
24712
25799
25749
25172
24837
25968
25856
24702
25301
25828
25736
25029
26083
26009
25588
24770
25991
26106
25572
24803
26419
25991
25206
25524
25969
26064
25049
25739
26033
25655
24081
25822
25849
25471
24154
25351
25505
24329
24176
25237
25056
23856
24686
24719
24908
23426
24575
24813
24370
23130
24522
24694
23855
23400
24476
24337
23255
23853
24462
24155
23093
24115
24227
24081
23003
24341
24185
23893
23148
24420
24603
23485
23795
24368
24637
23213
24271
24751
24620
23430
24747
24691
24473
23543
24872
24588
24079
23680
24975
24895
23389
24577
25108
24577
23866
24938
24973
24593
23768
25107
24645
24319
23953
24953
25033
24063
24415
25120
25160
23794
24947
25128
24969
23802
25047
25237
24927
24172
25361
25470
24404
24654
25699
25436
24468
25108
25527
25314
24193
25307
25663
25355
24247
25483
25510
25093
24213
25640
25638
24620
24997
25535
25396
24167
25416
25622
25462
24408
25631
25936
25233
24800
25890
26057
24812
25061
25683
25726
24269
25524
26106
25618
24608
25878
26099
25638
24698
26068
26172
25238
25015
26274
26100
24675
25690
26132
25720
24757
25969
26188
25638
24600
25863
25800
24926
24470
25701
25447
24176
24874
25425
24889
23607
24913
25154
24914
23641
24734
24974
24013
23694
24781
24749
23888
24224
24635
24408
22424
24275
24440
24294
23215
24673
24138
23819
23367
24538
24716
23726
23548
24508
24441
23231
24289
24692
24272
23449
24569
24552
24569
23608
24807
24947
24456
23629
25017
24844
23645
24498
25005
24865
23764
25072
24988
24694
23544
24967
24953
24890
23651
25175
25200
24026
24413
25325
25114
23903
25180
25057
24994
23870
25433
25083
24883
24224
25328
25684
24530
24366
25090
25440
24073
24966
25617
25292
24575
25361
25752
25275
24183
25676
25831
25042
24310
25579
25528
24318
24986
25593
25707
24502
25394
25911
25429
24155
25892
25939
25650
24567
25877
25915
24996
24964
25940
25794
24813
25722
26007
25921
24788
26065
26159
25824
24959
26210
26258
25311
25200
25992
25918
24780
25683
25948
26185
25065
25923
26160
25875
24735
25925
25886
25241
24511
25927
25684
24327
24806
25485
24946
24044
24880
25399
24667
23578
24862
25172
24443
23654
24730
24696
23893
23659
24454
24502
23370
23995
24543
24307
23281
24272
24449
24078
23097
24434
24373
23745
23448
24532
24579
23356
24009
24689
24604
23406
24595
24584
24583
23643
24786
24837
24611
23723
24925
25041
24167
24301
25212
24872
23824
24823
25109
24772
23686
25005
25122
24821
23652
25131
25243
24600
24099
24956
25195
24001
24579
25192
25084
23840
25066
25417
24874
23964
25193
25293
24835
24216
25626
25375
24395
24585
25621
25424
25093
25230
25042
25294
23626
25626
25479
25308
24492
25665
25831
24899
24980
25983
25633
24374
25404
25759
25692
25126
25768
25731
25460
24718
25952
25653
24874
24621
25976
25900
24491
25125
26102
25662
24875
25598
25755
25626
24658
25955
26013
25771
24743
26163
26023
25149
25389
26214
25731
24205
25984
25690
25821
24623
25685
25932
25292
24398
25731
25605
24295
24332
25343
25154
23974
24531
25157
24684
23637
24636
24811
24431
23389
24635
24305
24230
23530
24473
24256
23356
23791
24139
24223
22247
24029
24584
23254
22775
24335
24003
23711
23022
24177
24142
23227
23441
24493
24080
22645
24022
24309
24168
22645
24283
24598
23931
23159
24603
24499
23656
23683
24584
24380
23300
24026
24745
24311
23356
24386
24550
24603
23237
24756
25045
24028
23333
24883
24727
23436
24337
24995
24898
23752
24610
24893
24747
23672
24945
25144
24746
23624
25162
25136
24037
24424
25478
24898
23681
25012
24887
25031
23949
25121
25297
24877
23765
25322
25079
24622
24012
25519
25248
24176
24905
25279
25396
24098
25023
25639
25108
24129
25552
25662
24792
24240
25553
25325
24752
24991
25735
25493
23869
25443
25596
25565
24489
25323
25682
25345
24491
25476
25643
25038
24858
25677
25861
24326
25576
25648
25576
24466
25280
25865
25459
24089
25684
25782
24824
24161
25376
25083
24256
24370
25232
24829
23397
24456
24795
24595
23368
24485
24576
23961
23210
24337
24451
23287
23501
24172
24083
22831
23739
24031
23848
22507
24178
24235
23661
22615
23933
23970
23417
22702
24261
23961
22479
23443
23703
23757
22780
23931
24169
23760
23000
24291
24467
23973
22992
24474
24449
23245
23839
24810
24153
23383
24247
24700
24140
23297
24281
24638
24025
23332
24737
24602
23632
23958
24776
24825
23590
24266
25071
24486
23586
24775
24929
24498
23821
24796
24917
24308
23702
24772
24872
23444
24336
25185
24884
23488
24660
25211
24804
23586
25177
25278
24506
24079
25011
25557
24016
24485
25152
25187
23790
25117
25404
24944
24000
25105
25150
25118
24114
25723
25603
24529
24384
25880
25392
24071
25072
25569
25344
24387
25389
25720
25241
24399
25518
25598
25136
24111
25554
25651
24469
24980
25926
25595
24106
25468
26022
25483
23834
25687
25879
25239
24362
25872
25445
24213
24708
25153
25284
23573
24557
24978
24788
23376
24558
24672
24272
23232
24676
24467
23821
23484
24288
24446
22859
23557
24335
24132
22750
23978
24337
23848
22675
23990
24155
23456
22596
24117
23940
22838
23403
24026
24013
22690
23794
24125
24048
22834
24182
24447
23880
23114
24772
24513
23573
23770
24344
24272
23097
24138
24530
24587
22974
24580
24583
24372
23187
24745
24363
24135
23419
24580
24851
23537
24212
24859
24698
23216
24679
24943
24527
23516
24850
24955
24276
23524
24874
25101
23699
24233
24765
25054
23628
24733
24676
25077
23665
25129
25220
24706
23821
25051
25187
24451
24406
25146
25448
23631
24824
25021
25183
23762
25245
25593
24730
24016
25405
25571
24826
24111
25447
25239
24208
24730
25782
25242
24379
25325
25573
25336
24168
25579
25599
25203
24501
25585
25678
24652
24776
25740
25632
24549
25352
25901
25675
24336
26113
25478
25493
24456
25701
25648
24836
24556
25808
25462
24037
25025
25546
25263
23898
25027
25206
24783
23585
25018
24849
24221
23391
25068
24635
23400
23956
24878
24558
23235
24121
24785
24323
23012
24641
24358
23752
23056
24343
24161
23176
23584
24515
24404
23292
24037
23940
25010
23370
24501
24361
24120
23267
24650
24617
23845
23612
25012
24801
23331
24103
25024
24502
23593
24499
24708
24475
23676
24771
24924
24258
23583
24814
24892
23960
24502
24856
24853
23586
24689
25124
24664
23524
24919
25056
24521
23763
25149
24797
23937
24798
25655
25267
23387
25173
25228
24776
23732
24723
25453
25189
23837
25877
25324
24547
23696
25244
25001
23860
24865
24742
25518
24055
25277
25563
25323
23951
25450
25612
24908
24428
25643
25736
24551
24909
25603
26111
24704
25143
25655
24838
24147
25610
25631
25222
24333
25618
25505
24762
24615
25412
26370
24557
25185
26218
25376
24570
25332
26335
26259
25142
25535
26078
24985
24518
26024
25518
24594
24901
25249
25186
23867
24920
25472
24700
23569
25489
25071
24480
23292
25083
24620
23600
23730
24696
24242
22999
24135
24739
24120
23007
24182
24552
23846
23188
24064
24309
23662
23518
24090
24194
22964
23929
24343
24217
23247
24190
24525
24234
22881
24658
24552
24703
23292
23999
24709
23873
23878
25309
24447
23726
24291
24553
24109
23270
24692
24702
24414
23501
24643
24951
23871
24079
24546
24661
23445
24480
24785
24529
23486
24806
24491
24870
23961
24908
24953
24266
23659
25000
25154
23614
24467
25670
24925
23794
24980
25031
25091
23957
25413
25037
24459
24254
25056
24964
23683
24747
24894
25289
24114
25326
25307
25233
24169
25363
25523
25038
24165
25696
25785
24663
24629
25669
25232
24149
25434
25114
25505
24340
25671
26218
25343
24112
25708
25648
25041
24294
25769
25578
24621
25292
26098
25582
24425
25400
26011
25652
24187
25823
26069
25293
24458
26150
25591
24861
24908
25803
25390
23983
24773
25402
24700
23716
24897
25000
24057
23365
24621
24675
23815
23609
24471
24278
23082
24073
24050
24206
22943
23992
24268
23854
22810
24116
24057
23351
22753
24284
23702
22909
23281
24058
23467
22607
23856
23844
23740
22376
24098
24244
23905
23086
24523
24373
23410
23784
24639
24165
23371
23862
24631
24324
23204
24436
24540
24007
23386
24544
24716
24045
23460
24848
24551
23492
24059
24792
24290
23600
24561
24761
24404
23725
24755
24634
23847
23597
24903
24790
23576
24279
24947
24652
23834
24582
24646
24700
23615
24818
25198
24872
23962
25302
24968
24087
24310
24974
25374
23888
24757
24901
24840
23753
25100
25173
24701
23902
25439
25324
24673
24272
25654
25166
24041
24903
25567
25275
24136
25729
25516
25571
24252
25182
25874
24745
24358
25596
25424
24238
24813
25350
25567
24109
24705
25888
25419
24460
25785
25647
25388
24678
25931
25774
24985
24771
25885
25613
24203
25032
25782
25183
23913
25337
25561
24970
24412
24269
25225
24156
23795
24785
24602
23467
23826
24547
24350
23242
23821
24549
24170
22732
23378
24133
23201
22341
24237
24479
22892
23282
23519
23799
22350
23774
23987
23612
22711
23814
24000
23619
22821
24102
24186
23466
23354
24426
24289
22702
24177
24738
23934
23020
24549
25111
23405
23057
25362
24794
23745
23941
24858
24627
22879
24116
24185
24768
23136
25068
24303
24430
23846
24820
24272
24665
22938
25027
24648
23693
23395
25442
24800
23234
24437
24359
24469
23863
25368
25215
25257
23861
24546
24783
24295
24030
24602
25135
24240
24779
25024
25130
23318
24930
25038
25136
23323
25650
25243
24338
23834
25496
25243
23920
24745
25925
25075
23344
25387
24937
25240
24418
25890
25817
25056
23670
25671
25518
24343
24512
25836
25812
24521
24586
26199
25502
24931
24656
26133
25914
24731
25678
26479
24432
24841
26084
26013
25181
25381
26425
25922
23719
25431
25439
25240
24746
26253
25274
25027
23605
24672
24692
24529
24419
25495
24509
23495
24125
24768
24088
23018
24324
24349
23864
23438
24396
24289
23291
23350
24042
24179
22695
23679
23923
23957
22736
23810
24219
23595
22765
24138
23838
23254
23077
24280
23846
22863
23413
24406
23724
23035
24021
24515
24087
23269
24117
24418
24052
23102
24738
24393
23351
23844
24461
24586
23528
24221
24404
24560
23590
24423
24718
24029
23559
24595
24825
23954
23654
24669
24745
23470
24214
24884
24606
23270
24917
25162
24652
23792
24721
25214
23921
23810
25420
25267
23917
24509
25242
25248
24088
24925
25027
24936
23968
25210
25168
24736
24170
25239
25342
24915
25011
25425
25486
24242
25044
25433
25364
24265
25357
25437
25120
24262
25738
25459
24441
24405
25680
25573
24167
25106
25749
25533
24359
25408
25645
25009
24457
25796
25664
25021
24537
25727
25496
24634
24792
25558
25543
24298
25650
25551
25602
24560
25947
25621
25276
24670
25478
25656
24882
24644
25602
25195
24000
24671
25358
24781
23739
24680
24999
24429
23163
24195
24445
23485
23121
24918
24318
23382
23588
24563
23878
22783
23956
24208
24134
23041
24088
24266
23726
22784
24248
24134
22958
23581
24394
23974
22640
24034
24293
24325
23057
24245
24493
23854
23498
24649
24714
23534
23539
24430
24544
22436
24385
24856
24515
23296
24401
24656
24359
23202
24614
24892
23891
23481
24662
24681
23354
24279
25034
24714
23799
24534
25125
24485
23825
24753
24985
24347
23724
24956
24978
24117
24402
25277
25044
23694
24908
24856
25281
24171
25016
25480
24843
24149
25232
25204
24245
24431
25705
25431
24142
25049
25455
25134
23989
25484
25670
25138
24180
25652
25460
24673
24395
25465
25509
24501
24852
25793
25541
24440
25279
25413
25305
24110
25497
25668
25015
24485
25882
25868
24823
25149
26055
25697
24348
25514
25938
25377
24780
25584
25995
25154
24439
25934
25736
25053
24766
25464
25220
24171
24924
25408
25296
23762
25202
25335
24972
23670
24904
24727
24136
23597
25045
24764
23497
23837
24793
24324
23042
23965
24286
24564
22819
24260
24512
23828
22971
24421
24428
23304
23184
24308
24277
22762
23884
24402
23878
22905
24160
24496
23945
23290
24478
24595
23901
23320
24691
24826
23533
24282
24610
24867
23335
24703
25117
24639
23854
24963
25233
24533
23968
24982
25254
24201
24354
25159
25183
24217
24755
25036
24934
23793
25153
25487
24779
23799
25322
25207
24201
24248
25658
25138
24319
24617
25578
25192
23821
25294
25288
25080
24383
25502
25568
25162
24300
25614
25572
24266
24865
25774
25607
24367
25340
25835
25283
24338
25714
26066
25134
24530
25650
25666
24952
24881
25939
25818
24794
25448
25747
25703
24356
25554
25939
25362
24182
26012
26050
25017
24709
25982
25931
24836
25305
25881
25915
24517
25960
26030
25709
24869
26015
26295
25267
24872
26257
26105
25031
25381
25848
26033
24750
25649
26053
25546
24412
25678
25415
24977
24035
25391
25337
24433
24408
25098
24729
23572
24585
24945
24784
23420
24540
24593
24406
23481
24609
24617
23999
23445
24745
24429
23655
23760
24739
24461
22998
24251
24698
24027
23161
24358
24559
24183
23401
24831
24341
23694
23799
24603
24871
23239
24322
25264
24767
23650
24917
25003
24505
23701
25274
25264
24134
24072
24888
25019
23388
24500
25239
24658
23684
24800
25235
25037
23821
25207
25099
24352
24001
25261
25443
23999
24516
25455
25225
24209
25065
25456
25389
23891
25445
25658
25061
24210
25606
25698
24533
24819
25511
25642
24081
25238
25542
25521
24200
25580
25804
25334
24354
25616
25595
24711
24754
25925
25676
24539
25332
25631
25326
24467
25620
25554
25706
24345
25147
25785
24882
24506
26339
25824
24317
25184
25925
25468
24518
25571
26096
25722
24597
25946
25981
25330
24564
26187
25916
24911
25136
26135
25738
24416
25403
25472
25390
24251
25663
25534
24917
23998
25302
25062
23985
23617
25201
24879
23708
24301
24572
24566
23443
24426
24665
24168
22921
24445
24626
24195
23328
24495
24623
23268
23697
24660
24122
23370
24152
24493
24063
23102
24592
24562
24190
23357
24622
24562
23525
24204
24578
24751
23183
23861
24746
24550
23565
24695
24878
24454
23682
25054
24772
24116
23731
25187
24698
23748
24604
25042
24720
24669
23856
24922
24702
23423
24886
25076
23798
23972
24654
24963
23967
24355
25292
24971
23824
24913
25282
24966
23904
25220
25538
24674
24014
25173
25384
24613
24251
25661
25386
24236
24880
25385
25177
24242
25416
25632
25249
23897
25386
25675
24814
24284
25803
25580
24061
25064
25809
25467
24159
25445
25677
25443
24384
25601
25817
25345
24561
25792
25783
24936
25249
25987
25796
24582
25546
25946
25583
24497
25796
25768
25644
24677
26027
25745
25157
24870
25901
25856
24407
24913
25557
25421
24169
25556
25271
24980
23818
24954
25019
24218
23678
24935
24557
23142
24031
24690
24298
23102
24013
24567
24292
22915
24144
24259
24071
23100
24066
23963
22811
23388
24441
24194
22679
23771
24065
23677
22488
23882
24176
23965
22988
24514
24467
23284
23256
24485
24325
23159
23807
24793
24290
23531
24182
24191
24288
23473
24635
24858
24196
23318
25077
24853
23418
24052
24610
24485
23706
24496
24909
24323
23532
24646
25002
24589
23909
25158
24987
24241
24179
25047
25286
23550
24392
24876
24914
23687
24954
25386
24964
23950
25038
24910
24710
24064
25649
24902
24429
24687
25118
25181
24242
24938
25482
25122
23919
25375
25389
25042
24297
25554
25428
24479
25035
25368
25419
24102
25421
25796
25336
24201
25540
25860
25293
24433
25944
25893
24916
24829
25622
25644
24719
25296
25760
25912
24362
25314
25868
25493
24305
25770
26068
25255
24491
25695
25580
23840
24789
25689
25189
24064
24812
25355
24783
23778
24682
24654
24194
23625
24551
24563
23678
23640
24475
24084
23337
24088
24594
23944
22869
23881
24272
23650
22749
23783
24009
23162
22924
24083
24084
22599
23504
24378
23789
22700
23757
24213
23719
22976
24165
24375
23705
23110
24492
24338
23290
23486
24316
24122
22884
24357
24614
24286
23265
24471
24667
24149
23626
24716
24533
23805
24028
24820
24557
23760
24059
24801
24592
23003
24501
24652
24323
23691
24727
24820
24126
23450
24869
24949
23603
24503
24979
24967
23639
24877
25383
24869
23921
25343
25546
24714
23922
25531
25373
24026
24666
25567
25061
24140
25178
25602
25308
23887
25313
25623
25002
24089
25529
25633
24819
24666
25565
25499
24632
25181
25725
25227
24109
25499
25600
25346
24604
25579
25638
24902
24364
25653
25820
24699
25084
25684
25629
24435
25737
25960
25598
24652
25992
25625
25085
24553
25788
25674
24520
24874
25464
25275
23707
24753
24771
24905
23275
24794
24681
24394
23608
24815
24777
23741
23511
24598
24682
23078
24020
24924
24336
23042
24257
24353
24090
23214
24234
24640
23735
22984
24524
24401
23428
23566
24616
24279
23133
23924
24545
24182
23271
24551
24410
24259
23363
24622
24844
23503
24058
24735
24753
23798
24192
24835
24682
23452
24606
24899
24396
23917
24937
24899
24274
23876
24850
24813
23983
24406
25070
24863
23329
24942
24979
25028
23925
25032
25197
24606
24081
25341
25174
24230
24666
25168
25199
23901
25210
25480
24933
24043
25316
25147
24655
24150
25437
25542
24527
24758
25488
25194
23776
25126
25412
25203
24489
25487
25862
25038
24336
25339
25742
24641
24479
25791
25417
24497
25276
25474
25625
24237
25400
26041
25358
24510
25665
25894
25385
24582
25624
25711
24709
25087
25805
25540
24631
25588
26200
25687
24452
25749
25757
25419
24567
25626
25493
24452
24389
25292
25270
23982
24633
24907
24840
23710
24776
24648
24281
23256
24366
24687
23845
23310
24840
24225
23451
23700
24317
24276
23383
24135
24819
23396
22919
24067
24217
