54503
54437
54365
54302
54250
54210
54181
54150
54111
54068
54028
53984
53932
53879
53832
53796
53771
53752
53734
53707
53667
53612
53545
53480
53423
53375
53340
53316
53293
53271
53246
53213
53180
53148
53107
53059
53008
52966
52937
52914
52888
52855
52814
52765
52706
52643
52586
52536
52489
52447
52407
52370
52340
52311
52273
52215
52149
52086
52029
51975
51920
51867
51818
51771
51726
51682
51635
51583
51524
51461
51395
51330
51270
51217
51174
51136
51101
51064
51022
50971
50909
50843
50777
50716
50668
50641
50647
50691
50776
50907
51085
51307
51574
51885
52229
52594
52962
53307
53622
53904
54145
54349
54526
54678
54802
54896
54962
55014
55056
55081
55091
55090
55084
55066
55039
55009
54984
54966
54956
54950
54943
54936
54928
54915
54903
54892
54888
54894
54906
54930
54966
55000
55027
55044
55051
55048
55044
55042
55037
55030
55020
55001
54970
54927
54871
54804
54739
54690
54662
54643
54624
54606
54589
54566
54536
54511
54490
54473
54467
54464
54463
54466
54470
54473
54475
54468
54450
54427
54399
54370
54339
54303
54266
54227
54186
54151
54124
54100
54074
54038
53992
53945
53901
53856
53811
53773
53739
53704
53665
53624
53576
53523
53469
53416
53370
53327
53282
53234
53189
53149
53114
53087
53067
53046
53017
52983
52943
52893
52839
52785
52739
52703
52681
52673
52668
52653
52631
52606
52579
52548
52515
52479
52444
52411
52383
52358
52333
52303
52268
52226
52179
52127
52068
52004
51933
51858
51788
51724
51666
51619
51587
51564
51545
51526
51506
51476
51432
51375
51311
51248
51191
51143
51105
51074
51052
51029
50995
50952
50902
50848
50788
50724
50658
50600
50551
50511
50475
50446
50419
50388
50359
50339
50339
50366
50439
50572
50760
50992
51264
51565
51881
52195
52498
52783
53042
53268
53464
53639
53798
53944
54080
54209
54321
54409
54470
54503
54506
54489
54467
54443
54419
54401
54389
54376
54368
54371
54379
54384
54385
54388
54394
54401
54410
54428
54452
54479
54509
54544
54581
54614
54643
54671
54690
54693
54678
54649
54610
54569
54531
54497
54463
54427
54399
54379
54358
54335
54304
54265
54232
54202
54167
54133
54110
54092
54076
54064
54052
54030
54003
53976
53954
53939
53940
53953
53966
53974
53972
53958
53933
53896
53854
53810
53767
53717
53662
53608
53556
53508
53467
53429
53391
53352
53320
53295
53265
53224
53177
53129
53079
53030
52987
52955
52928
52893
52856
52826
52796
52759
52714
52661
52599
52535
52475
52420
52368
52321
52279
52245
52218
52194
52170
52141
52100
52056
52019
51981
51935
51891
51859
51831
51804
51783
51769
51755
51733
51704
51665
51618
51571
51527
51484
51441
51402
51363
51320
51277
51237
51201
51162
51116
51060
51003
50950
50895
50835
50781
50734
50694
50656
50614
50562
50506
50449
50395
50346
50295
50243
50195
50156
50123
50091
50059
50025
49989
49946
49897
49840
49780
49722
49674
49634
49598
49572
49558
49562
49591
49654
49758
49912
50116
50356
50628
50928
51243
51558
51871
52174
52456
52713
52945
53145
53304
53419
53500
53557
53604
53646
53678
53701
53728
53756
53777
53785
53777
53758
53735
53707
53682
53668
53668
53683
53711
53745
53776
53802
53823
53842
53859
53877
53896
53914
53935
53964
54000
54042
54083
54108
54116
54111
54088
54050
54004
53950
53891
53836
53796
53771
53755
53739
53719
53695
53667
53634
53601
53574
53555
53545
53545
53552
53562
53575
53589
53597
53596
53582
53557
53527
53495
53464
53430
53393
53363
53346
53336
53325
53310
53289
53256
53208
53157
53108
53067
53029
52982
52928
52881
52847
52811
52765
52717
52667
52618
52567
52509
52445
52387
52343
52309
52273
52234
52198
52166
52135
52103
52072
52036
52001
51972
51949
51921
51884
51845
51805
51765
51737
51723
51717
51711
51690
51649
51594
51533
51473
51419
51372
51331
51294
51267
51243
51218
51193
51161
51120
51074
51022
50961
50898
50841
50793
50747
50704
50665
50626
50585
50538
50483
50430
50380
50330
50279
50232
50187
50141
50098
50059
50024
49993
49963
49922
49871
49817
49764
49715
49674
49640
49611
49580
49545
49506
49455
49390
49324
49265
49220
49199
49211
49257
49348
49491
49685
49923
50197
50488
50789
51092
51393
51687
51980
52261
52517
52752
52960
53124
53239
53317
53364
53390
53404
53412
53413
53408
53396
53383
53372
53358
53344
53331
53320
53314
53313
53316
53319
53326
53343
53365
53385
53401
53414
53428
53443
53457
53471
53489
53510
53531
53551
53568
53582
53594
53594
53580
53553
53513
53470
53430
53393
53354
53318
53292
53274
53260
53251
53248
53239
53225
53208
53185
53165
53157
53159
53169
53179
53187
53190
53193
53188
53169
53142
53117
53100
53088
53075
53059
53042
53027
53011
52988
52949
52892
52825
52761
52709
52665
52625
52585
52544
52503
52462
52416
52367
52318
52268
52216
52161
52096
52022
51961
51924
51898
51876
51858
51837
51809
51782
51759
51728
51684
51632
51585
51552
51530
51514
51505
51497
51494
51495
51495
51487
51466
51429
51385
51344
51305
51262
51215
51177
51147
51121
51099
51083
51074
51067
51054
51027
50991
50957
50926
50893
50852
50804
50751
50689
50620
50554
50498
50444
50390
50345
50318
50299
50277
50250
50224
50201
50180
50165
50165
50191
50253
50357
50508
50698
50925
51188
51474
51768
52066
52358
52626
52861
53064
53235
53378
53492
53575
53633
53675
53706
53729
53747
53757
53758
53761
53767
53769
53762
53751
53737
53721
53710
53705
53704
53696
53681
53664
53649
53645
53653
53675
53709
53750
53792
53836
53874
53896
53901
53891
53871
53843
53812
53786
53756
53716
53661
53594
53537
53494
53457
53418
53377
53339
53309
53285
53271
53274
53296
53329
53361
53384
53396
53398
53395
53393
53396
53394
53379
53355
53329
53308
53294
53281
53274
53268
53256
53234
53203
53161
53110
53056
52997
52939
52882
52828
52783
52749
52721
52699
52681
52659
52630
52590
52546
52495
52435
52366
52288
52210
52145
52091
52043
51997
51959
51933
51916
51906
51897
51886
51874
51859
51835
51801
51765
51735
51712
51692
51677
51672
51679
51691
51694
51686
51665
51630
51590
51543
51492
51448
51413
51383
51357
51328
51291
51248
51202
51154
51105
51059
51022
50995
50976
50962
50949
50935
50915
50886
50848
50805
50754
50696
50638
50591
50554
50521
50489
50455
50412
50354
50284
50220
50173
50146
50148
50185
50256
50367
50516
50698
50898
51116
51355
51613
51881
52152
52423
52690
52945
53177
53378
53541
53669
53770
53853
53916
53957
53977
53981
53975
53969
53965
53962
53967
53976
53985
53990
53995
53996
53997
53996
53995
54004
54028
54057
54087
54116
54145
54177
54206
54230
54249
54262
54270
54275
54276
54279
54284
54285
54281
54269
54246
54215
54176
54129
54076
54028
53982
53934
53891
53852
53822
53808
53809
53821
53834
53842
53849
53858
53859
53843
53820
53798
53779
53767
53757
53738
53716
53701
53692
53682
53668
53648
53617
53582
53548
53511
53469
53427
53392
53361
53336
53319
53304
53283
53251
53212
53163
53105
53039
52971
52905
52848
52801
52766
52743
52727
52713
52704
52693
52679
52661
52637
52606
52571
52535
52498
52461
52422
52380
52347
52330
52317
52299
52279
52262
52242
52212
52168
52119
52064
52008
51954
51903
51857
51822
51800
51782
51762
51739
51716
51685
51643
51596
51547
51499
51453
51403
51349
51298
51250
51209
51179
51157
51136
51108
51074
51042
51012
50982
50950
50917
50871
50808
50741
50681
50626
50579
50536
50495
50456
50425
50405
50387
50366
50338
50305
50267
50223
50175
50127
50090
50086
50128
50219
50361
50556
50794
51063
51364
51681
51998
52302
52583
52834
53053
53239
53393
53514
53608
53687
53761
53830
53885
53928
53968
53995
53997
53987
53979
53972
53959
53943
53928
53915
53904
53897
53898
53904
53918
53941
53971
54008
54056
54116
54180
54239
54287
54326
54358
54381
54393
54391
54378
54362
54337
54302
54267
54233
54205
54187
54170
54154
54139
54120
54093
54059
54019
53975
53930
53890
53861
53841
53831
53832
53842
53857
53875
53890
53895
53891
53883
53869
53845
53821
53796
53769
53745
53724
53702
53679
53660
53646
53633
53620
53610
53594
53566
53527
53483
53435
53377
53314
53258
53214
53180
53149
53117
53089
53066
53041
53007
52964
52915
52863
52811
52760
52718
52686
52659
52630
52599
52569
52532
52486
52437
52385
52331
52281
52241
52214
52190
52168
52146
52117
52083
52045
52008
51975
51948
51921
51895
51875
51849
51810
51770
51733
51686
51633
51582
51532
51481
51432
51386
51345
51307
51268
51226
51183
51137
51093
51051
51006
50960
50918
50883
50848
50809
50767
50718
50660
50601
50550
50509
50475
50445
50415
50378
50335
50284
50224
50161
50107
50065
50037
50031
50044
50076
50136
50231
50369
50547
50761
51008
51279
51563
51849
52126
52382
52615
52829
53025
53196
53347
53481
53585
53654
53698
53726
53749
53774
53800
53823
53836
53832
53813
53789
53766
53750
53753
53771
53791
53808
53820
53832
53843
53851
53860
53873
53898
53932
53965
53999
54035
54070
54101
54121
54132
54134
54127
54113
54101
54087
54059
54020
53973
53931
53895
53863
53837
53818
53808
53801
53788
53768
53745
53727
53718
53717
53720
53724
53733
53746
53758
53759
53750
53737
53722
53708
53693
53686
53690
53689
53679
53660
53628
53583
53538
53503
53472
53445
53419
53392
53360
53321
53275
53217
53151
53089
53042
53001
52956
52903
52840
52771
52706
52651
52610
52582
52571
52567
52558
52538
52510
52477
52431
52375
52319
52270
52236
52217
52205
52196
52191
52189
52183
52162
52126
52085
52042
52008
51985
51962
51936
51903
51866
51828
51786
51738
51687
51637
51588
51545
51512
51480
51440
51392
51345
51303
51268
51239
51215
51192
51163
51123
51076
51027
50981
50934
50886
50836
50782
50734
50708
50715
50754
50830
50944
51090
51271
51484
51722
51980
52243
52502
52746
52966
53163
53343
53504
53639
53757
53861
53944
54007
54051
54073
54077
54072
54066
54066
54073
54079
54082
54083
54075
54056
54035
54021
54019
54026
54040
54062
54087
54107
54123
54141
54164
54192
54226
54255
54280
54296
54297
54281
54250
54211
54170
54138
54115
54090
54061
54033
54006
53980
53951
53922
53893
53864
53838
53822
53816
53822
53837
53850
53858
53863
53864
53862
53860
53862
53868
53881
53905
53935
53953
53947
53927
53902
53875
53844
53805
53765
53723
53681
53636
53578
53515
53454
53396
53342
53292
53250
53219
53192
53158
53112
53059
53007
52956
52909
52876
52850
52823
52799
52783
52772
52752
52722
52690
52651
52606
52568
52540
52516
52492
52465
52435
52404
52372
52338
52301
52260
52215
52178
52155
52143
52133
52114
52086
52060
52036
52009
51977
51942
51906
51874
51853
51833
51806
51771
51733
51692
51641
51586
51534
51490
51457
51428
51396
51358
51310
51253
51195
51139
51092
51057
51029
51017
51023
51042
51075
51135
51234
51370
51536
51732
51960
52217
52491
52769
53040
53291
53519
53722
53896
54043
54180
54312
54430
54526
54604
54669
54717
54747
54762
54765
54761
54750
54748
54765
54800
54841
54879
54916
54955
54991
55019
55048
55082
55114
55145
55171
55195
55219
55244
55272
55301
55328
55352
55377
55401
55413
55410
55397
55373
55345
55313
55278
55244
55212
55185
55169
55159
55145
55126
55106
55083
55053
55022
54999
54986
54985
54997
55018
55040
55057
55064
55063
55052
55035
55024
55022
55030
55042
55050
55049
55037
55008
54964
54912
54859
54812
54778
54754
54730
54704
54677
54643
54597
54547
54491
54430
54367
54307
54252
54202
54162
54128
54093
54061
54033
53994
53943
53892
53846
53809
53786
53774
53768
53763
53755
53737
53708
53667
53617
53562
53500
53443
53399
53365
53338
53317
53302
53284
53253
53214
53177
53141
53102
53072
53053
53038
53021
52998
52965
52916
52853
52785
52723
52667
52624
52599
52585
52576
52566
52548
52522
52489
52449
52397
52340
52285
52231
52178
52128
52084
52041
51998
51959
51918
51869
51816
51763
51709
51653
51599
51555
51524
51507
51502
51501
51505
51525
51566
51631
51725
51860
52038
52250
52484
52735
52998
53271
53546
53815
54075
54326
54562
54784
54985
55159
55301
55416
55504
55565
55604
55635
55664
55694
55727
55760
55792
55826
55860
55894
55928
55959
55983
56003
56025
56053
56087
56124
56167
56221
56288
56362
56428
56479
56515
56538
56550
56564
56590
56626
56663
56684
56684
56665
56633
56599
56569
56544
56521
56502
56487
56465
56426
56378
56333
56289
56251
56226
56215
56215
56220
56218
56208
56201
56200
56209
56224
56243
56263
56280
56294
56297
56284
56261
56234
56203
56171
56142
56113
56087
56058
56025
55983
55927
55864
55798
55730
55666
55611
55569
55535
55507
55483
55461
55428
55378
55319
55254
55190
55139
55105
55078
55046
55009
54970
54928
54883
54840
54793
54739
54687
54640
54596
54557
54525
54502
54483
54460
54426
54383
54331
54277
54226
54183
54149
54117
54084
54049
54018
53986
53943
53888
53828
53770
53709
53653
53608
53568
53531
53499
53470
53434
53393
53347
53297
53252
53214
53182
53154
53128
53102
53075
53040
52994
52942
52882
52820
52762
52711
52668
52630
52592
52555
52515
52468
52408
52342
52278
52223
52175
52130
52096
52078
52073
52068
52055
52036
52017
52014
52042
52114
52239
52412
52626
52876
53153
53446
53743
54035
54315
54576
54812
55026
55238
55453
55650
55816
55953
56067
56155
56220
56258
56272
56273
56266
56258
56257
56259
56263
56271
56293
56328
56364
56396
56415
56422
56432
56453
56490
56541
56598
56657
56716
56771
56818
56856
56884
56903
56918
56937
56956
56967
56962
56944
56917
56885
56854
56821
56789
56756
56722
56698
56685
56677
56665
56645
56622
56597
56569
56536
56512
56508
56514
56522
56528
56529
56522
56512
56504
56502
56507
56515
56523
56528
56524
56507
56477
56434
56380
56324
56272
56219
56173
56140
56113
56082
56045
55998
55939
55881
55830
55783
55735
55689
55648
55607
55563
55513
55460
55410
55363
55316
55273
55235
55206
55184
55162
55134
55100
55061
55014
54957
54900
54845
54793
54745
54702
54672
54653
54634
54610
54579
54538
54485
54435
54389
54346
54312
54282
54250
54214
54176
54136
54096
54055
54010
53960
53908
53861
53824
53794
53766
53732
53696
53661
53628
53589
53540
53482
53417
53352
53294
53249
53213
53172
53121
53061
52997
52926
52853
52789
52731
52674
52627
52600
52595
52617
52668
52754
52888
53072
53301
53568
53866
54183
54511
54836
55147
55439
55701
55920
56097
56238
56354
56454
56539
56606
56658
56693
56712
56720
56715
56692
56653
56609
56576
56560
56560
56569
56583
56604
56634
56673
56714
56754
56787
56811
56830
56848
56864
56883
56909
56942
56975
56998
57009
57008
56989
56953
56902
56841
56777
56717
56668
56624
56577
56526
56484
56451
56423
56406
56401
56404
56416
56440
56476
56519
56559
56594
56619
56622
56610
56598
56590
56577
56560
56544
56527
56504
56476
56445
56409
56360
56301
56234
56163
56095
56034
55980
55936
55902
55873
55838
55794
55741
55684
55625
55565
55506
55452
55408
55372
55335
55300
55265
55222
55170
55113
55058
55007
54964
54936
54915
54898
54882
54864
54841
54804
54761
54720
54680
54644
54619
54610
54607
54606
54601
54581
54547
54503
54449
54387
54323
54263
54206
54160
54124
54086
54038
53984
53923
53858
53800
53752
53713
53679
53646
53617
53598
53593
53601
53626
53668
53741
53862
54032
54243
54493
54778
55078
55374
55650
55904
56140
56356
56556
56744
56919
57075
57200
57293
57366
57419
57456
57484
57507
57530
57551
57569
57587
57607
57628
57649
57665
57673
57680
57689
57702
57719
57746
57788
57838
57893
57952
58007
58049
58074
58084
58090
58091
58084
58073
58063
58050
58031
58004
57976
57948
57919
57894
57870
57843
57818
57791
57763
57735
57707
57683
57661
57645
57644
57657
57670
57679
57684
57678
57659
57632
57604
57576
57551
57537
57530
57519
57500
57477
57454
57427
57401
57374
57340
57296
57244
57186
57121
57049
56973
56901
56839
56784
56729
56676
56625
56577
56538
56509
56483
56448
56407
56360
56303
56240
56180
56124
56070
56017
55965
55917
55867
55819
55785
55765
55748
55723
55692
55659
55621
55572
55517
55458
55406
55362
55324
55286
55249
55220
55196
55167
55129
55086
55041
54993
54942
54885
54833
54790
54753
54716
54678
54637
54595
54555
54513
54468
54415
54354
54294
54242
54197
54158
54121
54083
54045
54008
53966
53921
53872
53816
53760
53716
53691
53694
53740
53838
53987
54175
54389
54627
54881
55149
55427
55703
55970
56234
56487
56722
56934
57117
57275
57407
57513
57600
57674
57730
57773
57815
57856
57898
57943
57984
58007
58007
57995
57979
57964
57954
57957
57979
58016
58061
58104
58148
58195
58238
58274
58304
58336
58375
58415
58448
58478
58507
58534
58548
58542
58517
58483
58449
58414
58377
58341
58311
58285
58257
58221
58180
58138
58099
58063
58029
57998
57973
57954
57934
57920
57912
57907
57901
57894
57881
57864
57843
57815
57779
57744
57715
57688
57664
57645
57626
57602
57579
57564
57555
57540
57511
57465
57410
57346
57281
57221
57167
57117
57069
57019
56964
56908
56846
56776
56705
56636
56569
56506
56457
56422
56398
56379
56358
56327
56288
56238
56176
56108
56046
56001
55970
55943
55918
55886
55848
55804
55756
55702
55647
55598
55555
55518
55483
55447
55412
55379
55343
55294
55227
55153
55085
55024
54968
54918
54874
54836
54802
54773
54747
54723
54695
54657
54607
54547
54482
54413
54344
54278
54217
54166
54125
54086
54047
54006
53964
53923
53885
53849
53822
53815
53843
53919
54047
54217
54415
54633
54864
55096
55324
55549
55770
55984
56188
56374
56546
56704
56837
56945
57029
57092
57134
57160
57176
57183
57187
57193
57198
57200
57197
57183
57158
57134
57115
57109
57122
57142
57164
57194
57228
57262
57289
57308
57325
57341
57357
57373
57394
57420
57446
57466
57477
57472
57452
57418
57372
57321
57268
57222
57184
57149
57113
57074
57036
56998
56956
56913
56874
56842
56819
56802
56789
56779
56777
56778
56779
56777
56772
56763
56745
56716
56686
56665
56652
56641
56633
56626
56609
56573
56522
56463
56400
56336
56277
56223
56174
56131
56096
56065
56025
55974
55916
55855
55795
55738
55689
55656
55634
55615
55595
55569
55533
55484
55423
55360
55296
55233
55178
55128
55088
55067
55058
55043
55012
54961
54896
54824
54757
54698
54649
54608
54575
54550
54535
54517
54483
54434
54378
54323
54272
54229
54192
54167
54146
54118
54081
54039
53988
53932
53872
53811
53758
53716
53687
53663
53640
53621
53607
53589
53557
53511
53452
53383
53310
53241
53181
53130
53084
53036
52989
52942
52898
52863
52840
52840
52869
52927
53021
53160
53350
53573
53804
54040
54283
54523
54747
54948
55126
55285
55423
55543
55643
55722
55786
55836
55877
55908
55927
55932
55925
55908
55885
55854
55812
55762
55710
55664
55638
55632
55637
55652
55680
55706
55725
55737
55741
55741
55743
55748
55760
55776
55784
55777
55763
55747
55728
55703
55668
55624
55572
55514
55454
55390
55325
55265
55219
55191
55181
55189
55204
55218
55230
55244
55257
55261
55259
55259
55261
55267
55276
55284
55290
55294
55287
55265
55233
55198
55159
55114
55066
55019
54980
54950
54924
54895
54860
54822
54785
54745
54698
54646
54591
54543
54508
54478
54448
54418
54384
54347
54312
54275
54229
54171
54102
54035
53978
53935
53902
53875
53853
53830
53800
53766
53731
53695
53658
53617
53570
53526
53491
53465
53447
53441
53440
53437
53429
53409
53379
53347
53312
53272
53232
53198
53167
53139
53108
53069
53021
52965
52902
52833
52767
52713
52672
52633
52595
52564
52538
52509
52469
52423
52389
52374
52384
52427
52509
52634
52792
52971
53167
53372
53576
53778
53973
54164
54361
54558
54746
54912
55048
55148
55213
55249
55262
55261
55251
55237
55217
55190
55161
55137
55116
55102
55102
55109
55114
55118
55123
55130
55138
55150
55163
55178
55198
55226
55253
55271
55275
55273
55272
55264
55241
55208
55175
55150
55134
55120
55113
55112
55105
55088
55053
54999
54935
54868
54807
54755
54712
54686
54683
54694
54712
54737
54762
54775
54770
54756
54742
54730
54724
54724
54724
54720
54710
54695
54677
54652
54616
54573
54527
54481
54443
54414
54390
54364
54330
54292
54249
54203
54154
54103
54047
53992
53946
53908
53878
53853
53835
53818
53797
53768
53726
53679
53633
53585
53535
53489
53449
53410
53375
53345
53322
53302
53276
53242
53201
53155
53110
53075
53049
53034
53025
53011
52984
52950
52915
52879
52841
52807
52779
52760
52741
52715
52681
52639
52585
52526
52473
52424
52382
52353
52335
52321
52309
52295
52271
52234
52190
52145
52100
52055
52017
51985
51956
51926
51897
51872
51842
51800
51746
51683
51618
51557
51500
51451
51415
51394
51395
51419
51468
51549
51663
51810
51986
52190
52418
52661
52906
53154
53403
53645
53869
54074
54258
54412
54540
54641
54715
54765
54794
54813
54820
54809
54784
54760
54741
54726
54713
54698
54681
54664
54660
54676
54703
54735
54767
54796
54819
54837
54849
54857
54869
54884
54904
54928
54953
54976
55003
55036
55061
55071
55068
55059
55042
55020
54992
54950
54898
54855
54826
54808
54793
54772
54747
54721
54695
54674
54652
54627
54608
54599
54604
54623
54639
54641
54632
54617
54597
54577
54555
54531
54508
54490
54476
54462
54443
54421
54395
54363
54318
54265
54213
54166
54126
54093
54068
54051
54041
54035
54023
53999
53961
53912
53863
53824
53790
53762
53736
53702
53661
53617
53573
53530
53487
53449
53417
53391
53369
53350
53324
53285
53236
53188
53140
53084
53027
52975
52931
52894
52866
52853
52856
52865
52862
52837
52798
52753
52710
52666
52622
52578
52537
52499
52460
52411
52355
52299
52242
52187
52143
52108
52080
52058
52045
52033
52010
51975
51934
51893
51852
51815
51790
51773
51753
51722
51680
51632
51583
51533
51481
51423
51364
51312
51275
51253
51242
51229
51219
51228
51272
51359
51486
51649
51841
52062
52306
52562
52818
53065
53300
53522
53732
53928
54107
54266
54400
54512
54603
54663
54699
54723
54737
54736
54726
54712
54693
54672
54652
54634
54620
54609
54604
54611
54629
54649
54668
54687
54709
54733
54755
54774
54799
54829
54858
54884
54909
54932
54954
54971
54971
54946
54905
54855
54796
54741
54701
54664
54625
54590
54562
54537
54505
54470
54440
54420
54413
54415
54425
54434
54440
54439
54423
54396
54372
54359
54357
54365
54374
54379
54375
54356
54329
54304
54286
54274
54258
54235
54210
54184
54148
54104
54059
54002
53941
53892
53851
53811
53777
53752
53725
53688
53642
53595
53556
53525
53498
53471
53442
53409
53369
53322
53280
53242
53211
53187
53162
53134
53103
53066
53021
52971
52933
52916
52912
52906
52895
52879
52858
52837
52819
52797
52766
52724
52676
52634
52601
52577
52560
52544
52523
52493
52455
52411
52361
52315
52279
52251
52228
52203
52168
52128
52087
52039
51977
51914
51860
51823
51808
51812
51836
51889
51972
52088
52237
52418
52621
52847
53092
53342
53586
53821
54042
54242
54416
54558
54671
54760
54831
54882
54924
54963
54991
55008
55010
54994
54962
54915
54869
54840
54830
54832
54840
54851
54860
54867
54876
54887
54898
54905
54914
54927
54946
54968
54988
55004
55010
54996
54966
54934
54906
54879
54856
54836
54805
54755
54698
54649
54608
54571
54540
54513
54494
54476
54455
54435
54410
54386
54374
54378
54393
54410
54421
54423
54414
54396
54369
54341
54317
54302
54296
54292
54284
54265
54237
54202
54165
54131
54101
54072
54041
54007
53977
53946
53908
53860
53805
53748
53693
53642
53593
53551
53520
53498
53474
53441
53400
53354
53312
53274
53242
53222
53208
53193
53175
53152
53120
53071
53015
52968
52932
52903
52884
52873
52862
52844
52817
52788
52756
52719
52674
52628
52588
52555
52536
52532
52531
52526
52510
52483
52446
52411
52383
52355
52323
52288
52254
52217
52179
52138
52089
52037
51997
51987
52017
52082
52178
52302
52452
52621
52810
53018
53240
53473
53719
53971
54217
54444
54641
54804
54936
55036
55110
55163
55198
55221
55238
55258
55285
55310
55319
55313
55295
55259
55219
55187
55171
55172
55189
55217
55247
55278
55307
55334
55368
55410
55456
55499
55534
55561
55587
55614
55633
55641
55628
55596
55550
55497
55444
55396
55354
55307
55252
55203
55162
55122
55082
55049
55027
55016
55015
55019
55024
55029
55033
55034
55030
55026
55025
55026
55023
55025
55035
55040
55038
55031
55016
54990
54944
54891
54842
54797
54757
54720
54688
54660
54632
54605
54580
54556
54530
54502
54475
54447
54418
54384
54341
54294
54248
54206
54169
54134
54097
54056
54014
53968
53927
53895
53864
53833
53803
53778
53756
53726
53696
53671
53643
53613
53586
53567
53552
53533
53502
53461
53416
53373
53339
53319
53306
53294
53277
53259
53245
53227
53193
53149
53101
53053
53002
52951
52903
52859
52825
52801
52779
52752
52719
52683
52645
52613
52591
52574
52552
52518
52482
52442
52396
52350
52304
52261
52227
52203
52187
52171
52160
52162
52184
52236
52330
52477
52674
52903
53151
53409
53668
53920
54170
54417
54655
54884
55097
55287
55450
55581
55683
55758
55805
55829
55841
55850
55855
55864
55869
55863
55856
55845
55834
55835
55848
55868
55886
55909
55933
55955
55979
56007
56042
56080
56114
56148
56179
56202
56214
56222
56229
56234
56240
56245
56247
56248
56247
56231
56194
56149
56101
56055
56017
55986
55965
55952
55940
55925
55901
55868
55832
55804
55788
55786
55801
55827
55858
55880
55881
55862
55834
55805
55775
55750
55738
55738
55744
55757
55774
55779
55764
55737
55705
55665
55618
55567
55511
55456
55415
55386
55363
55340
55313
55291
55268
55233
55185
55131
55076
55021
54970
54925
54883
54847
54820
54803
54791
54780
54767
54753
54741
54721
54692
54660
54630
54604
54583
54565
54551
54534
54508
54470
54423
54372
54325
54280
54237
54195
54158
54130
54107
54088
54078
54065
54033
53985
53929
53871
53818
53774
53741
53712
53683
53655
53630
53611
53594
53572
53545
53512
53474
53441
53410
53379
53348
53317
53279
53231
53183
53143
53108
53070
53029
52989
52954
52920
52889
52875
52878
52902
52959
53055
53194
53369
53576
53813
54072
54342
54621
54905
55185
55451
55684
55875
56034
56167
56274
56357
56419
56466
56502
56531
56550
56555
56549
56536
56519
56498
56484
56481
56486
56491
56494
56503
56518
56539
56564
56587
56598
56603
56609
56621
56644
56677
56717
56763
56810
56844
56860
56857
56839
56812
56780
56752
56728
56694
56652
56618
56591
56557
56512
56461
56411
56372
56351
56348
56356
56373
56392
56400
56395
56389
56382
56376
56370
56373
56380
56381
56370
56349
56334
56319
56300
56285
56276
56269
56252
56224
56179
56116
56052
56000
55956
55921
55891
55865
55837
55799
55756
55711
55665
55627
55597
55572
55544
55510
55469
55430
55395
55359
55323
55289
55256
55221
55177
55126
55079
55041
55010
54989
54976
54965
54948
54924
54892
54852
54804
54760
54726
54704
54697
54696
54694
54689
54669
54630
54580
54533
54494
54466
54446
54431
54414
54383
54328
54259
54186
54121
54069
54029
53994
53959
53923
53886
53844
53794
53745
53709
53696
53713
53767
53868
54021
54218
54443
54686
54941
55203
55470
55733
55983
56218
56431
56619
56778
56904
57001
57070
57125
57171
57205
57225
57242
57253
57252
57241
57217
57179
57139
57102
57072
57050
57041
57048
57064
57085
57104
57121
57136
57153
57170
57179
57187
57199
57218
57234
57240
57236
57224
57200
57159
57112
57074
57042
57009
56973
56934
56889
56844
56813
56797
56788
56781
56780
56783
56788
56797
56811
56827
56838
56841
56835
56827
56821
56822
56830
56845
56861
56870
56867
56854
56833
56805
56769
56726
56680
56636
56593
56547
56498
56449
56405
56360
56312
56264
56218
56169
56116
56068
56033
56009
55986
55962
55938
55916
55896
55871
55838
55796
55746
55689
55633
55583
55541
55513
55502
55502
55505
55509
55509
55501
55485
55462
55434
55403
55380
55365
55350
55327
55299
55264
55223
55175
55132
55098
55068
55039
55015
54995
54970
54934
54881
54818
54764
54721
54684
54651
54617
54582
54558
54563
54589
54638
54726
54856
55019
55216
55445
55704
55982
56264
56547
56821
57069
57285
57470
57629
57760
57865
57947
58014
58071
58115
58152
58170
58164
58140
58101
58055
58009
57981
57981
57991
58003
58023
58056
58093
58125
58155
58185
58214
58240
58270
58306
58347
58387
58417
58433
58436
58428
58418
58410
58401
58389
58370
58343
58309
58267
58220
58168
58113
58065
58031
58013
58009
58012
58014
58012
58010
58007
58006
58004
57993
57980
57969
57967
57981
58006
58038
58070
58090
58091
58077
58055
58025
57992
57957
57921
57880
57837
57798
57759
57717
57674
57632
57583
57528
57472
57423
57388
57365
57345
57320
57288
57255
57226
57198
57166
57127
57082
57041
57005
56970
56936
56903
56879
56860
56835
56806
56772
56738
56705
56673
56638
56600
56560
56523
56495
56472
56449
56426
56402
56375
56341
56299
56253
56209
56169
56136
56111
56088
56060
56024
55985
55943
55902
55860
55818
55778
55745
55725
55709
55693
55671
55641
55604
55561
55510
55454
55402
55363
55333
55303
55265
55218
55167
55117
55074
55042
55022
55023
55051
55108
55193
55309
55464
55661
55893
56160
56464
56781
57095
57395
57670
57913
58121
58298
58448
58583
58704
58804
58891
58966
59023
59056
59069
59072
59072
59070
59069
59072
59078
59091
59112
59135
59152
59161
59167
59174
59193
59226
59269
59320
59369
59414
59458
59502
59542
59581
59624
59668
59699
59716
59727
59735
59727
59702
59666
59624
59586
59561
59542
59520
59493
59465
59438
59414
59390
59364
59335
59302
59279
59275
59281
59288
59298
59309
59323
59337
59344
59341
59330
59318
59304
59285
59267
59255
59251
59255
59256
59241
59211
59169
59117
59065
59023
58992
58965
58934
58903
58878
58860
58838
58804
58765
58726
58682
58635
58594
58561
58536
58514
58489
58458
58420
58377
58326
58271
58227
58200
58182
58167
58156
58149
58134
58110
58081
58049
58007
57954
57903
57866
57842
57827
57821
57816
57803
57777
57744
57711
57673
57633
57603
57576
57546
57511
57472
57434
57395
57350
57299
57241
57180
57127
57088
57056
57026
56998
56969
56939
56904
56865
56826
56788
56755
56731
56715
56693
56661
56622
56586
56552
56517
56481
56439
56392
56350
56320
56292
56256
56208
56156
56110
56077
56068
56100
56177
56306
56484
56702
56954
57232
57522
57813
58094
58361
58612
58848
59070
59276
59463
59625
59766
59893
59995
60069
60122
60157
60178
60186
60183
60174
60164
60142
60111
60095
60101
60120
60147
60180
60219
60262
60302
60335
60367
60397
60423
60450
60480
60512
60547
60580
60612
60643
60674
60706
60736
60757
60763
60753
60729
60689
60638
60585
60534
60486
60448
60423
60407
60397
60391
60392
60393
60386
60372
60354
60334
60310
60293
60293
60306
60320
60337
60357
60369
60370
60359
60339
60313
60281
60247
60218
60190
60158
60124
60094
60063
60027
59982
59931
59880
59836
59796
59749
59695
59643
59600
59570
59547
59526
59502
59472
59438
59396
59343
59284
59228
59184
59148
59113
59081
59053
59029
59007
58986
58954
58906
58844
58775
58708
58649
58604
58579
58569
58568
58566
58557
58536
58505
58470
58439
58416
58400
58383
58358
58323
58274
58210
58137
58064
57995
57934
57889
57857
57830
57798
57762
57725
57686
57643
57600
57559
57522
57490
57456
57413
57359
57299
57236
57178
57124
57070
57021
56982
56954
56928
56896
56851
56797
56737
56676
56619
56570
56530
56495
56467
56445
56428
56415
56419
56459
56547
56691
56889
57133
57407
57702
58007
58304
58584
58846
59097
59337
59554
59745
59909
60038
60134
60199
60233
60247
60252
60254
60247
60234
60222
60216
60209
60193
60174
60161
60151
60141
60138
60148
60167
60188
60214
60246
60280
60312
60338
60354
60365
60373
60378
60380
60385
60390
60389
60382
60366
60341
60314
60287
60254
60210
60163
60123
60097
60080
60067
60047
60020
59992
59958
59923
59898
59893
59906
59923
59932
59935
59934
59921
59900
59882
59867
59857
59846
59838
59837
59837
59830
59810
59781
59747
59717
59687
59655
59622
59584
59544
59505
59468
59420
59361
59297
59231
59168
59116
59068
59022
58987
58958
58928
58899
58865
58823
58775
58721
58664
58608
58558
58519
58492
58467
58443
58425
58408
58386
58352
58305
58256
58204
58152
58107
58076
58062
58062
58070
58074
58062
58029
57980
57921
57860
57802
57753
57712
57681
57658
57636
57609
57579
57544
57502
57452
57394
57327
57253
57180
57117
57065
57023
56990
56957
56913
56862
56811
56759
56706
56654
56605
56564
56536
56519
56517
56527
56548
56580
56630
56711
56837
57014
57239
57499
57783
58081
58376
58657
58911
59130
59323
59490
59628
59739
59831
59910
59973
60022
60054
60065
60061
60042
60003
59953
59903
59865
59839
59819
59800
59784
59764
59741
59720
59705
59700
59705
59714
59724
59737
59757
59773
59786
59793
59796
59793
59785
59772
59749
59719
59679
59627
59570
59512
59455
59401
59355
59319
59293
59281
59274
59265
59252
59236
59217
59198
59188
59191
59211
59240
59264
59275
59278
59278
59271
59256
59234
59204
59169
59136
59113
59096
59077
59047
59005
58961
58915
58869
58827
58792
58767
58746
58725
58697
58661
58617
58561
58498
58435
58374
58310
58244
58182
58131
58088
58047
58015
57986
57956
57919
57873
57822
57766
57710
57661
57628
57606
57588
57565
57535
57501
57464
57422
57375
57333
57295
57260
57237
57219
57198
57176
57162
57149
57128
57096
57047
56991
56941
56900
56866
56838
56817
56795
56765
56719
56663
56604
56538
56467
56396
56333
56281
56231
56180
56136
56100
56068
56043
56038
56060
56114
56199
56323
56492
56700
56923
57147
57375
57606
57828
58045
58257
58458
58640
58801
58936
59049
59137
59202
59247
59274
59290
59299
59301
59303
59301
59290
59274
59262
59254
59246
59238
59232
59236
59254
59280
59297
59301
59304
59310
59320
59327
59326
59320
59324
59343
59367
59393
59411
59416
59406
59380
59335
59278
59225
59180
59145
59121
59097
59068
59038
59010
58984
58962
58937
58909
58885
58868
58853
58846
58845
58847
58861
58884
58901
58901
58882
58852
58818
58779
58733
58685
58642
58613
58601
58592
58580
58553
58506
58449
58390
58337
58292
58252
58212
58176
58149
58127
58107
58082
58044
57993
57934
57872
57804
57731
57661
57601
57550
57507
57477
57457
57440
57422
57397
57358
57307
57249
57193
57142
57093
57049
57015
56986
56956
56925
56894
56866
56836
56797
56751
56704
56658
56617
56582
56549
56517
56487
56461
56441
56409
56360
56302
56247
56195
56140
56089
56046
56007
55967
55930
55894
55856
55816
55769
55714
55658
55604
55556
55509
55464
55418
55370
55318
55251
55168
55077
54995
54925
54867
54819
54780
54753
54729
54701
54674
54659
54666
54699
54767
54880
55044
55259
55514
55796
56088
56376
56640
56872
57085
57288
57476
57647
57798
57926
58028
58107
58164
58199
58212
58213
58204
58183
58154
58122
58091
58068
58060
58071
58098
58123
58141
58154
58162
58163
58159
58155
58158
58167
58184
58215
58256
58305
58361
58414
58454
58477
58488
58488
58474
58450
58426
58402
58376
58350
58325
58300
58274
58250
58228
58209
58189
58159
58121
58079
58033
57990
57957
57930
57910
57899
57899
57909
57923
57938
57947
57950
57951
57950
57939
57917
57892
57859
57817
57772
57723
57672
57631
57604
57581
57560
57537
57507
57465
57413
57359
57310
57265
57222
57182
57142
57100
57057
57019
56991
56968
56937
56896
56856
56821
56783
56739
56697
56662
56629
56598
56570
56544
56524
56514
56507
56491
56466
56437
56397
56341
56277
56213
56158
56117
56084
56054
56024
55992
55956
55917
55880
55847
55815
55780
55740
55690
55628
55557
55488
55433
55386
55330
55262
55190
55130
55085
55051
55022
54993
54965
54935
54905
54872
54836
54795
54744
54678
54603
54531
54464
54399
54339
54285
54235
54191
54148
54103
54061
54026
53988
53949
53916
53885
53858
53843
53857
53912
54019
54178
54381
54620
54885
55162
55444
55713
55954
56171
56365
56529
56664
56785
56900
57003
57091
57164
57220
57259
57287
57304
57309
57298
57271
57234
57190
57151
57127
57116
57117
57130
57151
57173
57194
57213
57230
57252
57278
57300
57320
57350
57388
57426
57465
57505
57545
57575
57591
57593
57581
57552
57509
57456
57403
57355
57312
57277
57248
57220
57194
57169
57149
57134
57117
57092
57070
57059
57056
57067
57090
57118
57149
57177
57191
57191
57178
57151
57118
57084
57054
57028
57002
56974
56949
56924
56894
56858
56820
56783
56746
56707
56664
56617
56569
56527
56490
56455
56426
56394
56351
56299
56240
56172
56103
56038
55979
55928
55888
55858
55835
55813
55785
55741
55687
55630
55576
55529
55489
55461
55445
55434
55424
55412
55397
55376
55348
55311
55271
55227
55176
55122
55072
55032
55002
54980
54959
54931
54894
54847
54793
54737
54687
54645
54616
54596
54575
54551
54523
54499
54470
54429
54382
54330
54273
54218
54171
54133
54098
54064
54032
54002
53979
53972
53986
54029
54111
54231
54381
54559
54761
54979
55210
55444
55668
55880
56078
56255
56414
56555
56673
56765
56833
56886
56930
56968
57003
57032
57053
57067
57079
57086
57082
57066
57037
57006
56976
56947
56918
56894
56880
56882
56898
56920
56944
56973
57009
57041
57060
57067
57065
57057
57051
57048
57044
57038
57022
57000
56976
56954
56928
56891
56846
56795
56747
56702
56663
56636
56620
56608
56603
56615
56637
56660
56687
56714
56732
56743
56747
56746
56737
56722
56704
56684
56659
56627
56593
56567
56553
56544
56526
56492
56447
56399
56355
56306
56248
56185
56119
56056
56007
55966
55927
55889
55848
55804
55759
55715
55673
55630
55589
55546
55495
55440
55387
55345
55316
55291
55271
55254
55235
55214
55189
55158
55118
55073
55028
54983
54937
54894
54860
54841
54825
54800
54767
54734
54702
54662
54618
54574
54530
54489
54449
54411
54375
54347
54320
54289
54255
54217
54177
54132
54080
54026
53975
53921
53868
53823
53786
53746
53701
53658
53613
53561
53507
53454
53400
53341
53278
53226
53199
53207
53257
53344
53467
53626
53814
54028
54260
54497
54732
54960
55176
55381
55573
55750
55913
56063
56197
56313
56413
56500
56578
56637
56668
56682
56689
56690
56689
56691
56698
56711
56729
56747
56761
56776
56794
56811
56826
56839
56846
56852
56866
56889
56919
56957
57006
57058
57107
57149
57184
57207
57219
57223
57213
57183
57143
57105
57077
57057
57041
57028
57017
57009
57002
56989
56970
56945
56925
56909
56894
56886
56886
56889
56886
56875
56860
56852
56856
56864
56865
56857
56846
56833
56818
56795
56762
56719
56665
56611
56572
56543
56516
56490
56464
56438
56409
56379
56352
56325
56289
56244
56189
56128
56067
56009
55959
55911
55861
55815
55775
55736
55699
55669
55646
55618
55585
55547
55497
55438
55384
55340
55299
55261
55231
55203
55175
55151
55129
55107
55079
55042
55001
54956
54915
54882
54866
54869
54875
54869
54848
54823
54793
54752
54707
54666
54625
54583
54541
54494
54444
54397
54352
54307
54260
54216
54175
54132
54088
54042
54003
53970
53943
53918
53886
53849
53812
53775
53728
53669
53604
53546
53499
53450
53400
53350
53296
53244
53200
53162
53128
53102
53090
53111
53179
53291
53447
53642
53861
54093
54328
54561
54795
55023
55241
55455
55664
55859
56045
56229
56404
56549
56656
56728
56777
56812
56842
56868
56886
56900
56915
56927
56933
56934
56934
56933
56939
56957
56983
57019
57066
57119
57170
57209
57241
57271
57299
57323
57349
57377
57409
57446
57483
57514
57538
57553
57555
57541
57514
57481
57448
57420
57392
57366
57345
57324
57304
57284
57260
57236
57212
57191
57175
57166
57170
57186
57209
57228
57239
57245
57245
57237
57224
57209
57194
57175
57152
57135
57130
57131
57133
57125
57100
57062
57016
56964
56909
56858
56811
56762
56715
56672
56631
56580
56517
56448
56384
56327
56271
56216
56172
56143
56120
56099
56070
56029
55980
55930
55885
55839
55791
55744
55699
55657
55621
55600
55596
55596
55588
55565
55532
55493
55453
55415
55371
55327
55296
55277
55264
55254
55242
55224
55194
55151
55098
55038
54977
54920
54867
54816
54767
54722
54683
54643
54592
54538
54488
54449
54420
54402
54387
54370
54349
54314
54259
54193
54124
54062
54009
53967
53937
53913
53891
53864
53826
53780
53727
53670
53614
53571
53542
53521
53498
53473
53451
53432
53426
53446
53498
53584
53711
53881
54084
54307
54544
54791
55045
55289
55524
55755
55982
56198
56396
56578
56739
56877
56989
57075
57137
57176
57203
57229
57257
57281
57301
57317
57321
57315
57303
57291
57284
57289
57307
57329
57353
57377
57405
57439
57475
57510
57542
57567
57591
57620
57657
57697
57734
57766
57791
57796
57778
57749
57718
57685
57648
57611
57588
57580
57573
57563
57544
57514
57478
57445
57416
57393
57382
57387
57403
57418
57429
57434
57431
57425
57425
57434
57450
57462
57467
57466
57453
57425
57385
57341
57300
57264
57237
57212
57182
57149
57108
57052
56986
56922
56868
56825
56792
56771
56756
56743
56722
56690
56654
56619
56582
56545
56504
56457
56407
56356
56307
56274
56256
56242
56223
56191
56147
56098
56052
56010
55978
55960
55948
55933
55915
55893
55870
55841
55799
55749
55701
55655
55610
55572
55542
55521
55507
55495
55486
55469
55442
55408
55367
55319
55268
55219
55174
55129
55083
55037
54996
54960
54929
54897
54858
54809
54753
54696
54637
54579
54534
54507
54482
54449
54412
54377
54348
54330
54318
54314
54330
54372
54439
54536
54664
54818
55002
55212
55448
55703
55966
56228
56473
56690
56879
57041
57175
57278
57354
57411
57454
57487
57514
57536
57552
57562
57575
57592
57604
57610
57606
57593
57578
57566
57555
57549
57547
57552
57567
57584
57601
57623
57653
57684
57715
57738
57747
57748
57740
57721
57695
57665
57628
57586
57544
57508
57486
57475
57476
57480
57479
57473
57465
57458
57452
57443
57432
57427
57424
57417
57405
57398
57402
57417
57428
57429
57425
57426
57429
57425
57402
57368
57336
57307
57280
57253
57229
57204
57167
57118
57067
57016
56965
56920
56877
56832
56780
56722
56661
56600
56542
56493
56457
56439
56435
56428
56410
56378
56338
56289
56233
56170
56101
56033
55973
55924
55900
55893
55889
55883
55881
55886
55886
55870
55837
55800
55763
55730
55706
55689
55671
55649
55628
55608
55584
55557
55526
55487
55437
55381
55323
55262
55196
55132
55074
55025
54989
54963
54946
54930
54910
54888
54865
54849
54850
54866
54899
54955
55045
55170
55325
55500
55694
55907
56129
56353
56574
56789
56988
57161
57303
57417
57513
57593
57660
57713
57757
57797
57838
57881
57919
57944
57955
57961
57964
57965
57963
57962
57970
57991
58018
58043
58068
58096
58125
58155
58189
58223
58249
58269
58284
58288
58286
58286
58285
58280
58275
58265
58251
58232
58213
58193
58169
58139
58103
58056
57998
57943
57901
57871
57853
57846
57852
57867
57887
57909
57932
57947
57949
57941
57926
57902
57871
57843
57824
57817
57813
57811
57806
57784
57744
57693
57637
57574
57508
57449
57405
57367
57331
57300
57275
57248
57220
57198
57179
57154
57116
57068
57008
56932
56857
56796
56741
56688
56641
56597
56549
56496
56448
56400
56342
56275
56203
56128
56057
55997
55954
55919
55886
55860
55842
55826
55805
55774
55731
55677
55620
55563
55510
55468
55435
55411
55394
55379
55361
55341
55320
55295
55259
55212
55150
55083
55022
54963
54908
54857
54809
54767
54726
54679
54627
54575
54520
54459
54397
54343
54302
54266
54227
54190
54158
54130
54114
54120
54159
54235
54344
54482
54648
54839
55058
55302
55563
55833
56103
56364
56609
56832
57028
57195
57336
57451
57541
57609
57663
57703
57727
57736
57737
57731
57724
57727
57737
57744
57752
57759
57759
57758
57759
57764
57784
57818
57860
57908
57959
58004
58043
58078
58109
58133
58151
58171
58192
58208
58223
58237
58248
58251
58250
58242
58227
58204
58172
58127
58070
58008
57954
57913
57884
57867
57865
57870
57882
57897
57907
57904
57890
57867
57842
57814
57786
57761
57738
57719
57706
57696
57685
57672
57663
57660
57655
57640
57612
57574
57525
57466
57404
57347
57290
57231
57178
57136
57108
57089
57070
57047
57017
56979
56933
56884
56836
56789
56746
56713
56684
56659
56639
56620
56601
56581
56559
56535
56505
56463
56415
56365
56320
56285
56265
56252
56236
56210
56174
56128
56074
56020
55970
55923
55880
55848
55832
55822
55800
55764
55719
55666
55611
55561
55514
55469
55429
55397
55370
55335
55289
55236
55176
55110
55052
55018
55002
54985
54959
54927
54893
54854
54812
54768
54721
54678
54638
54597
54557
54519
54476
54426
54376
54325
54278
54244
54242
54290
54390
54535
54712
54913
55142
55390
55635
55867
56091
56314
56540
56760
56968
57161
57331
57472
57584
57674
57743
57791
57824
57849
57868
57876
57870
57858
57857
57871
57891
57910
57929
57938
57935
57931
57930
57937
57955
57983
58020
58066
58120
58178
58233
58280
58321
58355
58378
58386
58379
58367
58355
58343
58331
58316
58296
58270
58239
58205
58164
58115
58064
58013
57970
57943
57928
57915
57904
57893
57884
57875
57865
57857
57845
57828
57812
57794
57774
57756
57748
57749
57754
57758
57751
57729
57692
57652
57618
57586
57548
57505
57466
57432
57399
57370
57344
57318
57282
57235
57184
57130
57072
57009
56936
56858
56784
56724
56684
56656
56635
56616
56586
56547
56501
56455
56412
56369
56329
56298
56274
56254
56230
56205
56183
56159
56132
56104
56073
56038
55991
55934
55873
55810
55748
55699
55665
55639
55613
55589
55571
55552
55522
55489
55457
55422
55381
55335
55284
55227
55166
55105
55051
55011
54982
54962
54946
54934
54920
54895
54850
54783
54714
54654
54602
54556
54514
54475
54434
54390
54347
54308
54281
54259
54227
54182
54128
54075
54028
53993
53978
53996
54051
54145
54275
54435
54615
54805
55003
55214
55442
55673
55893
56102
56298
56471
56617
56747
56860
56945
56995
57013
57007
56982
56944
56902
56863
56830
56805
56790
56784
56782
56778
56768
56755
56742
56738
56745
56752
56753
56754
56768
56798
56828
56847
56863
56879
56886
56882
56874
56860
56833
56800
56768
56738
56705
56677
56657
56631
56591
56539
56478
56424
56375
56331
56300
56284
56288
56302
56311
56318
56318
56312
56303
56296
56294
56297
56305
56315
56323
56320
56303
56270
56227
56176
56124
56076
56032
55998
55975
55955
55929
55894
55852
55801
55738
55671
55609
55553
55500
55454
55412
55372
55335
55294
55244
55187
55134
55096
55074
55065
55058
55053
55043
55016
54976
54932
54891
54856
54832
54815
54799
54781
54762
54741
54717
54686
54650
54606
54551
54491
54439
54401
54366
54331
54304
54278
54245
54200
54145
54091
54044
54003
53972
53953
53944
53937
53929
53918
53898
53866
53822
53769
53713
53655
53599
53550
53508
53467
53425
53385
53354
53331
53321
53333
53375
53458
53576
53721
53890
54083
54296
54516
54733
54939
55131
55304
55458
55592
55713
55828
55924
55990
56031
56057
56073
56079
56064
56026
55982
55944
55915
55888
55862
55843
55842
55860
55881
55898
55909
55916
55922
55927
55931
55928
55922
55922
55922
55925
55938
55956
55964
55952
55923
55889
55852
55816
55782
55747
55713
55682
55660
55641
55622
55602
55572
55537
55506
55479
55456
55440
55437
55449
55468
55486
55494
55491
55483
55473
55463
55451
55441
55433
55422
55410
55395
55371
55334
55286
55235
55188
55144
55098
55051
55011
54979
54953
54926
54894
54856
54807
54753
54697
54640
54586
54540
54503
54474
54452
54427
54393
54355
54318
54291
54272
54248
54215
54175
54137
54111
54096
54083
54068
54048
54023
53997
53971
53933
53885
53840
53803
53766
53722
53683
53658
53643
53627
53600
53566
53531
53498
53466
53434
53397
53356
53313
53273
53240
53215
53194
53175
53160
53138
53101
53048
52985
52924
52878
52843
52816
52797
52784
52770
52754
52732
52701
52668
52632
52581
52520
52458
52402
52352
52307
52263
52230
52208
52192
52187
52190
52209
52254
52330
52426
52539
52673
52832
53022
53240
53472
53707
53940
54166
54375
54561
54731
54884
55013
55113
55180
55215
55229
55234
55232
55230
55233
55239
55240
55232
55221
55208
55191
55172
55153
55128
55097
55059
55024
54998
54985
54990
55013
55051
55100
55152
55202
55247
55288
55317
55330
55327
55314
55293
55266
55233
55197
55162
55132
55103
55075
55050
55029
55011
54988
54957
54916
54871
54828
54789
54759
54742
54737
54740
54752
54772
54795
54821
54848
54866
54862
54838
54806
54772
54746
54725
54707
54693
54678
54660
54636
54605
54564
54515
54465
54413
54361
54312
54269
54237
54220
54211
54200
54184
54160
54132
54099
54057
54007
53951
53892
53834
53790
53759
53737
53716
53692
53669
53649
53624
53592
53559
53530
53508
53495
53486
53482
53479
53470
53456
53442
53426
53411
53390
53361
53325
53281
53235
53189
53147
53109
53075
53043
53017
53001
52990
52975
52954
52930
52899
52852
52788
52714
52642
52581
52534
52493
52449
52406
52372
52349
52335
52321
52299
52279
52271
52261
52237
52205
52175
52154
52138
52116
52096
52088
52086
52071
52038
51994
51944
51889
51821
51747
51683
51636
51604
51579
51554
51534
51523
51518
51524
51555
51621
51726
51868
52043
52240
52450
52678
52927
53178
53408
53617
53810
53990
54156
54301
54418
54518
54608
54681
54731
54755
54760
54752
54726
54690
54655
54623
54584
54550
54535
54540
54556
54577
54600
54627
54655
54681
54703
54725
54751
54778
54802
54821
54834
54845
54859
54873
54891
54914
54929
54933
54930
54917
54899
54887
54871
54846
54817
54784
54746
54706
54664
54621
54583
54558
54551
54563
54590
54627
54658
54670
54663
54640
54610
54574
54532
54491
54455
54430
54424
54432
54442
54448
54446
54433
54414
54389
54360
54331
54297
54254
54206
54159
54114
54070
54031
54003
53976
53949
53925
53899
53868
53836
53807
53778
53746
53706
53662
53622
53589
53558
53526
53494
53457
53422
53400
53377
53343
53297
53248
53208
53179
53162
53160
53159
53153
53145
53137
53119
53085
53042
53002
52967
52931
52898
52876
52868
52860
52843
52822
52802
52785
52766
52742
52709
52667
52621
52576
52536
52496
52448
52396
52349
52313
52288
52270
52250
52227
52205
52183
52154
52120
52085
52049
52013
51986
51967
51947
51927
51912
51901
51885
51856
51815
51766
51712
51657
51606
51558
51514
51478
51453
51434
51411
51381
51351
51331
51327
51343
51386
51469
51594
51754
51945
52161
52396
52651
52917
53176
53419
53644
53844
54014
54157
54284
54392
54481
54558
54617
54656
54678
54681
54669
54644
54610
54574
54540
54513
54497
54483
54468
54459
54465
54479
54495
54507
54510
54505
54497
54493
54496
54508
54526
54548
54575
54607
54636
54655
54668
54672
54661
54637
54605
54567
54525
54483
54443
54401
54358
54323
54297
54277
54257
54238
54226
54218
54214
54218
54224
54230
54238
54247
54258
54269
54273
54270
54262
54247
54227
54202
54173
54141
54108
54074
54044
54020
53997
53975
53958
53945
53934
53916
53887
53847
53800
53744
53680
53618
53561
53510
53461
53414
53374
53345
53325
53309
53292
53278
53266
53254
53241
53227
53208
53181
53147
53110
53074
53040
53011
52982
52955
52931
52909
52888
52864
52841
52820
52794
52757
52715
52677
52643
52618
52602
52591
52581
52575
52570
52568
52567
52558
52530
52488
52438
52387
52340
52296
52256
52225
52201
52180
52158
52132
52102
52066
52023
51972
51914
51857
51801
51751
51708
51677
51668
51682
51724
51798
51902
52033
52188
52366
52563
52780
53010
53248
53492
53727
53941
54132
54302
54453
54580
54685
54767
54825
54860
54883
54899
54911
54915
54915
54913
54908
54894
54867
54837
54811
54786
54766
54754
54744
54736
54741
54759
54782
54807
54828
54842
54853
54862
54871
54879
54885
54892
54895
54891
54884
54882
54878
54863
54833
54798
54759
54714
54669
54630
54591
54557
54536
54524
54514
54507
54499
54488
54479
54472
54463
54455
54456
54470
54496
54528
54549
54558
54562
54564
54558
54537
54507
54474
54438
54403
54375
54354
54335
54315
54290
54255
54217
54176
54132
54082
54029
53979
53937
53898
53861
53831
53802
53772
53734
53692
53646
53609
53587
53572
53557
53543
53523
53497
53466
53429
53386
53337
53285
53238
53204
53180
53161
53145
53126
53097
53055
53003
52953
52911
52876
52853
52834
52810
52788
52771
52750
52714
52671
52626
52580
52536
52504
52491
52485
52476
52465
52448
52421
52383
52342
52301
52262
52232
52212
52194
52167
52136
52100
52058
52013
51967
51923
51886
51857
51838
51822
51799
51762
51713
51662
51615
51576
51543
51513
51485
51459
51435
51411
51389
51366
51347
51350
51394
51489
51634
51826
52054
52311
52583
52863
53138
53398
53650
53889
54113
54321
54512
54685
54834
54954
55044
55100
55128
55139
55135
55118
55101
55089
55075
55063
55058
55054
55053
55056
55057
55054
55050
55050
55052
55054
55061
55083
55117
55158
55202
55248
55295
55338
55371
55394
55412
55430
55443
55447
55447
55446
55444
55438
55426
55398
55352
55295
55234
55181
55141
55112
55089
55069
55052
55038
55028
55020
55011
54999
54991
54989
54992
54996
54995
54992
54998
55017
55035
55042
55044
55047
55049
55045
55036
55022
55000
54969
54929
54888
54845
54800
54754
54710
54670
54633
54600
54575
54554
54532
54512
54497
54482
54465
54438
54398
54353
54301
54239
54176
54126
54093
54070
54053
54043
54039
54041
54043
54037
54015
53975
53931
53888
53846
53805
53762
53718
53680
53655
53636
53618
53600
53581
53559
53533
53498
53460
53425
53387
53350
53323
53303
53291
53291
53299
53299
53283
53256
53219
53166
53099
53031
52974
52930
52893
52859
52828
52795
52754
52714
52677
52632
52575
52512
52456
52416
52385
52361
52342
52324
52307
52290
52272
52256
52245
52239
52230
52217
52196
52163
52117
52059
51992
51920
51858
51816
51793
51780
51772
51769
51769
51774
51789
51827
51902
52025
52197
52414
52675
52971
53284
53600
53906
54191
54457
54703
54923
55110
55268
55407
55527
55622
55693
55747
55788
55821
55846
55861
55865
55865
55867
55869
55864
55849
55828
55806
55788
55779
55782
55789
55799
55814
55833
55861
55897
55938
55984
56036
56095
56152
56194
56215
56223
56231
56242
56244
56236
56223
56210
56207
56207
56202
56186
56161
56132
56098
56057
56009
55963
55934
55925
55931
55952
55983
56009
56023
56031
56032
56030
56025
56013
55999
55989
55980
55970
55959
55952
55948
55940
55927
55914
55904
55895
55881
55865
55847
55821
55788
55752
55710
55663
55623
55594
55565
55526
55481
55438
55397
55357
55311
55257
55201
55146
55094
55054
55025
55000
54981
54970
54966
54963
54955
54941
54917
54887
54860
54833
54803
54773
54744
54714
54691
54678
54668
54654
54634
54611
54583
54556
54531
54506
54480
54456
54433
54415
54402
54388
54366
54331
54284
54225
54156
54091
54035
53986
53946
53921
53913
53912
53911
53898
53870
53832
53784
53728
53667
53608
53559
53517
53473
53430
53397
53373
53356
53339
53320
53305
53286
53254
53213
53168
53119
53069
53023
52988
52955
52919
52881
52840
52798
52757
52717
52673
52637
52616
52611
52625
52664
52742
52870
53049
53273
53531
53815
54114
54420
54724
55012
55279
55520
55733
55924
56094
56242
56368
56471
56550
56611
56654
56685
56700
56698
56685
56672
56656
56629
56597
56562
56528
56501
56487
56484
56493
56517
56553
56596
56647
56705
56761
56813
56858
56889
56904
56907
56906
56905
56901
56891
56881
56876
56874
56870
56862
56851
56834
56810
56779
56741
56702
56663
56626
56601
56593
56596
56608
56630
56655
56679
56710
56748
56781
56803
56812
56814
56810
56797
56777
56755
56735
56712
56685
56657
56635
56617
56598
56580
56560
56537
56511
56482
56453
56422
56379
56321
56258
56197
56141
56090
56044
56005
55978
55959
55946
55935
55921
55903
55880
55854
55819
55771
55717
55658
55598
55540
55491
55454
55425
55402
55389
55386
55389
55396
55399
55394
55374
55335
55292
55255
55227
55211
55202
55192
55180
55172
55165
55153
55131
55102
55064
55018
54964
54908
54857
54816
54784
54757
54739
54735
54742
54746
54742
54727
54699
54655
54598
54540
54491
54451
54417
54388
54358
54330
54306
54286
54271
54262
54264
54299
54379
54509
54691
54911
55153
55409
55674
55936
56192
56442
56685
56918
57138
57341
57529
57701
57854
57981
58074
58138
58187
58226
58257
58282
58303
58324
58338
58347
58354
58362
58368
58374
58376
58371
58362
58357
58361
58373
58395
58429
58470
58508
58539
58569
58598
58625
58646
58661
58672
58678
58683
58689
58695
58698
58689
58666
58628
58581
58530
58484
58450
58432
58431
58434
58434
58434
58439
58448
58452
58444
58428
58414
58406
58405
58412
58430
58459
58486
58500
58498
58481
58445
58399
58352
58307
58267
58237
58213
58187
58158
58129
58095
58056
58010
57955
57893
57838
57797
57769
57747
57725
57697
57655
57601
57545
57491
57433
57374
57327
57291
57261
57229
57202
57187
57173
57149
57124
57102
57071
57026
56971
56914
56857
56802
56761
56735
56721
56719
56730
56747
56753
56741
56717
56682
56631
56572
56518
56465
56415
56377
56352
56329
56301
56271
56245
56221
56195
56165
56128
56084
56034
55977
55904
55828
55763
55705
55651
55598
55551
55512
55482
55455
55426
55394
55368
55340
55306
55271
55237
55201
55163
55122
55072
55008
54938
54865
54787
54715
54655
54603
54562
54538
54529
54532
54552
54599
54677
54790
54948
55152
55398
55678
55981
56294
56605
56903
57191
57473
57750
58021
58276
58501
58692
58853
58991
59110
59211
59294
59356
59399
59429
59448
59452
59448
59443
59441
59443
59450
59460
59473
59490
59514
59546
59583
59627
59679
59738
59792
59835
59874
59914
59949
59981
60017
60057
60104
60153
60196
60236
60271
60290
60281
60253
60217
60169
60112
60061
60011
59961
59922
59895
59876
59862
59857
59860
59863
59857
59849
59845
59842
59836
59829
59825
59820
59815
59814
59819
59825
59828
59829
59828
59822
59813
59804
59790
59770
59738
59690
59632
59568
59500
59431
59366
59312
59269
59230
59190
59147
59109
59082
59065
59051
59034
59013
58986
58952
58912
58868
58817
58755
58695
58637
58578
58521
58474
58437
58408
58387
58379
58373
58358
58341
58324
58302
58273
58229
58176
58120
58066
58009
57948
57885
57822
57767
57723
57689
57658
57630
57613
57603
57594
57586
57575
57551
57509
57456
57405
57356
57298
57234
57179
57137
57102
57068
57036
57005
56983
56970
56952
56923
56878
56812
56738
56665
56601
56545
56487
56429
56380
56340
56304
56277
56258
56239
56217
56189
56155
56119
56074
56015
55949
55883
55818
55758
55704
55654
55607
55564
55531
55512
55498
55489
55493
55522
55581
55676
55816
56001
56221
56472
56750
57052
57375
57707
58034
58350
58652
58933
59185
59411
59619
59809
59979
60121
60238
60334
60406
60448
60472
60487
60494
60492
60490
60496
60511
60533
60559
60586
60615
60647
60681
60722
60768
60814
60851
60874
60889
60901
60920
60951
60990
61024
61057
61097
61138
61172
61202
61226
61237
61231
61214
61187
61146
61089
61029
60981
60943
60910
60888
60877
60873
60872
60873
60872
60868
60861
60854
60846
60831
60806
60781
60761
60737
60716
60707
60701
60698
60699
60700
60696
60682
60654
60611
60560
60504
60446
60384
60323
60269
60223
60186
60160
60140
60119
60100
60080
60054
60020
59971
59912
59848
59780
59714
59651
59590
59535
59490
59459
59440
59421
59392
59354
59312
59268
59222
59170
59115
59056
58999
58949
58910
58877
58850
58826
58798
58768
58739
58716
58691
58657
58618
58576
58531
58475
58408
58338
58277
58226
58179
58137
58108
58088
58066
58037
58006
57974
57935
57887
57830
57767
57704
57639
57579
57532
57494
57460
57433
57406
57368
57320
57270
57218
57162
57101
57039
56985
56936
56891
56855
56828
56806
56785
56763
56735
56700
56652
56593
56532
56473
56409
56332
56252
56178
56121
56083
56058
56048
56059
56097
56170
56283
56441
56647
56898
57185
57496
57828
58172
58512
58843
59159
59457
59727
59968
60177
60349
60485
60592
60677
60743
60796
60837
60867
60887
60903
60923
60942
60958
60969
60963
60942
60917
60895
60884
60892
60915
60945
60974
61006
61043
61084
61122
61145
61153
61158
61161
61159
61163
61179
61194
61202
61207
61213
61212
61201
61179
61143
61095
61039
60981
60923
60873
60830
60797
60780
60780
60792
60809
60829
60851
60867
60871
60861
60848
60840
60839
60846
60853
60858
60863
60870
60866
60847
60811
60756
60694
60636
60582
60525
60471
60425
60388
60361
60333
60294
60245
60189
60130
60074
60025
59986
59957
59935
59918
59898
59875
59852
59830
59795
59744
59690
59642
59598
59555
59517
59485
59457
59430
59405
59382
59354
59314
59263
59200
59135
59077
59022
58972
58928
58887
58854
58829
58811
58789
58760
58733
58707
58675
58638
58595
58544
58489
58440
58397
58359
58321
58283
58250
58225
58199
58165
58121
58067
58006
57944
57875
57794
57712
57644
57590
57545
57516
57515
57544
57598
57680
57803
57967
58166
58401
58663
58937
59214
59492
59772
60052
60324
60585
60832
61059
61255
61421
61560
61674
61764
61829
61876
61911
61937
61965
61996
62025
62040
62041
62036
62032
62027
62025
62028
62033
62045
62074
62120
62170
62212
62248
62279
62305
62327
62349
62371
62391
62411
62427
62437
62434
62420
62395
62351
62294
62234
62175
62116
62065
62022
61987
61964
61945
61926
61911
61900
61889
61883
61877
61866
61853
61847
61850
61860
61873
61880
61878
61870
61856
61836
61810
61782
61751
61719
61687
61658
61635
61614
61585
61550
61510
61460
61403
61342
61272
61193
61112
61036
60966
60897
60826
60753
60681
60616
60559
60507
60459
60413
60367
60319
60273
60225
60175
60126
60077
60023
59961
59894
59827
59772
59730
59696
59670
59650
59639
59639
59635
59621
59594
59555
59508
59447
59379
59316
59258
59203
59150
59106
59068
59033
59003
58978
58954
58934
58911
58876
58829
58770
58707
58646
58582
58518
58460
58406
58354
58305
58264
58233
58207
58176
58140
58096
58043
57978
57912
57852
57791
57725
57654
57579
57505
57437
57377
57329
57302
57304
57334
57401
57513
57668
57865
58103
58376
58668
58973
59289
59608
59920
60218
60503
60776
61033
61269
61488
61688
61863
62013
62133
62223
62285
62324
62345
62351
62349
62343
62334
62328
62326
62326
62330
62341
62359
62380
62400
62420
62449
62483
62509
62532
62563
62602
62644
62688
62734
62787
62844
62892
62923
62938
62940
62930
62913
62892
62865
62832
62793
62750
62707
62666
62628
62592
62549
62503
62465
62431
62400
62378
62362
62349
62339
62336
62342
62352
62365
62376
62384
62382
62367
62343
62317
62287
62252
62209
62164
62125
62089
62052
62017
61988
61951
61901
61854
61811
61768
61723
61676
61623
61557
61482
61407
61333
61260
61194
61139
61096
61065
61039
61004
60955
60901
60847
60795
60740
60684
60629
60570
60505
60435
60374
60331
60297
60270
60244
60214
60180
60144
60106
60065
60021
59976
59926
59865
59800
59741
59690
59642
59600
59567
59543
59521
59493
59453
59404
59348
59289
59226
59161
59100
59044
58993
58943
58897
58865
58838
58804
58763
58722
58683
58647
58612
58570
58515
58451
58384
58315
58245
58177
58110
58048
57986
57923
57865
57811
57761
57712
57666
57622
57576
57529
57488
57460
57455
57483
57560
57698
57900
58152
58441
58753
59077
59402
59730
60061
60383
60682
60954
61198
61407
61593
61761
61904
62027
62130
62214
62279
62327
62356
62371
62377
62370
62356
62347
62345
62352
62373
62408
62448
62485
62519
62551
62580
62602
62615
62622
62628
62638
62655
62681
62718
62763
62810
62853
62886
62903
62903
62885
62844
62792
62739
62690
62640
62587
62532
62485
62453
62430
62411
62390
62371
62360
62361
62367
62372
62370
62361
62351
62339
62319
62295
62268
62236
62199
62165
62137
62112
62087
62063
62041
62015
61985
61954
61920
61873
61815
61756
61699
61637
61569
61506
61451
61405
61363
61318
61267
61211
61153
61095
61037
60976
60912
60850
60794
60743
60693
60647
60605
60565
60522
60470
60414
60356
60297
60235
60171
60104
60035
59965
59900
59847
59803
59770
59742
59716
59694
59674
59649
59616
59578
59536
59484
59425
59361
59290
59215
59140
59071
59012
58963
58924
58891
58861
58830
58793
58750
58700
58637
58565
58497
58439
58388
58337
58285
58234
58186
58142
58098
58053
58007
57952
57894
57837
57781
57723
57660
57592
57524
57460
57396
57333
57279
57234
57188
57132
57075
57019
56959
56897
56841
56809
56817
56873
56981
57149
57376
57648
57955
58283
58618
58945
59255
59551
59828
60087
60330
60551
60745
60915
61061
61179
61270
61336
61384
61417
61435
61439
61432
61424
61420
61418
61413
61407
61401
61391
61383
61378
61371
61360
61356
61362
61378
61401
61427
61454
61484
61519
61554
61582
61602
61608
61597
61572
61540
61505
61463
61417
61372
61329
61294
61271
61255
61240
61221
61200
61182
61160
61128
61091
61059
61034
61019
61016
61024
61037
61048
61053
61052
61042
61024
61001
60972
60937
60901
60870
60843
60814
60786
60760
60736
60711
60683
60647
60600
60541
60472
60397
60311
60220
60129
60045
59970
59906
59848
59798
59756
59716
59677
59644
59615
59584
59549
59510
59464
59410
59353
59295
59242
59191
59142
59100
59066
59037
59013
58991
58961
58921
58867
58803
58736
58672
58609
58546
58485
58431
58386
58353
58326
58298
58270
58246
58221
58194
58171
58153
58135
58110
58073
58022
57963
57898
57827
57752
57674
57599
57536
57478
57420
57367
57317
57269
57224
57175
57120
57069
57029
57014
57032
57084
57179
57328
57521
57746
57994
58253
58514
58774
59026
59272
59513
59746
59961
60156
60331
60485
60620
60738
60840
60925
60990
61034
61054
61055
61042
61023
61004
60988
60975
60972
60984
61003
61019
61031
61042
61053
61068
61089
61111
61132
61149
61161
61168
61169
61167
61168
61177
61193
61207
61214
61212
61199
61183
61171
61150
61114
61074
61035
60993
60954
60918
60880
60837
60792
60745
60711
60694
60685
60680
60679
60681
60685
60684
60678
60664
60641
60614
60588
60558
60525
60494
60466
60442
60418
60396
60372
60336
60289
60230
60161
60083
59994
59899
59805
59725
59665
59619
59577
59533
59491
59454
59419
59377
59323
59255
59177
59100
59030
58968
58910
58853
58797
58744
58692
58643
58601
58566
58532
58497
58462
58424
58381
58339
58297
58258
58221
58183
58141
58087
58023
57960
57903
57851
57799
57741
57685
57634
57583
57530
57473
57414
57356
57298
57238
57178
57124
57082
57049
57016
56983
56949
56911
56869
56820
56765
56709
56653
56599
56547
56499
56457
56419
56382
56343
56300
56249
56193
56134
56070
56002
55932
55869
55815
55775
55754
55757
55794
55873
56002
56178
56397
56653
56936
57231
57529
57820
58101
58369
58623
58856
59067
59256
59426
59576
59710
59825
59921
60001
60062
60104
60126
60129
60119
60107
60101
60101
60105
60114
60128
60150
60178
60210
60243
60280
60311
60331
60344
60358
60382
60421
60472
60522
60562
60591
60613
60624
60622
60607
60585
60562
60528
60488
60449
60410
60370
60333
60298
60260
60223
60184
60142
60103
60068
60033
60003
59987
59983
59984
59987
59989
59987
59977
59964
59950
59933
59916
59901
59884
59858
59823
59785
59746
59705
59664
59619
59570
59520
59475
59433
59392
59344
59288
59231
59169
59111
59067
59031
58994
58949
58900
58844
58779
58709
58635
58558
58485
58420
58364
58314
58269
58229
58192
58148
58094
58030
57967
57907
57845
57791
57757
57738
57724
57709
57685
57640
57577
57507
57439
57378
57330
57291
57254
57221
57185
57141
57087
57024
56958
56898
56847
56800
56760
56726
56700
56678
56649
56605
56539
56455
56372
56293
56223
56170
56128
56088
56045
55995
55937
55878
55826
55780
55742
55707
55667
55621
55568
55511
55450
55382
55306
55226
55151
55087
55036
54995
54967
54962
54984
55027
55094
55193
55331
55500
55694
55916
56159
56424
56709
57006
57302
57586
57843
58069
58273
58456
58611
58739
58849
58941
59017
59078
59129
59168
59191
59194
59188
59186
59192
59195
59191
59187
59191
59207
59228
59253
59284
59319
59350
59377
59402
59420
59433
59444
59463
59496
59535
59575
59613
59643
59659
59661
59647
59618
59578
59528
59474
59426
59388
59359
59333
59305
59271
59237
59205
59173
59140
59109
59079
59052
59030
59010
58993
58986
58988
58996
59007
59010
58997
58977
58953
58924
58896
58872
58853
58825
58782
58729
58666
58600
58538
58482
58433
58386
58339
58293
58245
58188
58121
58047
57972
57904
57847
57804
57769
57733
57686
57630
57572
57505
57430
57357
57288
57227
57182
57153
57126
57099
57071
57035
56988
56935
56883
56833
56789
56749
56717
56699
56688
56675
56655
56625
56584
56533
56472
56404
56346
56303
56270
56234
56188
56134
56072
56006
55940
55879
55833
55795
55762
55736
55715
55692
55662
55621
55569
55503
55419
55333
55257
55190
55129
55078
55038
55010
55001
55019
55071
55147
55241
55361
55510
55690
55905
56148
56407
56676
56945
57203
57441
57658
57854
58024
58169
58298
58412
58509
58588
58657
58721
58779
58830
58867
58889
58900
58897
58883
58861
58829
58796
58767
58751
58756
58773
58799
58831
58865
58895
58914
58923
58929
58938
58953
58968
58983
58995
58996
58987
58970
58945
58916
58885
58848
58799
58742
58687
58638
58598
58574
58558
58539
58517
58490
58460
58433
58408
58388
58367
58350
58342
58347
58364
58384
58397
58399
58393
58376
58345
58297
58237
58176
58123
58081
58051
58027
58002
57968
57923
57870
57817
57767
57717
57664
57604
57539
57472
57409
57357
57317
57287
57261
57234
57206
57167
57112
57049
56988
56925
56863
56809
56763
56725
56698
56675
56656
56642
56631
56614
56586
56543
56487
56426
56369
56314
56260
56216
56182
56147
56110
56078
56053
56026
55993
55948
55889
55819
55749
55692
55646
55608
55580
55559
55546
55535
55514
55474
55421
55361
55300
55242
55185
55129
55074
55027
54979
54923
54858
54791
54723
54652
54582
54530
54505
54513
54565
54668
54808
54977
55171
55382
55607
55845
56092
56353
56624
56898
57170
57430
57668
57883
58076
58249
58394
58510
58600
58668
58718
58762
58806
58849
58884
58910
58926
58938
58957
58975
58986
58991
58993
59005
59033
59072
59116
59162
59211
59264
59315
59369
59424
59468
59497
59515
59530
59548
59566
59579
59584
59584
59570
59536
59488
59431
59373
59315
59258
59206
59161
59125
59095
59069
59051
59041
59035
59025
59015
59004
58994
58983
58969
58956
58947
58941
58935
58927
58918
58907
58891
58868
58841
58804
58762
58723
58687
58651
58613
58574
58532
58488
58435
58375
58315
58256
58199
58150
58115
58078
58032
57985
57939
57886
57823
57754
57681
57606
57530
57461
57403
57355
57311
57265
57221
57185
57157
57136
57115
57086
57050
57005
56951
56893
56835
56777
56724
56676
56633
56596
56560
56530
56503
56472
56439
56405
56373
56337
56297
56251
56197
56132
56064
56003
55952
55907
55868
55830
55792
55760
55730
55695
55654
55604
55545
55478
55411
55346
55283
55223
55162
55109
55069
55042
55019
54993
54968
54934
54884
54821
54748
54667
54588
54517
54455
54408
54383
54383
54412
54472
54558
54679
54842
55040
55263
55502
55757
56030
56312
56596
56877
57144
57395
57630
57848
58043
58212
58359
58489
58599
58694
58782
58859
58925
58982
59025
59055
59066
59059
59045
59031
59022
59026
59045
59078
59116
59156
59202
59251
59294
59336
59380
59429
59480
59530
59579
59622
59650
59659
59657
59653
59647
59638
59628
59614
59596
59571
59545
59519
59490
59450
59400
59344
59281
59224
59181
59149
59123
59101
59094
59096
59094
59087
59079
59063
59041
59018
58998
58984
58972
58957
58940
58928
58915
58890
58852
58810
58759
58691
58622
58564
58517
58478
58446
58418
58386
58347
58302
58251
58194
58127
58057
57993
57935
57882
57834
57791
57750
57705
57655
57599
57541
57484
57424
57361
57303
57251
57204
57161
57116
57072
57032
57001
56978
56956
56932
56904
56871
56827
56774
56715
56648
56578
56510
56448
56395
56347
56300
56249
56195
56149
56117
56092
56068
56041
56012
55982
55945
55895
55838
55780
55721
55661
55605
55549
55497
55451
55411
55370
55331
55295
55256
55210
55157
55098
55036
54972
54906
54839
54776
54726
54683
54639
54591
54543
54498
54460
54423
54387
54363
54356
54371
54415
54495
54613
54768
54950
55157
55390
55652
55934
56226
56515
56795
57064
57318
57549
57753
57927
58073
58192
58286
58346
58372
58375
58367
58360
58356
58352
58356
58368
58384
58404
58427
58447
58461
58469
58477
58488
58499
58506
58510
58519
58534
58557
58583
58607
58630
58650
58663
58661
58647
58619
58575
58523
58471
58425
58382
58341
58299
58253
58208
58173
58148
58125
58097
58062
58028
58002
57996
58005
58023
58049
58078
58106
58129
58141
58138
58127
58107
58075
58031
57980
57930
57888
57851
57818
57786
57750
57710
57670
57628
57581
57526
57466
57403
57342
57290
57246
57203
57160
57121
57086
57052
57017
56980
56934
56877
56821
56765
56698
56622
56555
56497
56455
56431
56409
56388
56373
56356
56336
56313
56276
56219
56153
56086
56032
56001
55986
55982
55983
55981
55975
55962
55943
55919
55882
55833
55781
55728
55673
55622
55575
55529
55482
55436
55396
55356
55312
55256
55189
55124
55067
55015
54969
54929
54896
54867
54840
54822
54825
54857
54921
55014
55135
55284
55457
55650
55863
56091
56333
56577
56817
57051
57274
57485
57680
57852
58000
58127
58225
58299
58348
58376
58396
58407
58407
58398
58386
58377
58373
58372
58371
58375
58376
58369
58358
58346
58343
58356
58381
58413
58449
58486
58513
58527
58537
58549
58559
58565
58565
58556
58540
58516
58487
58457
58424
58389
58352
58306
58251
58194
58143
58099
58062
58036
58021
58022
58036
58058
58079
58087
58077
58059
58039
58023
58021
58026
58032
58037
58039
58032
58016
57994
57966
57923
57864
57798
57731
57668
57612
57572
57542
57508
57466
57419
57369
57308
57239
57169
57097
57032
56980
56937
56910
56894
56877
56857
56823
56766
56693
56615
56548
56498
56459
56426
56399
56378
56363
56350
56330
56303
56272
56234
56184
56130
56083
56045
56013
55982
55952
55927
55900
55865
55822
55773
55717
55659
55599
55543
55500
55475
55462
55451
55436
55411
55373
55326
55273
55218
55161
55104
55048
55001
54960
54920
54881
54851
54824
54786
54734
54673
54606
54541
54484
54437
54397
54365
54338
54304
54269
54237
54218
54228
54276
54365
54494
54663
54873
55110
55360
55623
55899
56174
56444
56701
56943
57173
57390
57588
57762
57916
58054
58177
58281
58363
58420
58453
58466
58468
58465
58456
58453
58460
58468
58478
58496
58522
58555
58586
58610
58634
58663
58698
58738
58779
58823
58870
58913
58952
58985
59010
59025
59034
59032
59019
58996
58968
58937
58905
58875
58845
58815
58786
58755
58718
58675
58624
58568
58519
58485
58464
58455
58453
58461
58470
58466
58451
58430
58404
58371
58336
58309
58293
58286
58282
58279
58278
58279
58280
58284
58283
58270
58242
58202
58152
58096
58039
57982
57926
57871
57820
57772
57726
57679
57627
57577
57532
57483
57431
57374
57312
57251
57189
57129
57078
57042
57024
57013
56998
56972
56937
56896
56850
56803
56757
56717
56684
56660
56643
56628
56611
56586
56556
56523
56488
56447
56407
56371
56336
56304
56272
56241
56209
56176
56136
56088
56034
55978
55924
55869
55818
55775
55737
55703
55673
55651
55632
55607
55575
55537
55497
55459
55422
55385
55345
55310
55282
55251
55213
55171
55119
55060
55002
54950
54901
54852
54803
54761
54727
54694
54656
54617
54576
54534
54495
54482
54513
54594
54724
54904
55135
55404
55692
55983
56274
56559
56833
57107
57389
57665
57917
58149
58359
58533
58666
58768
58855
58934
59001
59054
59093
59120
59138
59148
59153
59150
59145
59146
59149
59153
59166
59195
59231
59269
59307
59343
59371
59394
59419
59447
59482
59526
59575
59626
59672
59712
59742
59758
59761
59749
59724
59694
59657
59616
59575
59537
59504
59479
59460
59451
59450
59447
59443
59442
59438
59431
59425
59422
59415
59403
59394
59391
59396
59404
59410
59410
59399
59375
59344
59315
59285
59245
59197
59147
59100
59060
59037
59022
59005
58981
58945
58900
58845
58780
58707
58634
58565
58506
58455
58409
58368
58332
58300
58267
58225
58173
58119
58072
58039
58019
58001
57985
57972
57960
57943
57915
57876
57828
57780
57739
57705
57671
57637
57603
57576
57558
57540
