17268
17454
17263
17250
17352
17252
17004
17308
17439
17247
17223
17323
17280
17159
17209
17197
17177
17078
17358
17292
17150
17159
17292
17407
17312
17363
17377
17401
17446
17243
17604
17558
17278
17550
17599
17599
17484
17367
17695
17491
17384
17626
17580
17521
17429
17655
17695
17584
17529
17784
17685
17655
17655
17703
17674
17771
17803
17820
17850
17657
17755
17878
17580
17623
18062
17858
17767
17668
17976
17799
17792
17834
17931
18062
17909
17879
18035
17956
17868
18049
17967
17830
18090
18089
18014
18005
17857
18268
17990
17968
18120
17973
17969
17892
18302
18284
18225
18204
18421
17989
18110
18046
18275
18017
17901
18285
18326
18179
18078
18348
18338
18080
18096
18515
18266
18050
18349
18270
18386
18195
18370
18450
18254
18247
18423
18373
18259
18184
18409
18325
18275
18177
18408
18350
18117
18136
18179
18141
17855
17987
18153
17853
17844
17936
17788
17676
17947
17975
17716
17748
17770
17771
17672
17698
17676
17587
17495
17686
17842
17626
17690
17318
17415
17449
17384
17562
17461
17491
17222
17366
17582
17263
17218
17566
17445
17206
17483
17370
17336
17280
17445
17632
17464
17228
17547
17517
17502
17447
17473
17574
17509
17372
17422
17374
17522
17500
17470
17543
17362
17711
17504
17562
17312
17615
17498
17558
17673
17516
17520
17422
17662
17865
17762
17421
17481
17675
17762
17651
17675
17711
17858
17688
17976
17750
17729
17785
17903
17947
17670
17895
17906
18046
17893
17965
17958
18085
17788
18203
18196
17894
18168
18201
18174
18030
18030
18171
18236
17836
18266
18256
18155
18048
18195
18127
18221
18051
18230
18314
18202
18018
18210
18089
18163
18142
18265
18114
18042
18222
18245
18194
18177
18268
18518
18394
18157
18397
18299
18349
18358
18680
18228
18212
18344
18411
18346
18305
18352
18433
18282
18351
18400
18539
18527
18240
18580
18241
18044
18231
18397
18388
18259
18280
18142
17917
17993
18302
18167
17833
18032
17899
17857
17848
18042
17918
17907
17652
17710
17865
17632
17554
17956
17699
17763
17602
17569
17797
17695
17557
17743
17691
17324
17495
17595
17666
17553
17515
17493
17406
17398
17648
17741
17550
17796
17592
17757
17764
17852
17865
17784
17601
17964
17757
17867
17521
17935
17897
17798
17778
17948
17830
17901
17943
18053
17886
17705
17926
17952
18044
17974
18020
17906
17830
18093
18176
18082
17923
17883
17973
18173
17899
17996
18260
18211
17934
18240
18150
17993
18152
18434
18318
18163
18344
18225
18225
18013
18418
18374
18207
18165
18403
18477
18399
18314
18550
18452
18339
18361
18462
18440
18345
18450
18358
18346
18464
18482
18399
18468
18509
18658
18654
18362
18594
18390
18484
18329
18536
18674
18469
18320
18493
18484
18476
18518
18753
18387
18639
18432
18454
18393
18409
18465
18878
18422
18576
18697
18725
18513
18531
18789
18524
18466
18423
18789
18552
18320
18503
18349
18399
18308
18359
18508
18335
18058
18313
18302
18037
18157
18112
18035
18212
18186
17969
18156
17824
18048
18051
18127
18049
18105
17989
17941
17734
18095
18012
18077
18077
17880
17936
17878
18057
17788
18051
17776
17942
17783
17921
17843
17914
18054
18041
17831
18022
18086
17784
18014
17946
18101
17842
17975
17956
18012
17929
18088
17917
17869
18123
18073
18138
17987
18003
18147
18048
18026
18118
18173
18010
18057
18070
17963
18094
17956
18304
17957
18040
17935
18254
18294
18039
18107
18332
18000
17855
18208
18247
18283
18066
18130
18028
18171
18127
18453
18082
18216
18292
18468
18423
18241
18383
18308
18299
18241
18384
18321
18074
18354
18475
18439
18111
18435
18291
18465
18331
18431
18372
18396
18371
18457
18350
18454
18297
18573
18471
18288
18322
18467
18431
18401
18411
18595
18287
18240
18475
18426
18653
18527
18585
18678
18469
18641
18614
18579
18449
18540
18639
18635
18626
18673
18674
18560
18647
18663
18585
18547
18440
18552
18416
18281
18535
18652
18433
18321
18252
18274
18185
18072
18130
18062
18171
18026
18361
18051
17882
17945
18244
18057
17956
18011
18121
17939
17965
17885
18062
17947
17896
17992
18139
17932
17889
18013
18033
17908
17923
18023
17819
17761
18105
18245
18010
17786
18042
18140
18052
17896
18116
18018
17813
18020
18155
18143
17923
18108
18062
17912
18009
18175
18049
18071
18048
18194
18223
18019
18209
18154
18150
17963
18248
18134
18182
17968
18054
18100
18286
18048
18385
18286
18088
18214
18013
18304
18168
18269
18190
18242
18037
18201
18267
18206
18303
18212
18252
18088
18391
18389
18211
18078
18305
18398
18432
18357
18359
18462
18323
18359
18559
18298
18359
18455
18333
18305
18425
18292
18436
18471
18381
18464
18403
18501
18384
18554
18377
18555
18375
18438
18485
18605
18403
18801
18361
18482
18546
18425
18520
18392
18781
18581
18588
18686
18522
18648
18612
18688
18773
18618
18542
18700
18656
18740
18578
18643
18684
18672
18658
18868
18686
18412
18628
18584
18547
18263
18383
18628
18198
18105
18380
18290
18271
18147
18130
18103
18090
17979
18167
18170
17924
17875
17994
17786
17817
17892
18125
17945
17910
17882
17915
18068
17849
18131
17961
17720
17973
18151
17966
17970
17826
18145
17940
17986
17994
18025
17943
18102
18213
18082
18038
17910
18330
18104
17996
18058
18339
18109
17853
18072
18267
18171
17912
18285
18178
18097
18301
18135
18480
18307
18211
18332
18213
18243
18240
18366
18167
18200
18250
18403
18212
18322
18267
18356
18449
18219
18631
18306
18218
18430
18723
18360
18210
18720
18444
18610
18435
18709
18699
18365
18432
18788
18566
18417
18446
18603
18645
18541
18626
18592
18671
18407
18648
18539
18781
18622
18768
18661
18591
18647
18741
18718
18676
18902
18757
18852
18854
18825
18931
18918
18904
19042
19004
18896
18920
19110
18776
18622
18907
19017
18810
18661
19101
18994
18775
18798
18852
18902
18729
19071
19201
18959
18823
18793
19091
19126
18909
18972
19016
18799
18852
19163
18778
18701
18745
19008
18706
18486
18543
18885
18605
18656
18615
18519
18544
18283
18537
18333
18497
18360
18634
18590
18260
18533
18267
18305
18360
18300
18441
18317
18258
18455
18458
18379
18077
18549
18181
18474
18275
18233
18427
18106
18313
18364
18498
18196
18429
18326
18422
18231
18375
18247
18409
18229
18573
18280
18186
18296
18356
18283
18346
18495
18365
18317
18401
18374
18367
18493
18411
18382
18466
18314
18340
18339
18332
18468
18316
18611
18432
18234
18430
18348
18311
18357
18390
18573
18493
18579
18596
18483
18365
18508
18521
18500
18349
18778
18724
18606
18435
18607
18564
18420
18780
18874
18571
18651
18669
18908
18744
18746
18796
18657
18791
18776
18930
18652
18628
18565
18750
18790
18941
18654
18844
19007
18846
18826
19047
18886
18771
18965
18919
18860
18881
18832
18980
18716
18783
19082
18890
18761
19057
19142
18985
18987
19001
18905
18909
18736
19077
19007
18935
18944
19039
19187
18934
18951
19292
18940
18998
19035
18871
18835
18768
18856
18637
18679
18640
18699
18777
18585
18628
18648
18536
18500
18584
18630
18489
18356
18635
18458
18579
18545
18668
18606
18618
18410
18740
18522
18253
18484
18374
18334
18223
18562
18378
18324
18372
18431
18297
18254
18562
18568
18322
18358
18532
18669
18511
18379
18567
18676
18520
18335
18491
18348
18389
18472
18447
18470
18440
18323
18608
18425
18389
18544
18470
18494
18443
18579
18628
18426
18430
18782
18469
18519
18622
18674
18682
18449
18670
18785
18534
18583
18819
18684
18635
18485
18791
18673
18489
18705
18862
18659
18601
18666
18587
18648
18694
18759
18877
18763
18595
18953
18792
18818
18755
18997
18685
18751
18663
18883
18708
18593
18913
18778
18868
18746
18931
18878
18842
18667
18865
18736
18553
18650
18886
18840
18664
18648
18869
18848
18591
19001
18979
18757
18852
18733
19027
18660
18999
19043
19042
18901
18886
18776
18817
18702
18913
18880
18807
18931
19035
18885
18870
18917
18986
18719
18651
18519
18833
18524
18398
18690
18385
18363
18294
18644
18384
18151
18246
18345
18178
18229
18098
18282
18125
18183
18345
18247
18125
18167
18138
18198
18258
18124
18311
18192
18148
17927
18309
17963
18050
18037
18077
18181
17881
18035
18057
17860
17980
18362
18023
18142
17978
18162
17979
18018
18208
18140
18103
18129
18174
18077
18210
18100
18092
17977
18209
18086
18292
18376
18049
18040
18280
18327
17968
18037
18145
18266
18168
18123
18092
18113
17983
18423
18069
18267
18037
18488
18348
18007
18165
18311
18226
18211
18300
18242
18151
18226
18310
18345
18266
18364
18434
18358
18175
18347
18335
18288
18270
18351
18379
18311
18256
18455
18356
18363
18300
18512
18376
18273
18360
18480
18457
18345
18449
18456
18385
18424
18480
18506
18421
18387
18618
18364
18264
18453
18601
18459
18337
18594
18476
18500
18432
18551
18550
18510
18393
18653
18599
18531
18598
18650
18454
18359
18489
18631
18525
18228
18531
18639
18440
18477
18453
18275
18248
18212
18315
18146
17949
17987
17772
18186
17981
18185
18372
18006
17963
17992
17800
17886
17987
17999
17819
17830
17945
18140
17935
17782
17880
18016
17689
17770
17737
17722
17698
17709
18056
17758
17866
17639
17998
17742
17742
17836
17997
17817
17686
17976
17852
17942
17883
17966
18014
17887
17963
18130
17877
17683
18047
17914
17933
17826
17844
17898
17853
17684
18047
17894
17726
17826
17805
17948
17749
17981
18066
18046
17849
18113
18052
17856
17999
18007
18018
18045
17972
17989
17949
17969
18086
18267
18089
18068
17965
18050
18146
18056
18143
18161
17878
18148
18193
18252
18158
18188
18082
18183
18157
18089
18201
18147
17932
18322
18095
18008
17988
18169
18113
18010
18107
18209
18112
18052
18156
18396
18062
17946
18329
18172
18163
18278
18295
18162
18281
18132
18413
18213
18134
18322
18257
18113
18229
18309
18325
18341
18152
18464
18170
18349
18063
18478
18345
18373
18108
18417
18186
18163
18112
18065
18193
17956
18043
18194
17929
17894
17865
17914
17917
17985
18151
17810
17857
17821
17718
17643
17709
17923
17795
17684
17512
17957
17915
17856
17440
17912
17805
17763
17596
17632
17749
17482
17740
17758
17768
17643
17686
17643
17591
17812
18014
17718
17831
17677
17736
17579
17530
17954
17729
17695
17840
17763
17802
17907
17706
17982
17705
17800
17935
18022
17898
17790
17689
17984
17682
17735
17906
17890
17703
17865
17845
17990
17677
17840
17735
17915
17870
17737
17953
18026
17788
18124
17995
17833
17804
17818
17982
17733
17844
18075
17921
17732
17797
17969
17897
17940
18118
17982
17891
18012
17937
18152
17791
17754
18172
17981
17890
17909
18203
17982
17911
18118
17927
17976
17703
18028
18022
17873
17935
18181
18046
17860
17815
17912
18030
18088
18038
18029
18068
18048
18155
18120
17959
18017
18335
17969
18037
17970
18304
18174
17879
17999
17872
18109
17836
17956
18114
18028
17721
18076
17879
17674
17507
17669
17878
17621
17654
17737
17615
17458
17633
17582
17518
17390
17498
17439
17425
17208
17436
17426
17355
17329
17340
17392
17156
17333
17482
17284
17150
17317
17476
17318
17086
17353
17427
17441
17174
17325
17271
17430
17340
17361
17560
17322
17380
17472
17514
17335
17609
17445
17244
17432
17518
17438
17301
17509
17685
17468
17474
17481
17508
17603
17520
17735
17476
17670
17383
17735
17648
17517
17562
17570
17621
17467
17658
17651
17626
17697
17728
17696
17814
17579
17749
17703
17712
17667
17593
17727
17565
17932
17742
17676
17676
17673
17898
17751
17723
17996
17635
17570
17640
17868
17840
17633
17718
17951
17782
17643
17923
17694
17790
17794
17809
17768
17630
17657
17864
17810
17533
17630
17951
17708
17695
17917
17764
17710
17575
17801
17784
17743
17686
17872
17845
17707
17655
17830
17808
17831
17844
17758
17761
17629
17901
17796
17795
17609
17621
17611
17546
17744
17605
17516
17510
17457
17429
17224
17172
17538
17312
17056
17172
17229
17108
17061
17094
17054
16896
16916
16857
16855
16710
16655
17062
16989
16795
16893
16859
16871
16853
16914
16877
16817
16710
16783
16731
16796
16637
16872
16859
16809
16615
16886
16806
16986
16775
17048
16943
16968
17007
17165
16891
16935
16888
17019
16974
17110
17126
17239
17064
16951
17153
17132
17058
17159
17203
17215
17024
17166
17148
17152
17078
17216
17408
17218
17373
17327
17249
17354
17138
17285
17231
17234
17225
17552
17307
17267
17538
17424
17243
17312
17572
17341
17248
17371
17628
17653
17573
17472
17725
17372
17452
17616
17518
17470
17494
17647
17425
17632
17580
17711
17746
17507
17479
17644
17659
17513
17757
17991
17740
17835
17719
17590
17642
17483
17829
17558
17794
17761
17722
17775
17793
17616
17717
17864
17820
17865
17884
17799
17740
18002
17964
17946
17669
17777
17720
17614
17945
18001
17770
17822
17637
17759
17758
17293
17654
17622
17423
17271
17652
17246
17244
17254
17554
17235
17224
17285
17155
17068
16960
17092
17222
17106
16961
17131
16938
17075
16939
17124
16777
16802
16775
16924
16870
16816
16982
16949
16666
16786
16995
16927
16717
16711
17128
16902
16711
16943
16863
16953
16749
17017
16928
17054
16791
17110
16960
16969
16871
17179
17143
17039
17006
17327
17104
16993
17222
17030
17163
16895
17084
17177
17270
17032
17087
17147
17290
17306
17426
17359
17101
17153
17423
17388
17198
17432
17431
17341
17365
17286
17478
17269
17358
17637
17414
17298
17445
17561
17484
17588
17542
17432
17535
17610
17634
17617
17604
17617
17685
17734
17528
17668
17919
17718
17763
17862
17787
17851
17783
17943
17735
17785
17735
17999
17799
17685
17795
17981
17702
17829
17917
17938
17919
17956
18011
17934
17939
17956
17915
17944
17845
17945
17924
18167
18035
17980
18233
18103
17896
18001
18113
17907
18003
18005
18037
17728
17741
17977
17685
17626
17725
17814
17623
17562
17543
17634
17554
17385
17702
17554
17516
17366
17476
17419
17307
17274
17493
17404
17220
17533
17223
17220
17267
17369
17272
17172
17134
17163
17424
17232
17269
17117
17173
17096
17013
17473
17374
17089
17346
17365
17321
17187
17387
17458
17265
17419
17591
17313
17450
17338
17340
17407
17328
17299
17535
17258
17351
17397
17548
17358
17174
17418
17322
17181
17316
17406
17407
17287
17365
17439
17452
17193
17574
17599
17450
17590
17491
17325
17627
17390
17710
17674
17440
17609
17830
17514
17426
17813
17805
17701
17555
17544
17687
17589
17824
17604
17620
17626
17708
17556
17682
17457
17810
17929
17738
17697
17800
17881
17880
17625
17685
17787
17777
17581
17703
17588
17578
17730
17985
17837
17752
18010
18021
17914
17792
17877
17896
17937
17830
18102
17901
17772
17839
18054
17987
17669
18171
18047
17755
17800
17791
17785
17970
17701
17698
17756
17491
17693
17616
17711
17286
17532
17557
17490
17520
17565
17467
17508
17484
17407
17394
17248
17254
17320
17122
16995
17374
17270
17348
17145
17348
17093
16906
16983
17209
17361
16973
17171
17229
17042
17060
17071
17123
17045
17214
17289
17242
17309
17330
17233
17329
17097
17044
17164
17318
17226
17375
17165
17358
17195
17408
17418
17309
17395
17310
17410
17460
17268
17489
17295
17394
17444
17413
17461
17262
17416
17563
17471
17247
17411
17500
17622
17600
17562
17498
17343
17419
17481
17525
17632
17749
17829
17446
17551
17616
17681
17546
17612
17556
17866
17711
17572
17684
17687
17412
17744
17683
17828
17793
17806
17922
17799
17823
18016
17865
17915
17841
18001
17838
17755
17892
17929
17737
17879
17989
17900
17893
17651
17992
18062
17750
17956
18131
18038
17882
17869
17855
17715
17847
18028
17906
18058
18039
18248
17920
17938
17797
17876
18043
17844
17999
18128
17998
17714
18105
17924
17616
17588
17739
17625
17665
17561
17722
17600
17651
17434
17372
17403
17393
17499
17468
17333
17374
17358
17347
17167
17176
17319
17197
17157
17230
17271
17234
17138
17020
17224
17052
16944
17089
17230
17211
17019
17303
17241
17155
16976
17418
17139
17009
17048
17288
17491
17274
17209
17406
17272
17160
17226
17382
17127
17102
17307
17227
17500
17278
17362
17418
17281
17535
17435
17386
17205
17474
17595
17366
17537
17559
17387
17536
17595
17424
17567
17430
17438
17732
17618
17398
17666
17460
17454
17634
17604
17828
17457
17738
17512
17581
17501
17734
17550
17470
17613
17797
17648
17742
17761
17737
17849
17727
17750
17687
17784
17782
17639
17739
17949
17794
17836
17721
17807
17872
17845
17860
17881
17894
17984
17778
17815
17660
17769
17910
17601
17914
17886
17833
17839
18072
17795
18002
17896
17816
17893
18027
17735
17961
17983
17827
17719
18167
18000
17846
18069
18157
17877
17898
17943
18025
17775
17779
17969
17769
17543
17687
17767
17661
17557
17724
17449
17495
17508
17681
17648
17520
17475
17603
17557
17245
17423
17289
17557
17110
17565
17438
17413
17322
17579
17472
17470
17442
17220
17241
17128
17134
17519
17385
17190
17491
17424
17396
17295
17395
17423
17501
17375
17469
17561
17549
17561
17518
17563
17289
17485
17634
17526
17383
17512
17576
17500
17389
17567
17524
17504
17548
17608
17593
17398
17572
17621
17757
17556
17512
17746
17710
17543
17715
17726
17525
17767
17979
17588
17731
17655
17766
17480
17479
17804
17632
17608
17632
17862
17841
17903
17556
17722
17782
17802
17876
17970
17927
17842
17783
17990
17826
17602
17970
17971
17913
17680
17994
17971
17821
18005
18041
18054
18073
17997
17980
17929
17916
17818
17901
17995
17826
18122
18023
17845
17858
18004
17995
17834
17808
18031
18115
17840
18273
17965
17915
18007
18047
17990
18099
17808
18281
17896
17768
17750
18061
17784
17599
17764
17786
17738
17692
17757
17567
17487
17620
17657
17437
17267
17495
17398
17388
17457
17642
17662
17317
17370
17469
17230
17369
17237
17416
17121
17293
17257
17431
17271
17275
17051
17275
17282
17292
17256
17337
17253
17346
17215
17347
17079
17270
17575
17301
17202
17143
17373
17188
17317
17562
17298
17314
17231
17371
17414
17484
17469
17204
17341
17491
17216
17425
17413
17195
17389
17530
17388
17120
17427
17505
17305
17471
17391
17345
17412
17523
17537
17310
17314
17433
17645
17495
17180
17569
17680
17527
17327
17657
17495
17577
17414
17727
17329
17591
17517
17885
17711
17470
17700
17609
17507
17536
17654
17626
17547
17709
17772
17768
17600
17544
17854
17736
17429
17755
17914
17805
17673
17761
17711
17824
17853
17842
17727
17667
17838
18063
17913
17698
18040
18205
17909
17797
18003
17936
17936
17883
17862
18012
17994
18175
18231
17966
18049
18065
17940
18066
17825
18014
17839
17852
17836
17851
17675
17861
17819
17726
17614
17425
17555
17442
17533
17498
17563
17528
17373
17166
17327
17412
17249
17205
17233
17180
17073
17267
17202
17167
16912
17146
17246
17005
16990
17000
16942
16929
17077
17152
16916
17144
17024
17120
17245
16888
17131
17187
17162
17029
17237
17209
17052
17055
17381
17081
17281
17057
17147
17344
16998
17227
17308
17249
16997
17138
17250
17171
17173
17446
17148
17127
17087
17189
17357
17154
17095
17494
17180
17323
17485
17326
17252
17014
17483
17281
17248
17125
17582
17509
17129
17410
17343
17385
17316
17350
17418
17409
17171
17370
17414
17503
17265
17591
17581
17406
17321
17497
17654
17348
17591
17783
17606
17597
17584
17529
17383
17558
17775
17640
17432
17624
17843
17677
17471
17487
17802
17558
17361
17623
17549
17616
17495
17772
17811
17694
17536
17701
17718
17520
17655
18015
17611
17600
17581
17829
17739
17703
17731
17901
17614
17706
17725
17618
17596
17474
17883
17696
17427
17658
17561
17570
17471
17573
17405
17484
17257
17590
17238
17387
17175
17391
17267
17097
17259
17459
17059
17152
17111
17227
17045
16955
17360
17159
17098
17004
17155
16880
17022
16876
17068
16901
16703
17097
17183
16949
16736
17093
17228
16932
17147
17112
17174
16919
17240
17213
17339
17162
17346
17251
17315
17140
17251
17258
17373
17335
17327
17395
17189
17186
17250
17162
17237
17378
17425
17387
17073
17286
17363
17172
17378
17504
17458
17450
17118
17491
17451
17135
17261
17474
17475
17382
17506
17599
17427
17323
17475
17512
17521
17482
17593
17441
17238
17365
17460
17505
17429
17587
17526
17413
17344
17720
17671
17468
17418
17838
17662
17416
17450
17716
17834
17490
17769
17734
17565
17454
17644
17854
17673
17535
17759
17883
17657
17786
17827
17737
17640
17727
17906
17756
17847
17888
17812
17822
17753
17900
17894
17729
17735
18014
17952
17821
18010
18003
17825
17902
17926
17870
17956
17656
17865
17751
17670
17679
17771
17692
17491
17638
17533
17524
17311
17484
17398
17393
17498
17432
17345
17309
17154
17425
17314
17234
17339
17469
17257
17060
17245
17213
17248
17002
17309
17107
17119
17058
17181
17270
17378
17181
17228
17052
17175
17064
17281
17332
17177
17251
17351
17396
17224
17544
17217
17462
17330
17367
17422
17279
17380
17155
17444
17081
17383
17356
17290
17368
17377
17382
17440
17265
17534
17345
17373
17433
17545
17355
17476
17567
17171
17398
17334
17488
17585
17424
17270
17616
17584
17347
17596
17816
17547
17390
17755
17741
17471
17594
17564
17822
17694
17541
17972
17626
17431
17722
17579
17724
17710
17819
17883
17744
17622
17848
17668
17758
17831
17922
17626
17880
17944
17885
17696
17827
17621
17745
17838
17571
17721
17710
17881
17870
17814
17719
17746
17683
18115
18026
17872
17715
17931
18046
17776
17928
18110
18035
17724
17875
17853
17810
17908
17744
17758
17850
17702
17929
17640
17651
17419
17650
17591
17177
17456
17457
17212
17333
17331
17276
17230
17153
17505
17317
17100
17268
17432
17060
17101
17315
17115
17180
17025
17228
17109
17136
16928
17122
17055
17173
17052
17191
17104
17061
17337
17126
17088
17088
17073
17240
17038
17223
17350
17343
17400
17161
17213
17437
17342
17496
17326
17429
17412
17394
17155
17314
17223
17364
17526
17404
17555
17658
17442
17315
17355
17434
17524
17252
17663
17446
17384
17353
17735
17437
17707
17468
17463
17751
17522
17658
17475
17878
17409
17773
17684
17573
17523
17810
17796
17720
17450
17899
17743
17570
17876
17966
17750
17765
18081
17781
17859
17648
17987
17936
17929
17903
18088
17958
17806
17770
17864
17800
17623
17850
18091
17899
17809
18065
18012
17899
17894
17966
17893
17801
17830
17929
18251
17992
18109
17970
18109
18170
18238
18162
18058
18239
18224
18179
18165
18122
18442
18059
18177
18269
18014
17997
17905
18108
17888
17819
17787
17751
17895
17855
17789
18004
17794
17714
17846
17900
17695
17710
17874
17882
17588
17475
17628
17523
17572
17598
17690
17647
17667
17617
17754
17559
17424
17525
17629
17461
17277
17654
17780
17352
17457
17529
17744
17685
17410
17511
17664
17429
17682
17847
17789
17618
17795
17660
17660
17809
18025
17861
17870
17788
17982
17681
17808
17928
18011
18009
17857
18036
17905
17858
17774
18091
18101
18000
17891
17958
18048
17941
17999
18212
18167
17958
18149
18143
17960
18009
18068
18093
18009
18105
18268
18038
18142
18136
18278
18134
17982
18263
18343
18226
17908
18246
18167
18266
18258
18394
18383
18209
18155
18193
18386
18181
18317
18293
18161
18246
18250
18438
18352
18047
18225
18462
18286
18251
18573
18395
18317
18441
18582
18478
18386
18397
18532
18474
18087
18617
18620
18385
18367
18651
18558
18258
18392
18718
18549
18483
18584
18680
18494
18417
18583
18482
18218
18312
18348
18429
18070
18253
18142
18202
18143
18195
18272
18126
17999
18063
18264
17965
18119
18133
17931
18118
18097
17979
18093
17850
17953
18078
18020
17784
18085
18060
18154
17871
18241
18225
17885
17848
18139
18018
17985
18017
18283
18184
18075
18251
18221
18186
17990
18251
18084
18125
17967
18382
18209
18024
18323
18289
18256
18051
18080
18380
18066
17929
18381
18292
18092
18030
18081
18041
18050
18260
18133
18341
18104
18169
18313
18125
18008
18112
18173
18117
18140
18179
18254
18079
18197
18452
18219
18148
18400
18535
18302
18100
18256
18292
18338
18192
18554
18485
18441
18396
18419
18283
18171
18182
18651
18436
18120
18317
18499
18397
18248
18403
18382
18463
18227
18393
18343
18271
18322
18376
18236
18212
18560
18357
18211
18198
18426
18429
18328
18198
18511
18572
18454
18360
18398
18447
18302
18528
18583
18520
18338
18500
18597
18535
18358
18421
18313
18215
18082
18235
18211
18155
18069
18444
18115
18082
18114
18166
17849
17901
18067
18053
18064
17864
17974
17967
17714
17854
17918
17826
17763
17598
17707
17726
17559
17615
17480
17502
17536
17805
17681
17405
17664
17536
17590
17423
17661
17661
17571
17384
17705
17549
17656
17534
17712
17456
17702
17468
17531
17590
17393
17725
17615
17571
17542
17756
17662
17790
17602
17880
17744
17767
17594
17925
17693
17473
17658
17796
17829
17657
17748
17799
17678
17741
17752
17879
17856
17607
17957
17915
17676
17728
17817
17880
17792
17941
17956
17865
17623
17932
17889
17771
17838
17952
17837
17733
18100
17995
17948
17876
17896
18056
17972
17933
18196
17938
18089
17897
18123
18121
17932
17930
18019
18256
17972
18235
18467
18051
18152
18259
18087
18096
18225
18416
18274
18099
18146
18296
18350
18143
18196
18325
18208
18023
18292
18412
18447
18283
18484
18381
18260
18209
18597
18620
18151
18227
18465
18460
18447
18402
18556
18389
18152
18229
18267
18292
18152
18320
18047
17859
18221
17913
17838
17913
17896
17892
17847
17731
17912
17882
17738
17660
18094
17927
17924
17734
17824
17633
17671
17763
17730
17741
17486
17821
17698
17784
17651
17737
17858
17720
17498
17916
17824
17707
17683
17560
17538
17515
17878
17856
17747
17674
17950
17862
17715
17735
18061
17761
17905
17764
17781
17891
17551
17981
17934
17936
17673
17998
17818
17802
17758
17950
17931
17969
17545
18053
18021
17543
17895
18111
17903
17903
17983
18020
17932
17901
18038
18208
17804
17919
17990
18059
18057
18175
18257
18052
17855
18002
18124
17950
17991
17999
18056
18026
18090
18321
18105
18313
18089
18459
18325
18163
18153
18496
18234
18036
18204
18383
18351
18051
18302
18317
18302
18360
18316
18338
18270
18448
18432
18302
18097
18312
18323
18397
18353
18502
18564
18498
18339
18408
18599
18434
18493
18457
18652
18367
18550
18561
18448
18469
18490
18735
18452
18341
18563
18408
18302
18266
18488
18023
18143
18312
18077
18100
17906
18239
17964
17991
17788
17844
17989
17926
17823
17740
17669
17829
17687
17809
17847
17639
17943
17785
17654
17659
17911
17656
17698
17637
17997
17689
17707
17837
18020
17760
17515
17768
17719
17828
17677
17872
17989
17681
17582
17804
17692
17735
17809
17869
17733
17733
18030
17880
17951
17891
17803
17845
17954
17804
18150
17807
17644
17979
18177
17844
17787
18076
17947
17972
17879
17960
18086
17761
17984
17866
18050
17903
17953
17905
17913
17756
18175
18119
17975
17820
18088
17937
18108
18195
18044
18287
17900
18146
18399
18176
17927
18033
18344
18128
18023
18192
18205
18057
18224
18413
18149
18400
18470
18457
18431
18233
18269
18518
18401
18076
18456
18445
18428
18339
18509
18545
18248
18472
18633
18572
18423
18265
18535
18690
18301
18605
18598
18435
18537
18504
18474
18510
18284
18789
18676
18571
18607
18738
18583
18199
18380
18534
18470
18194
18425
18376
18261
18012
18056
17952
18105
18078
17866
18081
17839
17957
17975
17873
17688
17920
17895
17551
17512
17904
17578
17564
17751
17629
17460
17444
17663
17758
17582
17280
17570
17679
17436
17393
17484
17506
17424
17287
17716
17596
17417
17409
17385
17611
17374
17499
17391
17506
17541
17695
17493
17489
17607
17729
17555
17557
17494
17776
17559
17437
17538
17655
17444
17493
17621
17789
17583
17388
17620
17695
17643
17634
17614
17538
17663
17595
17823
17592
17449
17704
17782
17556
17569
17663
17840
17675
17916
18030
17740
17819
17742
18063
17737
17552
17928
17838
17931
17759
18060
17911
17765
17788
18181
18132
18016
18083
18295
18077
18024
18304
18187
18086
18044
18069
18277
18157
18207
18395
18273
18089
18093
18370
18137
18001
18240
18185
18341
18099
18260
18219
18147
18222
18511
18550
18155
18440
18207
18227
18107
18469
18545
18343
18286
18543
18607
18426
18489
18455
18496
18450
18378
18457
18468
18305
18464
18105
18027
18016
18050
18117
18061
17831
18095
17839
17804
17974
17817
17865
17597
17864
17955
17982
17699
17735
17757
17897
17655
17773
17790
17794
17808
17878
17906
17727
17747
17904
17783
17653
17782
17577
17714
17569
17765
17651
17731
17717
17740
17724
17514
17557
17652
17676
17781
17695
18081
17694
17770
17934
17950
17676
17746
18128
17785
17822
17778
17985
18030
17650
17939
17903
17798
17672
17985
18010
17981
17910
18077
17929
17964
17785
18209
17924
18034
17892
17877
17942
18077
17956
17948
17957
17973
18068
18125
18008
17955
18172
18044
17939
18115
18095
18187
17950
18051
18387
18057
18016
18185
18202
18272
18090
18287
18203
18221
18215
18357
18325
18282
18109
18233
18307
18254
18394
18232
18308
18309
18387
18321
18318
18250
18421
18394
18330
18410
18543
18452
18232
18348
18496
18577
18509
18545
18583
18421
18382
18846
18554
18449
18607
18585
18707
18434
18842
18563
18460
18274
18669
18572
18378
18095
18323
18322
18247
18297
18097
17968
17978
18151
17992
18119
18030
17876
18125
17877
18057
18109
17945
18058
17924
17872
18111
17697
18003
18115
17851
17581
18022
18162
17833
17868
18045
18033
17986
17810
17883
17926
17838
18009
17902
17992
18061
18066
18079
18001
17885
18137
18022
18247
17898
18240
17993
17902
18240
18360
18089
17912
17948
18049
18130
18087
18214
18215
18139
18170
18393
18298
18118
18216
18236
18033
18090
18347
18221
18246
17998
18355
18367
18131
18280
18540
18192
18214
18284
18306
18274
18232
18410
18522
18421
18490
18435
18411
18375
18327
18390
18391
18601
18253
18767
18461
18427
18430
18567
18519
18433
18564
18647
18658
18366
18674
18437
18766
18456
18810
18845
18691
18416
18629
18485
18456
18531
18620
18563
18630
18822
18799
18776
18750
18904
18826
18722
18841
19003
18692
18825
18643
18884
18817
18534
18956
18980
18824
18864
19009
18699
18589
18638
18642
18664
18540
18521
18482
18498
18271
18291
18504
18294
18212
18171
18250
18264
17939
18260
18021
18170
17900
18277
18046
17916
18072
18078
17966
17934
17864
17998
17818
17996
18140
17779
17840
17769
17807
18005
17765
17811
17832
17908
17853
17884
18167
17923
17891
18011
18006
17784
17942
18158
17943
17964
18026
18144
18188
17967
18247
18253
17999
18143
18268
18240
18174
18082
18417
17982
18097
18209
18139
18158
18204
18181
18182
18138
18071
18286
18141
18384
18040
18260
18403
18077
18290
18497
18316
18254
18158
18479
18288
18209
18534
18473
18215
18305
18430
18498
18572
18312
18506
18288
18454
18690
18807
18551
18322
18649
18503
18563
18436
18632
18720
18607
18651
18807
18702
18471
18626
18718
18697
18426
18853
18835
18644
18822
18910
18604
18682
18873
18744
18726
18747
18698
18745
18884
18840
18860
18695
18689
18783
18859
18812
18980
18608
18833
18907
18625
18694
18759
18752
18682
18611
18890
18821
18723
18762
18585
18512
18468
18397
18545
18394
18168
18197
18255
18009
18184
18044
18050
17924
18175
17997
18033
17856
17936
17766
17793
17916
18153
17709
17886
17786
17858
17775
17760
17956
17841
17868
17628
17767
17652
17767
17758
17744
17853
17794
17740
17918
17993
17567
17794
18087
17859
17905
17954
18081
17896
17870
18165
17942
17770
17936
17865
18060
17837
18005
17954
17996
17871
17930
18080
17779
17917
18197
17993
17869
17949
17914
17931
17954
17956
18148
17976
17869
18044
18172
17918
18041
18084
18105
18091
17861
18175
18008
18080
17913
18164
17946
17810
18215
18031
18148
17860
18084
18201
17942
17981
18170
18208
18176
18040
18172
18183
18141
18334
18352
18145
18084
18298
18239
18159
18273
18181
18132
18312
18214
18147
18288
18049
18334
18367
18199
18154
18429
18528
18207
18370
18535
18480
18207
18085
18332
18254
18301
18276
18431
18218
18119
18274
18392
18228
18304
18440
18219
18125
18154
18392
18182
18086
18002
17947
17856
17944
18027
17762
17752
17625
17791
17739
17803
17702
17645
17692
17454
17681
17540
17739
17331
17621
17520
17424
17540
17455
17479
17315
17491
17538
17627
17245
17306
17281
17548
17332
17265
17469
17302
17194
17531
17449
17521
17333
17541
17572
17380
17244
17533
17533
17180
17163
17322
17397
17316
17495
17578
17414
17347
17484
17290
17403
17341
17266
17350
17178
17293
17403
17259
17329
17207
17423
17204
17348
17367
17564
17309
17457
17322
17355
17261
17559
17465
17419
17331
17633
17368
17599
17525
17621
17434
17549
17394
17430
17710
17426
17646
17462
17571
17392
17544
17884
17588
17365
17677
17758
17501
17434
17683
17715
17707
17570
17703
17582
17519
17534
17644
17589
17629
17769
17795
17497
17520
17799
17579
17561
17627
17964
17642
17559
17850
17839
17861
17736
17890
17891
17720
17686
17738
17721
17723
17502
17719
17700
17476
17533
17497
17563
17388
17433
17503
17348
17213
17359
17393
17300
17129
17200
17087
16906
16999
17023
17098
16999
17020
16913
16837
16650
16700
16838
16601
16691
16870
16647
16566
16704
16904
16494
16679
16750
16891
16728
16384
16717
16842
16723
16484
16808
16767
16780
16711
16993
16802
16889
16872
16886
16860
16894
16948
17038
16769
16845
16829
16981
16729
16928
17126
16969
16707
16711
17135
16916
16896
16852
17123
16924
16908
16972
17128
16839
16955
17264
17074
17061
17037
17217
16962
16992
17049
16992
16974
17075
17074
17105
17140
17128
17289
17214
17071
17093
17223
17358
17230
17283
17377
17267
17177
17304
17359
17197
17270
17413
17429
17271
17317
17525
17493
17223
17237
17449
17422
17355
17243
17427
17407
17307
17566
17499
17319
17334
17668
17626
17527
17569
17449
17569
17475
17464
17724
17591
17464
17621
17747
17505
17500
17698
17740
17412
17630
17574
17674
17514
17632
17744
17480
17279
17357
17546
17347
17141
17273
17211
17332
17115
17173
17248
17073
16973
17301
16880
16837
16822
16909
16795
16634
16971
16837
16929
16814
16679
16867
16459
16481
17016
16777
16498
16580
16678
16502
16474
16742
16497
16633
16676
16730
16503
16464
16594
16640
16592
16536
16512
16751
16608
16640
16926
16716
16852
16822
16911
16947
16717
16729
16850
16961
16696
16711
17118
17078
16893
17027
16854
16942
16722
16972
17037
16902
16756
17111
17089
17081
16918
17254
16942
16936
17170
17069
17185
16893
17152
17171
17122
17063
17166
17183
16983
17266
17146
17094
17218
17246
17166
17291
17275
17334
17441
17273
17379
17531
17511
17411
17268
17589
17494
17420
17358
17723
17524
17168
17590
17606
17413
17643
17450
17736
17492
17608
17755
17605
17408
17432
17631
17485
17661
17655
17815
17568
17646
17664
17714
17610
17836
17732
17726
17653
17754
17952
17666
17523
17667
17772
17687
17465
17638
17695
17493
17404
17680
17633
17269
17555
17180
17436
17274
17181
17148
17198
17162
17235
17160
17098
17062
17170
17245
16975
17023
17117
17047
16987
17074
17170
16920
16811
16996
16896
16848
16756
16931
16859
16997
16922
16858
16942
16768
16905
16874
16838
16895
16949
17010
16798
16896
16970
16903
16786
17000
17235
17051
17014
17019
17147
17070
16875
16965
16922
17047
16906
17266
17194
16907
16892
17126
17174
17090
17084
17337
16962
17008
17034
17386
17132
17113
17258
17347
17074
17054
17229
17158
17057
17032
17262
17060
17162
17083
17299
17300
17152
17208
17312
17374
17303
17325
17201
17076
17226
17224
17482
17253
17391
17482
17309
17210
17462
17370
17337
17185
17442
17393
17438
17220
17506
17268
17298
17266
17382
17440
17290
17397
17579
17423
17187
17511
17449
17419
17391
17348
17654
17483
17399
17736
17604
17401
17297
17694
17334
17105
17481
17399
17216
17314
17296
17027
16972
17269
17082
17032
16956
17070
17002
16946
16711
16873
16947
16802
16632
16996
16861
16667
16819
16967
16968
16678
16720
16927
16595
16423
16598
16742
16463
16528
16643
16482
16490
16586
16801
16574
16453
16490
16605
16745
16394
16607
16687
16692
16685
16688
16886
16678
16577
16863
16845
16632
16586
16765
16934
16754
16825
16948
16781
16589
16921
17015
16947
16808
16914
16858
16915
16853
17054
16925
16899
16899
17116
16919
16859
16976
16974
17008
16826
17271
17047
16915
17017
16994
17349
16921
17186
17249
17277
16964
17211
17273
17245
17042
17261
17304
17354
17139
17115
17238
17327
17127
17201
17373
17169
17364
17183
17300
17340
17347
17484
17277
17283
17352
17507
17369
17319
17449
17423
17179
17340
17591
17468
17286
17545
17307
17425
17305
17540
17401
17564
17393
17622
17584
17215
17487
17676
17456
17516
17523
17429
17531
17295
17561
17604
17215
17400
17541
17454
17040
17124
17354
17162
17033
17030
16985
17022
16770
16954
16916
16929
16814
17097
16886
16601
16681
16845
16848
16499
16791
16860
16804
16604
16709
16532
16506
16450
16494
16485
16378
16328
16419
16427
16518
16566
16482
16532
16504
16568
16394
16417
16493
16721
16474
16612
16383
16720
16537
16478
16640
16799
16716
16594
16757
16842
16801
16620
16693
16828
16842
16721
16861
16773
16754
16818
16823
16728
16646
16645
16985
16797
16594
16799
16736
16831
16696
16822
17046
16689
16788
17096
17061
16882
17017
16914
16810
16807
17124
17005
17053
16785
16902
16982
17003
17063
16936
17150
16865
17005
17317
17157
16803
17067
17136
17084
16900
17097
17074
17074
17083
17132
17248
16995
17227
17428
17110
17043
17172
17424
17067
17012
17257
17372
17062
17245
17133
17360
17227
17402
17387
17327
17237
17492
17508
17495
17295
17529
17344
17193
17133
17543
17473
17241
17290
17312
17258
17234
17302
17098
17182
16845
17227
16998
16963
16901
17156
17063
16897
16745
17151
16905
16765
16916
17055
16891
16440
16625
16661
16784
16685
16746
16652
16705
16603
16738
16609
16416
16423
16735
16561
16456
16620
16525
16615
16277
16670
16529
16504
16501
16760
16567
16667
16478
16705
16706
16605
16486
16759
16746
16586
16690
16705
16772
16688
16895
16860
16766
16517
17045
16635
16833
16917
16866
16913
16749
16757
17018
16776
16694
16871
16946
16842
16796
16970
16831
16972
17019
17204
17018
16744
16967
17021
16947
16783
17203
17005
17139
16853
17019
17314
16956
17204
17021
17284
16977
17082
17225
17089
16977
17256
17307
17233
17162
17088
17181
17311
17157
17139
17056
17209
17287
17303
17360
17159
17345
17334
17331
17201
17291
17218
17141
17339
17431
17371
17296
17203
17586
17203
17245
17364
17460
17390
17408
17398
17396
17318
17323
17632
17540
17371
17371
17331
17342
17315
17459
17485
17222
17106
17374
17346
17161
17169
17297
17053
16896
16906
17195
16764
16905
16800
16860
16729
16735
16884
16791
16828
16630
16753
16837
16542
16807
16587
16601
16592
16613
16869
16783
16560
16577
16645
16495
16575
16782
16760
16701
16445
16568
16721
16701
16628
16733
16729
16670
16813
16787
16697
16611
17018
16709
16956
16710
16950
16727
16691
16637
17066
16915
16914
16760
16833
16923
16848
16923
16957
16809
16933
17049
16904
16781
17139
16994
17056
17058
17061
17146
17229
16935
17196
17121
17268
17008
17270
17129
17057
17139
17439
17293
17258
17227
17469
17397
17204
17408
17312
17317
17144
17552
17263
17509
17430
17318
17422
17274
17324
17587
17522
17233
17357
17494
17574
17342
17631
17605
17564
17305
17753
17443
17355
17502
17725
17679
17327
17480
17473
17679
17289
17712
17653
17617
17661
17721
17743
17687
17511
17837
17806
17603
17767
17927
17725
17464
17774
17742
17642
17393
17750
17412
17470
17445
17329
17463
17422
17133
17337
17162
17008
17206
17133
17093
16860
17133
17189
16938
17088
17000
16846
16835
16962
16955
16974
16953
17026
16898
16852
16630
16838
16948
16901
16731
16884
16854
16985
17037
16736
16937
16783
16917
17088
16746
16640
16757
17035
17023
16903
17003
17122
17072
16996
17038
17047
17095
17031
17015
16995
16963
17050
17034
17009
16972
17162
17122
17188
17003
16994
16923
17195
16997
17328
17150
17004
17118
17364
17123
17091
17211
17201
17160
17226
17538
17501
17278
17368
17340
17406
17307
17476
17602
17389
17233
17423
17657
17477
17519
17655
17577
17605
17553
17534
17692
17428
17472
17538
17604
17557
17502
17789
17622
17568
17560
17666
17789
17544
17590
17545
17687
17846
17963
17636
17503
17759
17785
17754
17652
17889
17878
17813
17836
17811
17710
17803
17860
18049
17853
17666
17908
17788
17858
17739
17957
18066
17951
17758
18103
17819
17699
17921
17758
17853
17573
17757
17862
17413
17243
17602
17599
17200
17290
17530
17373
17311
17294
17436
17184
16970
17086
17285
17121
16924
16981
17064
16907
16984
16928
16996
16954
16842
17137
16980
16709
16973
16929
16824
16795
16844
16948
16825
16779
16914
16875
16697
16606
16726
16957
16757
16674
17065
16830
16668
16729
17032
16725
16801
16814
17083
16851
16790
16922
17068
17003
16862
17017
16920
16726
16874
17190
17099
16923
16968
17106
16840
17003
17098
17010
17152
17205
17021
17004
17086
17103
17157
17237
17027
17142
17290
17152
17063
17245
17173
17201
17170
17282
17353
17278
17254
17428
17229
17375
17310
17470
17339
17380
17561
17448
17278
17416
17563
17415
17318
17497
17718
17403
17534
17333
17606
17612
17515
17691
17512
17562
17675
17790
17783
17587
17735
17829
17597
17630
17694
17713
17697
17675
17891
17781
17584
17724
17804
17868
17858
17545
17745
17927
17727
17885
17753
17806
17679
17651
17863
17687
17597
17762
17603
17343
17365
17591
17294
17460
17276
17357
17131
17102
17100
17172
17158
17027
17137
17097
17205
17133
17265
17179
17160
17169
16939
17025
17036
17015
17170
16907
16956
17032
17081
16916
16949
16958
17057
16967
16790
17035
17026
17037
17236
17105
17088
17138
17137
17279
17109
17089
17199
17219
17167
17080
17359
17215
16945
17023
17199
17100
16946
17316
17115
17207
17009
17269
17229
17121
17140
17345
17262
17224
17156
17205
17394
17088
17203
17309
17216
17258
17364
17333
17319
17133
17536
17518
17372
17316
17411
17467
17134
17300
17518
17356
17189
17393
17388
17364
17165
17379
17388
17400
17281
17437
17320
17374
17304
17369
17506
17121
17377
17461
17377
17305
17565
17489
17276
17411
17636
17630
17468
17404
17511
17589
17511
17415
17554
17506
17434
17489
17657
17443
17570
17548
17648
17434
17657
17664
17593
17407
17530
17666
17348
17338
17343
17228
17425
17313
17357
17305
16983
17188
17187
17116
16952
16866
17090
16978
16690
16852
17063
16812
16683
16873
16696
16798
16767
16991
16497
16705
16755
16693
16716
16507
16746
16631
16523
16424
16712
16658
16291
16285
16678
16417
16382
16487
16624
16452
16341
16451
16737
16555
16327
16687
16706
16642
16720
16613
16648
16642
16501
16744
16636
16631
16598
16642
16558
16531
16763
16663
16527
16534
16813
16663
16544
16755
16895
16652
16715
16499
16717
16550
16677
16871
16852
16750
16673
16714
16702
16862
16591
16717
16829
16529
16753
16695
16676
16659
16850
16876
16751
16797
16820
16649
16597
16505
16699
16588
16586
16673
16749
16820
16517
16795
16611
16625
16648
16668
16710
16707
16697
16625
16691
16519
16566
16845
16635
16578
16751
16838
16792
16582
16772
16820
16667
16557
16860
17111
16926
16654
17072
16994
16753
16820
17169
16818
16888
17159
17097
16918
16923
17260
17031
16951
16935
17119
16925
16818
16862
16785
16837
16706
16738
16842
16711
16440
16715
16665
16603
16499
16679
16566
16528
16437
16609
16622
16355
16571
16660
16393
16386
16629
16555
16286
16440
16552
16513
16446
16253
16678
16531
16394
16415
16526
16373
16520
16684
16512
16463
16428
16663
16491
16624
16577
16795
16733
16742
16823
16823
16686
16656
16849
16815
16730
16615
16874
16869
16842
17001
17046
16925
16961
16761
17037
16925
16840
16909
16877
17000
16807
17017
17064
17071
16981
17116
16938
16995
17142
17297
17165
16942
17086
17011
17099
17166
17131
17262
17013
17011
17343
17140
17284
17077
17148
17456
17139
17185
17197
17281
16959
17299
17179
17286
17097
17369
17416
17290
16982
17438
17368
17310
17362
17477
17512
17243
17544
17498
17529
17432
17595
17376
17317
17439
17476
17681
17267
17438
17598
17475
17466
17461
17610
17401
17424
17624
17591
17411
17572
17734
17665
17364
17383
17267
17451
17083
17336
17083
17248
17009
17181
17131
17020
16932
17023
17058
16870
16833
17098
17071
16915
16739
17041
16799
16472
16801
16842
16787
16494
16847
16741
16648
16689
16729
16709
16457
16713
16774
16511
16531
16599
16579
16689
16585
16796
16684
16565
16517
16745
16756
16498
16530
16900
16797
16655
16706
16647
16805
16416
16864
16745
16650
16594
16931
16747
16716
16654
16806
16689
16633
16780
16809
16811
16652
16964
16795
16856
16720
16968
16923
16722
16792
16896
17043
16817
16869
16878
16895
16774
16874
16934
16968
16725
17047
17134
17027
16760
17133
16892
16866
16977
17272
16840
16880
16955
17067
17168
16971
17005
17089
16922
16960
17077
17082
16879
17046
17316
17075
16977
17112
17080
17226
16944
17183
17154
17087
17138
17239
17174
16994
17126
17319
17248
16959
17042
17359
17164
16978
17075
17248
17210
16988
17054
17150
17091
17030
17081
16960
16870
16719
17027
16898
16541
16807
16726
16686
16648
16720
16577
16607
16602
16703
16520
16526
16393
16385
16497
16335
16290
16412
16307
16296
16262
16251
16221
16166
16373
16106
16065
16210
16338
16200
16113
16347
16467
16145
16279
16457
16319
16396
16232
16356
16415
16260
16415
16528
16399
16294
16312
16360
16449
16424
16527
16491
16358
16363
16508
16430
16578
16519
16381
16518
16254
16349
16560
16407
16475
16476
16463
16509
16366
16565
16419
16394
16547
16776
16510
16642
16561
16815
16708
16436
16432
16502
16529
16381
16676
16539
16654
16593
16780
16551
16593
16487
16843
16557
16618
16676
16833
16656
16482
16818
16794
16639
16465
16907
16741
16632
16682
16842
16717
16603
16772
16757
16759
16656
16703
16812
16648
16691
16774
16826
16704
16739
16886
16782
16760
16563
16796
16769
16630
16661
16879
16626
16464
16617
16588
16488
16265
16593
16451
16118
16199
16137
16056
16236
16110
16022
15844
15738
15855
15889
15797
15790
15729
15778
15855
15695
15618
15778
15714
15565
15582
15599
15589
15721
15695
15740
15541
15563
15696
15485
15531
15556
15630
15488
15730
15622
15691
15654
15655
15919
15705
15770
15791
15776
15868
15783
16042
15954
15971
15821
15978
15919
15722
15868
15892
15891
15634
15996
15827
15867
15876
15971
15904
15944
15875
16013
16089
15804
15873
15998
16056
15854
16085
16172
16003
15865
16189
16043
15935
15943
16121
16234
15891
16160
16140
16144
15938
16348
16338
16302
16077
16247
16306
16116
16041
16402
16071
16278
16363
16220
16370
16159
16449
16524
16423
16193
16248
16481
16450
16353
16333
16324
16555
16248
16679
16605
16474
16482
16587
16562
16327
16528
16505
16581
16389
16614
16569
16563
16487
16581
16731
16616
16462
16641
16614
16382
16487
16581
16475
16280
16462
16463
16449
16274
16426
16278
16076
16210
16037
16161
15978
16091
16206
15928
15784
15972
15988
15818
15696
15742
15816
15596
15588
15896
15811
15581
15520
15866
15765
15615
15611
15710
15687
15396
15637
15703
15561
15509
15745
15684
15611
15611
15867
15594
15579
15664
15763
15661
15526
15690
15849
15586
15713
15847
15774
15595
15862
15830
15926
15767
15605
15758
15874
15791
15780
15909
15706
15650
15959
15951
15937
15847
15925
15858
15807
15722
15972
15721
15747
15915
15948
16027
15837
16106
16009
16037
15969
15871
15847
15901
15909
15947
16049
15954
15927
16143
15910
15955
16089
16187
15922
15852
16181
16049
16023
16138
16170
16181
15985
16099
16258
15993
15900
16255
16308
15947
16027
16081
16183
16296
16176
16120
16282
16135
16365
16208
16380
16186
16453
16475
16331
16398
16344
16525
16576
16376
16516
16327
16551
16607
16578
16476
16430
16602
16622
16581
16392
16514
16479
16573
16298
16448
16585
16272
16347
16505
16372
16114
16253
16434
16286
16050
16254
16076
16127
16129
16240
16113
16047
16071
16298
16204
16017
16050
16203
16138
15950
16228
16205
16175
15903
16030
16033
16125
15890
16300
16273
16151
16130
16335
16237
16086
16141
16182
16138
15947
16425
16423
16195
16343
16341
16300
16154
16350
16438
16349
16205
16352
16490
16327
16208
16462
16446
16455
16203
16462
16278
16372
16305
16589
16592
16407
16415
16352
16456
16465
16556
16640
16381
16382
16519
16591
16457
16613
16483
16717
16611
16510
16735
16718
16463
16759
16842
16777
16759
16776
16860
16991
16852
16797
16837
16893
16967
16989
16875
16953
17151
17215
16975
17059
17032
17202
17085
17115
17334
17148
17241
17254
17270
17177
16963
17276
17155
17045
17085
17119
17203
17011
17042
17437
17152
17296
17255
17413
17197
17097
17307
17461
17214
17117
17406
17315
17347
17340
17327
17230
17266
17215
17420
17271
17315
17181
17549
17434
17099
17225
17242
17232
16905
17055
17083
17044
16870
17041
16847
16938
16745
16959
16745
16822
16852
16782
16708
16560
16889
16723
16695
16524
16917
16679
16757
16795
16600
16788
16689
16715
16643
16561
16466
16862
16810
16764
16604
16914
16804
16715
16648
16894
16675
16593
16732
16813
16662
16600
16735
16812
16713
16686
16801
16833
16709
16651
16828
16733
16660
16676
16838
16803
16460
16880
16889
16724
16724
16746
16864
16681
16858
17012
16694
16937
16833
16853
16790
16835
17072
17036
16958
16830
17049
17029
17069
16916
16912
17062
17126
16978
16902
17078
16899
17117
16994
17173
16860
17171
16957
16940
16933
17160
17199
16988
17127
17027
17059
17202
17050
17254
17272
16993
17259
17168
17195
16964
17318
17091
17257
17154
17073
17219
17047
17066
17191
17266
17130
17228
17181
17143
17094
17304
17153
17251
17086
17191
17052
17339
17194
17457
17280
17034
17210
17149
17148
17267
17193
17186
17345
17123
17338
17253
17183
17131
17416
17157
17051
17098
17124
17172
16791
17090
17114
16934
16929
17054
16792
16720
16901
16784
17016
16619
16698
16810
16692
16546
16783
16868
16738
16700
16836
16851
16724
16581
16805
16735
16707
16677
16852
16734
16483
16670
16751
16707
16504
16674
16646
16468
16745
16671
16767
16430
16442
16843
16576
16519
16609
16682
16519
16565
16689
16635
16568
16562
16589
16515
16461
16526
16727
16639
16423
16583
16807
16677
16363
16678
16568
16554
16445
16535
16602
16708
16675
16711
16852
16593
16500
16591
16658
16625
16460
16708
16695
16384
16718
16504
16705
16455
16825
16782
16667
16699
16638
16514
16609
16538
16807
16722
16618
16763
16829
16642
16571
16769
16627
16806
16689
16889
16784
16663
16579
16825
16739
16766
16700
16749
16633
16636
16656
16793
16635
16585
16681
16681
16743
16656
16897
16896
16588
16868
16886
16665
16714
16859
16746
16732
16870
16819
16903
16775
16824
16792
16836
16778
16703
16698
16775
16489
16780
16724
16666
16471
16737
16629
16432
16413
16553
16656
16484
16401
16485
16513
16246
16352
16479
16515
16283
16489
16464
16363
16379
16452
16451
16399
16224
16455
16415
16267
16291
16398
16306
16051
16397
16286
16057
16183
16402
16278
16223
16066
16152
16366
16210
16323
16317
16188
16261
16274
16163
16177
16219
16330
16193
16200
16334
16457
16385
16104
16201
16471
16347
16054
16308
16373
16204
16066
16358
16192
16343
16378
16302
16199
16334
16219
16491
16223
16089
16268
16435
16347
16306
16429
16251
16336
16354
16423
16465
16426
16346
16529
16532
16374
16341
16647
16460
16472
16529
16544
16473
16448
16456
16566
16453
16459
16785
16492
16353
16466
16698
16584
16398
16718
16741
16497
16425
16805
16632
16568
16723
16693
16534
16724
16549
16656
16609
16487
16840
16760
16738
16679
16731
16879
16647
16772
16946
16739
16964
16809
17074
16886
16635
16756
16969
16912
16854
16891
16997
16879
16716
16732
16874
16623
16838
16816
16584
16538
16671
16738
16682
16513
16571
16471
16534
16273
16547
16632
16497
16276
16337
16469
16236
16315
16558
16372
16168
16276
16312
16242
16201
16283
16170
16233
16228
16398
16072
16253
16092
16421
16269
16171
16162
16133
16244
16188
16115
16384
16166
16158
16246
16289
16204
16144
16109
16105
16102
16380
16197
16267
16104
16341
16194
16179
16094
16375
16156
16306
16265
16242
16127
16197
16258
16425
16195
16067
16329
16371
16372
16202
16234
16388
16314
16349
16216
16329
16336
16249
16515
16279
16082
16534
16479
16337
16191
16556
16458
16361
16312
16482
16561
16356
16420
16449
16444
16360
16607
16472
16418
16478
16628
16472
16548
16568
16569
16594
16466
16443
16729
16504
16494
16661
16553
16582
16495
16546
16541
16640
16651
16754
16532
16732
16694
16797
16730
16515
16627
16722
16567
16612
16668
16761
16742
16504
16766
16829
16672
16710
16746
16765
16735
16786
16945
16719
16632
16854
16957
16839
16693
16784
16686
16738
16761
16880
16538
16712
16680
16731
16637
16507
16594
16648
16522
16251
16538
16373
16258
16177
16330
16336
16152
16356
16189
16347
16274
16358
16225
16275
15979
16110
16325
16118
15928
16210
16042
16097
16146
16309
16243
15993
16195
16263
16116
16144
16223
16178
16133
15977
16255
16340
16179
16209
16245
16297
16164
16219
16315
16250
16173
16185
16338
16300
15990
16280
16417
16406
16025
16481
16176
16407
16093
16409
16223
16312
16170
16362
16197
16288
16375
16423
16446
16298
16386
16454
16343
16366
16502
16506
16516
16372
16475
16558
16227
16521
16548
16520
16519
16688
16699
16657
16473
16486
16530
16442
16539
16760
16682
16709
16629
16820
16674
16594
16751
16877
16748
16754
16696
16863
16594
16833
16685
16751
16645
16644
16953
16740
16548
16729
16846
16699
16686
17014
16847
16775
16860
16774
16992
16793
16700
16919
16929
16601
16865
16950
16851
16616
16884
16904
16740
16753
16870
16822
16780
16920
17016
16981
16629
16644
16782
16623
16537
16848
16651
16457
16534
16550
16556
16579
16538
16519
16571
16414
16312
16324
16471
16149
16458
16366
16400
16246
16329
16191
16334
16296
16413
16266
16265
16164
16432
16261
16081
16315
16217
16204
16096
16255
16150
16278
16156
16263
16123
16181
16185
16375
16398
16022
16420
16421
16223
16019
16474
16383
16269
16158
16317
16517
16116
16147
16357
16399
16112
16260
16518
16462
16163
16492
16279
16279
16368
16423
16509
16353
16284
16379
16346
16323
16333
16496
16505
16184
16477
16357
16455
16372
16565
16508
16513
16335
16617
16555
16415
16370
16498
16597
16459
16610
16484
16377
16273
16582
16465
16374
16297
16465
16520
16315
16557
16442
16508
16415
16641
16394
16447
16345
16475
16687
16546
16527
16637
16534
16427
16693
16555
16437
16406
16563
16508
16743
16291
16671
16674
16553
16344
16544
16621
16554
16488
16788
16554
16698
16404
16812
16593
16421
16647
16649
16708
16405
16788
16668
16460
16402
16567
16589
16526
16381
16580
16456
16312
16391
16496
16243
16082
16290
16346
16174
16075
16227
16244
16051
15968
16303
16118
15872
15888
16058
15988
15755
15916
15942
16072
15770
15993
16121
15903
15910
16177
15796
15878
15791
16103
15944
15772
16153
16129
16072
15889
16037
16082
15903
15908
15977
16193
16152
16013
16338
16217
16093
16223
16269
16202
16052
16128
16149
16095
16053
16165
16220
16011
16125
16192
16071
16128
16074
16373
16156
16024
16290
16186
16245
16166
16371
16346
16168
16043
16363
16363
16428
16334
16505
16364
16203
16326
16396
16366
16364
16529
16543
16302
16482
16581
16619
16588
16345
16510
16519
16493
16551
16528
16551
16354
16483
16752
16547
16519
16711
16645
16561
16538
16776
16650
16666
16658
16667
16598
16578
16877
16881
16728
16627
16926
16807
16699
16765
17069
16702
16953
16824
16937
16951
16702
16954
16815
16978
16746
16956
16878
16870
16904
16896
17000
16825
16764
16910
16917
16824
16802
16851
16803
16550
16630
16762
16647
16624
16497
16728
16541
16557
16634
16393
16373
16194
16331
16280
16230
16268
16309
16319
16114
16203
16313
16302
16204
16279
16229
16300
16268
16352
16320
16071
16344
16258
16272
16220
16283
16378
16256
16095
16550
16392
16282
16394
16438
16314
16365
16520
16485
16392
16448
16608
16465
16535
16429
16470
16603
16481
16417
16751
16715
16435
16514
16547
16743
16497
16685
16747
16597
16614
16782
16760
16515
16510
16711
16532
16529
16498
16832
16751
16634
16725
16702
16675
16619
16669
16688
16811
16799
16757
16779
16823
16603
16885
16906
16593
16758
16949
16841
16683
16862
16986
16908
16834
17086
16927
16893
16962
17331
17021
16919
16948
17094
17151
16934
17180
17276
17211
17065
17209
17243
17305
17206
17408
17267
17066
17195
17430
17187
17049
17362
17358
17329
17119
17367
17347
17187
17147
17420
17336
17378
17336
17486
17501
17404
17525
17429
17407
17238
17412
17243
17337
17117
17202
17207
17178
17016
17178
17069
16987
16940
16885
16913
16833
16876
16969
16842
16791
16844
16694
16884
16609
16881
16696
16718
16706
16767
16763
16605
16921
16792
16845
16651
16803
16771
16738
16646
16821
16784
16889
16831
17087
17021
16865
16933
16991
16996
16712
17116
17015
16997
16932
17031
17098
16808
16868
17154
17083
16812
17182
17148
16911
16984
17114
17002
17126
16927
17277
17180
16870
16969
17016
17135
17012
17068
17001
17071
17067
17173
17147
17153
16992
17169
17277
17140
17175
17264
17256
17086
17183
17339
17305
16997
17246
17299
17333
17010
17293
17409
17193
17276
17504
17428
17153
17217
17362
17450
17150
17341
17404
17341
17099
17199
17343
17322
17240
17497
17293
17274
17443
17547
17421
17412
17331
17520
17452
17192
17467
17603
17406
17496
17522
17509
17491
17421
17629
17602
17524
17583
17761
17515
17628
17677
17636
17746
17320
17579
17678
17572
17489
17572
17461
17330
17298
17409
17255
17077
17257
17189
17023
16869
17104
17052
16948
16859
17038
16905
16892
16836
16955
16872
16773
16831
16892
16745
16658
16810
16919
16759
16573
16839
16772
16748
16743
16784
16759
16684
16646
16960
16814
16459
16814
16748
16712
16604
16806
16793
16772
16617
16951
16781
16709
16696
16852
16685
16668
16787
16805
16761
16616
16835
16848
16725
16609
16724
16841
16775
16640
16790
16829
16756
16807
16903
16907
16725
16859
16863
16863
16887
16929
16968
16751
16667
16939
16926
16731
16784
16974
17005
16846
16937
17112
16947
16648
16946
16888
16955
16709
16922
16996
16975
16907
16969
16819
16899
17102
16955
16991
16777
16979
16942
17036
16922
17033
17044
16753
16786
16964
16944
16846
16919
16998
16877
16916
16970
17006
16930
16928
17018
17043
16900
16948
17056
17022
16932
16938
17177
16990
17035
17064
17169
17041
16845
17060
17016
16921
16825
16958
16896
16792
16708
16844
16617
16708
16688
16762
16503
16406
16684
16491
16349
16395
16521
16349
16286
16248
16372
16284
16150
16262
16321
16305
15978
16221
16166
16011
15983
16134
16054
15997
15981
15960
16148
15893
16048
16134
15955
15941
15955
16008
15994
15812
16127
16118
15972
16028
16144
16082
16051
16013
16129
16127
15835
16058
16196
16038
16025
16141
16324
16021
16085
16270
16070
15935
16028
16049
16243
16029
15963
16296
16261
16043
16272
16181
16086
16057
16152
16198
16261
16010
16440
16349
16174
16195
16756
16306
16213
16373
16501
16275
16251
16345
16424
16374
16305
16366
16334
16418
16340
16615
16521
16254
16396
16589
16384
16342
16639
16573
16558
16437
16560
16633
16627
16469
16620
16593
16350
16331
16818
16435
16412
16604
16725
16466
16531
16595
16657
16757
16656
16817
16762
16809
16730
16798
16824
16542
16977
16885
16831
16664
16900
16875
16843
16842
16790
16815
16692
16639
16931
16704
16446
16757
16540
16493
16259
16611
16558
16311
16361
16264
16694
16213
16189
16182
16325
16286
16211
16338
16226
15922
16148
16202
16067
16000
16236
16135
16210
16130
16282
16250
15893
15987
15925
15924
15746
15928
15961
15891
15629
16175
16160
15934
16070
16098
16038
16107
16015
16028
16164
15873
16024
16018
16129
15948
16211
16256
16148
16101
16140
16034
16082
16133
16212
16166
16054
16059
16249
16058
15928
16192
16288
16149
15979
16185
16171
16273
16037
16121
16133
16261
16257
16165
16234
16179
16165
16319
16148
16129
16197
16353
16331
16181
16266
16278
16142
16145
16365
16385
16195
16275
16473
16337
16090
16313
16321
16377
16263
16551
16405
16254
16291
16520
16343
16353
16354
16580
16458
16388
16385
16564
16385
16391
16454
16534
16452
16231
16536
16491
16388
16443
16491
16611
16250
16431
16378
16408
16088
16506
16484
16447
16410
16549
16263
16185
16116
16265
16105
16025
16257
16107
15963
15815
15941
16103
16053
15848
16038
15783
15751
15833
15985
15730
15666
15607
15918
15657
15484
15715
15869
15599
15477
15578
15635
15679
15528
15718
15634
15537
15771
15581
15846
15637
15874
15731
15826
15758
15978
15839
15947
15873
15866
15832
15653
15934
15845
15988
15800
15967
15856
15899
15759
15924
15848
15916
15743
15944
16065
15796
15842
16240
16020
15779
16037
16148
16116
15839
16052
16090
16146
16000
16262
16326
16147
16170
16449
16152
16077
16346
16324
16422
16137
16124
16396
16319
16275
16275
16426
16294
16335
16537
16332
16260
16393
16395
16372
16278
16530
16499
16464
16279
16538
16522
16345
16378
16605
16491
16425
16447
16519
16510
16412
16455
16590
16480
16391
16517
16556
16516
16438
16594
16413
16447
16440
16567
16554
16527
16567
16578
16370
16313
16613
16461
16308
16228
16401
16328
16283
16166
16292
16358
16004
16008
15947
15985
15736
15926
15921
15753
15747
15957
15868
15836
15603
15918
15780
15760
15517
15652
15609
15354
15369
15746
15414
15418
15504
15384
15411
15389
15535
15526
15431
15365
15701
15484
15382
15546
15482
15656
15437
15677
15699
15609
15544
15811
15662
15763
15594
15710
15795
15538
15770
15824
15723
15719
15628
15744
15782
15707
15815
15940
15801
15628
15866
15751
15935
15735
15806
15782
15831
15876
15959
15848
15715
15959
16033
15990
15881
16174
16018
16102
16069
16298
16036
16008
15956
16338
16290
16003
16151
16331
16180
16059
16257
16290
16248
16249
16339
16372
16182
16282
16306
16332
16296
16359
16261
16334
16303
16529
16258
16277
16192
16333
16465
16380
16240
16615
16442
16223
16614
16568
16468
16400
16469
16561
16449
16485
16443
16441
16476
16357
16508
16557
16600
16416
16700
16552
16439
16619
16720
16561
16545
16649
16520
16426
16353
16425
16486
16273
16258
16420
16292
16115
16146
16112
16081
15932
16076
16023
15851
15777
15998
15815
15722
15707
15820
15749
15562
15596
15721
15534
15439
15533
15564
15455
15287
15462
15458
15339
15259
15342
15413
15086
15139
15235
15356
15127
15297
15251
15190
15091
15355
15287
15262
15122
15452
15454
15303
15266
15544
15350
15171
15310
15394
15398
15206
15541
15320
15435
15496
15584
15388
15282
15410
15442
15441
15377
15515
15414
15521
15467
15606
15515
15529
15420
15694
15696
15622
15469
15755
15717
15548
15611
15834
15732
15502
15844
15785
15910
15783
15848
15975
15842
15987
15875
15904
15943
15763
16059
15844
15862
16157
16087
16136
15951
15933
16156
16027
16052
16283
16151
16059
16030
16199
16266
16135
16220
16124
16075
16052
16163
16109
16116
16142
16393
16189
16072
16351
16217
16206
16041
16032
16229
16311
16208
16303
16391
16245
16221
16544
16488
16232
16126
16591
16348
16409
16302
16618
16565
16207
16442
16468
16494
16113
16521
16304
16287
16316
16457
16240
16066
16233
16353
16110
15989
16084
16122
16142
16019
16154
16201
16028
15961
15996
16154
16101
15850
16289
16261
16067
15959
16178
15973
15877
15994
15982
15999
15962
16004
15926
15808
15966
15951
16091
15967
15823
16001
15847
15901
15872
16144
15934
15869
16116
15670
15814
16135
16055
16265
15956
15879
15949
16029
15947
16007
15988
16124
15829
15923
15986
15998
15896
15918
15927
15755
15723
16181
16053
15714
15923
15944
15918
15723
16039
16325
15850
15897
16030
15936
15840
16005
15993
15933
15942
15841
16064
16088
15909
15978
15972
16081
15820
16188
16046
16030
15916
16247
15957
15899
16146
16284
16033
16023
15977
16114
16126
15940
16079
16294
16235
15965
16305
16043
16222
16118
16376
16231
16155
16233
16395
16267
16199
16324
16395
16377
16095
16537
16438
16465
16242
16591
16412
16466
16354
16487
16450
16200
16409
16497
16502
16215
16494
16601
16489
16296
16456
16395
16473
16252
16655
16578
16291
16397
16443
16340
16190
16414
16308
16088
16158
16173
16290
16328
16241
16149
16200
16159
16111
16261
16194
16259
16102
16256
16094
15738
16337
15844
16117
15940
16171
16114
15903
15959
16230
16099
16028
16132
16174
16049
15855
16154
16105
16038
15924
16223
16138
16027
15931
16277
16079
15995
15965
16235
16143
16016
16029
16191
16122
16005
16153
16213
16131
15975
16195
16178
15939
16099
16223
16106
16027
16108
16129
16078
16030
16189
16239
16047
16020
16098
16053
15973
16232
16287
16093
16027
16045
16107
16168
16120
16359
16197
16205
16041
16408
16291
16315
16311
16418
16065
16107
16138
16231
16165
16105
16256
16253
16283
16234
16195
16188
16118
16334
16214
16374
16201
16206
16222
16218
16226
16374
16325
16287
16365
16432
16238
16198
16347
16332
16282
16266
16311
16336
16465
16362
16176
16476
16307
16255
16492
16324
16342
16367
16313
16391
16316
16265
16369
16366
16267
16221
16349
16485
16136
16340
16341
16159
16167
16204
16277
16297
16021
16399
16144
16035
16119
16334
16132
15815
16185
16205
16039
16056
16126
16108
15912
16038
16240
16211
15975
16049
16299
16027
16012
15963
16154
15997
15803
16092
15947
16070
15623
16124
15868
15794
15944
16114
15994
15724
15879
16037
16130
15933
16194
16143
16069
15973
15977
16011
16033
15914
16043
16129
15810
16172
15784
16154
16039
16170
15990
16073
16038
16113
16067
16109
16099
16094
16048
15981
16248
16320
16027
16081
16227
16227
16140
15943
16170
16320
16267
16102
16263
16360
16103
16041
16219
16134
16029
16256
16181
16182
16097
16297
16332
16159
16143
16346
16232
16223
16202
16369
16368
16197
16280
16410
16270
16104
16391
16303
16319
16077
16485
16318
16338
16243
16460
16436
16413
16458
16624
16285
16258
16540
16515
16446
16188
16355
16396
16380
16305
16328
16427
16500
16277
16560
16320
16435
16351
16633
16463
16300
16479
16472
16443
16382
16448
16433
16297
16336
16528
16248
16293
16234
16319
16205
16254
16478
16215
16397
16311
16178
16160
16303
16053
16254
16153
16237
16071
16188
16251
15911
16248
16299
16238
16064
16155
16125
16188
15985
16249
16075
16034
16119
16175
16207
16211
16121
16342
16235
16135
16124
16368
16110
16090
16261
16261
16301
16065
16210
16300
16154
16192
16199
16246
16264
16305
16426
16273
16177
16417
16424
16202
16261
16288
16163
16273
16193
16553
16324
16233
16365
16510
16269
16160
16315
16319
16481
16168
16419
16347
16313
16464
16294
16290
16215
16503
16584
16497
16348
16328
16471
16374
16281
16382
16552
16278
16404
16621
16488
16377
16420
16670
16326
16239
16523
16589
16483
16225
16422
16555
16358
16569
16736
16472
16611
16563
16595
16580
16483
16536
16603
16530
16448
16561
16512
16559
16526
16552
16633
16462
16356
16516
16682
16427
16663
16508
16516
16320
16732
16730
16428
16420
16601
16484
16347
16352
16581
16403
16309
16287
16587
16544
16268
16316
16479
16434
16339
16383
16269
16278
16246
16316
16547
16273
16361
16549
16298
16105
16317
16572
16257
16171
16260
16315
16239
16277
16300
16437
16154
16232
16523
16322
16169
16279
16592
16445
16382
16553
16463
16462
16277
16582
16388
16481
16367
16343
16370
16325
16311
16668
16508
16425
16358
16562
16354
16178
16423
16536
16434
16479
16381
16479
16308
16346
16690
16611
16442
16556
16603
16501
16494
16554
16505
16520
16433
16447
16687
16352
16526
16483
16550
16454
16381
16485
16560
16367
16700
16625
16462
16359
16579
16588
16644
16641
16572
16758
16518
16529
16844
16636
16608
16713
16543
16611
16354
16646
16515
16655
16613
16839
16512
16490
16531
16776
16727
16463
16584
16684
16666
16629
16798
16669
16565
16522
16778
16572
16534
16789
16697
16756
16618
16705
16873
16765
16697
16843
16739
16812
16574
16710
16815
16842
16654
16608
16725
16410
16661
16813
16619
16586
16489
16729
16622
16451
16525
16559
16419
16405
16718
16598
16353
16526
16521
16543
16303
16410
16606
16526
16297
16560
16424
16516
16431
16591
16559
16489
16531
16567
16643
16408
16397
16516
16618
16294
16534
16697
16619
16575
16704
16504
16649
16406
16479
16504
16376
16576
16547
16684
16546
16667
16549
16594
16374
16580
16620
16648
16412
16827
16809
16459
16618
16530
16738
16625
16447
16602
16551
16639
16633
16627
16669
16499
16810
16646
16584
16565
16782
16798
16595
16660
16885
16825
16717
16757
16671
16693
16567
16864
16806
16810
16643
16761
16842
16570
16815
16817
16920
16602
16860
16785
16787
16521
16735
16868
16617
16649
16756
16948
16714
16865
17003
16722
16788
16722
16850
16794
16584
16790
16859
16759
16820
17004
16812
16777
16696
17078
16836
16749
16830
17079
16769
16635
16893
16897
16977
16735
16846
16957
16900
16735
16767
16876
16797
16769
16736
16778
16572
16866
16739
16695
16605
16616
16624
16503
16507
16815
16653
16758
16508
16821
16521
16561
16550
16585
16654
16512
16767
16763
16617
16433
16565
16696
16628
16407
16857
16524
16559
16511
16685
16629
16688
16672
16839
16569
16428
16756
16689
16656
16442
16577
16667
16491
16537
16761
16583
16454
16590
16649
16662
16588
16563
16575
16604
16463
16664
16632
16631
16557
16738
16659
16566
16678
16697
16761
16450
16771
16699
16633
16448
16738
16820
16572
16571
16937
16775
16635
16564
16645
16718
16445
16724
16674
16732
16664
16715
16894
16636
16588
16868
16892
16793
16587
16883
16742
16763
16777
17019
16788
16662
16845
16962
16707
16646
16783
16877
16789
16714
17043
16839
16809
16697
16720
16737
16539
16913
16979
16748
16833
16995
16928
16849
16943
17023
16861
16893
16889
16869
16913
16533
16828
16887
16871
16571
16866
16953
16686
16571
16633
16735
16508
16459
16661
16709
16522
16719
16802
16480
16580
16558
16502
16618
16502
16722
16658
16587
16562
16704
16427
16391
16423
16402
16294
16330
16475
16393
16475
16246
16417
16613
16360
16128
16605
16236
16342
16354
16493
16434
16183
16428
16558
16477
16162
16531
16431
16360
16238
16539
16507
16411
16414
16498
16533
16288
16416
16565
16454
16434
16461
16495
16545
16253
16594
16586
16506
16436
16649
16499
16410
16600
16567
16581
16260
16634
16725
16498
16331
16507
16499
16499
16495
16438
16563
16561
16496
16747
16509
16510
16669
16531
16581
16562
16695
16565
16589
16532
16662
16833
16743
16607
16762
16594
16610
16528
16692
16631
16567
16687
16646
16645
16535
16726
16770
16760
16677
16821
16727
16514
16738
16803
16619
16508
16635
16832
16735
16505
16880
16724
16798
16597
16946
16645
16533
16744
16998
16711
16700
16714
16710
16659
16549
16740
16681
16693
16566
16801
16570
16540
16583
16538
16587
16424
16352
16685
16505
16187
16517
16399
16296
16336
16527
16453
16440
16351
16478
16367
16389
16321
16342
16211
15991
16143
16279
16240
16165
16389
16298
16181
16046
16430
16370
16181
16075
16209
16292
16230
16146
16330
16399
16152
16278
16246
16110
16140
16330
16367
16085
16280
16225
16235
16241
16155
16283
16326
16024
16249
16234
16175
16222
16313
16313
16260
16175
16397
16369
16349
16313
16234
16245
16265
16179
16473
16337
16103
16386
16422
16352
16293
16206
16427
16128
16312
16554
16318
16163
16430
16538
16429
16339
16461
16431
16351
16193
16465
16511
16270
16318
16536
16411
16461
16417
16574
16515
16307
16457
16632
16547
16412
16612
16561
16464
16365
16506
16488
16398
16332
16456
16591
16529
16494
16544
16530
16480
16610
16731
16488
16519
16750
16659
16742
16590
16887
16537
16558
16756
16848
16639
16712
16732
16742
16712
16678
16795
16642
16558
16592
16680
16726
16638
16606
16763
16505
16216
16465
16445
16402
16411
16442
16328
16227
16247
16423
16345
16311
16106
16221
16221
16043
16042
16332
16165
16001
16263
16044
16023
15895
16040
16112
16061
15972
16099
15975
16035
16126
16230
15902
15813
15943
16091
15938
15970
16098
16141
16138
15893
16170
16139
16051
16159
16241
16110
15975
15989
16194
15953
15830
16027
15979
15955
16061
15972
16117
15971
15782
16121
16045
16099
16031
16233
16035
15956
16102
16031
16015
15954
16038
16061
15957
15976
16089
16169
16115
15981
15961
15875
16018
16165
16120
15899
15750
16111
16173
16181
16153
16170
16131
16039
16145
16287
16341
16016
16211
16364
16242
16029
16352
16293
16076
16187
16215
16477
16061
16296
16250
16332
16256
16234
16428
16374
16172
16323
16489
16253
16377
16262
16419
16498
16259
16407
16457
16268
16396
16391
16370
16301
16570
16380
16433
16251
16506
16545
16565
16239
16561
16362
16265
16252
16493
16409
16344
16235
16468
16254
16053
16421
16292
16166
16098
16159
16234
16025
16033
16078
16110
15883
15855
15921
16079
15754
16112
16100
15869
15706
16029
16012
15755
15791
16029
15731
15795
15783
15976
15859
15802
15892
15806
15739
15678
15891
16006
15759
15815
15825
15778
15760
15781
15803
15747
15672
15942
16030
15867
15807
15799
15863
15883
15835
16074
15794
15960
15730
15953
15988
15883
15939
15919
16003
15631
15968
15988
15859
15788
15945
15858
15836
15783
15883
16111
16079
16072
16223
15902
15966
15920
16146
15963
15986
16190
16036
15983
15955
15992
16214
16212
15890
16091
16150
16077
15987
16224
16149
15991
16246
16241
16159
16014
16191
16382
16134
16294
16310
16239
16159
16286
16479
16255
16281
16392
16499
16304
16041
16316
16439
16337
16108
16369
16308
16180
16190
16426
16269
16084
16338
16361
16355
16190
16370
16482
16293
16382
16563
16255
16195
16402
16346
16349
16242
16239
16391
16125
16154
16352
16208
16128
15864
16146
16166
16113
16027
16199
16061
15891
15986
16133
15882
15888
15834
15965
15803
15760
15895
15998
15822
15724
15768
15944
15610
15748
15802
15823
15781
15836
15913
15659
15661
15896
15808
15854
15589
15813
15809
15837
15824
15725
15858
15724
15833
15740
15923
15686
15722
15896
15765
15766
15954
15912
15850
15673
15882
15920
15620
15720
15980
15821
15806
15819
16001
15889
15831
15955
16011
15911
15795
15873
16050
15815
15945
15960
16042
15855
15916
15873
15829
15882
15920
16041
15970
15891
16176
16151
15837
15786
16216
16055
15968
15905
16184
15984
15792
15961
16059
16118
15939
16292
16136
15925
15872
16204
16196
16054
16036
16113
16049
15983
16151
16099
16138
15758
16295
16326
16138
16157
16270
16148
16296
16063
16167
16397
16098
16301
16355
16310
16019
16208
16489
16261
16203
16380
16210
16214
16151
16242
16427
16307
16138
16344
16412
16226
16166
16163
16169
15906
16204
16020
15931
15927
15931
16053
15826
15728
15801
15857
15807
15945
15726
15759
15694
15866
15713
15611
15553
15708
15611
15596
15650
15703
15613
15585
15708
15740
15616
15511
15673
15659
15675
15455
15616
15533
15508
15580
15903
15683
15559
15493
15935
15668
15507
15595
15768
15659
15885
15704
15910
15863
15903
15964
15921
15887
15739
15748
15698
15703
15647
15772
15892
15752
15881
15846
15840
15772
16024
15897
15885
15845
16055
15958
15811
15785
15905
16035
15698
16084
16151
16113
15767
16202
16128
16205
15978
16304
16210
16159
16142
16172
16238
15921
16251
16223
16233
16031
16336
16197
16162
16160
16431
16459
16119
16137
16474
16361
16213
16334
16368
16322
16171
16359
16372
16347
16283
16471
16443
16382
16301
16499
16389
16282
16251
16402
16408
16286
16368
16499
16495
16269
16402
16519
16527
16351
16562
16568
16488
16351
16790
16507
16542
16422
16526
16636
16574
16646
16599
16460
16544
16645
16493
16329
16452
16436
16457
16273
16318
16390
16332
16074
16278
16334
16149
16085
16312
16041
16234
16072
16193
16004
15999
15876
16216
16099
15706
15853
16061
15903
15859
15918
15980
15866
15798
15845
15898
15653
15731
15948
15844
15767
15992
15801
15764
15637
15946
15868
15862
15757
16058
15893
15927
15671
15879
