16923
17807
17985
17929
17160
17350
17946
17427
17578
17929
18188
17580
17455
17633
18083
17070
17844
17968
18219
17233
17921
18111
17870
17765
17802
18374
17650
17355
17829
17988
17639
17955
18177
18146
17229
17642
18483
18123
17766
18602
18543
18140
17637
18103
18051
17412
17967
18231
18143
17624
18312
18452
18406
17406
18122
18556
18598
17637
18386
18517
17499
17967
18003
18357
17596
18180
18288
18096
17389
18114
18202
17958
18042
18295
18158
17752
18159
18091
18656
18034
18106
18317
18294
17291
18308
18713
18254
17455
18153
18065
18582
17756
18531
18304
17616
18003
18598
18275
17779
18443
18785
18247
18162
18046
18870
18426
18183
18293
18556
18271
18036
18878
18346
17831
18282
18677
18691
17730
18200
18857
17962
18062
18164
18959
18453
17569
18273
18090
17909
18557
18465
18219
17695
18138
18617
17767
17328
17898
17835
17579
17029
17595
17765
17373
17213
17600
17663
17340
17452
17849
17641
16767
17991
17401
16891
16687
17125
17678
16850
17023
17178
17581
16895
17006
17612
17542
16679
17170
17518
17550
16731
17795
17413
16967
17051
17390
17097
16738
16847
17448
17119
16827
17524
17307
16988
16835
17993
17175
17171
16968
17526
17387
17264
17181
17532
17619
17042
17580
17839
17487
17093
17556
17844
17472
17175
17796
17754
17238
16843
17554
17722
17088
17447
17773
17460
17141
17704
18376
17327
17321
18145
17896
17418
17399
17730
17813
17067
17365
17992
17861
17156
17687
17750
17616
16925
17897
18172
17580
17484
17703
17875
17452
17507
18056
17766
17156
17883
18122
17682
16835
18027
17513
18237
17274
17776
18172
17647
17403
18178
18035
17210
18145
18411
17972
17342
17995
18177
17777
17513
17727
18096
18171
17803
18505
18144
17890
17803
18377
18204
17286
18051
18220
18220
17426
18337
18519
18047
17712
18167
18236
18069
18068
18066
18440
17514
18339
18653
17858
17794
18675
18381
17904
17665
18776
18507
18158
18042
18810
18784
17655
18268
18968
18489
17800
18474
18627
18421
17906
18463
18668
18311
18160
18612
18481
17814
18192
18161
18431
18032
18552
18414
18666
17723
18667
18161
18022
18098
18508
18712
18195
17928
18653
18541
17946
18349
18687
18153
17632
18267
18357
18431
17411
18567
17663
17852
17328
17518
17832
17260
17670
17695
17784
17008
17425
17678
17680
17165
17655
17905
17349
17125
17753
17459
17384
17284
17981
17370
16845
17215
17955
17518
16506
17943
17246
17248
17374
17456
17616
17144
17375
17705
17755
16595
17616
17744
17468
17055
17332
17530
17710
17131
18103
17552
17532
16899
18078
17554
16878
17566
18078
17596
16990
17661
17850
17681
17262
17807
17967
17812
17149
17893
17744
17224
17586
18359
17964
17573
17823
18032
17613
17303
18275
17918
17344
17612
18009
17779
17672
17643
18076
18141
17295
18092
18249
17774
17514
18532
18111
18388
17012
18520
18243
17709
17771
18364
18113
17885
17935
17852
18214
17604
18112
18482
18094
17749
18133
18601
18075
17641
18513
18482
17689
17980
18370
18243
17853
17917
17935
18018
17705
17994
18575
18404
17968
18938
18792
18247
18155
18574
18541
17709
17961
18929
18589
17635
18133
19066
18091
18095
19015
18373
18425
17595
18966
18370
18498
18520
18531
18769
17587
18252
18921
18038
18196
18067
18799
18140
18323
18929
19033
18403
18451
18849
18414
17952
18294
18906
18776
17729
18183
18909
18781
18290
18618
18619
18574
17751
18639
18338
18239
18116
18633
18294
17281
18530
18055
18456
17308
18141
18028
17942
17349
18323
18011
17716
17558
17799
17745
17346
17706
17640
17327
16899
17583
18157
17145
17537
17512
17508
17496
17631
17859
17769
17257
17670
17298
17521
17356
17511
17322
17960
17105
17402
17810
17468
16817
18198
18017
17234
17535
17589
17437
17329
17776
17713
17952
17179
17388
17959
17203
17181
18075
18155
17311
17025
17870
17366
17164
17374
17493
17924
17359
17952
17547
17761
16881
17735
17718
17192
17797
17808
17802
17687
17814
18014
17609
17084
17855
18246
17464
17395
17617
18330
17675
17557
18439
17996
17480
18119
18139
18339
17289
17609
18345
17940
17630
17992
17989
17517
17341
18003
17632
17464
18060
18287
18086
17275
17879
17983
17640
17424
18300
17844
17714
17666
18512
18266
17820
17705
18602
17895
17779
18013
17902
17737
17438
18126
17981
17890
17360
18571
18510
17657
17832
18262
17961
17931
17645
18251
18038
17702
17752
18213
18157
17483
17778
18577
18425
17416
18090
18542
17956
17613
18185
17947
17387
18137
18660
18027
17792
17902
17938
17673
17498
18064
17765
17317
17113
17664
17795
17388
17702
17731
17217
16663
17846
18052
17386
16853
17871
17906
17111
16527
17900
17491
16693
16897
17605
17285
16924
16928
17427
16907
16650
17167
17768
17278
16764
17583
17516
16592
16461
17365
17119
16699
17164
17661
16996
16717
17232
17474
17160
16462
17762
17069
16652
16606
16902
17437
17059
17441
17327
17587
16632
17603
17273
17306
16531
17254
17430
17053
16706
17293
17260
17127
17321
17320
17580
16565
17334
17737
17556
16817
17590
17797
17429
17107
17809
17540
17121
17073
17479
17599
16554
17478
17606
17434
16616
17954
17239
17167
17023
18072
17623
17132
17286
17580
17606
17278
17592
17769
17356
17260
18122
17878
17605
17430
17717
18136
17362
16914
17452
17553
17357
17363
17573
17984
17278
17456
18185
17543
16846
17581
17586
17775
17256
17455
17864
17015
17768
17557
18014
17212
17812
18105
17920
17312
17415
18236
17932
17176
17779
17749
17430
17287
17914
17949
17334
17585
17554
18025
17479
17239
18164
17573
17035
17489
17670
17180
16736
17514
17720
17220
16721
17661
17057
16905
17628
17302
17544
16699
16711
17089
17475
16575
17059
16834
16916
16314
17095
17174
16486
17163
16944
16829
16070
16586
16914
16540
15859
17046
16834
16637
16592
17095
16927
16407
16555
16877
16896
16204
16944
17249
16938
16512
17314
17466
17119
16667
17289
17175
16854
17122
16933
16835
16753
16623
17183
17037
16685
16852
17317
16472
15997
17386
17448
16769
15977
17434
17182
16734
17043
17307
16911
16613
16757
16936
17041
16485
17354
17008
16544
16938
16733
17224
16164
16809
17694
16836
16805
16904
17372
17354
16326
16866
17476
16947
16290
17072
17359
16992
16285
17187
17009
16888
17519
17242
17573
16659
16915
17658
17058
16550
17550
17732
17251
17134
17310
17298
16838
17221
17797
17237
16791
17254
17495
17554
17133
17686
17510
16977
17227
17847
17365
16926
17276
17261
17654
16541
17607
17576
17803
17178
17044
17376
16922
17094
17297
17703
16971
17415
17901
17862
17058
17020
17479
17561
17320
17257
17136
17034
17384
17518
17324
17047
17060
17474
17463
17024
17263
17640
17367
17288
17248
17309
17307
16724
16918
17103
16633
16431
16926
17456
16352
16827
16843
16941
16535
16463
16552
16835
16719
16299
16854
16530
16260
16878
16870
16072
16081
16612
16376
16090
16418
16893
16265
16542
16202
16823
16132
15799
16572
16527
16552
15929
16781
16598
16410
16666
16594
16493
16409
16722
17169
16576
16181
16754
16924
16553
16496
16667
17060
16434
16457
16835
16988
16311
16663
16841
16743
16054
17308
16474
16370
15985
16508
16567
16298
17001
17024
16845
16733
16837
16826
16910
16274
17150
17117
16670
16799
17131
17006
16615
16399
16849
17038
16676
16663
17414
16976
16726
17036
17376
17333
16476
17558
17363
17241
16902
17778
17200
16514
16797
17707
17493
17035
17442
17173
17674
16878
16972
17339
17012
17152
17323
17681
17546
17142
17573
17748
16522
17114
17458
17325
17180
17695
17341
17324
17059
17418
17568
17175
17069
18050
17737
17652
17371
17763
17805
17136
17595
18047
17741
16993
17475
17558
17457
16839
17992
17662
17190
17778
18071
17977
17567
18039
17644
17731
17363
18153
17735
17680
16777
17485
17540
16988
16975
17820
17484
16697
17187
17746
17187
16485
17285
17124
17201
16866
17043
17067
16698
16515
17236
16835
16936
16853
16644
16753
16345
16668
17201
16845
16665
17395
17258
16710
17041
17513
16787
16594
16962
17321
16853
16421
17238
17205
17282
16541
17621
17336
16809
16611
17006
17555
17134
17502
17095
17294
16258
17317
18373
17551
16649
17340
17418
17458
16882
17272
17561
17216
16844
17642
17456
17167
17175
17419
17554
17003
17661
17360
17916
17028
18136
18084
17244
17168
17781
17857
17503
17328
17846
17598
16805
18015
17422
17925
16837
18134
17555
17968
16956
18247
17773
17399
17538
17924
17847
17624
17747
17855
17856
17456
18170
17811
18068
17714
18427
18230
18137
17526
18258
18147
17187
17859
18216
17786
17450
18196
18249
18178
17451
18028
17740
18107
17348
18211
17814
17766
17339
18080
18097
17683
18063
18285
17821
17545
18559
18284
18480
17687
17822
18543
17697
18169
18611
18165
17454
17944
18402
18288
17315
17778
17720
17753
17228
18164
17622
17416
17095
18036
17994
16903
17338
17758
17377
16802
17653
17659
17509
16451
17881
17613
17109
16930
17703
17849
16804
17116
17572
17134
16938
17082
17773
17205
16899
17431
17546
16749
16673
17195
17778
16870
16653
17443
17346
16728
17312
17687
17493
16750
17548
17574
16997
16986
16994
17060
17138
17040
17855
17598
17055
17009
17999
17463
17222
17399
17514
17784
16549
17496
17564
17442
16915
17365
17706
17260
16855
17297
17401
17238
17754
17784
17895
17065
17450
17647
17827
17241
17217
17561
17394
17231
17658
17243
16789
17706
18075
17586
17028
17816
18131
17673
17477
17665
17861
17265
17343
17668
17631
17445
17227
17538
17826
16872
17882
17593
17355
17273
17966
17498
17109
17513
17996
18401
17688
17940
17734
17939
16851
17813
17605
18146
17613
18139
18095
17324
17545
17691
17795
17817
17697
18230
18079
17632
17828
17887
18192
17390
17711
18227
17638
17416
18019
17911
17680
17215
18047
18191
17354
17450
17904
17485
17356
17351
17808
17331
17124
17282
17064
17146
16821
17085
17326
16721
16741
17231
17159
16152
16800
16699
17089
16291
16570
16628
17105
16651
16685
17248
16967
16001
17210
17233
16453
16697
17083
16636
16040
16941
17104
16943
16476
16651
16543
16358
16114
16444
17130
16569
16630
16855
16944
16719
17022
16702
16736
16098
16987
17188
16668
16462
16817
17366
16426
16728
17138
17156
16433
17071
17354
17175
16723
16644
17073
16613
16738
17053
16900
17260
16218
17516
17368
17068
16537
17423
17096
16904
17594
17405
17046
16560
16858
17248
16712
17171
17160
17380
17035
17128
17789
17434
16530
17421
17096
17549
16939
17428
17184
17108
17194
17788
17291
17531
16957
17856
17979
16617
17541
17662
17809
16930
17321
17701
17043
16731
17602
17710
17402
17084
17727
17602
17037
17308
17854
17514
16940
17388
17607
17584
17078
17697
17589
17763
17196
17758
17534
17434
17303
17556
17554
17127
17156
17512
17612
17451
17833
17962
18099
17590
17241
17269
17310
17018
17272
17455
16912
17013
17228
16997
16795
17397
16892
16646
16720
17122
16634
16593
16722
17115
16874
16664
16178
16702
16732
16033
16300
17003
16753
16233
17217
16522
16217
16130
16476
16814
16209
16349
16424
16754
16269
16706
17132
16716
16090
16589
16528
16714
16299
16919
16805
16505
16349
17132
16882
16194
16763
16721
16862
16648
16691
16813
16695
16079
17308
16969
17039
16794
16758
16706
16185
16362
17411
16852
16328
17228
17288
17085
16713
16713
17466
16643
16484
17249
16936
16887
16570
17029
17194
16586
17324
17114
16845
16513
17414
17183
17088
16519
17557
17100
16855
17050
17392
17801
16336
17289
16994
17228
16791
16982
17221
17075
17005
17301
17703
16999
16630
17586
17543
16912
16991
17460
17605
17264
17516
17239
17700
16904
17260
17740
16892
16883
17772
17527
17425
16951
17913
17268
16858
17134
17607
17039
16923
17668
17655
17442
16899
18140
17758
16960
17158
17917
17823
17013
17082
17996
17563
17115
17612
17751
17820
17037
17582
17625
17515
16892
17246
17782
17117
17321
17561
17255
16786
17316
16868
17521
16242
17096
16939
17282
16038
16831
17304
16658
16594
16996
16682
16077
16710
17038
17123
15896
17078
17168
16899
16175
17229
16912
16823
16491
17104
16886
16062
16339
17174
16310
16216
16249
16611
16927
15831
17092
16589
16616
16599
16639
17013
16138
16303
16588
17085
16083
16626
17205
16708
16763
16523
16683
16788
16863
17553
16846
16719
16699
16460
17262
16299
16853
16876
16985
16221
17330
17286
17322
16732
17279
17178
17073
17097
16984
17483
16496
16737
17007
17467
16467
16869
17448
17258
16620
17826
17532
16699
16987
17437
17463
17204
16649
17489
17393
16684
17353
17267
17057
16849
17087
17647
17301
17228
17725
17637
17174
17407
17906
17963
16888
17390
17860
17675
16885
17752
17789
17963
16709
18007
17736
17144
17391
17937
17535
16992
17275
17728
17612
17282
17572
17687
17830
17032
18023
17448
17404
17295
17921
17536
17699
17376
18141
17846
17448
17542
17787
18009
17237
18051
17985
17465
17148
17239
17699
17323
16786
17779
17281
16606
16921
17082
17177
16427
17171
17071
16804
16474
17585
16741
17340
16625
17466
17147
16215
16252
17521
16978
16178
16527
17299
16698
16355
17112
17447
16676
16716
17148
16912
16729
16366
16693
16844
16159
16728
17244
17274
16488
17378
17276
16600
16134
17155
17332
16485
16962
17059
17114
16609
16736
17038
17361
16412
16927
16924
16752
16443
16869
16936
17390
16391
16979
17181
17097
17207
17060
17465
16438
17684
17185
17625
16816
17567
17298
16762
17020
17308
17917
16775
17048
16996
17518
16744
17306
17403
17272
16983
17085
17419
17547
17142
18146
17791
17624
17032
17960
17859
16840
17332
17340
17648
17419
17999
17941
17778
17134
17251
17668
17384
17379
17964
17606
17757
17676
17484
17735
17046
17331
17266
17647
17573
17889
17702
17259
17249
18398
17767
17327
17203
18259
17878
17567
17803
18276
18107
17577
17418
18288
17313
17219
18055
18227
17691
16983
17900
18074
17707
17725
17817
17981
16646
17617
17584
17273
16530
17616
16947
16595
17043
16928
17052
16868
16546
17404
16895
16569
17073
17174
16908
16368
17039
16953
16964
16628
16614
16530
16754
15986
16460
16767
16374
16350
17080
17075
16106
16466
16642
16227
16246
16752
17040
16278
16084
17166
17152
15980
16353
17313
17138
16186
16871
17072
17084
16339
17308
17089
16611
16619
17409
16691
16261
16788
17563
17060
16685
16697
16855
17105
16151
17128
16928
17091
16784
17249
17237
16717
16507
17141
17184
16820
16988
17452
17149
16697
17226
17684
16833
16687
16839
17462
17021
17051
17403
17596
17206
16964
17521
17115
16746
17009
17358
17566
16849
18003
17293
17745
16764
17331
17537
17387
17243
17614
17526
17189
17460
17497
17619
16817
17604
17580
17236
16683
17859
17797
17072
17274
18073
17442
16977
17617
17740
17721
17325
17807
17579
17248
16579
17106
17819
17808
16704
17478
17387
16977
17091
17489
17431
17492
17540
17661
17321
17594
17706
17440
17004
17030
17730
17897
17503
17213
17429
17495
17103
17157
16957
16926
16751
16605
17318
17131
16543
16760
16490
16300
16399
16583
16982
16255
16189
16871
17101
15967
16184
17047
17125
16328
16795
16765
16796
16257
16909
16252
15788
15915
16755
16483
15894
16585
16414
16787
15928
16471
17207
16890
15959
16848
17169
16379
16442
16552
16975
16415
16810
17238
16726
16574
17341
16586
16419
16119
16733
17067
16461
16580
17133
16976
16211
16719
17266
17180
16553
17301
17370
16720
16618
16560
17286
17360
16448
16824
16987
16552
16737
16979
17155
16261
17310
17526
17363
16897
17646
16697
16987
16859
17636
17023
16876
16615
16958
17375
17069
17118
16869
17470
16302
17332
17115
17561
16335
17619
17118
17611
17081
17400
17120
16802
16750
17176
17008
16545
17663
17654
17192
17093
17394
17606
16924
17089
17168
17282
16903
16777
17666
17546
16570
17454
17733
17452
17005
17529
18058
17254
16687
17975
17238
17538
17161
17655
18047
16751
17128
17663
17311
17028
17494
17642
17496
17453
17203
17594
17641
17576
17560
17703
17638
17448
17455
17494
16840
17435
17811
17680
17261
17925
17288
17559
17085
17735
17805
17472
17254
17716
17372
16672
17216
17014
17328
16769
16840
17349
16618
16508
17009
17194
16830
16632
17137
17189
16682
16816
16680
16519
16383
17288
17221
16805
16451
16857
16656
16943
15769
16778
16716
16621
16743
16910
16441
16024
16535
16402
16449
15866
16913
16767
16071
16682
16758
16585
16157
16006
16996
17124
16264
16468
16514
16578
16642
16998
16422
16368
16558
16552
16875
16705
16325
17332
16632
16141
16402
17072
16890
16115
16584
17306
17018
16551
16795
17280
17312
16526
16680
16768
16326
16304
17187
17257
16378
17477
17091
17130
16669
17490
17124
17395
16497
17611
17098
17112
16405
17642
17225
16910
16859
17391
17514
16728
17032
17106
17577
16664
17420
17258
17049
16494
17691
17197
16619
17106
16861
17020
16982
16859
17802
17231
16765
16869
17898
17763
16442
17709
17172
16847
17572
17102
17533
16811
17417
17513
17553
16710
17960
17721
16839
17165
17257
17544
17534
17156
17886
17412
17210
17241
17758
17325
16976
17709
17350
17364
16757
17274
17065
17191
17577
17715
17965
17058
17343
17564
17352
17021
17323
18083
18147
17423
18195
17380
17946
17320
17513
17935
17266
17018
17944
18012
17127
17613
17992
18078
17368
18219
17546
17868
17254
17906
17864
17917
17297
18032
17558
17384
17681
17737
17846
17643
17601
18244
18165
17461
18444
17889
17760
17679
17946
18125
17151
17288
17769
18234
17263
17941
18206
17532
17240
17763
17968
18215
17159
17928
17588
17266
16970
17521
17758
17253
17390
17498
17462
16743
17166
16797
16991
17082
17233
17439
16994
16915
17236
17074
16332
16881
17555
17058
16280
16609
16964
16710
16215
16750
16912
16521
16291
17322
17223
17220
16420
17440
16998
16349
17056
17402
17247
16359
17643
17221
16760
16979
16859
17572
16693
16602
17650
17318
16745
17298
17460
17370
16492
17275
17468
17055
16460
16990
17185
17406
16820
17284
17452
16988
17584
17870
17436
17246
17498
17643
17020
17535
17497
17423
17849
17065
17882
17697
16853
16948
17527
17477
16952
17424
17799
17820
16673
17952
17601
17435
17535
17483
17640
17316
17414
17915
17669
17255
17432
18057
17915
16974
17883
17711
17345
17309
17432
18264
17887
16956
18118
17834
17720
17853
18128
17879
17184
18017
18250
18304
17523
18247
17679
17376
17185
18417
18058
17328
18272
18104
17903
17578
18165
17826
18415
17300
18013
18048
17897
17988
18645
18163
18150
17750
18267
18397
17267
17788
18218
18199
17366
18394
18270
18158
18180
18157
17844
17685
18036
18747
18334
17207
17673
17961
18234
17506
18202
18429
18661
18046
18228
17912
18242
17946
18927
18522
18176
17729
18627
18140
17770
18369
18288
18373
18087
17943
18193
17860
17949
18767
18126
17749
17387
17843
17838
17118
17635
18403
17615
17577
18185
17905
18093
17342
18244
18039
18053
17108
17683
17952
17009
17822
18192
17659
17141
17841
17811
18211
17317
17804
18054
17787
17493
17736
17673
17614
17062
17808
18057
17568
17964
18240
17814
17344
18013
18202
17363
17505
17538
17989
17469
17375
17803
17743
17484
17876
18206
18186
17372
17748
17745
18252
17423
17515
17697
18240
17758
18499
17778
17822
17495
18215
17912
17559
17709
17818
17893
17264
18089
18473
17813
17330
18250
18067
18075
17925
18204
18219
17704
17642
18427
18210
17539
17801
18223
17550
17495
18501
18099
18086
17205
18094
18331
17009
17607
17872
17913
17943
18412
18084
18269
17788
18087
18271
17927
17528
18140
17714
17863
17546
18163
18344
17898
18302
18186
17931
17628
17727
18259
17741
17800
18747
18385
17957
17813
17974
18321
17289
17931
18080
18191
17177
18043
18569
18446
17352
17690
18466
17898
17688
18354
17869
17872
18089
18610
18075
17478
18403
18395
18279
17610
18430
17677
18593
17760
18223
18544
17990
18022
17800
18082
17195
17892
18139
17819
17251
17451
17717
17597
17130
18258
17467
17213
17241
17426
17665
17425
17744
17534
17679
17064
17942
17935
17379
17006
17208
17433
17233
16652
17810
17451
17461
16685
17332
17299
17376
17736
17432
17130
16781
17691
17426
17870
16919
17431
17611
17434
17079
17639
17594
17244
17205
17457
17545
16971
18050
18150
17420
16957
17218
18107
17600
17474
17525
17840
16904
17292
17505
17385
16799
17233
17424
17425
17327
17795
17628
17325
17012
17839
17525
17408
17842
17811
18018
17373
17420
17511
17689
17209
17560
17497
17736
17483
17651
17756
17311
17519
18186
17799
17086
17574
18075
17650
17299
17685
17824
17382
17122
18042
17815
18072
17466
17864
18249
17378
17427
17671
17758
17652
17925
18455
17934
17477
18374
18133
17816
16948
18218
18081
17849
17044
18054
18263
17123
18262
18298
17635
17608
18212
17870
18141
17411
18133
17996
17633
17511
18095
18317
17201
17466
18256
18004
17510
17733
18415
17624
17563
17655
18171
17660
17320
18315
17925
16979
17635
17986
17793
17297
17687
17699
17752
16914
17630
17477
17317
16626
17997
17893
17272
17631
17598
17774
17073
16942
17460
17665
16924
17768
17474
17252
16827
17039
17181
17604
16841
17855
17704
16476
16990
17770
17330
17145
17327
17634
17183
16289
17526
17405
17301
16710
17297
17273
16544
17026
17181
17300
16605
17216
17083
17282
16788
17160
17352
17259
17181
17354
17289
17114
16883
17052
17204
16725
17415
17179
16935
16601
17767
17306
17540
17085
17566
17724
16919
16813
17711
17493
16539
17404
17234
17325
16760
16903
17732
17517
17064
17619
17105
17534
16775
17610
17472
16850
17195
17684
17427
16910
17240
17857
17288
17170
17465
17392
17126
17277
17212
17059
17355
17151
18091
17297
17405
17234
17487
17789
16762
17800
17734
17336
16953
18010
17181
17213
16973
17785
17646
16997
17453
17501
17590
16933
17483
17980
17782
16954
17347
17366
17925
17364
17783
17457
16856
16792
17615
17507
17198
17492
17864
17723
16828
18082
17581
17501
17218
17132
17890
17566
17449
17376
17836
17117
17464
17455
17132
17389
17864
17568
17583
16837
17070
17153
17399
16933
17729
17378
17029
16829
17185
17383
16668
16710
17603
17101
16309
16742
17231
16438
16665
17124
17007
16347
16268
17411
17236
16291
16735
17214
16740
16436
16409
17058
17115
16282
17058
16875
16421
15972
17171
17423
16161
16337
17265
16550
16037
17297
16752
17237
16825
16852
16852
16566
16491
16917
17168
16876
16687
17516
16812
16894
16782
17087
17099
16376
17387
17031
16652
16798
17454
16641
17111
16429
17478
16754
16313
16657
17333
16941
16295
16774
17173
16933
16710
17029
17004
17047
16317
17486
16952
16618
17031
17284
16899
16529
17302
17351
16789
16287
16665
17265
16712
16626
16979
16972
16559
16939
17661
17314
16691
16827
17251
17313
17040
17108
17221
17407
16931
17154
17092
17028
17163
17155
17181
16689
16970
17503
16965
17031
17286
17554
17048
17366
17057
17637
16963
17306
17793
17647
17406
17342
17371
17327
16909
17450
17427
17093
16700
17371
17437
17323
17145
17276
17165
17500
17559
17277
17538
17302
17569
17948
17286
17378
17398
17722
17687
17130
17101
17456
17363
16964
17337
17480
16485
16949
16740
16946
16534
16869
16948
16551
16471
16679
17248
17362
16107
16500
17259
16372
16620
16686
17044
16279
16725
16735
17310
16063
17332
16855
17279
16192
17009
17093
16839
16093
17319
16754
16260
16816
17306
16848
16519
16821
16791
16643
16387
16717
17114
17348
16351
17415
17529
16272
16960
17437
17028
16838
17239
17150
17410
16368
17631
17125
17010
16515
17295
17327
17105
16430
17665
17243
17243
16893
17067
17080
16685
17458
17323
17180
16844
17679
17154
16897
17073
17236
17325
16545
17018
17325
17586
17028
17786
17557
17069
17263
17274
17601
17722
16856
17485
18013
17368
17702
17970
17606
17163
17865
17908
17948
16991
17217
18007
17283
16971
18158
17666
17219
17764
17790
17984
16991
17373
17806
17407
17165
17454
17779
17952
17069
17479
17819
17403
17366
17367
17727
17504
17323
17998
17746
17236
18125
17673
18362
17835
17759
17706
18363
17896
18613
17640
17454
18231
18196
17852
17755
17497
18296
18048
17335
18091
17678
17326
17510
17773
17957
17470
17010
18017
17808
16970
17381
17930
17562
16602
17497
17696
17398
16931
17969
17500
17247
16928
17920
17470
16911
17330
17796
17323
17134
17563
17463
17730
16523
17179
17582
18049
16749
17460
17955
16878
17050
17720
17517
16931
17751
17732
17054
17122
17217
17924
17155
17006
18025
17420
17110
16802
17961
17281
17461
17125
17536
17705
17387
17815
17927
17635
17048
17728
17863
17522
17053
17764
17576
17376
17445
17642
17757
16852
17657
17832
17923
17010
17739
17683
17197
17606
18214
17643
16990
17899
17468
17581
17345
17654
18021
18156
17334
17974
18177
18093
17348
17986
18061
17897
17096
17858
18199
17462
17718
18348
17549
16924
17995
17610
17818
17470
17539
17636
17584
17339
18229
18186
17679
17604
17759
17684
16971
17970
18253
17741
17780
18258
18196
18106
17990
17885
17780
17872
17423
18077
18075
17147
18127
17901
17806
17247
17613
18471
17545
17312
17666
17701
18177
17338
17780
18010
17715
17615
18167
17745
17148
17737
17537
17871
16922
17611
17477
17509
16880
17230
17492
17295
16789
17649
17594
17112
17196
17151
16774
17001
17315
17599
16893
17182
17365
17085
17200
17086
17234
17630
16881
17113
17556
17275
16657
17391
17519
16755
16533
16823
17350
16585
16783
17334
16935
16595
17231
17385
16889
17050
16822
17183
16862
16665
17364
17484
17668
16496
17310
17193
16689
17408
17300
17497
16683
17120
17673
17726
17222
17689
17593
17539
16958
17506
17257
17247
16777
17587
17599
17308
17215
17613
17297
16741
17688
17901
17522
17323
17941
17304
16993
17312
17662
17776
16796
17691
17746
17299
16851
17495
17218
17611
17320
17768
17468
17569
16974
17578
17721
17322
17441
17376
17584
16732
17411
17363
17487
17044
17618
17832
17990
16922
17121
17780
17548
16953
18031
18049
17518
17652
17753
18110
17022
18127
17935
17305
17254
18184
17525
18098
17227
18305
17569
17011
17746
17657
17910
17653
17865
17750
17498
16749
17987
18196
18012
17438
18063
17991
17277
17427
18107
17814
16756
17341
17611
17445
16512
17350
17373
16858
16515
16890
17119
17271
17118
17254
17443
16316
17128
17137
17122
16331
16588
17015
17191
16293
17052
17470
17200
16501
16946
16708
16962
16916
17274
16917
15963
16841
17351
16686
15921
16852
16935
16646
16322
16746
17045
16559
16597
17747
17126
16734
16850
16956
17121
16112
16747
17380
16818
16550
16717
16806
17192
16268
17519
16582
16960
16769
17225
16934
16246
17187
17195
16988
16383
17063
17096
17342
16435
17264
17251
16784
17017
17192
17263
16587
17111
17707
17182
16372
16963
17505
17234
16557
17575
17393
17010
16610
17242
17029
16815
17167
17405
17518
16804
17192
17728
17006
16806
17096
17278
17034
16946
17301
17884
17212
17278
18049
17481
16613
17688
17551
17886
17066
17648
17797
17599
17445
17344
17673
17161
17030
17589
17320
17131
17636
17594
17569
17519
17575
17562
17010
16736
17793
17820
17145
17241
18046
17682
17318
17823
17914
17527
17160
18159
17960
17778
17331
17109
17197
17085
16903
17626
17666
17119
16590
17763
17154
16676
16720
17513
16653
16341
16507
17198
16731
15973
17115
17030
16733
16731
16479
16609
16208
16404
16770
17211
16260
16390
16943
17120
16536
17398
17344
16940
16278
17199
16966
16502
16469
16647
16552
16618
16822
17161
17093
16496
16560
17181
17316
16745
16983
17141
16891
16858
17303
17351
16749
17385
16867
17040
16608
17554
16718
16814
16417
17079
17513
16643
17059
17114
17568
17285
17257
17584
17223
17106
17826
17236
17369
16643
18002
17759
17090
17133
17439
17616
17376
17660
17723
17777
17034
17425
17760
17012
17342
17802
17921
17457
17282
17081
17124
17330
16956
17531
17355
16674
17471
17354
17207
16682
17715
17667
17374
16651
17427
17739
17051
17022
17260
17195
17425
17356
17660
17187
16872
17370
17589
17707
16879
17855
17974
17927
16872
17905
17483
16969
17685
17797
17661
16835
17099
17288
17151
16819
17280
17820
17684
17365
17317
17757
17336
17163
18015
17729
16952
17591
17577
17594
16903
17643
17924
17905
17138
17287
17713
16963
17507
18088
17621
16743
17242
17572
17597
17070
17643
17705
17555
16877
16856
17399
17301
16823
16591
16948
16701
16042
16804
17194
16297
16774
16664
16734
16112
16343
17377
16938
16710
16980
16815
16306
16092
16670
16827
16054
16677
16966
16664
16157
16595
16603
16407
16494
16534
16581
16910
16399
16873
16920
16688
16339
17062
16917
16650
16360
16637
16449
16432
16549
16977
16556
16484
16478
17213
16548
16086
17108
16953
16760
16560
17460
17080
16299
17066
17397
17321
16358
16639
16666
16711
16534
16998
17093
16945
16733
16713
17056
16195
16898
17429
17330
16288
16752
17561
17487
16583
16956
17571
16468
17193
17320
17004
16931
16817
17313
17198
16679
17338
17167
17212
16749
17330
17540
16840
17461
17422
17299
16467
17017
17912
17116
16580
17493
16992
17074
16748
17263
17675
17257
16891
17468
17607
17348
17356
17606
17423
17285
17414
17432
17311
16821
17382
17899
17795
17169
18070
17484
17217
17313
17744
17409
16972
17395
17609
17999
17050
17773
17722
17472
17270
17821
17730
17649
17472
17414
17925
17225
17447
18243
17626
17303
17924
18071
17765
17491
17940
18191
17535
17343
18356
17741
17191
17871
17963
17787
17180
17843
18257
17612
17187
18313
18413
17473
17812
17733
17732
18144
17413
18151
17939
17787
17867
18212
18437
17878
17809
18322
17551
17713
17865
18300
18178
18047
18186
17993
17572
18120
18514
18220
18122
17904
18647
18293
17392
17909
18174
17607
17580
18405
18513
17450
18213
18004
18230
17610
17756
18741
18267
17948
18572
18802
17758
17516
18744
18743
17780
18421
17909
18333
17308
18010
18109
18483
17203
17864
18089
18060
17257
18366
18148
17477
17578
17515
17755
16984
17462
17288
17462
17367
17555
17395
17513
16712
17522
17427
17344
16646
17375
17208
16882
16556
17604
17441
16153
16683
17426
17470
16737
16642
17534
16662
16840
17249
17430
16807
16647
17146
17269
16367
17073
17234
16754
16669
17220
17355
16745
16965
17258
17252
17037
16524
17076
17362
16665
17063
17216
17319
16525
17151
17266
17222
16741
17313
17558
17068
16721
17111
17266
16748
17184
17365
17574
16854
16892
17874
17554
16904
17310
17644
17282
16954
17593
17633
17333
16873
17664
17360
17257
17342
18005
17637
17185
17662
17770
17535
17172
18119
17884
17495
17240
17833
17769
17784
17336
17797
17914
17128
17677
18263
18002
17506
18125
18242
18122
17603
18265
18151
17691
17515
17431
17610
17437
17673
18097
18015
17688
17354
17696
17411
16986
17788
17787
17406
17135
18030
18152
17299
17260
18279
17568
17152
18214
18100
18098
17492
17521
17821
18236
17285
17895
18560
17115
17766
18342
17967
17482
17686
17755
17794
17392
18499
18379
18015
18081
18169
17728
17596
17978
18271
17837
17745
17615
18148
17752
17355
17647
18130
17302
17431
17485
17955
18150
17478
17965
18177
18156
17458
17756
17742
17815
17746
17581
17553
17193
17893
17458
17419
17105
17081
17096
16973
16936
17524
17145
16548
17356
16880
16808
16522
17163
16554
17008
16558
16575
16726
16511
16378
16952
17172
16590
16530
16736
16512
16386
16439
16726
16928
16596
16662
16696
16259
15886
16455
16921
16400
16535
16360
16541
16018
16842
16382
16792
16722
16876
16843
16460
16424
17122
16937
16793
16517
17027
16922
16834
16893
16493
17104
16591
17169
16982
16794
16714
16433
16766
16635
16743
16612
16723
16659
16881
16776
16404
16576
17378
16825
16424
16997
16918
16770
16432
16860
16790
16713
16437
16634
16850
17097
16806
17131
17284
17026
16627
17275
16635
17162
16843
16762
17488
16899
17264
16991
17074
16577
17244
17268
16780
16992
17373
16964
17684
17191
17301
17487
17296
16660
17082
17316
16945
17352
17572
16897
17124
16821
17168
16925
17043
17536
17497
16791
16408
17450
17257
17301
17183
17056
17385
17064
17531
17322
17113
16603
17834
17368
17621
17454
17000
17343
16962
17002
16968
17561
17096
17261
17753
17363
16539
17522
17591
17644
16501
17580
17250
17730
17051
17767
17853
17495
17739
17561
17519
17212
17514
17520
17872
16997
17727
17600
16839
16928
17852
17330
17223
17572
17360
17410
16996
17297
16899
17306
16584
16888
16883
16839
16455
16871
16704
16703
16515
17075
16759
16539
16566
16323
16834
16526
16547
16453
16612
16249
16257
16254
16859
16091
16530
16157
16030
16546
16195
16401
16269
15744
16240
16756
16369
15722
16036
15812
16366
15924
15894
16346
16187
16405
16183
16415
16124
16830
16483
15803
15996
16364
16171
15880
16552
16581
16669
16255
16159
16333
16489
15915
16339
16646
16219
16127
16359
16310
16505
16961
16420
16744
16402
16958
16421
16661
16098
16893
16399
15988
16797
16520
16153
16481
16162
16945
16154
15871
16863
16985
16460
16661
16228
16872
16477
16692
16578
16862
16425
16865
16367
16402
16292
16816
16511
17137
16598
16668
16396
16677
16795
16479
16351
16843
16848
16949
16355
16704
17297
17293
16981
16795
16954
16903
16790
16185
16861
17419
16476
16950
17265
17198
16295
17220
16884
16867
16282
16648
16744
16736
16580
17092
16851
16444
16816
17219
17272
16445
16698
17668
16925
17043
16721
16709
17116
16855
17303
17150
16765
17040
16856
17144
16336
17219
16613
16290
16648
16719
16323
16037
16674
16862
16244
16138
15839
16163
16337
15999
15998
16779
16523
15995
16052
16660
16509
15510
15757
16324
16098
16289
16413
15979
15865
15911
15667
15990
16046
15821
16053
15665
15561
15626
16068
16469
16179
15826
16225
15980
15828
16311
16467
15885
15788
16264
16383
16055
16218
16505
15925
16325
16389
16651
16480
16284
16114
16394
15634
16180
16453
16211
15635
16072
16841
16023
16293
16881
17017
16593
15971
16954
16485
16016
16245
16482
16844
16221
16492
16843
17159
16531
16782
17158
16856
16289
16879
16898
16868
16334
16931
16637
16697
16371
16867
17322
16397
16819
16583
16489
16965
17520
17089
16675
16586
17729
17377
16236
17058
17195
17274
16574
17388
17216
17042
16480
17451
17512
17499
17176
17445
17344
17216
17467
17120
17428
16885
16852
17726
17371
16619
16895
17699
17160
16498
16975
17228
16601
17033
17605
17681
17182
17623
17338
17100
16926
17188
17933
17685
16900
17890
17207
17670
17212
17772
17814
17316
17277
17830
17595
17084
17290
17697
17667
16767
16853
16826
16701
16327
17424
17381
16153
16801
17449
17049
15995
16604
16934
16935
16361
16539
17384
16972
16141
16834
16997
16395
15989
17293
16847
15864
16864
16808
16878
16532
16741
16528
16291
16182
17332
16930
16209
16743
16882
16748
16659
16763
17066
16912
15849
16484
16668
17092
16152
16534
17028
17134
16766
17340
16674
16785
16916
17089
17058
16777
16900
17339
16666
16600
17605
17399
16946
16774
17169
16989
16933
16846
17211
17419
16617
17327
17471
17216
16571
16952
17871
17555
16447
17518
17293
17160
16766
17454
17395
16944
17145
17226
17281
16720
17354
17548
17222
17058
17283
17757
16922
17339
17417
17307
17012
16737
17369
17231
16629
17038
17347
17507
16830
16869
17224
17270
17170
17166
17808
17013
17415
17358
17464
16740
17576
17406
17657
16614
17374
17974
17360
16871
17348
17988
17482
16793
17684
17288
16717
17339
17526
17641
17185
17520
17321
17685
16756
17390
18106
17405
16894
17316
17952
17593
16663
17510
17835
16974
17721
17825
17611
17029
17254
17825
17330
16649
17095
17603
17237
17243
17585
17414
16792
16899
16860
16993
16679
17089
17236
16682
15887
17212
16802
16876
16449
17130
16873
16294
16750
17003
16614
16496
17109
16401
16532
16441
16423
16836
16766
16134
16537
16822
16560
16212
16666
16561
15992
17047
16965
17005
16204
16456
16628
16693
16103
17352
16586
16474
16403
17277
16848
16766
16997
17286
16562
16255
16821
16838
16543
16257
16563
16775
16543
16257
16688
16893
16204
16888
16841
16751
16833
16474
17322
16611
16621
17470
16707
16407
16210
17622
16790
16564
17258
17365
17028
16666
17321
17067
17131
16750
16901
17565
16907
16684
17868
17491
17404
16714
17135
17357
17171
17389
17651
17350
17147
17495
17640
17294
16743
17560
17683
17033
17097
17948
17757
17106
17247
17755
17508
17099
17470
17441
17844
16663
17279
17628
17956
16882
18108
17564
17162
17333
17485
17323
16982
17721
17601
17154
17175
18033
17839
17465
17417
17300
17184
17664
17479
17768
17648
17012
17232
17490
17618
16905
17713
17480
17518
17367
17951
17714
17128
16793
17262
17835
16798
16580
17136
17378
16794
16851
17483
17302
16458
17197
17202
16889
16199
17044
17368
16526
16269
16579
17185
16514
16644
16456
16701
16013
16539
16679
16592
16172
16432
16473
16412
16098
16750
16771
16217
16127
16422
16443
16017
16455
16862
16442
16368
16825
16533
15935
15951
16719
16858
16487
15623
16434
17109
16096
16058
16614
16914
16186
17041
17063
16987
16005
16603
16991
16564
16085
16582
16887
16273
16251
16373
16362
16571
16278
16285
16766
16188
16452
16288
16112
16594
16484
17017
16714
15875
17186
16474
16362
17044
16598
16885
16051
16721
17042
17022
16308
16456
16991
16523
16223
17214
16973
16281
16449
16914
16645
16493
17008
16736
17148
16696
16732
16522
17026
16347
16845
16779
16982
17101
17311
17201
16514
16654
17062
16846
16638
16807
16825
17434
16678
17483
17190
17108
16707
17557
17083
16978
17016
17292
17099
16400
17128
17067
17135
16783
17042
16822
17285
16938
17182
16824
17011
16815
17652
17362
17109
17598
17435
17666
17096
17433
17608
16534
16468
17134
16753
17010
16487
17097
16933
16848
16801
16711
16890
16678
16449
16287
16375
16227
16663
16626
16529
16518
15800
16517
15705
16051
16391
16006
15799
16553
16350
15928
16247
16707
15991
15650
15674
15905
16487
16180
16266
16466
16404
16132
16594
16460
16311
15672
15810
16320
16229
15820
15902
16103
15759
16513
16963
16456
16021
16495
16263
16535
15876
15904
16519
16309
16156
16213
16488
16637
16545
16823
16846
16759
16707
16503
16219
16490
17150
16422
16711
16707
17052
17019
17017
16741
16765
16521
16284
16405
16975
17364
16304
17115
17198
16763
16520
16866
16648
17290
16615
16875
17333
16836
17266
17097
16950
16832
17036
16890
16799
16443
16566
17204
17512
16826
16702
17105
16718
17489
17408
17269
16981
17160
17574
17016
16800
17096
17299
17426
16647
17246
17203
17245
16746
17267
17533
16926
17292
17334
17396
17024
16975
17399
17025
16985
17012
17356
17522
17348
17101
17629
17615
17345
17144
17402
17190
17431
17722
17451
17274
17554
17840
17511
17000
17757
17619
17436
17234
17021
17632
16879
17019
17702
16942
16928
16769
17462
17083
16858
17483
17083
16831
16694
16910
16953
16651
16636
16996
17095
16728
16528
17014
16511
16985
16725
16671
16547
16853
16951
16950
16758
16662
16455
16807
16937
16455
16749
16647
16254
16551
16711
16678
16322
16367
16375
16768
17053
16876
16815
16673
16864
16874
16994
16587
16404
16899
16422
17001
17302
16454
16798
17047
17500
17270
17174
16573
17280
17196
16694
16979
16933
17263
16475
17255
17086
16608
16317
16697
16789
16500
16920
16952
16912
16467
17019
16870
16963
16497
16738
16603
17007
16574
16774
17056
16980
16707
16706
17144
16670
17034
16980
17223
17065
17542
16907
17403
17048
17734
17303
16548
17191
17248
17526
17422
16534
17734
17439
16979
16612
17045
17515
16518
17723
17038
17544
17076
17634
17542
16792
17518
17754
16772
17394
17174
17059
17327
17237
16733
16904
16578
16766
16687
17413
17085
16978
16586
17198
17046
16934
17661
17053
17212
17280
17272
17275
16893
17182
17251
17064
16921
17176
17028
16911
17260
17006
17133
16749
16331
16369
17106
16518
16903
16464
16915
16249
16394
16246
15984
15894
16778
16388
16264
16656
16172
16494
16000
16415
16246
16247
16163
16425
16379
16275
16255
16321
16477
16312
16263
16314
16282
16239
16285
16515
16476
16129
16864
16695
15921
16249
16830
16494
16434
16377
16622
16392
16327
16098
16595
16052
16522
16167
16602
16667
16052
16954
16070
16404
16281
16655
16316
16494
16356
16809
16715
16179
16685
16636
16789
16540
16892
16592
16906
16621
16996
16754
16716
16912
17232
16762
16953
17031
17106
17001
16673
17475
16942
16532
16969
17239
17133
17125
16715
17065
16690
16912
17352
17178
17314
17026
17604
17462
17013
17086
16795
17046
17289
16898
17703
17246
17310
17092
16708
17268
17430
17248
17140
17308
16976
17199
17255
17293
17250
17485
17201
16762
17359
17517
17276
17217
17545
17318
17909
17443
17006
17523
17278
17402
17881
17762
17674
17841
17581
17679
17084
17706
17932
17650
17665
17708
17775
17042
17285
17776
17748
17584
17892
17753
17798
17572
17613
17782
18066
17120
17875
18166
17575
17770
17842
18365
17812
17917
17870
17642
17801
18036
18078
17868
17640
17737
18191
18245
17749
18272
17807
17968
17362
17951
17924
18200
17555
17640
18111
18007
17839
17948
17847
17565
17907
18186
17832
17674
17731
17565
17482
17859
18181
17970
17867
17542
17500
17389
17507
18197
17970
18101
17490
18048
17532
17879
17326
17536
17328
17439
17219
17756
17908
17442
17975
17835
17855
17378
17718
18300
17135
17400
17673
17706
17735
17418
17925
17314
17687
17385
17000
17402
17397
17532
16980
17499
17021
17518
16906
16986
16810
16973
16702
17350
17294
16989
16920
16790
17163
17096
17381
17064
17411
16827
16997
17079
16853
16481
16664
15961
16981
16536
16258
17001
16642
16239
16393
17174
16835
16745
16703
16873
17065
16664
17065
17436
16556
16782
16563
16860
17067
16402
17045
16666
16739
16761
17212
16989
16935
17047
17346
16723
17213
16950
16860
16851
16399
17198
16723
17453
17077
17469
16537
16426
17107
17503
17467
17206
17448
17542
17122
16993
16741
17448
17024
16921
17357
17010
17615
17170
16978
17139
17398
17344
17767
16879
17500
17332
17632
17438
16804
17496
17555
17554
17817
17317
16933
17556
17295
17611
17799
17331
17769
17446
17443
17133
17774
17448
17619
17410
17292
17331
17539
17158
17300
17747
17450
17087
17449
17856
17302
17554
17826
17538
17524
17667
17614
17756
17555
17765
17892
17574
17484
17289
17626
17231
17834
17858
17573
17432
18110
17877
18036
17924
18225
17843
18031
17548
18105
17667
17384
17947
17877
17761
17568
17702
17848
18001
17350
17370
18317
17341
17991
18118
18045
17993
17345
17798
18195
17147
18054
18423
17619
17882
17938
17501
17987
17536
18123
18194
17666
18108
18211
17865
17823
17743
17728
17739
17363
17632
17697
18061
18065
18171
17736
17962
17956
18292
17589
17061
17359
17202
17331
17716
16919
17642
17313
17107
17847
17324
17617
16480
16920
16839
16555
16696
17180
16772
17047
16981
17291
16723
16980
17464
16482
16398
16586
16595
17043
16561
16629
17394
16566
16812
16800
17136
16480
16392
17034
16769
16351
16105
16384
16703
17050
16738
17345
17078
16605
16308
16826
16878
16505
17324
16647
17251
16804
17460
16748
16504
16850
16676
16623
16549
16798
17050
17055
16878
17043
17087
16600
16385
16685
17342
17295
16560
16807
17133
16753
17089
17467
17275
16887
16947
16948
17104
16976
16648
17308
17524
16987
16524
17162
17306
17416
16880
17431
17036
16950
17184
17430
17027
17290
17207
17084
16913
16901
17249
16617
16862
17103
17247
16982
17208
16903
17199
17042
17178
17305
17132
17047
17134
17186
17230
17103
17095
17363
17271
17346
17987
17259
17305
16933
17053
17702
16838
17667
17670
17589
16807
17604
16852
16907
17562
17320
17193
17331
17365
17518
17369
17139
17312
17320
17521
17154
17736
17775
17536
16942
17895
17552
17679
16968
17229
17259
17228
17336
16926
17388
17220
17399
16999
17199
16900
17425
17407
17291
17086
17271
17294
17233
17158
17556
17482
17499
17245
17378
16715
16987
16661
16690
17557
16851
17229
16722
16869
16177
16565
16646
16745
16141
16880
16781
16176
16372
16930
16833
16347
16099
16917
16697
15740
16157
15945
16238
16677
16197
16635
16366
16582
16394
15928
16121
15826
16591
15861
15731
16600
16497
15659
16200
16310
16274
15892
16199
16311
16704
16511
16723
16844
16536
16672
16760
16271
16245
15818
16460
16405
16006
15808
16660
16306
16058
15894
16153
16646
16586
16360
15856
16154
16633
16791
16081
16423
16306
16276
16646
16593
16395
16896
16705
16850
16828
16404
16428
16562
16544
16701
16815
16622
16850
16201
16488
17186
16602
16757
16450
17113
17015
17144
16781
16518
16718
16538
16732
16570
17101
17141
16811
17252
17013
16963
17260
17290
17254
17203
16613
16527
16794
17454
16420
17129
16673
17218
16946
17447
17207
17576
17429
16929
16573
17737
17186
17235
16793
16756
17158
17265
17043
17547
16982
16791
17418
17547
17522
17102
17127
17140
16929
17079
17289
17255
17681
16721
17272
17150
17068
16828
17082
16789
16662
17172
17573
17363
17215
17360
17210
17419
16582
17769
17068
16921
17250
17165
17388
16754
17731
16931
17736
16788
16799
17113
17210
17632
17533
17107
17131
17226
16684
16925
16632
17532
16650
16996
16756
17463
16884
16998
16633
16084
16718
16606
16834
16147
16450
16189
16771
16321
15830
16658
16424
15963
15816
15776
16378
15971
15608
15953
16391
16092
15638
16075
15828
16153
16148
15965
15590
16131
15647
15564
16098
15348
15591
16122
15643
15212
15584
16078
15750
15895
16073
16234
15555
15313
15458
16355
16369
15729
16203
15915
15973
15331
15731
16091
16106
15742
15874
15862
15574
15821
16097
15680
15802
16402
15681
16039
16395
16338
16102
15592
16113
16390
15933
16197
16279
16531
16483
16193
16642
16143
16040
16476
16506
16583
16170
16513
16229
16694
16036
16673
16577
16466
16770
16090
16590
16226
16536
16849
16436
16458
16382
16714
16706
16241
16526
16626
16704
16095
17199
17100
17190
16717
17045
16914
16538
16391
17488
16580
16490
16882
16733
17016
16708
17315
17329
16562
17223
16683
17514
17221
16754
16771
17525
17216
16949
16950
17072
17244
16920
17177
17410
17229
17319
17170
16918
17487
16952
17246
17270
17309
17551
17077
17062
16921
17285
17254
16508
17426
17415
17395
17173
17073
17510
17486
17033
17591
16823
17528
17099
17004
17471
17388
17298
16952
16695
17165
16979
16721
17628
16907
17528
17143
16820
16863
17513
17344
16959
17322
16792
16447
16726
16950
16590
16965
16398
16308
17123
16151
16061
16840
16322
16183
16740
16323
16168
16721
16230
16970
16127
16304
16194
16651
16758
16540
16769
16914
16260
16416
16065
16785
16422
16785
16311
16557
16364
16036
16745
16890
16318
16863
16596
16405
16676
17072
16535
17059
16899
17050
16401
16892
16484
16392
16306
17114
17207
16922
16320
17008
16884
17222
16580
17059
17411
17122
16394
17466
16969
17220
16742
17077
16911
16719
17321
17220
17114
17165
17160
17422
16704
17060
16847
17021
17349
17229
17465
17418
17358
17344
17225
17535
17203
16956
17221
17508
17404
17497
17000
17337
16744
17038
17107
17160
16836
17122
17419
16950
17367
16940
17516
17198
17545
17140
17438
17380
17912
17565
17402
16908
17909
17282
17085
17717
17082
17408
17334
17303
17747
17582
17361
17808
17954
18041
17380
17674
18234
17653
17128
17606
17404
17177
17330
17474
17348
17747
18212
17724
17762
17309
17520
17859
17307
18025
18193
17823
18135
17824
18227
17938
17254
17811
18028
17470
17276
17727
17880
17187
17489
18017
17928
18004
18061
17450
17863
17828
17996
17703
17966
18064
18348
17699
18269
17204
18180
17998
17648
17630
17251
18101
16794
17258
17965
17489
17273
17705
17160
16771
17301
16948
16943
17606
17154
17490
17258
17120
16640
16822
17155
17077
17015
16889
16530
16830
16641
17138
17252
16470
16543
16603
16673
16519
17834
17148
16804
16889
16851
17126
16451
16706
16603
17021
17144
16869
17309
16585
17042
16800
17409
16893
16638
17552
17271
16701
17435
16990
16798
16870
16984
16687
16748
17109
17801
17085
16645
17059
16952
17072
16709
17334
17311
16862
16934
16690
17686
17186
17440
17776
17234
16915
17062
17150
16934
17129
17590
17189
17131
17159
17423
17254
17307
16816
17446
16910
17767
17595
17128
17255
17455
17197
17047
17321
17160
17284
17392
17228
16938
17219
17378
17294
17280
17314
17400
17476
17070
17692
17403
16925
17183
17452
17579
17443
17370
17932
17662
16891
17645
17331
17424
16713
17433
17457
17307
17367
17194
17338
17348
16625
17549
17496
17016
17700
17601
16622
17061
16704
16899
16898
17366
17745
17248
17145
17421
17377
16814
16669
17367
16710
17605
16693
17142
17232
16890
17236
16967
16849
16536
16633
16618
16542
16272
16467
16590
16461
16155
17109
17052
16130
16212
16963
16948
16538
16898
16467
16201
16056
16556
16134
16803
16578
17065
16323
16840
16739
16430
16398
16593
16889
16534
16471
16458
15889
16304
16272
16153
17031
16340
16943
15893
17185
16710
16575
16102
16841
16737
16895
16573
16361
16349
16761
16433
16756
16936
16071
17171
16130
16660
16950
16311
17187
16976
16829
16624
17220
16333
16381
16953
16441
17035
16666
17054
17146
16882
16793
16728
16473
16935
17166
17086
16581
17200
16852
17004
17076
17028
17003
17510
16745
17422
17159
16771
16667
17311
16936
16923
16999
17339
17248
16752
17112
17247
16604
16841
16910
16871
16752
16840
16882
17130
17069
17359
17325
17104
16598
16575
17474
16772
17607
17517
16849
16702
17181
17478
17227
17373
17356
17778
17288
16682
17483
17674
17135
17366
16709
17132
16936
16961
17845
17040
17347
16546
17364
17446
16647
17303
16817
17362
17048
17424
16758
17122
17081
17652
17268
16876
17294
16856
16699
16955
16296
16933
16353
16418
17187
16612
16976
16355
17234
16304
16521
16284
16389
16580
15883
16429
16243
16339
16088
16419
16552
16373
16461
16318
16531
15915
16294
16501
16149
15758
16442
16400
16389
16527
16501
15991
15720
16092
15617
16067
15789
16418
16736
16667
16569
15619
16308
16903
16167
16420
16588
16284
16299
16938
16298
17022
16696
16456
16125
16896
16238
16427
16598
16174
16823
16370
16273
16623
16796
17156
16675
16221
16470
16936
16595
16695
16479
16497
16711
17134
16681
16766
16297
16788
16792
17118
16291
16650
16733
17203
16859
16868
16915
17129
17525
16244
17144
16656
16693
16557
16905
16196
16560
17030
17160
16296
17465
17221
16756
17032
16859
17408
16327
16994
17471
16835
17068
17214
17418
17170
16449
16497
16860
17345
16895
16871
17476
16797
17619
17181
17199
17352
17606
17305
16467
17237
17036
17627
17057
16389
16702
17230
16872
16363
17033
17658
16900
17284
17099
16705
17270
16982
16871
17742
17218
16922
17442
16844
16829
17051
17223
16627
17185
16968
17141
17122
17240
17007
16764
17318
16595
17005
17078
16909
17252
16822
16959
16457
17233
16660
16295
16522
16976
16465
16394
16992
16888
16922
16253
16492
16944
16300
15946
16768
16201
16510
16290
16422
16595
16331
15828
16788
16283
15892
15815
16215
16161
16265
16260
15965
15769
16321
16232
16259
16129
16398
16055
16228
16123
16795
16094
16344
16444
16266
16184
16598
16803
16632
16672
16534
15909
16357
16582
16225
15838
16260
16156
16388
16990
16652
16459
15461
16573
16818
16576
16452
16407
16479
16042
15938
16429
16093
16164
16461
16818
15895
16437
16514
16762
16118
16599
16972
16539
16350
16715
17098
16634
16131
17090
17000
17136
16741
17305
16913
16836
17161
16804
16645
17118
16777
16740
17300
16800
16712
17179
17446
16393
17106
17049
16680
17289
16741
16862
16701
16963
16699
17037
16699
17450
16847
17275
16802
16646
17504
17011
17027
16610
17436
16588
17041
16791
17057
16501
16622
17501
16948
16570
17560
17080
16736
17149
17427
17617
16526
16637
17514
17291
16811
17256
16815
16637
16797
16818
17018
17491
17135
17778
17151
16688
16553
17312
17250
17025
17492
17399
17152
16661
17698
16621
17474
17533
16596
16680
17318
16801
17740
17014
16282
16457
16290
16620
16028
16590
17133
16161
16178
16309
16112
16384
16061
16002
15998
15952
16250
16179
16472
15969
15859
15963
16504
15792
15850
16910
16126
15852
16132
16682
16115
16732
16446
16130
16297
16229
16582
15890
16361
16801
16763
16880
16508
16078
16832
16536
16242
16284
16802
16195
16409
16516
16491
16040
16793
17139
16967
16793
16793
16903
17164
16910
16580
16856
16318
16962
16928
16878
17036
17265
16890
16557
16382
17372
17481
16216
17204
16533
17260
17169
17177
17370
16736
16430
16496
17078
17325
16754
17227
17516
16602
16492
16598
17112
16971
17243
17824
16817
16874
17265
17605
16997
16609
17358
17414
16879
16662
17446
17186
16930
16883
16985
17371
17311
17410
17182
17026
17397
17132
17010
17663
17267
16819
17833
16863
16908
17259
17730
17414
16854
17705
17582
16824
17273
17015
17595
17312
16821
17067
16829
17268
17804
17617
16984
17616
17993
17244
16927
17260
17257
17165
17295
17133
17418
17645
17155
17294
17919
17350
17077
17805
17247
17788
17234
18232
17691
17275
17613
17714
17599
17374
17801
17947
17477
17405
17746
17518
17720
17568
17684
17810
17898
17635
17967
17778
17516
18250
18081
17296
17395
17928
17158
17451
17296
17281
17116
17518
16832
17475
16820
17191
17832
17495
17607
17138
16482
17531
17389
16181
16862
16435
16705
16996
17255
16973
16475
16962
17116
16421
16942
16274
16233
17052
15998
16561
16844
16143
16835
17181
16519
15744
16468
16548
16428
16225
17066
17129
16435
16022
16642
16356
16938
17326
16738
16150
16382
16213
16766
16977
16626
16474
16723
16536
16560
16871
16698
16281
16829
16132
17088
16087
16782
16917
16784
16350
17062
17319
16771
17273
16647
17378
16274
16815
16539
16914
16284
17297
16748
16825
16864
17162
16876
16815
16548
17596
17257
17180
16955
17535
16714
16962
17397
16743
17044
17075
16570
17195
16818
16963
16361
16839
17293
17191
16345
17288
17230
16557
17611
16551
16355
16548
17428
16885
17252
16820
17425
17365
16288
17510
17408
16602
16603
17068
16880
16730
16813
17397
17100
17240
17096
16727
16722
17046
17477
17479
16469
16762
16842
17142
16480
16799
17079
16967
17018
17286
16954
17543
17048
17622
17257
17334
16939
16689
17460
16892
17324
16860
17208
16867
17002
17309
16839
17318
17156
16828
16485
16638
17869
17106
16671
17457
17446
16815
17014
16737
16924
17386
16728
17497
17345
16678
16677
17054
17613
16744
16598
16935
17139
17592
17621
17290
17384
17523
17320
17810
17759
17376
16870
17506
17031
17204
17546
17234
16899
17217
17355
17165
17062
16905
17412
17513
17137
17669
16889
17185
17257
16867
17608
16502
16639
17135
16644
17020
16651
17254
16594
16325
16322
16943
16483
16510
16802
16558
16327
15845
16825
16032
16382
15988
16082
16327
16325
16099
16544
16289
15282
16330
15994
15757
15825
15605
15652
15588
15700
15517
15461
15690
15718
15905
16298
15269
16296
15637
16168
15309
15542
15696
15393
15816
15580
16082
15772
15781
16495
16132
16063
15762
15773
15694
15655
16447
16402
15621
15567
16554
16320
15922
15753
16782
15986
16274
16504
16550
16587
16117
16500
16485
16746
16441
16102
16427
15947
16491
15979
16578
16516
16660
16797
16669
16459
16318
16368
16044
16646
17075
16603
16043
16446
16840
16973
16569
16776
16969
16865
16237
16587
17246
16713
16055
17305
16928
16211
16359
16307
15978
16959
16993
16874
16994
15950
17090
17116
16199
16301
16586
17277
16646
16255
16419
16605
16284
16826
16609
16541
16529
16659
16458
16617
16490
17134
16486
16920
16601
16502
17151
16446
16921
17575
16590
17006
17232
16644
16471
16789
16417
17131
16446
17159
16925
17521
16694
16572
17337
17299
17260
17323
17297
16825
16807
16669
17683
16510
16585
17600
17676
17079
16759
17280
16785
16919
16967
17430
17356
16837
17196
17274
17220
16495
16825
17306
16822
17020
17573
17014
17416
16579
17823
17176
16982
16800
17424
16478
16632
17144
16772
17185
16887
16335
16699
16572
16180
16126
16173
16307
15968
16669
16396
16088
15881
15938
16237
16460
15849
16553
15908
16360
16599
16536
16215
16611
16490
15915
15699
16199
16455
16541
15670
16220
16243
16652
16033
16196
16207
15906
16308
16324
16358
16286
16124
15989
16337
16489
16387
15949
16618
16359
15812
16623
16626
16174
16079
16076
16459
16366
16153
16461
15989
16199
16294
16613
16208
16748
16805
16503
15817
16573
15940
16367
16373
16325
16199
16391
16830
16286
16494
16786
16546
16443
16669
16600
16495
16773
16596
16640
16925
16747
16289
17050
16860
16989
16945
16568
16451
16896
17022
16663
17142
16715
16810
16346
17125
16324
17160
17092
17342
16414
16952
17206
16565
17146
16837
17354
16876
17252
17471
16845
16330
16990
16940
17020
16509
17241
17373
16915
16562
17355
16912
16924
16724
17708
17395
17569
16991
17283
17233
17204
17671
17282
16792
17287
16837
18008
16836
17652
17318
17299
16909
17047
17107
17308
17190
17289
17636
17246
17214
17764
17939
17680
16933
17240
17736
16856
17469
16975
17797
17749
17446
17209
17602
17012
17396
17343
17002
17478
16955
17896
16950
17241
17671
17459
17626
16852
17410
17389
16605
17477
17690
16676
16607
16742
17240
17162
17016
16693
16586
16934
17201
17408
16705
16984
17168
17067
16688
16828
17334
17357
17049
16705
17512
16584
16855
16364
16312
16944
16910
16747
16654
16800
16983
16862
16415
16719
16303
16579
16553
16226
16876
17446
16204
16737
16359
16705
17406
16651
16445
16917
17317
16929
17032
17171
17456
16159
17525
16618
16563
17229
17206
16599
16801
16599
16625
16899
16708
17124
16893
17229
16432
17331
17134
16849
17096
17376
17013
17150
17182
17283
16984
17192
16930
17437
17529
16870
17725
16714
16978
17100
17072
16887
16870
16727
17193
17177
17001
17161
17166
17164
17124
17247
17222
16944
17511
16966
17326
17130
17204
17068
17311
17226
17326
17289
17332
17075
17362
17262
17185
17139
17292
17280
17185
17264
17333
17284
16847
17212
17272
17045
17121
17246
17311
17016
16834
17335
17452
17178
17323
17516
17426
17116
17256
17168
17366
17350
17489
17650
17743
17417
17851
17451
17266
17572
17909
17621
16670
17511
17555
17499
17177
17139
17745
17499
17358
17403
17227
17523
17246
17537
17370
17537
16922
16928
17388
16909
17089
17379
17491
17260
17065
16681
16326
17123
16362
17069
16779
16256
16403
16137
16408
16815
16697
15786
16156
15665
16119
16783
15844
16428
16423
16359
15853
16013
16282
16143
15845
16229
16459
16401
16046
16561
15858
16187
16226
15870
16221
16176
16524
16362
16507
16209
16139
16571
15826
16518
16438
16292
16787
16601
16707
16114
16740
16375
16424
16541
16980
16317
16903
16600
16798
16851
16578
16299
16324
16651
17282
16647
16495
17135
17029
17071
16617
17053
17157
17057
17520
16721
17018
16872
16822
16572
17049
16894
17462
16431
16466
17337
17414
16776
16734
16785
16806
16709
16487
16900
16837
16666
17224
17116
16862
16375
16533
16483
16653
16589
16972
16729
16519
16963
17522
16865
17098
16665
17301
17143
16968
16415
16909
17061
16239
16632
17226
16548
17028
16718
16743
16180
17423
16892
16447
17408
16518
17635
16904
16503
16746
17298
17331
17245
16911
16995
16550
17269
17518
17489
16998
17664
17403
17214
17218
17230
16720
16636
17169
17211
16971
16395
17576
17766
17742
16548
16764
17025
17707
16992
17404
17042
17044
16443
17788
17629
17279
17428
16831
17397
17277
17219
17066
16533
17053
17462
17301
16607
17144
17274
16912
17087
16648
16413
16534
16108
16522
16900
16458
16359
16215
16537
16524
15917
16169
16346
16576
16125
15866
16109
16460
16248
16587
16269
15970
15633
16483
15807
15432
15769
16198
16381
15152
16813
16309
16218
16421
15889
15778
16272
16617
16980
15729
16240
16370
16738
15804
16071
15992
15767
15981
16110
16392
16439
16311
15995
16452
15927
16282
16281
16474
16913
16345
16907
16596
16055
16437
16889
16694
15842
16824
16723
16848
16907
17083
17072
16491
16303
17295
17165
16359
16487
16688
16427
16361
16307
16589
17178
16670
16721
16698
16360
16323
16377
17020
16601
16612
16631
17283
16470
16463
16249
16850
16869
16963
17020
16491
16424
16771
16731
17028
16204
16715
17153
16349
16685
17017
16965
16096
16795
16785
17022
16692
17155
17388
16881
16498
16584
16953
16268
16132
17348
16750
16575
17040
17131
17198
16230
17391
17129
16329
16726
17496
16877
17323
17337
17236
16876
17044
17163
17195
16969
16686
16632
17308
17703
16911
17706
16698
17053
17382
17253
17232
16333
17149
17456
17147
17289
17200
17748
17363
17029
17224
17312
16705
16534
17310
17154
16474
16634
16805
17038
17457
16971
17193
16820
16513
16992
17236
16856
16935
16264
17103
16916
17022
16733
16287
16639
16010
16725
16867
16655
16393
16577
17031
16291
15798
16261
16025
16368
16005
16110
16343
16622
15919
16075
16028
16036
16780
16698
16340
15661
16894
15766
16060
15965
17078
16303
16180
16225
16080
16058
16145
16044
16886
16637
15912
16747
16919
16136
17076
16360
16696
15951
16233
16753
16415
16955
16789
16542
15898
16860
16519
17120
16839
16230
16943
16554
16156
16985
16789
16078
16556
16234
16828
16287
17061
17454
16538
16639
16308
17176
16948
16246
16895
17110
17057
16346
16843
17073
16286
17335
17231
16441
16554
17174
16621
16480
16938
17265
17392
16887
17042
17138
16946
16770
17436
17132
16573
17401
17421
17328
17352
16466
17494
17197
17204
16840
17262
17249
17293
17004
17294
17175
16677
17046
17323
17112
17165
17509
16945
16694
16945
17371
17416
17383
17225
17571
16920
16648
17466
17154
17411
16412
17470
17575
17478
16615
16897
17733
17301
17094
17458
17506
17134
17392
17382
16679
17492
17308
16921
17764
17183
16956
16893
16587
17088
17451
17065
17387
16926
16646
16881
17072
17053
17464
16986
16803
17110
17278
16503
16508
17206
16895
16204
16735
16683
16631
16291
16382
16702
16035
15901
16391
16392
16306
16395
16571
16246
16251
16802
16103
16981
16133
16391
16165
16568
16610
16370
16464
16929
16256
16219
16304
16676
16046
17014
16481
16572
16412
16383
16829
16958
16973
17053
16482
16533
17089
16828
16964
16983
16679
16974
16252
17060
16708
16735
16469
16444
16660
16198
17099
16562
16648
17003
16779
16296
17051
16578
17322
16969
16957
16716
17203
16954
17536
16529
17490
16826
17328
17091
17555
16992
17525
17159
17227
17161
16600
16752
16991
16772
17422
16910
17616
16624
16813
17488
17097
17329
16917
17088
17275
16474
16941
17197
17405
17308
17954
17186
17073
17048
17872
16970
17536
17300
17040
17325
17321
17534
17013
17707
17046
17914
17260
17154
17335
17891
17770
16883
17265
17222
17878
16899
17513
17182
17587
17183
17429
17626
17736
16704
17682
17754
17533
17472
17034
17940
16921
16947
17953
17161
17309
17055
17737
17501
16757
17483
16836
17388
17506
17196
17031
17289
16193
17258
16851
16928
17107
16383
16296
16305
16177
16271
16120
16284
16871
16689
16216
16634
16115
16953
16831
16537
17249
16666
16661
16200
17193
16723
16931
16728
17189
16549
16328
17136
16567
16954
16408
16402
16695
16416
17054
16606
16845
16280
17386
16403
16611
16326
16460
17184
16669
16962
16887
16789
17129
17224
16812
17218
16499
17454
17028
16191
16730
17272
16894
16602
16136
16811
17189
16351
16763
16798
16738
16836
16509
17413
17133
16719
17301
17211
16722
16708
16909
16598
16317
16587
17155
17101
16735
16702
17098
16933
16311
16449
16596
16432
16823
17283
17352
16573
16238
17250
16595
16822
16654
17084
16886
16996
17217
16870
16405
16793
17194
17207
16624
16753
16734
16961
16426
17086
17396
17362
16460
16624
16904
16843
16441
16607
16753
16681
16783
17750
17531
16740
17290
17488
16643
17082
16559
16890
17704
16733
16667
17046
17276
16617
17299
17238
17435
17021
16769
17132
17083
17056
16669
16581
16249
17108
16850
16270
16296
16123
16880
15756
16259
16977
16485
16880
16815
16633
16847
16155
15762
16716
16738
15844
16257
16252
16171
16491
15916
16558
15677
16143
16476
16053
16165
16006
15989
16216
15633
16690
16608
16282
16483
16395
16619
15725
16012
16258
15999
15974
15967
16547
15785
15973
17043
17004
16724
16654
16512
15911
16132
16270
16621
16480
16126
16886
16205
16537
16866
16062
16044
15936
16684
16330
16369
16197
15857
16129
16465
16581
16111
16074
16056
15914
16843
17009
15965
16761
17192
16687
16483
16436
17189
16509
16647
16281
16713
16447
16621
16146
16822
16243
16961
17084
16374
16046
16599
16062
17109
16354
16562
16463
16267
16863
16118
16989
17067
16685
16761
17054
16071
16049
16873
16779
17115
16946
17167
16794
16097
17093
17233
17249
16538
16476
16749
16747
16276
17001
17318
16952
15849
17281
16982
16439
17052
16648
17259
16984
16817
16886
16554
16630
17358
16643
16371
16495
17503
16574
16491
17068
16822
16544
16883
16443
17074
16255
16620
16466
16947
16997
16598
17139
16908
16920
16921
16963
16620
16764
17295
17343
16962
16418
17360
17365
17299
17017
17018
16874
16836
16789
17035
17024
16603
16876
17104
16905
16960
17006
17224
17265
16938
17364
17001
17306
16892
17746
17008
17279
17005
17441
16940
17245
17480
16834
16697
16989
17487
17550
16624
16478
16983
16835
16945
17259
17540
16678
17315
17275
16749
17579
16616
16939
17344
17732
17410
17653
17232
16635
16958
17227
16815
16906
17026
17521
17301
16248
16751
16890
16727
16585
16578
16768
16849
16632
16450
16380
16133
16174
16352
16023
16686
15887
16385
15909
16357
15782
16117
15831
15968
16407
16186
15773
16235
15774
16107
15654
16282
16405
15990
15796
15758
16066
15991
15388
16213
15737
16173
15914
15919
16195
15973
16288
16489
16394
16042
16705
15647
15576
16200
16241
15621
15570
15861
16557
15884
16172
16663
16663
16003
15656
15773
16102
16373
16348
16010
16520
15959
16071
15991
15991
15956
16047
16291
15865
16072
16925
16967
16009
15624
15782
15946
16619
16094
16086
16448
16007
16324
16634
16215
16394
16162
16927
16036
16892
16132
16743
16201
16724
17009
16835
15905
16829
16870
16357
16170
16719
16526
16579
16358
16947
16825
16403
16421
16699
16716
16496
16576
16702
17064
16506
16962
16915
16706
16866
16869
17096
16785
16767
16987
16807
16765
16567
16906
16981
16719
16915
17181
16893
17071
17191
17425
17139
17069
17622
16945
16888
16395
17108
17409
16745
17192
16922
16748
16449
16576
16819
17243
16581
16510
16878
17222
16958
17092
16614
16208
16890
17273
17040
17041
17028
16822
16456
16181
16869
17125
16467
17019
17421
17368
17051
16979
16703
16623
16784
16527
17215
17483
16857
17376
17551
16626
16919
16945
16771
17012
16814
17176
16958
17059
16774
17290
16876
17211
17121
17003
17112
16785
17108
16907
16783
16775
16515
16788
16550
16626
16475
16514
16645
16454
16316
16203
15768
16561
15961
16809
15956
16638
16350
15789
16661
16480
15988
15904
15943
16190
16664
16303
16051
16422
16761
16212
16428
16352
15955
16423
16255
16231
15647
16015
16459
15650
16500
15843
15941
15550
15979
15735
16815
15827
16419
16740
15979
16325
16297
15796
16007
16003
16333
16007
16144
16459
16043
16728
16658
16441
15918
16080
16452
16412
16077
16649
15653
16017
16154
16357
16151
16012
16267
16662
15991
16849
16896
16371
16300
16490
16268
15922
16706
16620
17000
16338
16148
16455
16107
16406
16012
16367
16525
16031
16553
16498
16727
16435
16440
16642
15951
16770
16924
16912
16738
17297
16662
16793
16660
17234
16799
16496
16329
17145
16524
16489
16871
16612
16362
16753
16322
16264
16579
15939
16514
16480
16980
16913
16841
16421
16855
17202
17167
16630
16314
16389
16421
17261
17031
16748
17404
16878
16570
17101
16434
17213
16725
17224
16426
16920
16828
16981
17358
16561
17449
17191
16673
16129
17332
16672
16761
16926
17060
17181
16326
16263
16444
16769
16410
17591
17327
16526
17128
16784
17191
16813
16501
17363
17441
16634
16791
16587
17278
16607
17147
16887
17349
16620
17086
17194
17333
16681
17586
16769
16434
17443
16836
16571
16551
16935
16365
15948
16384
17155
16375
16408
16318
16786
16287
16453
16330
15840
16327
16261
15910
16146
16140
16189
15963
16292
16373
15837
16058
16368
15642
15685
16025
15729
15693
15967
16554
15812
15271
16631
15767
16233
15763
15794
15688
16137
15514
16242
16004
15800
16576
16310
15844
15612
16494
16615
15773
15930
16602
16330
15735
16236
15968
16290
15904
16407
16618
16534
15757
16238
16802
15945
15857
16775
16030
16365
15946
16712
16889
16710
16158
16471
15886
16580
16720
17070
15897
16662
16043
16185
16669
16677
16332
16486
16240
15988
16598
16422
16883
16575
16941
16294
16734
16534
16273
16680
16356
16873
16263
16218
16956
16410
16400
16549
16556
16947
16100
16374
17204
17079
17196
16890
17187
16432
17070
16284
16400
16723
17043
16412
16680
16366
16413
16664
17309
16873
16530
16522
16834
16702
16798
16282
16829
16982
16845
16580
16724
16091
16592
17466
17160
16945
16945
16871
16768
16924
16490
17207
17374
17432
16769
16936
16625
16877
17376
17412
16943
16343
17255
16895
17273
17340
17587
16672
16762
16765
17035
16499
17014
16817
17251
16682
17495
17103
17389
16672
17438
16857
16823
17226
16754
17496
16377
17246
17332
17213
16547
16559
17191
16410
17344
16780
16665
17280
17031
17389
16737
16189
16745
16744
16792
16089
16410
16604
16818
16675
15838
16468
16593
16206
16883
16314
16681
15929
16349
16109
15861
16725
16158
15974
16000
15736
15806
15525
16260
16252
16460
16091
15467
16290
16240
15703
16141
16498
16402
15638
16348
16306
16660
16366
16293
16196
16339
16602
16676
16468
16334
16616
15855
16036
16331
15942
16556
15764
16068
16896
16193
16554
16006
16699
16781
16496
16396
17040
17048
16534
15995
16948
16977
16790
17176
16478
16851
16292
16903
16466
16092
16438
16691
16460
16299
17163
17126
16353
16764
16508
16579
16266
16226
17271
16816
16530
16581
17076
17206
16263
16629
16442
17202
16669
17598
16531
17419
16568
17340
16689
17200
17074
17437
17258
16239
16841
16769
17093
16563
17553
17326
16653
16825
17637
16787
16667
17263
16999
16925
17028
17240
17625
17225
17264
17547
17633
17316
16775
17801
16884
16581
16565
17717
16856
17215
17026
17080
17120
16849
17577
17074
17227
17165
17005
17491
16769
17206
17199
17369
16768
16813
16868
17101
16743
16867
17068
17433
17512
17600
17594
16905
17015
17927
17195
17516
17078
17246
17314
16784
17091
17641
17349
17518
17068
17493
17886
17387
17090
17286
17316
17272
17756
17502
16612
17148
17095
17058
17035
16696
16683
17399
17197
16473
17237
16814
16217
16930
16660
16157
16194
17007
16967
16372
17121
16803
16961
16399
16186
17017
17265
16919
16947
16373
16054
16362
17099
16912
16205
16509
16643
17230
16125
16549
16349
16112
16071
16968
17060
16123
16566
16406
16451
16926
16792
16600
17306
16463
16497
16849
16821
16444
16869
16596
16916
16976
16889
16297
16175
16409
16676
16796
16207
16675
16752
16785
16560
16797
17221
16648
16824
16679
16833
16497
16765
16653
16930
16566
16826
16385
16652
15934
16683
16723
16872
17037
16710
16617
17029
16292
16972
17298
16833
16357
17443
16631
16872
16399
17348
16618
16790
17009
17567
17286
16696
17485
16705
16619
16884
17060
17395
17019
17411
17226
16892
16925
17558
17374
17288
16918
17712
17079
17340
17382
17867
16787
16940
16629
17655
17298
16520
17456
16845
17349
17267
17759
17377
17013
17322
17423
17682
16903
16562
17270
17648
16809
16518
17489
16520
16778
17575
17276
17077
16907
16794
17200
16818
16907
17462
17026
16995
17041
16964
16884
17125
17349
17265
16952
16582
16874
16473
16279
16922
16911
16231
16614
16913
16645
16509
16381
16568
16848
15889
16795
16680
15899
16478
16655
16148
16602
16252
15980
16183
15895
15646
16672
16019
15615
16235
16146
16141
16295
16573
16113
16376
15538
15923
15912
16409
16364
16467
16009
15744
16288
16939
16830
16613
16456
15891
16122
15923
16658
16693
16234
15600
16858
16817
16735
15883
17019
15978
16360
16428
16061
16029
16340
16022
16345
16018
16274
15823
16725
16186
16374
16806
17098
16499
16223
16345
16219
15753
16129
16999
16596
16091
16572
16383
16500
15866
16224
16675
16798
16499
17161
16473
16819
16190
16776
16481
16503
16445
17065
16470
16341
17122
17219
16228
16684
16136
16964
16373
16329
16848
16600
16702
16519
16975
17255
16885
16423
16423
17275
16959
17511
16832
16836
16217
16649
17078
16167
16709
16777
16850
17001
16888
16426
16991
16715
17290
16845
16847
16317
16786
17171
17165
16876
16747
16960
17058
16880
16942
17055
17024
16852
17074
16267
16969
17002
17144
17223
17703
16893
17369
16446
16679
17157
16925
16408
17390
17318
16503
17227
16498
17064
17073
16758
17591
17080
16518
17278
16858
16974
17141
17321
16680
17111
17529
17570
16957
17251
17335
16940
17301
16479
16882
16886
17159
17180
16661
17327
16866
16177
16123
16386
17220
15927
15971
16519
16100
16709
16511
16395
16110
16782
16066
16881
16021
16809
16336
16508
16130
16652
16037
16040
16206
15891
15542
15680
16476
15818
16065
15915
16179
16277
15713
16383
16054
15805
16035
16146
16151
16041
16029
16047
15996
16209
16591
16175
16689
15909
15653
16497
16496
16569
16215
16647
16082
16254
15891
16648
16108
16148
16659
16474
16089
16103
17011
15943
16436
15712
16681
16163
16096
16322
16616
16800
16417
16218
16789
16352
16563
16512
16448
16702
16081
16602
16580
16721
16181
15892
16551
16999
16871
16629
16774
16307
16929
16611
16246
16298
16125
16892
16997
16426
16119
16608
16644
16510
16161
16745
16721
16734
16324
17084
16125
17105
16180
17198
16637
16259
16420
16346
16149
16611
16790
16772
16905
16688
16594
15887
17073
16812
17036
16354
17180
16197
16655
16421
16367
16245
16326
16625
17052
17112
16242
16940
16248
16678
16584
17050
16964
16151
16617
16962
16434
16980
16437
17040
16692
16580
17063
16705
16269
16106
17086
16403
16584
16636
16972
16743
16445
16542
16445
16857
16471
16548
16659
17380
16978
16818
16470
16792
16973
17530
17514
17113
17031
16760
17087
17539
17420
17279
16980
17415
17701
17593
16986
17028
17279
16689
17483
17019
16770
17558
16758
17017
17088
17158
16669
17192
17144
17079
16548
17798
17116
17032
16971
16588
16821
16809
16387
16496
16459
16621
16733
17075
15984
15893
15895
16215
16086
16009
16881
16218
16548
16676
16571
16592
15889
15899
16110
16270
15799
15575
16197
16125
15661
16761
16191
16055
16458
15836
16133
15803
15948
15973
16010
15702
15842
15749
16130
16435
15822
16362
15667
16416
16392
16264
15994
16089
16261
16422
15625
16193
16747
15674
16353
15959
15995
16430
15916
16179
16040
15956
16367
16235
16320
16117
15781
16580
16454
16167
15935
16567
16156
16069
16867
16441
15918
16031
17176
16611
16829
16702
16299
16566
16893
16773
16376
16895
16579
16545
16675
16502
16333
17323
16840
16841
16303
16584
17383
16502
17198
17218
16474
17191
17345
17304
16680
16569
17580
16579
16560
17288
17104
17608
17009
17490
16816
17456
16627
16919
17310
17515
17077
17672
17349
17402
16902
16768
17464
17099
16777
16799
17756
17325
17004
17169
16619
17600
17727
17674
17182
17229
17381
17628
17484
16990
17067
17439
16830
17007
17037
17835
16774
17157
17620
17616
16773
17294
17276
16914
17357
17776
17490
17045
17325
17799
16771
17450
17951
17178
17681
17007
17141
16994
16806
17774
18042
17539
17354
17838
18286
17849
16925
18053
17577
17756
17771
17177
17227
17530
17212
17044
17153
16631
17418
17661
16722
16463
17491
17380
16373
16514
17295
17136
16394
16503
17147
16815
16163
16145
16646
16676
16017
16839
16476
16310
16392
16663
16288
16498
16604
16739
16836
16524
16024
15984
16158
16004
16480
17016
16582
16244
16221
17050
17165
16677
16601
16595
16602
16525
16467
16985
16900
16224
16239
16266
16193
17415
17448
17406
16393
17223
17180
16536
16700
16514
16939
16239
16587
16385
16825
16633
16596
17288
17063
17345
17501
16622
16787
16395
16877
17021
16728
16767
17388
17087
16627
16597
17139
16884
16510
17014
16968
16721
16623
17168
17239
17025
17162
17447
17106
17170
16891
17485
16929
17362
16539
16990
16526
17112
17255
16853
16756
17142
16865
17510
17266
16996
16834
17580
16663
17285
17425
16618
16482
17236
16692
16511
17590
17145
