26754
26781
26800
26817
26812
26838
26863
26931
26980
27050
27151
27212
27301
27426
27566
27659
27787
27944
28079
28207
28338
28494
28608
28697
28824
28855
28916
28894
28971
28925
28927
28876
28889
28839
28825
28825
28814
28769
28737
28742
28720
28684
28645
28651
28638
28570
28606
28558
28533
28527
28519
28531
28450
28419
28400
28436
28418
28372
28371
28380
28321
28309
28287
28291
28280
28242
28234
28227
28147
28189
28157
28149
28114
28113
28066
28033
27991
27995
27927
27902
27918
27915
27870
27843
27808
27848
27801
27792
27761
27741
27699
27692
27722
27654
27663
27673
27649
27664
27628
27662
27673
27662
27647
27613
27640
27646
27633
27620
27637
27575
27602
27618
27579
27538
27552
27527
27513
27415
27398
27378
27321
27300
27245
27207
27142
27123
27071
27077
27042
27018
27004
26967
26974
26982
26983
26962
26964
27007
26965
26979
26984
27005
26970
26979
26979
27010
27005
27045
27075
27106
27120
27167
27276
27298
27362
27452
27590
27674
27792
27908
28023
28191
28323
28434
28615
28723
28915
29020
29092
29147
29203
29229
29226
29210
29211
29184
29187
29144
29128
29088
29064
29049
29065
29002
28964
28970
28949
28893
28860
28878
28853
28839
28780
28771
28767
28734
28710
28643
28677
28653
28612
28562
28583
28569
28531
28501
28521
28444
28451
28432
28411
28391
28348
28334
28284
28273
28252
28216
28164
28157
28143
28157
28067
28054
28048
27975
27974
27926
27932
27886
27872
27849
27851
27830
27816
27792
27767
27774
27760
27750
27751
27765
27757
27758
27713
27721
27727
27776
27706
27718
27665
27668
27654
27644
27623
27615
27609
27554
27524
27508
27458
27395
27388
27303
27257
27210
27159
27119
27115
27072
27072
27035
27053
27068
27017
27043
27048
27055
27034
27010
27027
26997
26984
26975
26988
26972
26974
26999
27002
27033
27044
27130
27184
27217
27327
27449
27548
27614
27760
27873
28024
28160
28301
28432
28543
28693
28851
28893
28990
29045
29105
29117
29117
29105
29107
29088
29050
29051
29089
29037
29034
29041
28990
29000
28959
28984
28937
28911
28901
28918
28852
28829
28824
28793
28793
28776
28768
28732
28741
28718
28702
28683
28608
28603
28597
28590
28570
28526
28520
28501
28463
28475
28458
28414
28380
28376
28349
28291
28289
28290
28263
28214
28206
28197
28224
28195
28164
28153
28155
28128
28129
28126
28114
28102
28095
28104
28080
28135
28107
28098
28132
28153
28088
28132
28139
28130
28101
28086
28065
28054
28021
28006
27951
27928
27884
27831
27785
27747
27680
27649
27614
27591
27548
27543
27542
27468
27480
27487
27500
27453
27463
27464
27508
27468
27469
27460
27462
27433
27465
27487
27464
27495
27511
27564
27641
27691
27715
27790
27891
27979
28060
28202
28292
28413
28588
28677
28830
28984
29057
29176
29275
29378
29407
29435
29442
29474
29428
29421
29383
29398
29385
29368
29337
29293
29249
29243
29221
29228
29166
29141
29099
29111
29027
29062
29044
28978
28986
28976
28956
28926
28896
28932
28879
28836
28860
28772
28810
28781
28738
28711
28722
28682
28658
28662
28601
28585
28561
28537
28547
28486
28496
28469
28436
28356
28417
28396
28316
28281
28288
28244
28226
28227
28189
28165
28125
28141
28093
28140
28073
28090
28039
28016
28035
28065
27994
28021
27991
28026
28006
28000
28001
27972
27973
27976
27933
27943
27907
27902
27856
27835
27768
27734
27681
27658
27594
27544
27499
27455
27390
27385
27354
27320
27303
27284
27279
27274
27253
27273
27234
27264
27262
27229
27232
27219
27206
27205
27197
27235
27210
27246
27238
27285
27349
27370
27409
27506
27555
27623
27693
27804
27939
28017
28168
28299
28440
28611
28702
28876
29060
29209
29346
29426
29528
29519
29552
29538
29562
29539
29525
29500
29451
29452
29440
29403
29359
29347
29324
29343
29262
29243
29242
29180
29189
29158
29184
29098
29110
29079
29060
29050
29012
29014
28982
28974
28957
28965
28907
28862
28891
28893
28840
28811
28803
28792
28768
28767
28733
28703
28661
28661
28652
28619
28582
28511
28547
28506
28503
28475
28478
28414
28400
28375
28380
28335
28314
28304
28266
28249
28206
28205
28158
28142
28114
28134
28062
28070
28056
28019
27974
27980
27982
27939
27911
27927
27927
27858
27892
27884
27845
27814
27843
27815
27819
27805
27803
27828
27773
27821
27765
27796
27758
27785
27792
27775
27696
27728
27728
27658
27617
27611
27562
27504
27444
27435
27357
27282
27285
27235
27191
27154
27103
27079
27074
27100
27051
27069
27050
27058
27070
27031
27052
27073
27045
27029
27026
27033
27058
27057
27084
27031
27122
27094
27090
27181
27241
27284
27325
27411
27499
27576
27675
27805
27927
28045
28200
28336
28462
28602
28790
28919
29042
29122
29206
29267
29282
29286
29311
29275
29239
29231
29220
29178
29149
29143
29141
29074
29048
29036
28976
28970
28922
28925
28934
28915
28889
28868
28841
28804
28832
28810
28769
28704
28745
28695
28661
28662
28665
28610
28571
28548
28563
28513
28497
28521
28453
28442
28395
28373
28362
28334
28283
28278
28246
28184
28229
28168
28166
28084
28128
28088
28035
28011
28000
27996
27951
27937
27890
27900
27876
27851
27841
27787
27753
27765
27772
27723
27685
27674
27681
27679
27689
27657
27670
27665
27684
27647
27643
27633
27592
27627
27655
27605
27633
27611
27572
27582
27555
27549
27504
27495
27486
27463
27410
27363
27334
27296
27177
27190
27153
27073
27091
27057
27011
26986
26984
26939
26950
26939
26921
26930
26923
26902
26949
26905
26935
26924
26931
26915
26890
26925
26971
26980
26982
26986
27035
27054
27111
27145
27252
27274
27409
27498
27630
27688
27859
28004
28163
28285
28466
28566
28683
28817
28910
28999
29053
29111
29110
29128
29132
29066
29073
29066
28995
29001
28970
28934
28940
28946
28876
28883
28861
28844
28802
28790
28770
28756
28755
28676
28705
28678
28668
28626
28607
28601
28547
28550
28584
28559
28519
28510
28477
28446
28441
28459
28417
28398
28370
28316
28309
28295
28276
28268
28259
28206
28171
28176
28135
28123
28114
28127
28076
28024
28051
28039
27987
27959
27939
27977
27911
27885
27877
27923
27873
27850
27850
27861
27841
27812
27845
27821
27858
27868
27823
27825
27829
27826
27849
27834
27843
27799
27770
27723
27749
27695
27685
27623
27626
27533
27505
27438
27396
27350
27363
27314
27279
27274
27219
27209
27212
27202
27177
27139
27152
27148
27145
27179
27163
27118
27133
27115
27144
27121
27137
27144
27199
27237
27264
27330
27354
27449
27509
27600
27728
27857
27933
28035
28141
28328
28439
28588
28700
28830
28910
28984
29082
29090
29116
29080
29097
29088
29097
29078
29052
29035
29044
28968
28982
28959
28934
28932
28890
28902
28850
28841
28811
28784
28817
28776
28723
28742
28735
28710
28701
28658
28618
28631
28637
28583
28581
28578
28551
28500
28537
28524
28487
28457
28450
28415
28394
28406
28353
28381
28310
28286
28272
28257
28211
28215
28181
28164
28136
28137
28080
28065
28067
28028
28051
27996
28017
27950
27996
27954
27929
27940
27949
27946
27928
27928
27918
27935
27933
27902
27903
27877
27911
27877
27892
27857
27865
27842
27767
27743
27767
27672
27654
27579
27584
27515
27440
27399
27319
27302
27279
27238
27220
27141
27169
27171
27166
27160
27134
27153
27117
27082
27098
27100
27095
27077
27103
27096
27118
27099
27151
27142
27200
27218
27306
27318
27386
27483
27572
27662
27766
27915
28024
28099
28265
28416
28556
28685
28804
28967
29031
29096
29136
29160
29134
29149
29127
29149
29077
29079
29063
29031
29018
29027
28999
28984
28934
28938
28933
28893
28856
28876
28822
28791
28761
28785
28743
28695
28695
28697
28669
28640
28627
28598
28616
28578
28577
28560
28515
28496
28492
28434
28436
28438
28435
28393
28369
28326
28333
28332
28271
28262
28230
28191
28165
28169
28141
28110
28125
28062
28058
28037
27979
27978
27960
27944
27932
27906
27868
27848
27840
27817
27763
27783
27786
27700
27703
27696
27710
27711
27678
27677
27695
27616
27642
27639
27639
27646
27629
27636
27591
27610
27615
27604
27578
27561
27587
27605
27543
27536
27527
27434
27424
27358
27322
27305
27187
27214
27150
27088
27084
27012
27012
26947
26922
26973
26957
26926
26909
26892
26872
26871
26898
26897
26919
26877
26897
26873
26869
26915
26916
26955
26956
26969
27000
27025
27100
27156
27247
27286
27409
27480
27592
27710
27818
27943
28107
28207
28403
28511
28662
28761
28884
28992
29034
29059
29114
29114
29099
29068
29101
29040
28996
28989
29009
28959
28900
28893
28892
28880
28830
28801
28787
28767
28744
28748
28738
28693
28679
28674
28630
28651
28606
28603
28556
28541
28569
28532
28503
28515
28465
28468
28438
28415
28374
28371
28340
28365
28311
28290
28243
28239
28241
28187
28179
28148
28128
28118
28088
28094
28066
28024
27993
27993
27955
27939
27948
27888
27855
27862
27848
27827
27801
27793
27779
27760
27744
27750
27732
27738
27706
27703
27715
27660
27683
27664
27679
27659
27644
27666
27659
27660
27639
27603
27605
27602
27526
27565
27530
27495
27467
27475
27361
27343
27349
27292
27247
27190
27154
27115
27071
27032
27039
26965
27007
26967
26963
26961
26980
26920
26985
26916
26943
26939
26939
26943
26971
26968
26971
26987
27017
27014
27042
27046
27114
27123
27204
27233
27321
27389
27425
27554
27701
27813
27928
28073
28220
28341
28451
28623
28778
28892
29010
29096
29175
29236
29276
29259
29238
29232
29212
29198
29191
29147
29112
29076
29055
29042
29005
28984
28930
28936
28935
28876
28883
28878
28851
28834
28768
28807
28772
28722
28743
28703
28616
28610
28651
28642
28616
28583
28595
28534
28531
28490
28492
28486
28462
28417
28408
28390
28331
28346
28317
28285
28270
28260
28249
28176
28235
28143
28117
28117
28080
28100
28037
28045
28020
28042
27963
27962
27983
27975
27906
27909
27894
27922
27895
27893
27910
27893
27885
27925
27897
27870
27851
27885
27898
27886
27843
27829
27864
27827
27765
27804
27726
27682
27645
27615
27573
27493
27493
27443
27406
27347
27360
27277
27260
27279
27259
27254
27219
27217
27235
27192
27209
27204
27201
27204
27215
27215
27220
27197
27247
27257
27259
27287
27347
27388
27425
27463
27547
27621
27719
27789
27937
28057
28180
28293
28435
28551
28695
28837
28952
29063
29141
29254
29329
29336
29361
29357
29345
29315
29294
29317
29277
29275
29231
29232
29183
29128
29119
29115
29078
29024
29040
29012
28996
28964
28928
28927
28911
28856
28863
28847
28803
28777
28797
28756
28743
28752
28725
28676
28649
28650
28652
28625
28599
28547
28550
28511
28518
28510
28473
28452
28439
28427
28360
28384
28350
28329
28270
28241
28284
28256
28223
28221
28187
28151
28179
28160
28155
28152
28136
28115
28135
28126
28128
28157
28131
28150
28137
28122
28131
28098
28121
28123
28073
28038
28061
28007
27983
27942
27900
27898
27810
27759
27710
27658
27628
27592
27573
27552
27503
27513
27537
27486
27478
27493
27472
27432
27477
27459
27423
27430
27425
27446
27460
27469
27508
27484
27524
27580
27607
27634
27707
27784
27882
27972
28038
28183
28297
28393
28522
28674
28821
28915
29066
29196
29292
29361
29417
29481
29456
29441
29439
29416
29407
29369
29363
29350
29289
29294
29292
29257
29183
29196
29188
29146
29143
29096
29107
29049
29004
29007
28978
28977
28938
28920
28876
28883
28872
28837
28822
28761
28761
28729
28696
28683
28698
28653
28622
28608
28623
28574
28535
28520
28484
28482
28478
28414
28428
28419
28375
28323
28328
28287
28261
28242
28238
28194
28203
28159
28151
28115
28142
28120
28093
28064
28052
28057
28055
28045
28040
28031
27985
28026
28014
28044
27998
28003
27991
27996
27954
27960
27947
27878
27883
27840
27803
27747
27732
27676
27642
27547
27564
27503
27442
27385
27395
27371
27339
27349
27314
27313
27316
27285
27290
27289
27273
27284
27275
27284
27249
27303
27263
27302
27306
27311
27339
27356
27406
27494
27506
27575
27634
27741
27841
27958
28048
28205
28321
28468
28665
28821
28959
29113
29269
29463
29543
29626
29699
29706
29695
29702
29656
29653
29669
29613
29577
29544
29540
29498
29498
29452
29445
29396
29371
29342
29329
29308
29291
29267
29245
29226
29230
29202
29187
29160
29107
29114
29126
29060
29023
29044
29007
29015
28978
28954
28941
28900
28851
28857
28819
28787
28797
28775
28741
28671
28627
28639
28603
28601
28528
28504
28494
28470
28461
28401
28377
28383
28345
28297
28299
28273
28265
28176
28187
28185
28131
28110
28084
28096
28076
28026
28013
27994
28009
27970
27948
27916
27905
27872
27872
27837
27844
27823
27839
27831
27769
27795
27768
27787
27776
27783
27701
27704
27711
27739
27707
27689
27654
27659
27626
27632
27570
27567
27520
27496
27422
27470
27385
27303
27245
27225
27188
27115
27143
27080
27059
27044
27006
26985
26988
27002
26980
26985
26984
26996
26979
26970
26968
27000
26999
26972
26972
26987
27038
27055
27065
27102
27180
27174
27261
27340
27373
27496
27573
27684
27813
27942
28082
28207
28333
28506
28640
28777
28916
29037
29160
29190
29230
29223
29211
29199
29168
29169
29119
29127
29054
29063
29023
28992
28957
28941
28937
28900
28879
28862
28836
28824
28830
28770
28745
28761
28756
28706
28687
28653
28632
28586
28577
28559
28587
28554
28539
28516
28472
28431
28414
28381
28391
28355
28356
28301
28267
28264
28198
28247
28175
28156
28141
28161
28104
28092
28060
28064
27989
28006
27980
27948
27903
27923
27898
27856
27849
27857
27816
27783
27747
27790
27758
27693
27739
27687
27681
27677
27707
27664
27659
27652
27657
27653
27620
27601
27640
27611
27620
27615
27582
27535
27531
27555
27518
27440
27437
27368
27354
27249
27232
27171
27152
27077
27049
27000
26996
26939
26972
26935
26913
26910
26881
26888
26865
26915
26912
26856
26853
26887
26901
26893
26876
26861
26944
26865
26915
26929
26977
26998
27022
27100
27160
27250
27333
27422
27525
27633
27762
27892
28001
28170
28313
28489
28605
28749
28901
28987
29051
29113
29145
29149
29140
29164
29123
29124
29047
29036
29007
28995
28974
28973
28917
28871
28864
28837
28846
28818
28806
28763
28771
28740
28726
28735
28680
28703
28663
28671
28630
28627
28583
28568
28570
28560
28544
28511
28508
28482
28473
28446
28427
28437
28393
28386
28377
28348
28299
28251
28271
28262
28200
28207
28168
28146
28114
28057
28074
28052
28008
28000
28000
27991
27933
27908
27882
27860
27850
27824
27825
27781
27758
27761
27761
27728
27712
27695
27681
27693
27660
27661
27654
27649
27647
27640
27615
27612
27606
27621
27597
27586
27579
27520
27487
27454
27404
27404
27349
27291
27262
27192
27177
27131
27093
27073
27016
26991
26994
26948
27000
26987
26966
26966
26934
26953
26958
26944
26938
26957
26939
26946
26957
26966
26951
26991
27021
27063
27071
27165
27210
27238
27355
27454
27565
27641
27767
27909
28022
28153
28295
28449
28583
28700
28827
28929
28961
29017
29070
29056
29043
29047
29016
29017
29001
28984
28988
28916
28944
28899
28914
28853
28832
28818
28807
28747
28767
28739
28687
28661
28668
28630
28609
28620
28580
28589
28563
28524
28537
28515
28468
28460
28426
28393
28329
28355
28378
28333
28276
28277
28231
28186
28158
28176
28148
28106
28122
28072
28057
28008
28030
28019
27981
27926
27952
27926
27891
27889
27860
27826
27838
27874
27856
27847
27824
27794
27841
27827
27801
27788
27820
27789
27780
27788
27797
27784
27751
27767
27772
27691
27687
27632
27603
27579
27535
27479
27431
27381
27361
27293
27241
27177
27158
27120
27149
27106
27128
27074
27076
27078
27098
27083
27065
27075
27062
27056
27038
27042
27054
27047
27057
27044
27098
27103
27183
27234
27264
27304
27393
27469
27576
27674
27748
27888
28062
28178
28285
28448
28587
28720
28849
28949
28990
29079
29097
29086
29105
29070
29075
29040
29022
29016
29022
28972
28926
28924
28893
28833
28843
28845
28785
28753
28739
28716
28692
28662
28632
28640
28576
28561
28563
28536
28500
28492
28472
28449
28460
28386
28374
28307
28348
28317
28277
28270
28257
28224
28223
28149
28169
28143
28130
28092
28070
28038
27991
27965
27965
27980
27925
27899
27870
27845
27823
27802
27799
27765
27746
27703
27730
27743
27741
27705
27698
27687
27670
27694
27665
27636
27669
27655
27624
27622
27626
27622
27611
27566
27589
27548
27549
27548
27484
27469
27442
27401
27363
27320
27281
27231
27198
27132
27064
27035
27011
26970
26940
26945
26933
26925
26900
26909
26860
26850
26848
26858
26876
26842
26827
26877
26846
26848
26855
26838
26863
26882
26935
26981
26999
27077
27107
27194
27243
27348
27433
27595
27721
27807
27971
28125
28300
28382
28565
28673
28843
28896
28987
29035
29058
29087
29047
29024
29022
29013
29000
28954
28981
28949
28877
28880
28893
28837
28816
28813
28826
28764
28726
28737
28710
28686
28668
28647
28607
28579
28535
28564
28529
28527
28507
28517
28448
28470
28433
28426
28376
28333
28331
28323
28265
28264
28213
28213
28201
28160
28150
28103
28087
28058
28032
28018
28001
27937
27939
27887
27876
27846
27834
27783
27789
27777
27749
27746
27738
27686
27723
27699
27695
27664
27646
27658
27654
27651
27602
27623
27612
27603
27607
27593
27616
27576
27538
27539
27522
27490
27421
27407
27339
27333
27269
27219
27152
27085
27034
27035
27020
27014
26935
26918
26917
26907
26872
26863
26850
26822
26840
26832
26833
26830
26834
26818
26818
26818
26832
26796
26822
26854
26880
26920
26963
27009
27019
27135
27236
27300
27375
27512
27640
27741
27839
28010
28177
28275
28433
28551
28714
28798
28865
28901
28961
28963
28964
28943
28923
28894
28868
28867
28869
28813
28806
28761
28742
28708
28646
28681
28600
28625
28605
28571
28543
28550
28508
28482
28455
28433
28406
28441
28367
28367
28345
28346
28292
28304
28275
28244
28225
28222
28212
28169
28196
28153
28137
28064
28020
28022
28020
27987
27988
27970
27916
27891
27861
27877
27834
27789
27855
27773
27777
27800
27764
27739
27747
27741
27751
27729
27750
27774
27714
27718
27738
27754
27719
27695
27731
27722
27709
27685
27677
27675
27627
27614
27577
27494
27481
27463
27402
27352
27306
27242
27241
27190
27138
27121
27149
27099
27090
27082
27082
27042
27079
27036
27025
26980
27021
27032
27004
27000
26987
27006
27025
27044
27040
27096
27111
27171
27248
27298
27367
27514
27590
27699
27794
27950
28058
28190
28342
28435
28557
28732
28836
28898
28998
29010
29028
29060
29047
29043
29062
29015
28959
28987
28950
28951
28918
28909
28877
28864
28814
28811
28805
28750
28733
28783
28723
28675
28647
28650
28645
28586
28578
28587
28569
28454
28491
28453
28442
28393
28410
28418
28356
28298
28323
28276
28260
28224
28227
28204
28166
28173
28136
28089
28096
28083
28042
27998
27982
27953
27947
27924
27892
27906
27856
27815
27831
27808
27823
27824
27789
27780
27784
27760
27758
27733
27746
27723
27750
27745
27709
27699
27704
27656
27630
27685
27626
27562
27504
27483
27430
27417
27389
27336
27266
27204
27191
27146
27071
27079
27044
27018
27008
26990
26972
26948
26916
26922
26930
26939
26885
26904
26875
26889
26881
26908
26884
26887
26916
26951
26964
26980
27008
27090
27112
27182
27277
27375
27450
27593
27690
27860
27980
28087
28282
28442
28549
28685
28808
28952
29039
29080
29144
29115
29090
29135
29113
29095
29065
29038
29058
29014
29015
28977
28952
28895
28855
28861
28833
28798
28821
28750
28788
28744
28731
28724
28685
28661
28670
28654
28608
28596
28561
28558
28569
28531
28549
28450
28465
28499
28423
28381
28346
28371
28333
28287
28253
28210
28210
28160
28148
28152
28100
28057
28047
28070
27998
27969
27967
27924
27893
27873
27859
27856
27820
27771
27805
27744
27738
27720
27703
27682
27637
27644
27644
27595
27589
27612
27583
27578
27532
27540
27528
27520
27544
27523
27549
27513
27500
27493
27481
27457
27471
27398
27418
27383
27369
27310
27277
27228
27263
27189
27150
27105
27030
27012
26925
26927
26896
26870
26817
26814
26806
26764
26796
26793
26786
26735
26768
26753
26754
26774
26716
26731
26708
26750
26716
26748
26738
26781
26836
26841
26866
26915
26979
27034
27146
27245
27365
27470
27584
27724
27858
28038
28184
28314
28455
28607
28753
28867
28910
28987
28964
29001
29001
28995
28993
28962
28976
28930
28916
28880
28828
28827
28801
28789
28758
28763
28710
28733
28669
28668
28631
28635
28597
28575
28534
28549
28539
28500
28460
28474
28422
28417
28383
28342
28333
28335
28279
28291
28235
28222
28214
28187
28164
28155
28082
28108
28097
28042
28010
28018
27980
27940
27940
27926
27897
27861
27844
27812
27809
27779
27740
27750
27725
27715
27681
27685
27604
27634
27612
27619
27579
27652
27600
27608
27603
27571
27599
27567
27584
27579
27582
27550
27540
27518
27555
27492
27461
27443
27374
27377
27322
27271
27244
27201
27090
27083
27030
27038
26946
26942
26877
26865
26865
26812
26828
26822
26828
26783
26808
26741
26762
26733
26753
26733
26753
26741
26741
26757
26746
26793
26829
26861
26897
26948
27017
27150
27181
27272
27350
27502
27605
27768
27895
28014
28135
28281
28415
28515
28613
28708
28777
28768
28788
28788
28776
28762
28777
28737
28733
28672
28638
28611
28580
28573
28553
28550
28534
28477
28481
28452
28410
28393
28360
28361
28327
28319
28301
28319
28247
28253
28232
28223
28240
28181
28210
28173
28131
28142
28105
28106
28049
28048
28007
28008
27992
27997
27966
27952
27935
27906
27883
27853
27863
27812
27806
27773
27793
27782
27753
27768
27739
27723
27717
27714
27723
27705
27718
27699
27711
27686
27694
27683
27698
27677
27680
27712
27673
27676
27665
27661
27622
27546
27519
27508
27470
27424
27364
27297
27245
27226
27159
27138
27093
27051
27064
27025
27040
27022
26989
26996
26990
26971
26931
26914
26966
26915
26900
26932
26947
26939
26922
26959
26974
27004
27036
27120
27167
27193
27287
27385
27467
27582
27721
27800
27967
28059
28246
28367
28481
28615
28741
28857
28945
28962
28977
28975
29003
28979
29015
28987
28947
28939
28907
28880
28851
28886
28849
28779
28798
28779
28749
28711
28721
28660
28678
28679
28659
28618
28617
28590
28563
28568
28526
28506
28435
28463
28427
28406
28414
28356
28327
28313
28325
28284
28269
28243
28224
28206
28199
28191
28162
28118
28112
28082
28057
28025
28032
28035
27992
27960
27938
27911
27894
27882
27854
27834
27802
27792
27833
27809
27771
27769
27741
27724
27735
27689
27733
27705
27678
27719
27682
27691
27653
27692
27670
27629
27641
27625
27573
27577
27558
27522
27485
27434
27399
27337
27314
27259
27190
27176
27085
27071
27020
27008
26953
26947
26930
26933
26905
26922
26898
26889
26881
26862
26892
26850
26808
26816
26845
26841
26844
26840
26862
26916
26949
26952
26996
27036
27133
27197
27259
27390
27486
27589
27749
27861
28005
28134
28284
28460
28570
28702
28804
28896
29001
29001
29013
29036
29016
28950
28947
28936
28892
28878
28867
28827
28821
28778
28776
28747
28688
28689
28651
28633
28589
28594
28565
28529
28503
28478
28459
28423
28404
28401
28364
28354
28331
28290
28281
28217
28218
28198
28183
28159
28124
28095
28055
28040
28039
28031
27981
27932
27932
27922
27882
27862
27850
27828
27812
27781
27754
27727
27693
27669
27667
27622
27607
27591
27602
27588
27549
27543
27520
27524
27529
27506
27491
27451
27495
27479
27507
27474
27516
27510
27494
27506
27496
27522
27485
27480
27454
27422
27406
27381
27375
27310
27278
27258
27219
27180
27139
27082
27038
27000
26957
26909
26895
26882
26888
26787
26810
26791
26798
26805
26781
26786
26801
26787
26782
26795
26780
26768
26750
26780
26811
26779
26855
26839
26891
26933
26974
27038
27107
27211
27299
27363
27520
27633
27776
27938
28057
28194
28316
28461
28586
28710
28832
28904
28927
28953
28981
28974
28956
28945
28950
28902
28863
28851
28841
28799
28806
28766
28790
28725
28718
28677
28673
28665
28626
28619
28578
28558
28545
28518
28492
28486
28476
28460
28401
28414
28366
28368
28332
28329
28298
28299
28236
28266
28233
28178
28200
28202
28179
28081
28096
28094
28050
28026
28001
27985
27954
27950
27931
27956
27859
27849
27856
27863
27822
27800
27783
27796
27787
27749
27780
27780
27741
27761
27755
27712
27729
27751
27744
27717
27709
27727
27752
27701
27708
27720
27698
27622
27633
27587
27599
27494
27503
27444
27360
27321
27286
27246
27176
27151
27137
27094
27086
27029
27053
27020
26998
26993
26954
26967
26960
26931
26974
26898
26907
26938
26942
26930
26942
26945
26963
26972
26996
27058
27137
27196
27248
27353
27420
27523
27637
27765
27894
28026
28162
28317
28438
28569
28704
28810
28841
28906
28929
28942
28929
28961
28904
28896
28872
28819
28813
28825
28796
28757
28730
28751
28655
28690
28686
28635
28661
28650
28580
28565
28562
28521
28515
28477
28504
28449
28447
28431
28426
28375
28348
28354
28344
28303
28294
28325
28270
28265
28242
28229
28192
28203
28167
28145
28138
28128
28084
28065
28069
28068
28031
28037
27981
27955
27964
27964
27951
27963
27972
27916
27949
27943
27916
27913
27900
27901
27929
27900
27903
27949
27911
27915
27897
27901
27889
27842
27857
27843
27786
27783
27741
27663
27639
27596
27581
27509
27463
27405
27375
27316
27323
27305
27250
27268
27222
27217
27168
27178
27226
27177
27164
27132
27099
27123
27051
27081
27132
27144
27119
27136
27171
27222
27267
27339
27434
27507
27645
27728
27846
27960
28105
28253
28386
28531
28669
28789
28944
29080
29174
29236
29292
29254
29308
29312
29282
29277
29256
29232
29216
29195
29182
29146
29149
29061
29107
29057
29053
29012
28976
28971
28942
28947
28933
28867
28865
28858
28813
28744
28756
28744
28706
28675
28658
28642
28578
28560
28581
28528
28484
28453
28438
28413
28383
28372
28320
28366
28285
28267
28244
28219
28205
28190
28146
28094
28104
28070
28046
28019
27997
27989
27958
27933
27910
27869
27876
27857
27830
27808
27807
27808
27787
27782
27766
27744
27733
27734
27729
27731
27735
27687
27699
27696
27711
27671
27678
27695
27683
27623
27600
27606
27562
27514
27484
27438
27386
27322
27316
27262
27195
27188
27146
27102
27088
27067
27056
27037
27028
27014
27033
27001
26997
27005
26995
26996
27010
27021
27039
26994
27015
27018
27049
27032
27062
27117
27097
27189
27228
27294
27383
27472
27577
27706
27807
27932
28084
28215
28355
28527
28710
28896
29049
29243
29374
29432
29524
29579
29556
29537
29531
29518
29494
29486
29455
29447
29393
29364
29319
29330
29300
29229
29251
29254
29142
29176
29134
29143
29130
29086
29078
29032
29077
29034
28999
28951
28961
28924
28893
28877
28856
28825
28806
28780
28700
28688
28580
28565
28578
28522
28442
28406
28368
28354
28332
28284
28235
28223
28152
28164
28090
28065
28030
27976
27976
27954
27923
27891
27840
27827
27793
27768
27754
27724
27736
27691
27648
27636
27600
27629
27581
27536
27508
27532
27504
27502
27493
27488
27457
27454
27508
27450
27450
27461
27489
27458
27436
27470
27447
27469
27438
27447
27417
27390
27401
27376
27319
27310
27291
27265
27216
27154
27114
27079
27029
27005
26955
26915
26815
26840
26805
26781
26768
26757
26761
26737
26747
26700
26674
26701
26696
26708
26669
26679
26705
26724
26661
26693
26737
26718
26718
26793
26789
26879
26897
26908
27034
27156
27199
27343
27456
27570
27713
27879
28021
28190
28312
28463
28627
28737
28840
28960
28978
29060
29039
29064
29080
29045
29035
28996
28977
28945
28937
28926
28880
28860
28823
28822
28777
28738
28732
28682
28706
28644
28697
28640
28627
28606
28589
28542
28534
28523
28506
28503
28465
28406
28418
28359
28375
28356
28353
28308
28324
28301
28262
28232
28209
28200
28150
28169
28149
28126
28060
28049
28082
27999
27988
27953
27948
27907
27875
27855
27845
27794
27765
27772
27744
27714
27745
27742
27694
27667
27669
27663
27628
27637
27618
27645
27629
27587
27580
27589
27568
27587
27581
27572
27589
27573
27562
27552
27526
27484
27491
27435
27417
27378
27341
27287
27240
27159
27129
27111
27064
27011
26961
26941
26929
26905
26889
26823
26822
26830
26808
26807
26758
26791
26727
26720
26748
26728
26788
26751
26747
26727
26751
26781
26786
26802
26909
26961
26990
27055
27165
27311
27377
27506
27654
27796
27892
28037
28181
28321
28467
28560
28727
28780
28842
28885
28914
28916
28860
28874
28845
28855
28823
28793
28776
28776
28726
28740
28693
28711
28658
28631
28617
28597
28599
28560
28490
28510
28504
28457
28429
28431
28377
28384
28347
28339
28327
28277
28292
28281
28263
28230
28191
28177
28147
28167
28112
28079
28063
28046
28018
28026
27964
27977
27987
27952
27933
27936
27914
27886
27877
27863
27832
27822
27788
27774
27819
27816
27763
27772
27807
27759
27780
27775
27776
27765
27800
27812
27821
27782
27800
27775
27790
27748
27742
27748
27696
27657
27665
27599
27547
27497
27477
27447
27369
27304
27255
27227
27165
27168
27125
27117
27106
27082
27058
27015
27067
27001
27029
26990
27031
27010
26993
26996
26997
27006
27013
26988
27041
27056
27054
27127
27191
27206
27263
27347
27460
27584
27651
27801
27920
28048
28191
28350
28486
28645
28716
28851
28944
29059
29072
29116
29131
29095
29133
29127
29108
29058
29052
29018
28988
28987
28941
28934
28891
28845
28883
28834
28794
28783
28797
28752
28700
28709
28679
28666
28673
28650
28612
28605
28570
28558
28553
28475
28464
28456
28406
28428
28392
28358
28353
28307
28313
28265
28264
28203
28177
28172
28140
28121
28074
28080
28057
28057
27984
27987
27957
27935
27892
27862
27858
27826
27820
27804
27786
27775
27732
27750
27735
27705
27708
27731
27701
27703
27697
27675
27721
27728
27671
27665
27695
27656
27675
27640
27628
27614
27587
27592
27558
27519
27465
27450
27372
27342
27276
27247
27181
27111
27067
27038
27000
26962
26955
26903
26873
26846
26833
26844
26806
26820
26843
26814
26796
26811
26805
26756
26795
26799
26801
26822
26843
26841
26884
26902
26949
27003
27070
27147
27209
27335
27446
27544
27717
27867
27969
28138
28288
28443
28549
28677
28825
28890
28981
29063
29059
29064
29086
29086
29068
29026
28985
28991
28943
28932
28891
28881
28836
28796
28797
28778
28756
28729
28673
28689
28629
28597
28616
28574
28556
28533
28519
28507
28477
28480
28478
28425
28396
28394
28368
28342
28328
28279
28291
28244
28213
28221
28190
28154
28145
28157
28073
28079
28066
28046
27965
27944
27970
27969
27913
27878
27848
27838
27788
27787
27763
27746
27746
27695
27678
27672
27656
27638
27674
27645
27611
27610
27587
27549
27580
27577
27566
27559
27567
27559
27533
27507
27508
27522
27483
27478
27450
27416
27374
27398
27349
27305
27288
27218
27186
27150
27084
27044
27034
26956
26902
26862
26839
26831
26815
26791
26758
26775
26769
26743
26735
26703
26741
26730
26701
26676
26711
26731
26660
26722
26709
26768
26747
26802
26836
26865
26922
26998
27109
27143
27245
27412
27524
27636
27767
27912
28044
28191
28323
28421
28589
28712
28817
28857
28929
28949
28961
28983
28921
28966
28942
28906
28887
28868
28851
28822
28833
28779
28768
28749
28729
28706
28681
28663
28660
28658
28630
28600
28590
28601
28573
28571
28537
28497
28449
28431
28404
28437
28373
28425
28387
28348
28326
28325
28290
28238
28204
28233
28232
28171
28168
28141
28134
28096
28105
28083
28066
28034
28017
27995
27950
27947
27968
27930
27884
27896
27888
27851
27848
27850
27885
27819
27812
27814
27846
27786
27802
27830
27804
27787
27760
27813
27791
27737
27762
27757
27730
27699
27714
27671
27663
27616
27577
27574
27483
27467
27407
27399
27293
27271
27225
27207
27168
27137
27100
27040
27065
27073
27053
27020
27008
27011
26968
26969
26960
26950
26920
26918
26943
26944
26944
27004
27015
27024
27083
27125
27192
27270
27344
27447
27569
27682
27784
27877
28023
28133
28273
28390
28533
28638
28728
28779
28857
28895
28887
28900
28893
28865
28879
28871
28798
28828
28790
28779
28763
28708
28715
28676
28682
28623
28605
28620
28574
28580
28523
28510
28486
28444
28456
28475
28457
28401
28404
28403
28369
28345
28303
28305
28306
28259
28266
28238
28246
28200
28190
28208
28144
28138
28127
28098
28114
28074
28039
27981
27993
27989
28018
27940
27939
27919
27883
27919
27884
27872
27893
27927
27894
27841
27870
27882
27872
27910
27897
27869
27889
27869
27876
27878
27868
27870
27859
27834
27805
27783
27756
27738
27703
27636
27610
27529
27463
27466
27420
27355
27341
27288
27279
27235
27232
27208
27214
27169
27161
27167
27152
27120
27140
27116
27112
27139
27115
27151
27154
27165
27224
27269
27275
27357
27459
27489
27591
27672
27840
27879
28031
28158
28260
28369
28485
28669
28731
28795
28874
28939
28969
28968
29006
28969
28973
28927
28928
28897
28867
28849
28864
28832
28813
28766
28732
28745
28667
28713
28676
28616
28624
28581
28571
28479
28513
28484
28474
28428
28388
28408
28383
28362
28385
28324
28285
28275
28232
28259
28216
28210
28201
28136
28114
28085
28119
28073
28066
28017
27981
27947
27930
27912
27877
27858
27834
27842
27840
27783
27747
27738
27715
27755
27681
27675
27649
27642
27668
27627
27609
27601
27581
27610
27578
27570
27607
27596
27574
27567
27567
27570
27549
27551
27506
27501
27466
27478
27426
27387
27325
27303
27239
27178
27177
27151
27065
27037
27012
26964
26935
26915
26885
26872
26842
26823
26852
26808
26801
26826
26813
26766
26781
26782
26816
26783
26833
26847
26821
26810
26902
26921
26969
27016
27122
27197
27292
27338
27476
27595
27701
27823
27973
28101
28244
28368
28477
28626
28691
28805
28836
28889
28895
28924
28912
28885
28866
28842
28832
28798
28802
28779
28718
28712
28722
28665
28690
28637
28638
28643
28622
28596
28601
28544
28499
28496
28498
28459
28443
28437
28410
28375
28377
28317
28316
28300
28246
28282
28254
28218
28199
28192
28141
28141
28120
28125
28054
28036
28015
28053
28005
27952
27947
27955
27873
27881
27873
27834
27801
27775
27783
27745
27700
27702
27704
27639
27633
27601
27608
27552
27547
27549
27528
27506
27496
27525
27462
27460
27456
27429
27410
27447
27422
27410
27413
27427
27407
27421
27376
27364
27381
27380
27375
27327
27283
27298
27230
27276
27203
27173
27142
27132
27100
27049
26988
26937
26915
26870
26829
26761
26761
26702
26717
26689
26653
26632
26630
26631
26595
26597
26624
26634
26630
26611
26607
26620
26628
26673
26637
26666
26728
26715
26743
26791
26823
26900
26975
27040
27181
27261
27396
27465
27656
27807
27900
28075
28166
28337
28462
28573
28658
28732
28754
28810
28813
28800
28788
28806
28783
28741
28703
28688
28667
28647
28602
28590
28541
28525
28497
28500
28404
28429
28394
28393
28353
28364
28329
28310
28282
28257
28265
28227
28247
28203
28147
28151
28122
28122
28105
28048
28030
28032
28016
27947
27990
27962
27906
27908
27882
27892
27831
27835
27802
27793
27758
27697
27720
27676
27632
27614
27593
27599
27584
27568
27555
27511
27521
27507
27498
27462
27459
27501
27419
27401
27419
27435
27414
27438
27404
27416
27386
27374
27352
27345
27323
27319
27286
27226
27197
27185
27168
27143
27076
27038
27003
26924
26894
26874
26843
26798
26764
26717
26748
26696
26725
26706
26680
26696
26676
26685
26665
26673
26672
26656
26668
26664
26658
26695
26665
26705
26747
26749
26786
26879
26932
26977
27053
27125
27236
27323
27446
27576
27723
27835
27990
28145
28295
28387
28540
28641
28773
28847
28896
28924
28939
28967
28966
28936
28884
28893
28884
28831
28805
28777
28766
28747
28686
28685
28658
28623
28606
28587
28580
28562
28510
28533
28488
28422
28452
28455
28425
28412
28392
28397
28360
28317
28330
28289
28276
28262
28235
28232
28166
28152
28158
28113
28093
28109
28049
28040
28017
27965
27968
27940
27929
27923
27886
27873
27844
27842
27810
27765
27777
27763
27768
27739
27756
27736
27714
27712
27730
27721
27697
27687
27705
27689
27672
27661
27684
27640
27631
27616
27608
27601
27545
27514
27491
27434
27415
27361
27297
27258
27204
27187
27116
27092
27068
27047
27033
26981
26990
26948
26926
26955
26946
26922
26874
26904
26898
26915
26864
26876
26904
26913
26918
26955
26980
27048
27123
27132
27257
27283
27424
27540
27603
27760
27863
28056
28124
28272
28423
28532
28602
28734
28785
28838
28853
28903
28901
28896
28903
28882
28874
28819
28828
28803
28813
28713
28721
28727
28730
28674
28671
28643
28629
28607
28555
28563
28541
28508
28527
28501
28441
28480
28481
28455
28454
28462
28425
28408
28397
28371
28389
28339
28348
28308
28299
28280
28253
28219
28186
28168
28183
28132
28153
28131
28080
28103
28076
28062
28081
28070
28064
28027
28051
28041
28045
28069
28080
28064
28010
28034
28048
28034
28023
28040
28023
28006
27977
27970
27941
27904
27858
27877
27818
27748
27735
27684
27633
27576
27545
27523
27474
27422
27424
27433
27375
27323
27324
27331
27277
27240
27274
27217
27202
27194
27218
27228
27208
27213
27226
27255
27296
27337
27400
27426
27498
27574
27662
27734
27853
27988
28050
28220
28350
28460
28557
28718
28850
28925
29011
29065
29110
29138
29120
29134
29122
29148
29084
29080
29029
29000
28979
28982
28967
28959
28896
28863
28840
28824
28821
28788
28753
28732
28714
28744
28676
28673
28623
28616
28548
28511
28531
28495
28509
28455
28464
28460
28386
28402
28347
28330
28351
28309
28288
28244
28235
28175
28173
28109
28108
28105
28049
28009
28027
27983
27988
27979
27945
27928
27880
27897
27848
27861
27796
27844
27857
27825
27824
27851
27806
27799
27808
27819
27836
27817
27792
27805
27765
27744
27742
27770
27693
27667
27626
27634
27597
27528
27483
27446
27396
27351
27304
27246
27174
27146
27146
27084
27040
27048
27032
26993
26997
26965
26963
26899
26900
26927
26923
26923
26934
26916
26950
26924
26945
26990
26983
27043
27061
27144
27157
27217
27351
27421
27501
27629
27777
27880
27978
28100
28282
28414
28579
28659
28834
28857
29013
29062
29086
29089
29138
29111
29062
29076
29063
29000
28957
28956
28873
28880
28814
28800
28771
28729
28725
28667
28662
28610
28623
28569
28583
28548
28561
28505
28517
28417
28451
28423
28403
28351
28334
28322
28325
28255
28229
28253
28207
28196
28161
28189
28134
28134
28100
28085
28083
28029
28015
27971
27914
27936
27903
27865
27848
27839
27826
27779
27749
27722
27738
27718
27671
27646
27636
27589
27592
27627
27553
27543
27536
27545
27520
27486
27473
27469
27452
27462
27500
27441
27446
27436
27464
27414
27404
27394
27369
27365
27359
27341
27275
27276
27212
27203
27118
27118
27065
27033
26959
26915
26881
26840
26770
26742
26726
26731
26708
26683
26685
26669
26645
26643
26672
26617
26632
26680
26688
26649
26659
26642
26712
26722
26732
26794
26774
26828
26875
26924
26997
27091
27168
27260
27365
27455
27629
27744
27894
28067
28217
28361
28491
28626
28716
28817
28895
28978
28972
28980
28981
28967
28954
28935
28896
28905
28882
28825
28824
28825
28762
28731
28716
28717
28687
28663
28625
28622
28629
28577
28603
28579
28537
28534
28513
28511
28444
28486
28450
28434
28403
28410
28328
28278
28288
28261
28259
28225
28204
28190
28184
28130
28117
28089
28017
28036
28023
28013
27960
27930
27885
27848
27845
27809
27840
27805
27776
27762
27721
27697
27657
27651
27620
27589
27597
27629
27581
27513
27545
27512
27505
27494
27474
27464
27466
27458
27486
27450
27443
27451
27436
27465
27425
27408
27365
27337
27337
27324
27300
27251
27178
27176
27138
27090
27050
27001
26944
26887
26856
26838
26796
26773
26783
26763
26766
26745
26757
26782
26731
26760
26748
26733
26752
26754
26762
26780
26763
26787
26787
26814
26872
26877
26919
26954
27016
27069
27135
27206
27331
27422
27540
27655
27773
27906
28026
28188
28361
28516
28615
28773
28832
28941
29031
29028
29026
29042
29029
29013
28978
29003
28948
28926
28908
28856
28831
28844
28832
28786
28779
28763
28761
28717
28719
28706
28689
28690
28659
28626
28548
28559
28540
28501
28486
28467
28438
28438
28436
28427
28401
28387
28330
28312
28316
28286
28266
28236
28210
28187
28151
28141
28134
28115
28089
28088
28031
27980
27994
27995
27969
27915
27949
27938
27915
27900
27898
27903
27882
27854
27868
27821
27835
27823
27820
27795
27797
27806
27787
27803
27780
27776
27748
27715
27769
27733
27687
27653
27643
27594
27563
27500
27490
27437
27364
27343
27275
27235
27224
27182
27175
27102
27071
27075
27065
27050
27021
27067
27070
27043
27020
27037
27033
27005
27007
27037
27050
27025
27047
27108
27131
27130
27190
27256
27305
27343
27439
27520
27633
27690
27814
27924
28065
28203
28347
28480
28584
28738
28846
28923
29024
29131
29162
29145
29181
29191
29164
29126
29100
29108
29082
29063
29058
28976
28939
28957
28913
28888
28877
28846
28820
28767
28778
28757
28727
28715
28692
28677
28679
28632
28638
28577
28568
28535
28540
28532
28478
28477
28432
28431
28392
28367
28338
28338
28317
28271
28255
28223
28166
28160
28130
28094
28041
28038
28003
27991
27961
27941
27925
27898
27912
27872
27901
27837
27832
27830
27800
27826
27830
27820
27822
27774
27819
27774
27786
27776
27765
27794
27764
27734
27712
27697
27724
27665
27647
27647
27604
27559
27549
27471
27426
27357
27326
27274
27235
27204
27193
27141
27085
27088
27044
27052
27028
27053
27003
27000
27011
27013
26994
26988
26968
26983
26963
26951
26958
27009
27004
27039
27072
27093
27160
27198
27281
27302
27410
27488
27596
27703
27796
27947
28090
28234
28418
28542
28731
28840
29022
29138
29240
29315
29375
29408
29422
29413
29409
29414
29387
29312
29312
29278
29271
29243
29194
29176
29185
29148
29154
29070
29095
29070
29012
29025
28996
29001
28985
28923
28956
28925
28925
28876
28817
28827
28779
28778
28763
28738
28690
28720
28673
28599
28650
28581
28571
28532
28534
28572
28508
28505
28459
28414
28424
28381
28380
28340
28339
28265
28257
28299
28246
28215
28225
28189
28176
28171
28164
28152
28124
28088
28100
28087
28046
28060
28049
28050
28022
28024
28012
28031
28032
27986
27995
28018
28025
28020
27957
27950
27942
27973
27921
27941
27895
27896
27911
27891
27888
27819
27814
27810
27759
27699
27641
27605
27535
27512
27401
27350
27339
27271
27245
27232
27187
27167
27137
27144
27078
27088
27082
27074
27046
27028
27014
27033
27020
27035
27040
27069
27067
27014
27065
27071
27057
27071
27086
27140
27128
27185
27270
27372
27448
27554
27627
27778
27889
28045
28188
28345
28474
28667
28759
28918
29037
29140
29210
29234
29304
29274
29260
29279
29266
29205
29226
29182
29165
29094
29098
29014
28987
28960
28935
28920
28882
28850
28814
28803
28780
28764
28775
28704
28685
28695
28670
28631
28552
28567
28531
28543
28506
28512
28509
28481
28459
28442
28445
28447
28370
28377
28351
28323
28320
28267
28308
28206
28222
28221
28183
28191
28153
28143
28125
28077
28053
28032
28010
27978
27990
27976
27920
27907
27907
27898
27814
27793
27771
27785
27748
27740
27707
27679
27684
27676
27674
27638
27641
27680
27677
27591
27619
27617
27632
27594
27575
27577
27534
27545
27489
27448
27440
27401
27356
27311
27290
27243
27203
27161
27082
27055
27007
26977
26941
26912
26893
26883
26869
26850
26838
26837
26830
26848
26838
26834
26814
26842
26806
26826
26828
26841
26828
26865
26861
26914
26949
26996
27035
27141
27159
27293
27371
27506
27550
27741
27868
27988
28154
28266
28415
28584
28659
28762
28840
28899
28989
29009
29007
28989
28960
28995
28942
28924
28911
28917
28866
28851
28830
28801
28806
28796
28744
28741
28684
28718
28679
28645
28646
28639
28649
28564
28580
28587
28554
28559
28539
28512
28506
28455
28488
28432
28434
28373
28385
28403
28352
28312
28299
28289
28237
28224
28210
28184
28121
28171
28133
28108
28062
28051
28043
28025
27993
27955
27941
27964
27928
27892
27878
27842
27830
27828
27783
27820
27815
27781
27790
27739
27795
27817
27797
27773
27768
27776
27768
27766
27772
27727
27712
27699
27673
27679
27636
27605
27577
27488
27469
27450
27407
27347
27285
27240
27167
27198
27146
27114
27114
27070
27084
27081
27049
27038
27036
27013
27012
27034
26980
26972
26999
26951
27005
26972
27000
26983
27036
27043
27064
27116
27127
27183
27299
27352
27419
27527
27655
27786
27919
28079
28210
28392
28539
28722
28861
29015
29150
29281
29342
29405
29418
29445
29433
29412
29387
29374
29336
29308
29285
29284
29241
29196
29173
29197
29119
29132
29079
29089
29045
29020
29024
28972
28975
28925
28921
28907
28869
28886
28866
28836
28786
28809
28807
28745
28755
28731
28724
28664
28689
28680
28637
28593
28591
28600
28569
28528
28520
28520
28487
28432
28428
28410
28394
28362
28323
28324
28279
28240
28218
28203
28175
28151
28163
28120
28121
28094
28022
28010
28000
27979
27953
27919
27915
27903
27818
27812
27831
27797
27751
27741
27745
27722
27719
27664
27647
27656
27597
27612
27593
27591
27544
27537
27554
27504
27492
27522
27517
27512
27515
27512
27479
27480
27427
27461
27423
27398
27394
27333
27301
27236
27218
27147
27080
27019
27021
26958
26891
26899
26866
26848
26817
26819
26792
26769
26756
26704
26752
26746
26743
26727
26706
26680
26695
26739
26766
26749
26778
26807
26799
26829
26875
26895
26907
26937
27014
27122
27162
27259
27345
27481
27570
27715
27862
28035
28175
28362
28486
28616
28747
28889
28990
29066
29145
29172
29188
29158
29168
29139
29128
29065
29093
29041
28980
29007
28956
28943
28934
28901
28905
28897
28871
28854
28865
28842
28824
28803
28845
28795
28786
28748
28763
28701
28706
28677
28646
28648
28611
28596
28576
28527
28496
28490
28471
28441
28429
28404
28373
28321
28301
28304
28248
28253
28179
28210
28141
28123
28080
28047
28045
27986
27940
27934
27913
27887
27871
27811
27783
27776
27745
27693
27682
27678
27646
27623
27587
27575
27551
27548
27522
27472
27528
27486
27455
27417
27395
27398
27398
27352
27362
27357
27379
27363
27343
27334
27356
27366
27362
27310
27337
27335
27283
27269
27203
27194
27197
27157
27087
27104
27034
27017
26910
26881
26830
26800
26778
26729
26665
26672
26671
26667
26633
26594
26566
26632
26615
26584
26579
26594
26618
26581
26618
26637
26626
26614
26594
26655
26653
26669
26737
26777
26810
26916
26982
27026
27130
27246
27346
27500
27597
27750
27907
28045
28220
28366
28500
28599
28694
28788
28852
28889
28855
28875
28839
28863
28849
28815
28786
28764
28758
28743
28682
28656
28691
28664
28576
28598
28566
28571
28535
28498
28537
28453
28444
28431
28427
28389
28346
28360
28342
28341
28312
28300
28264
28230
28206
28196
28145
28118
28102
28102
28097
28049
28056
28054
27990
27984
27985
27931
27933
27906
27896
27879
27819
27788
27811
27751
27732
27707
27706
27634
27630
27632
27641
27599
27576
27590
27556
27561
27532
27522
27519
27493
27508
27487
27458
27463
27472
27456
27459
27449
27487
27460
27442
27457
27419
27423
27386
27402
27351
27311
27256
27273
27204
27172
27169
27067
27037
26974
26954
26916
26897
26864
26858
26827
26808
26818
26820
26776
26809
26798
26772
26748
26756
26779
26784
26764
26794
26740
26803
26788
26776
26862
26884
26909
26973
27048
27087
27190
27234
27369
27462
27553
27684
27864
27982
28111
28251
28361
28492
28600
28705
28799
28860
28925
28940
28955
28944
28948
28904
28902
28879
28869
28863
28834
28840
28792
28791
28747
28747
28712
28725
28701
28686
28668
28629
28600
28607
28606
28563
28549
28541
28525
28489
28504
28478
28459
28463
28423
28392
28360
28301
28337
28304
28264
28265
28231
28198
28174
28164
28155
28129
28097
28089
28072
28040
28065
28024
27985
27989
27983
27954
27933
27905
27911
27879
27878
27808
27801
27740
27726
27721
27688
27676
27644
27661
27640
27573
27563
27541
27569
27548
27523
27524
27515
27488
27456
27507
27468
27466
27483
27506
27454
27452
27430
27457
27425
27415
27378
27333
27295
27271
27272
27216
27208
27158
27091
27070
26996
26971
26933
26890
26871
26857
26820
26800
26799
26776
26756
26756
26748
26766
26772
26734
26773
26782
26781
26791
26771
26790
26746
26713
26827
26823
26797
26830
26927
26935
26954
27056
27121
27185
27277
27434
27539
27680
27807
27945
28098
28233
28395
28520
28682
28737
28896
29007
29015
29065
29095
29073
29046
29030
29051
29036
28970
28934
28938
28913
28838
28836
28787
28784
28745
28755
28689
28698
28651
28621
28690
28596
28598
28581
28595
28525
28524
28530
28525
28464
28448
28406
28409
28337
28348
28336
28328
28300
28281
28237
28242
28226
28230
28210
28135
28142
28133
28090
28089
28057
28048
27967
27976
27948
27931
27867
27856
27839
27825
27783
27790
27752
27756
27721
27714
27726
27702
27640
27662
27629
27582
27533
27552
27509
27514
27503
27490
27452
27439
27467
27421
27411
27432
27429
27402
27425
27401
27407
27394
27393
27385
27382
27361
27354
27338
27360
27282
27294
27259
27211
27182
27172
27148
27069
27050
26984
26927
26898
26850
26862
26779
26725
26706
26729
26700
26684
26665
26720
26661
26700
26692
26687
26657
26656
26711
26689
26703
26691
26717
26765
26747
26795
26787
26858
26843
26907
27000
27042
27113
27217
27312
27429
27587
27660
27851
27930
28106
28240
28391
28540
28639
28804
28858
28935
28972
28980
29008
28955
28967
28971
28946
28899
28918
28855
28892
28843
28846
28781
28783
28736
28715
28689
28664
28678
28668
28666
28580
28591
28574
28517
28557
28497
28509
28493
28468
28446
28371
28344
28363
28353
28308
28283
28298
28309
28265
28239
28253
28207
28171
28143
28120
28115
28071
28069
28016
27998
27916
27954
27962
27924
27879
27862
27840
27827
27833
27844
27829
27776
27747
27743
27690
27677
27655
27659
27639
27617
27602
27606
27562
27588
27582
27591
27603
27584
27606
27577
27602
27562
27558
27557
27527
27492
27463
27434
27400
27317
27310
27229
27213
27185
27083
27065
27048
27007
26999
26950
26960
26927
26906
26891
26872
26855
26904
26891
26888
26856
26849
26860
26846
26837
26835
26885
26858
26900
26912
26933
27004
27057
27114
27132
27228
27331
27424
27554
27642
27824
27961
28087
28140
28312
28365
28492
28570
28641
28702
28721
28761
28768
28730
28708
28735
28670
28662
28621
28588
28591
28518
28538
28515
28467
28467
28428
28434
28421
28393
28377
28359
28335
28316
28306
28258
28242
28221
28236
28215
28171
28160
28136
28100
28070
28102
28058
28062
28000
27958
27985
27981
27931
27903
27906
27847
27828
27815
27813
27740
27740
27677
27670
27635
27614
27582
27555
27571
27519
27503
27483
27469
27449
27464
27436
27472
27459
27439
27432
27388
27413
27387
27352
27367
27350
27323
27287
27253
27226
27177
27200
27150
27120
27069
26988
26981
26880
26843
26753
26749
26699
26636
26642
26640
26626
26622
26626
26667
26674
26671
26742
26772
26746
26805
26836
26791
26839
26866
26930
26915
26944
26984
27001
27082
27124
27197
27204
27296
27354
27406
27532
27650
27731
27866
28004
28106
28246
28373
28513
28659
28803
28929
29028
29122
29185
29236
29226
29207
29232
29227
29204
29154
29171
29185
29136
29138
29123
29076
29069
29046
28982
28995
28911
28931
28903
28814
28842
28812
28765
28779
28761
28739
28716
28709
28729
28669
28657
28631
28598
28556
28520
28483
28424
28394
28357
28350
28323
28297
28272
28252
28250
28182
28186
28167
28158
28132
28079
28108
28054
28026
28040
27951
27959
27947
27961
27934
27915
27877
27878
27851
27826
27800
27804
27794
27782
27752
27740
27714
27730
27707
27723
27693
27697
27673
27659
27611
27693
27664
27716
27674
27662
27629
27642
27597
27575
27563
27539
27522
27502
27452
27434
27435
27369
27320
27298
27224
27169
27157
27116
27086
27048
26981
26934
26939
26933
26902
26895
26894
26864
26830
26902
26921
26872
26870
26910
26908
26912
26949
26965
26926
26981
27038
27042
27048
27072
27154
27175
27235
27337
27416
27472
27583
27734
27889
28028
28119
28261
28447
28572
28714
28864
28956
29072
29175
29296
29304
29310
29304
29295
29262
29243
29210
29202
29172
29207
29127
29110
29097
29047
29021
29003
28982
28938
28920
28887
28825
28823
28758
28761
28725
28711
28639
28637
28620
28614
28589
28550
28558
28480
28476
28502
28426
28422
28414
28404
28383
28329
28332
28342
28324
28294
28257
28215
28227
28224
28137
28129
28110
28082
28056
28053
28014
27991
27949
27953
27918
27891
27856
27824
27830
27746
27763
27735
27718
27689
27699
27689
27636
27620
27658
27659
27634
27634
27605
27622
27614
27610
27586
27595
27573
27607
27590
27587
27589
27542
27493
27511
27467
27411
27398
27378
27304
27260
27202
27159
27135
27084
27094
27036
27029
27004
26981
26969
26977
26962
26943
26929
26936
26936
26951
26982
26952
26960
26947
26973
26956
26955
26924
26998
27023
27064
27084
27150
27194
27273
27386
27405
27513
27610
27765
27906
28027
28120
28247
28356
28512
28586
28688
28728
28779
28813
28814
28809
28784
28778
28771
28730
28662
28716
28656
28613
28621
28607
28541
28514
28516
28481
28450
28425
28382
28361
28334
28332
28305
28274
28244
28208
28226
28171
28149
28178
28129
28153
28113
28078
28072
28028
28004
28021
28033
27977
27965
27930
27914
27879
27890
27890
27880
27849
27829
27803
27779
27810
27780
27764
27724
27773
27684
27718
27646
27677
27732
27676
27663
27693
27671
27653
27668
27673
27649
27628
27640
27630
27644
27626
27650
27618
27610
27613
27614
27631
27559
27593
27566
27527
27498
27464
27400
27375
27333
27266
27227
27215
27178
27149
27138
27113
27096
27083
27096
27060
27059
27069
27081
27075
27056
27087
27122
27094
27126
27115
27148
27149
27201
27191
27229
27249
27277
27346
27413
27442
27511
27617
27662
27820
27936
28052
28183
28349
28480
28610
28729
28897
29008
29132
29226
29329
29371
29382
29380
29396
29333
29330
29313
29312
29267
29277
29203
29218
29144
29168
29111
29116
29073
29069
29017
28968
28969
28952
28941
28954
28909
28903
28835
28857
28840
28782
28784
28731
28718
28737
28666
28655
28617
28623
28579
28623
28545
28531
28458
28486
28463
28436
28377
28385
28352
28324
28323
28302
28281
28276
28243
28231
28210
28183
28184
28163
28137
28127
28091
28112
28064
28071
28040
27994
27982
27976
27985
27955
27914
27903
27894
27885
27821
27855
27803
27789
27779
27782
27747
27731
27757
27766
27772
27728
27712
27731
27704
27687
27712
27698
27692
27673
27669
27678
27653
27603
27603
27581
27543
27504
27499
27497
27424
27366
27349
27281
27214
27228
27150
27108
27099
27052
27064
27050
27058
27054
27038
26996
26985
26996
26985
26941
26953
26940
26983
26991
26979
26983
26979
27004
27028
27086
27083
27177
27237
27292
27368
27446
27546
27638
27735
27902
28019
28159
28285
28402
28559
28701
28831
28954
29045
29092
29148
29155
29172
29198
29171
29168
29140
29115
29095
29081
29040
29027
28986
29009
28957
28937
28936
28868
28905
28865
28871
28842
28814
28800
28778
28790
28731
28728
28696
28690
28655
28680
28638
28639
28664
28622
28566
28517
28555
28539
28502
28447
28435
28451
28436
28425
28419
28355
28379
28365
28320
28304
28253
28250
28238
28170
28201
28165
28169
28115
28095
28070
28054
28012
28015
28028
27993
27923
27956
27954
27883
27912
27854
27841
27834
27838
27825
27808
27794
27820
27736
27778
27783
27792
27756
27735
27744
27700
27687
27685
27671
27626
27591
27562
27548
27544
27502
27415
27396
27369
27294
27265
27215
27168
27128
27087
27077
27046
27033
27013
26995
27001
26985
27007
26987
26970
26998
26953
26979
26995
26980
26954
26918
26968
26984
27002
26978
27023
27072
27098
27124
27209
27254
27321
27369
27521
27636
27696
27844
27949
28076
28264
28379
28526
28633
28725
28817
28897
28993
29004
29036
29030
29011
28971
28965
28963
28876
28832
28845
28864
28767
28785
28739
28710
28661
28662
28624
28589
28561
28573
28505
28485
28470
28454
28412
28381
28408
28382
28376
28309
28306
28281
28271
28248
28228
28217
28213
28179
28175
28175
28107
28126
28092
28082
28043
28026
28035
27980
27989
27947
27918
27945
27912
27934
27902
27895
27832
27828
27803
27771
27770
27749
27699
27704
27670
27665
27635
27609
27591
27596
27618
27550
27571
27578
27584
27587
27574
27505
27516
27501
27508
27466
27435
27442
27459
27432
27401
27416
27370
27336
27320
27321
27300
27256
27239
27213
27171
27160
27099
27073
27080
27049
27070
27074
27079
27029
27091
27105
27087
27119
27192
27131
27130
27191
27208
27220
27220
27300
27279
27310
27349
27381
27432
27482
27550
27568
27629
27739
27819
27914
27990
28115
28263
28392
28469
28666
28822
28943
29059
29208
29346
29378
29438
29466
29480
29459
29454
29487
29435
29449
29410
29388
29395
29324
29321
29285
29227
29170
29192
29103
29089
29009
28940
28957
28924
28892
28879
28857
28846
28810
28823
28806
28755
28757
28732
28696
28662
28670
28664
28631
28639
28607
28584
28540
28541
28506
28504
28449
28429
28404
28417
28372
28323
28303
28291
28307
28245
28229
28196
28182
28152
28170
28174
28097
28078
28073
28044
28032
28024
28007
27996
27946
27981
27985
27969
27976
27978
27968
27968
27964
27946
27936
27890
27907
27896
27878
27883
27871
27819
27841
27776
27762
27738
27642
27638
27582
27522
27491
27452
27383
27327
27281
27237
27189
27189
27113
27150
27102
27083
27068
27093
27088
27098
27073
27074
27062
27083
27134
27104
27101
27097
27148
27109
27150
27157
27168
27190
27269
27305
27326
27356
27448
27526
27621
27701
27830
27952
28090
28207
28369
28535
28693
28806
28977
29131
29309
29443
29523
29584
29604
29604
29649
29604
29618
29627
29584
29561
29530
29521
29515
29505
29489
29488
29431
29444
29405
29430
29356
29333
29316
29332
29319
29285
29286
29261
29227
29208
29192
29181
29164
29127
29117
29104
29064
29039
29017
29016
28967
28952
28921
28908
28889
28873
28819
28838
28846
28796
28731
28763
28754
28755
28704
28670
28675
28640
28615
28602
28599
28559
28510
28537
28503
28477
28435
28432
28420
28374
28371
28366
28319
28295
28251
28290
28253
28195
28205
28202
28162
28105
28118
28121
28050
28030
28044
27999
27988
27982
27982
27895
27958
27931
27897
27901
27939
27921
27883
27912
27899
27885
27857
27823
27877
27834
27844
27806
27771
27769
27777
27760
27677
27656
27595
27583
27552
27480
27434
27403
27370
27311
27263
27261
27196
27127
27136
27104
27107
27062
27068
27092
27069
27052
27091
27035
27042
27035
27059
27048
27025
27086
27088
27068
27066
27126
27157
27154
27195
27215
27290
27332
27415
27481
27558
27619
27739
27880
27993
28129
28236
28394
28556
28700
28864
29011
29145
29246
29322
29415
29412
29428
29431
29357
29358
29327
29362
29274
29275
29245
29214
29171
29145
29150
29082
29063
29085
29002
29027
28994
28969
28944
28906
28889
28867
28879
28859
28842
28819
28816
28782
28766
28737
28714
28687
28653
28638
28591
28575
28528
28501
28508
28459
28469
28455
28398
28395
28336
28347
28290
28253
28255
28214
28201
28153
28148
28126
28100
28074
28104
28016
28048
28035
27989
27964
27932
27914
27919
27856
27847
27857
27814
27807
27762
27799
27772
27745
27744
27726
27680
27709
27728
27668
27674
27651
27653
27684
27638
27645
27672
27637
27641
27629
27609
27618
27598
27559
27565
27523
27537
27490
27463
27408
27356
27318
27261
27224
27200
27137
27075
27057
27042
27013
27004
26999
26982
26948
26947
26986
26961
26960
26972
26963
26983
26981
27024
26981
26983
26963
27000
27077
27050
27054
27134
27181
27206
27273
27360
27436
27498
27588
27696
27817
27925
28033
28210
28347
28451
28598
28725
28789
28902
28972
29026
29030
29073
29055
29056
29014
29004
29009
28971
28931
28927
28933
28877
28859
28852
28853
28798
28804
28803
28745
28731
28735
28711
28702
28676
28691
28662
28640
28624
28615
28626
28567
28560
28578
28542
28504
28470
28482
28443
28450
28437
28398
28391
28357
28366
28385
28347
28327
28309
28290
28272
28239
28187
28210
28188
28172
28161
28119
28111
28079
28084
28079
28045
28064
28028
27994
28013
28006
28009
27969
27977
27972
27984
27929
27903
27961
27920
27927
27951
27918
27900
27900
27901
27866
27827
27845
27805
27743
27757
27708
27643
27619
27570
27534
27487
27418
27393
27353
27349
27320
27293
27334
27331
27273
27299
27321
27291
27304
27321
27332
27305
27332
27310
27318
27322
27308
27357
27349
27372
27407
27446
27476
27531
27604
27674
27753
27798
27913
28039
28140
28254
28410
28533
28716
28816
28942
29078
29212
29281
29366
29378
29431
29422
29435
29397
29338
29372
29324
29308
29324
29293
29235
29255
29208
29191
29168
29160
29108
29113
29109
29083
29093
29037
29037
28995
28996
28970
28963
28938
28900
28901
28863
28875
28826
28803
28792
28806
28798
28738
28738
28731
28703
28698
28634
28657
28634
28545
28564
28547
28495
28478
28497
28464
28429
28392
28374
28347
28339
28321
28281
28272
28224
28220
28169
28186
28169
28123
28105
28073
28056
28022
28024
27966
27957
27927
27895
27896
27893
27880
27857
27794
27850
27839
27778
27794
27778
27768
27703
27748
27734
27725
27690
27721
27696
27641
27664
27636
27634
27599
27574
27563
27469
27419
27408
27370
27320
27284
27230
27170
27132
27093
27073
27039
27035
27064
27054
27006
27034
27005
27033
27038
27021
27041
27034
27023
27014
27064
27088
27102
27121
27120
27156
27171
27230
27247
27274
27314
27444
27511
27571
27676
27769
27923
27985
28126
28274
28427
28525
28723
28875
28991
29097
29207
29270
29290
29323
29286
29281
29292
29257
29268
29208
29204
29197
29153
29146
29077
29103
29067
29044
28979
29006
28965
28943
28909
28920
28861
28851
28865
28843
28805
28770
28789
28754
28739
28719
28746
28658
28653
28619
28628
28585
28572
28548
28547
28538
28465
28492
28446
28410
28428
28399
28389
28355
28334
28327
28300
28309
28254
28212
28211
28158
28181
28145
28117
28126
28105
28048
28020
28014
28025
27966
27909
27923
27921
27891
27853
27866
27836
27825
27810
27798
27759
27778
27746
27768
27722
27702
27706
27724
27711
27701
27715
27685
27641
27660
27692
27634
27618
27600
27616
27623
27542
27532
27506
27489
27444
27408
27413
27333
27259
27256
27213
27140
27111
27096
27077
27036
27018
26979
27003
26950
26943
26990
26961
26982
26966
26994
26993
26968
26996
26955
26970
26980
27041
27066
27073
27072
27113
27146
27201
27286
27321
27383
27476
27577
27665
27780
27896
28034
28166
28305
28438
28574
28682
28808
28968
29028
29104
29154
29159
29183
29144
29134
29131
29111
29105
29095
29066
29043
29001
28988
28937
28947
28903
28887
28889
28895
28860
28808
28845
28759
28758
28765
28727
28721
28700
28665
28662
28638
28616
28613
28578
28544
28556
28483
28483
28448
28428
28387
28429
28360
28403
28332
28327
28346
28267
28217
28226
28230
28177
28160
28170
28112
28135
28086
28049
28052
28020
28002
27998
27969
27932
27914
27959
27893
27887
27908
27880
27848
27841
27847
27831
27825
27830
27811
27828
27786
27822
27778
27800
27792
27750
27768
27752
27714
27712
27653
27633
27579
27564
27555
27477
27437
27423
27377
27297
27282
27228
27224
27211
27166
27173
27138
27139
27131
27141
27116
27114
27111
27117
27126
27107
27110
27127
27121
27152
27135
27193
27234
27298
27293
27342
27399
27469
27566
27632
27725
27836
27937
28018
28196
28335
28414
28561
28715
28781
28927
28989
29059
29098
29125
29114
29112
29094
29072
29065
29063
29022
29014
28992
28940
28953
28943
28915
28877
28840
28812
28833
28786
28758
28753
28754
28707
28704
28689
28674
28649
28624
28630
28638
28622
28562
28581
28555
28530
28536
28516
28497
28491
28500
28454
28427
28415
28447
28391
28352
28337
28364
28362
28318
28257
28336
28257
28259
28220
28230
28215
28198
28226
28197
28142
28169
28113
28181
28126
28108
28126
28125
28101
28127
28114
28078
28106
28103
28102
28047
28031
28033
28052
28038
27992
27973
27968
27936
27918
27906
27802
27748
27757
27676
27657
27627
27603
27561
27540
27510
27518
27492
27424
27472
27465
27453
27448
27492
27455
27438
27453
27466
27475
27467
27463
27499
27533
27545
27651
27645
27702
27751
27860
27936
28003
28087
28230
28390
28465
28597
28683
28875
28967
29115
29200
29313
29357
29420
29435
29411
29410
29377
29402
29343
29318
29327
29315
29271
29244
29219
29217
29155
29167
29175
29105
29086
29078
29086
29005
29027
28977
28968
28964
28957
28935
28903
28870
28883
28880
28874
28827
28813
28794
28749
28743
28750
28777
28698
28721
28692
28674
28613
28659
28608
28589
28578
28523
28501
28476
28485
28426
28466
28418
28415
28393
28327
28326
28318
28273
28286
28292
28259
28252
28208
28185
28147
28204
28144
28138
28188
28106
28128
28098
28099
28110
28088
28096
28050
28050
28051
28040
28048
28017
28010
27982
27914
27904
27881
27854
27812
27718
27725
27655
27594
27572
27509
27487
27470
27403
27421
27379
27387
27361
27370
27363
27337
27349
27353
27373
27334
27329
27382
27322
27349
27405
27403
27408
27466
27492
27488
27554
27605
27666
27745
27808
27921
28014
28132
28294
28390
28543
28690
28821
28984
29128
29247
29379
29491
29588
29595
29647
29635
29593
29605
29621
29583
29564
29539
29514
29454
29473
29441
29455
29400
29374
29377
29356
29339
29265
29271
29260
29234
29235
29194
29163
29145
29173
29118
29106
29068
29055
29041
28979
28991
28989
28941
28892
28893
28866
28824
28786
28811
28773
28771
28730
28735
28741
28671
28638
28675
28603
28586
28568
28510
28501
28495
28470
28416
28413
28408
28399
28357
28340
28301
28272
28237
28255
28238
28211
28179
28141
28142
28114
28121
28093
28126
28117
28078
28048
28081
28057
28028
28075
28038
28053
28053
28044
28043
28032
28000
28008
27973
27934
27943
27949
27852
27864
27796
27798
27771
27713
27686
27626
27568
27505
27501
27447
27404
27365
27384
27365
27326
27322
27313
27315
27299
27306
27304
27294
27274
27311
27320
27295
27293
27324
27319
27356
27362
27436
27441
27492
27524
27579
27676
27719
27839
27921
28044
28165
28277
28432
28539
28709
28839
28979
29156
29312
29421
29551
29602
29664
29715
29718
29709
29707
29696
29666
29601
29634
29606
29575
29593
29530
29509
29446
29425
29428
29396
29343
29344
29327
29269
29281
29263
29255
29203
29224
29192
29189
29138
29140
29126
29089
29109
29094
29044
29034
29027
29017
28965
28951
28951
28919
28912
28889
28871
28857
28810
28833
28777
28768
28721
28744
28698
28709
28618
28647
28594
28636
28607
28580
28540
28502
28513
28511
28518
28475
28444
28473
28460
28426
28439
28459
28408
28431
28415
28422
28416
28402
28436
28396
28366
28433
28391
28388
28345
28330
28303
28333
28259
28223
28173
28136
28125
28071
28066
27978
27925
27913
27840
27808
27769
27804
27764
27722
27732
27706
27665
27706
27652
27690
27643
27637
27661
27669
27637
27683
27700
27672
27676
27699
27738
27750
27798
27820
27856
27913
28014
28079
28191
28220
28367
28491
28608
28722
28843
29057
29147
29318
29467
29667
29785
29856
30002
30011
29987
29983
30029
29972
29989
29963
29945
29894
29871
29820
29795
29757
29717
29707
29682
29656
29636
29610
29588
29552
29549
29522
29494
29516
29441
29432
29411
29360
29386
29372
29298
29319
29273
29246
29229
29200
29180
29173
29110
29099
29092
29056
29026
29023
28975
28953
28979
28954
28890
28860
28840
28848
28847
28805
28771
28736
28710
28695
28688
28705
28604
28616
28650
28585
28576
28573
28578
28538
28507
28513
28500
28521
28499
28501
28506
28521
28485
28498
28467
28502
28488
28465
28456
28436
28431
28417
28305
28294
28277
28217
28179
28137
28083
28024
27967
27970
27866
27867
27779
27787
27784
27780
27770
27764
27722
27731
27748
27730
27706
27717
27704
27729
27744
27738
27792
27761
27782
27842
27894
27955
28017
28116
28189
28305
28387
28481
28612
28761
28894
29036
29187
29357
29449
29609
29703
29771
29818
29876
29866
29868
29882
29845
29814
29806
29773
29787
29717
29712
29717
29693
29640
29621
29657
29576
29570
29548
29543
29539
29488
29464
29488
29456
29458
29403
29417
29366
29366
29351
29320
29295
29260
29250
29248
29232
29234
29183
29180
29164
29140
29128
29060
29057
29054
29029
28971
28953
28942
28914
28893
28876
28871
28812
28748
28747
28741
28698
28683
28697
28649
28629
28620
28588
28587
28569
28580
28562
28580
28565
28620
28580
28544
28547
28556
28552
28558
28510
28543
28514
28504
28516
28505
28461
28435
28434
28437
28372
28336
28302
28258
28215
28158
28182
28084
28028
28019
27964
27925
27882
27917
27872
27859
27811
27873
27813
27816
27803
27800
27789
27747
27779
27801
27766
27803
27839
27821
27842
27856
27919
27986
28021
28094
28190
28247
28352
28463
28577
28727
28816
28987
29141
29275
29435
29612
29774
29912
29954
30033
30051
30064
30047
30033
30037
30000
29974
29947
29909
29881
29862
29820
29786
29759
29737
29704
29643
29655
29605
29570
29549
29522
29514
29455
29427
29416
29406
29366
29366
29356
29348
29279
29259
29267
29195
29187
29185
29197
29128
29110
29091
29064
29029
28989
29030
28992
28934
28929
28932
28901
28849
28819
28800
28789
28773
28756
28689
28696
28694
28634
28611
28585
28585
28542
28529
28498
28507
28480
28458
28423
28422
28406
28325
28318
28323
28273
28270
28243
28232
28206
28165
28177
28168
28139
28098
28145
28145
28104
28099
28072
28103
28073
28044
28039
28065
28010
28000
28047
27994
27987
27992
28017
27956
27911
27934
27894
27890
27843
27835
27783
27719
27736
27703
27631
27574
27499
27487
27440
27394
27363
27366
27352
27302
27318
27318
27315
27255
27310
27318
27287
27309
27297
27317
27282
27346
27331
27358
27362
27400
27367
27393
27433
27471
27569
27614
27696
27771
27879
27959
28090
28208
28341
28461
28672
28800
28945
29114
29282
29490
29622
29725
29817
29859
29896
29869
29862
29819
29815
29797
29785
29751
29744
29718
29689
29663
29661
29616
29621
29586
29566
29613
29515
29497
29479
29474
29421
29456
29446
29403
29407
29372
29342
29328
29280
29269
29248
29250
29186
29228
29195
29166
29130
29100
29115
29089
29064
29056
29047
28991
29022
28972
28947
28969
28895
28910
28884
28817
28837
28814
28766
28725
28727
28701
28682
28653
28641
28607
28583
28568
28540
28498
28525
28469
28455
28408
28424
28374
28335
28302
28316
28276
28238
28249
28216
28201
28191
28161
28148
28124
28110
28156
28104
28082
28084
28100
28068
28051
28071
28039
28056
28032
28026
28043
28025
28009
27995
27990
27975
27934
27924
27882
27889
27818
27792
27773
27719
27702
27614
27594
27520
27491
27445
27475
27354
27361
27366
27354
27333
27289
27307
27251
27262
27242
27279
27288
27263
27277
27315
27284
27326
27286
27294
27328
27323
27382
27395
27429
27478
27556
27570
27658
27748
27838
27896
28008
28175
28284
28408
28542
28725
28856
28983
29158
29331
29456
29554
29637
29655
29708
29707
29676
29660
29661
29657
29603
29576
29538
29548
29525
29422
29436
29416
29400
29351
29347
29350
29287
29269
29237
29229
29213
29197
29182
29185
29156
29116
29122
29075
29055
29036
29003
29006
28964
28923
28917
28877
28866
28852
28814
28765
28748
28740
28733
28685
28688
28682
28623
28621
28620
28569
28552
28522
28540
28477
28452
28432
28433
28401
28372
28339
28321
28301
28283
28260
28279
28222
28217
28251
28229
28183
28200
28200
28175
28175
28145
28142
28173
28158
28146
28152
28161
28126
28110
28098
28070
28086
28088
28035
27995
27958
27952
27923
27892
27846
27815
27731
27702
27699
27617
27570
27549
27538
27519
27479
27462
27437
27446
27442
27472
27429
27431
27431
27459
27461
27438
27438
27484
27429
27486
27492
27556
27565
27587
27664
27710
27714
27801
27896
28007
28043
28180
28296
28390
28525
28658
28799
28871
29051
29213
29384
29490
29593
29692
29698
29684
29712
29708
29682
29683
29664
29622
29639
29609
29591
29549
29556
29450
29470
29498
29403
29425
29411
29380
29346
29332
29320
29315
29246
29284
29272
29270
29199
29231
29189
29179
29162
29121
29113
29104
29087
29056
29036
29022
29013
29002
28961
28919
28912
28911
28870
28810
28852
28808
28768
28773
28771
28729
28674
28710
28680
28639
28575
28600
28584
28528
28542
28541
28552
28512
28530
28500
28473
28509
28492
28497
28449
28466
28464
28478
28470
28429
28444
28399
28393
28333
28343
28287
28255
28256
28212
28176
28087
28068
28027
27914
27862
27850
27811
27777
27765
27745
27746
27693
27703
27717
27681
27662
27626
27694
27657
27656
27634
27656
27639
27656
27681
27676
27684
27708
27763
27783
27859
27913
27975
28056
28116
28230
28320
28424
28558
28679
28812
28953
29121
29293
29481
29623
29780
29881
29915
29925
29964
29932
29925
29885
29860
29843
29785
29793
29769
29729
29667
29644
29624
29594
29546
29538
29520
29451
29426
29430
29408
29395
29369
29362
29342
29300
29299
29260
29267
29212
29186
29185
29167
29142
29160
29119
29087
29092
29041
29060
28986
28980
28923
28919
28879
28850
28835
28833
28800
28783
28765
28715
28707
28715
28639
28606
28571
28554
28534
28528
28483
28451
28436
28425
28386
28400
28356
28331
28330
28302
28252
28237
28228
28244
28187
28204
28182
28147
28138
28157
28164
28091
28144
28137
28107
28060
28063
28092
28032
28027
28025
27995
27943
27930
27888
27848
27796
27780
27699
27664
27595
27574
27550
27494
27403
27434
27396
27377
27320
27314
27329
27329
27300
27283
27280
27275
27269
27277
27268
27224
27245
27266
27247
27287
27332
27341
27361
27420
27460
27527
27574
27678
27786
27842
27985
28042
28183
28314
28478
28630
28780
28900
29073
29225
29320
29411
29509
29513
29511
29526
29499
29510
29484
29452
29411
29358
29326
29292
29318
29292
29236
29200
29185
29164
29130
29114
29104
29095
29035
29035
29015
28991
28947
28947
28949
28920
28850
28877
28809
28815
28784
28742
28716
28670
28682
28637
28647
28644
28598
28597
28539
28507
28468
28433
28391
28362
28406
28347
28271
28331
28277
28254
28220
28192
28214
28161
28169
28168
28093
28113
28084
28047
28002
28033
28000
27980
28010
27953
28013
27943
27930
27961
27930
27938
27914
27873
27871
27838
27832
27809
27845
27782
27735
27687
27655
27617
27569
27494
27451
27338
27322
27261
27211
27133
27134
27122
27064
27045
27034
27063
27017
26997
26992
26973
26969
26950
26972
26946
26940
26963
26971
26927
26939
26989
27014
27020
27062
27112
27177
27239
27285
27390
27487
27552
27692
27846
27975
28107
28267
28402
28561
28674
28798
28919
28966
28998
29068
29031
29052
29049
29044
29031
28979
28997
28942
28933
28931
28895
28873
28845
28880
28837
28818
28752
28762
28771
28741
28702
28721
28676
28697
28653
28655
28630
28611
28587
28566
28550
28544
28494
28489
28475
28473
28472
28398
28378
28384
28320
28351
28312
28331
28300
28272
28203
28189
28202
28171
28167
28152
28133
28111
28109
28136
28088
28072
28047
28024
28076
28032
28023
28042
28048
28030
28038
28011
28022
27993
27983
27977
27989
27963
27939
27920
27882
27798
27816
27749
27713
27680
27584
27565
27508
27465
27411
27382
27343
27326
27348
27224
27247
27254
27277
27195
27206
27222
27213
27202
27220
27249
27190
27189
27233
27240
27237
27277
27303
27298
27346
27406
27420
27511
27567
27662
27754
27885
27990
28131
28277
28354
28506
28626
28768
28873
28940
29071
29144
29182
29214
29226
29167
29189
29175
29159
29119
29099
29109
29047
29035
29031
29006
28995
28935
28967
28937
28885
28845
28854
28832
28822
28771
28765
28787
28733
28694
28677
28654
28654
28674
28653
28614
28614
28594
28606
28571
28552
28545
28537
28442
28439
28452
28392
28376
28339
28378
28336
28293
28268
28272
28191
28204
28175
28157
28115
28121
28135
28114
28066
28083
28071
28069
28074
28056
28072
28050
28066
28068
28046
28058
28060
28082
28034
28021
28043
28017
28014
27990
27966
27950
27924
27911
27843
27809
27784
27700
27695
27660
27589
27566
27501
27456
27441
27445
27425
27377
27414
27377
27366
27356
27355
27355
27350
27315
27330
27353
27338
27368
27379
27385
27376
27417
27447
27495
27526
27618
27693
27746
27874
27997
28083
28211
28340
28508
28647
28772
28976
29092
29254
29387
29483
29513
29609
29636
29623
29651
29571
29597
29556
29547
29494
29480
29465
29441
29374
29337
29319
29325
29280
29235
29237
29224
29150
