37871
37751
37636
37534
37441
37360
37294
37229
37158
37082
37009
36935
36849
36758
36685
36628
36571
36517
36471
36425
36370
36306
36245
36188
36130
36078
36034
35984
35923
35864
35809
35746
35684
35644
35625
35618
35628
35675
35774
35920
36108
36338
36599
36873
37154
37444
37740
38038
38338
38646
38954
39250
39533
39809
40066
40282
40458
40606
40722
40789
40812
40819
40818
40804
40784
40770
40762
40756
40761
40770
40774
40772
40769
40770
40767
40750
40725
40706
40687
40664
40648
40646
40648
40639
40622
40605
40583
40554
40529
40510
40490
40469
40451
40438
40416
40384
40358
40334
40312
40298
40292
40287
40281
40283
40291
40292
40283
40273
40267
40253
40225
40191
40162
40129
40082
40028
39988
39956
39916
39867
39821
39768
39697
39623
39555
39488
39419
39348
39276
39200
39122
39046
38968
38879
38784
38701
38632
38561
38489
38430
38387
38348
38311
38278
38240
38185
38118
38049
37969
37879
37801
37746
37701
37653
37608
37569
37530
37483
37435
37389
37333
37262
37190
37120
37042
36961
36894
36838
36779
36713
36651
36600
36554
36518
36518
36557
36623
36718
36861
37048
37265
37513
37790
38080
38370
38658
38954
39251
39542
39833
40134
40434
40715
40978
41217
41411
41553
41655
41725
41760
41768
41765
41757
41737
41702
41673
41660
41655
41653
41660
41676
41691
41698
41698
41691
41670
41630
41590
41550
41497
41433
41376
41328
41285
41260
41253
41249
41235
41214
41192
41165
41132
41101
41075
41048
41013
40981
40955
40926
40896
40877
40867
40852
40825
40794
40769
40744
40712
40679
40654
40627
40589
40543
40493
40428
40349
40277
40216
40150
40077
40008
39940
39867
39801
39745
39686
39620
39549
39484
39426
39369
39317
39273
39223
39161
39091
39019
38947
38866
38781
38708
38647
38588
38533
38485
38431
38368
38309
38260
38217
38180
38151
38124
38093
38060
38031
38002
37962
37910
37856
37799
37731
37659
37601
37557
37517
37480
37450
37421
37377
37320
37270
37222
37164
37104
37055
37016
36983
36957
36948
36962
37003
37083
37207
37362
37540
37752
38004
38283
38580
38895
39219
39542
39853
40149
40430
40686
40911
41112
41291
41437
41547
41633
41695
41728
41744
41749
41739
41713
41680
41645
41603
41558
41522
41503
41490
41475
41464
41462
41462
41451
41435
41424
41409
41382
41356
41335
41310
41275
41238
41207
41181
41164
41172
41195
41210
41217
41215
41202
41174
41139
41116
41104
41094
41093
41103
41114
41106
41079
41055
41037
41017
40998
40983
40958
40921
40889
40867
40846
40816
40783
40753
40718
40676
40637
40606
40566
40505
40435
40363
40283
40192
40105
40030
39954
39865
39775
39695
39627
39570
39530
39501
39465
39422
39371
39304
39221
39130
39052
38989
38933
38888
38847
38797
38737
38674
38615
38549
38473
38396
38325
38256
38177
38095
38022
37949
37870
37794
37721
37640
37550
37473
37413
37358
37303
37252
37207
37160
37109
37060
37019
36987
36970
36979
37018
37088
37194
37337
37512
37710
37939
38207
38506
38813
39122
39441
39760
40064
40350
40611
40834
41015
41162
41279
41357
41403
41430
41448
41453
41443
41432
41426
41418
41400
41374
41343
41306
41264
41226
41195
41163
41127
41098
41077
41043
41000
40959
40917
40863
40793
40720
40651
40579
40513
40460
40410
40355
40304
40262
40227
40192
40162
40148
40142
40133
40128
40138
40158
40178
40203
40234
40253
40252
40243
40229
40197
40143
40081
40022
39965
39907
39859
39825
39791
39755
39721
39685
39630
39559
39492
39431
39371
39313
39260
39205
39134
39056
38990
38929
38867
38814
38772
38730
38685
38645
38609
38570
38521
38472
38433
38390
38334
38276
38219
38152
38081
38023
37981
37946
37916
37897
37890
37876
37846
37805
37760
37710
37660
37619
37581
37537
37498
37476
37469
37463
37462
37484
37525
37582
37670
37797
37960
38153
38379
38636
38914
39205
39514
39838
40158
40463
40758
41048
41322
41561
41759
41920
42035
42106
42145
42154
42135
42101
42065
42027
41980
41934
41897
41873
41850
41825
41806
41787
41760
41734
41716
41701
41672
41629
41585
41539
41486
41433
41394
41360
41326
41303
41294
41285
41268
41251
41244
41240
41220
41186
41152
41109
41054
41001
40966
40944
40927
40923
40942
40978
41020
41063
41103
41127
41134
41135
41128
41106
41074
41044
41014
40966
40901
40833
40761
40682
40606
40542
40484
40427
40377
40332
40276
40209
40142
40076
40002
39915
39832
39762
39700
39644
39608
39591
39570
39536
39494
39444
39379
39303
39232
39170
39111
39057
39015
38980
38940
38897
38870
38854
38833
38809
38787
38762
38729
38691
38648
38595
38525
38440
38353
38266
38177
38095
38036
37997
37971
37967
37993
38041
38112
38223
38385
38582
38808
39067
39352
39650
39956
40274
40601
40924
41230
41531
41824
42098
42347
42577
42784
42950
43077
43181
43255
43292
43305
43317
43330
43333
43329
43334
43340
43331
43312
43303
43301
43300
43305
43318
43330
43328
43313
43298
43276
43240
43199
43167
43142
43115
43091
43077
43060
43028
42998
42981
42966
42945
42926
42908
42883
42858
42844
42838
42831
42828
42843
42876
42909
42940
42967
42978
42977
42976
42977
42966
42941
42913
42888
42857
42812
42765
42720
42673
42626
42594
42572
42542
42492
42424
42349
42269
42186
42117
42059
41998
41928
41849
41762
41670
41581
41510
41456
41411
41374
41345
41315
41267
41203
41142
41081
41008
40926
40845
40756
40650
40535
40420
40299
40179
40079
40005
39942
39880
39826
39783
39745
39696
39635
39567
39484
39381
39278
39200
39143
39088
39033
38986
38945
38918
38917
38938
38970
39021
39113
39250
39421
39627
39874
40155
40452
40759
41093
41450
41817
42190
42559
42910
43223
43491
43723
43917
44066
44178
44259
44302
44306
44293
44279
44257
44216
44162
44106
44045
43983
43931
43889
43850
43815
43784
43749
43698
43633
43568
43506
43440
43373
43324
43298
43269
43231
43197
43162
43114
43053
43002
42967
42937
42912
42901
42902
42910
42932
42976
43030
43082
43139
43210
43286
43359
43431
43502
43551
43574
43586
43596
43593
43576
43562
43556
43541
43514
43480
43433
43364
43279
43193
43107
43011
42905
42791
42668
42536
42402
42272
42138
42001
41873
41765
41673
41582
41496
41422
41353
41278
41199
41119
41033
40946
40875
40833
40809
40801
40812
40830
40842
40846
40850
40857
40867
40877
40885
40882
40859
40817
40767
40715
40662
40612
40573
40542
40512
40482
40454
40412
40337
40235
40126
40007
39876
39752
39648
39565
39509
39495
39533
39625
39766
39960
40200
40465
40746
41050
41381
41724
42063
42398
42735
43060
43362
43646
43918
44169
44392
44593
44765
44889
44969
45017
45033
45012
44959
44898
44841
44782
44726
44679
44637
44601
44577
44568
44564
44557
44549
44533
44492
44415
44313
44196
44067
43926
43786
43646
43497
43334
43170
43024
42901
42797
42715
42658
42618
42589
42570
42558
42537
42512
42498
42493
42482
42469
42474
42500
42523
42540
42555
42564
42564
42562
42563
42564
42548
42513
42464
42393
42304
42212
42128
42044
41957
41880
41813
41742
41664
41591
41517
41432
41336
41241
41147
41041
40919
40794
40672
40549
40427
40327
40247
40171
40098
40036
39984
39924
39847
39776
39715
39645
39569
39503
39444
39376
39299
39234
39183
39141
39113
39100
39095
39087
39081
39072
39048
39002
38944
38889
38834
38782
38756
38764
38798
38846
38921
39035
39183
39366
39606
39903
40233
40579
40934
41290
41629
41943
42237
42505
42734
42928
43097
43239
43346
43429
43501
43554
43584
43601
43629
43666
43697
43718
43732
43733
43719
43691
43650
43591
43521
43460
43417
43388
43365
43356
43355
43341
43317
43296
43284
43278
43271
43265
43256
43236
43209
43183
43155
43127
43107
43106
43114
43125
43149
43189
43232
43260
43275
43285
43285
43279
43282
43293
43294
43277
43252
43227
43197
43155
43112
43078
43041
42984
42916
42843
42756
42664
42579
42502
42426
42344
42264
42188
42110
42036
41971
41914
41857
41803
41763
41733
41696
41656
41620
41581
41523
41446
41364
41279
41194
41121
41057
40994
40930
40870
40818
40766
40708
40655
40609
40559
40499
40435
40367
40282
40180
40080
39986
39887
39791
39722
39679
39653
39637
39640
39672
39736
39838
39985
40166
40369
40599
40863
41151
41443
41742
42060
42388
42704
42999
43281
43545
43776
43976
44151
44295
44401
44481
44547
44593
44613
44618
44612
44588
44540
44478
44415
44349
44279
44221
44184
44160
44138
44119
44103
44072
44023
43966
43907
43847
43792
43757
43744
43735
43728
43723
43710
43681
43645
43617
43588
43542
43484
43430
43386
43344
43306
43280
43262
43247
43243
43253
43268
43278
43286
43292
43292
43278
43260
43239
43200
43142
43080
43020
42960
42897
42841
42792
42738
42674
42606
42537
42461
42379
42298
42216
42128
42043
41969
41906
41841
41769
41696
41620
41535
41447
41373
41309
41244
41184
41132
41077
41011
40944
40880
40807
40719
40628
40549
40482
40424
40379
40348
40324
40295
40256
40208
40144
40067
39998
39943
39891
39836
39779
39717
39641
39552
39475
39414
39364
39339
39360
39420
39505
39623
39784
39978
40196
40439
40707
40991
41286
41597
41923
42249
42571
42893
43204
43481
43712
43907
44081
44229
44346
44435
44499
44531
44529
44499
44456
44405
44352
44315
44293
44269
44243
44223
44208
44183
44148
44110
44067
44017
43965
43915
43859
43802
43757
43728
43706
43684
43659
43630
43593
43545
43490
43440
43390
43337
43289
43252
43221
43187
43152
43119
43085
43053
43038
43034
43031
43033
43046
43064
43069
43060
43049
43033
42997
42946
42900
42859
42809
42754
42705
42652
42590
42531
42484
42443
42401
42361
42325
42278
42213
42141
42066
41977
41870
41757
41646
41534
41420
41311
41210
41106
41001
40914
40849
40795
40742
40687
40629
40557
40479
40406
40337
40272
40212
40159
40111
40059
40007
39964
39924
39880
39835
39804
39785
39766
39748
39730
39698
39645
39576
39504
39431
39355
39288
39237
39195
39148
39108
39098
39121
39166
39241
39358
39512
39695
39906
40140
40382
40637
40919
41222
41530
41837
42149
42460
42753
43023
43273
43493
43673
43820
43942
44032
44079
44086
44065
44015
43943
43870
43812
43759
43703
43658
43630
43601
43567
43542
43533
43521
43495
43460
43422
43371
43309
43252
43200
43147
43096
43050
43005
42956
42908
42873
42846
42810
42769
42726
42676
42615
42553
42506
42476
42463
42468
42483
42497
42506
42516
42538
42565
42581
42588
42589
42576
42540
42485
42423
42352
42266
42174
42083
41987
41884
41785
41700
41622
41543
41467
41402
41344
41284
41220
41154
41074
40981
40882
40780
40666
40546
40441
40352
40262
40171
40095
40034
39973
39916
39867
39820
39770
39723
39678
39619
39542
39452
39364
39283
39204
39131
39070
39011
38950
38897
38855
38817
38780
38746
38718
38687
38639
38574
38505
38433
38353
38273
38202
38132
38064
38006
37962
37930
37919
37949
38023
38130
38276
38470
38698
38941
39195
39470
39762
40064
40379
40705
41022
41318
41594
41849
42069
42246
42395
42524
42622
42680
42705
42710
42693
42657
42621
42577
42515
42447
42395
42356
42314
42265
42218
42176
42132
42085
42040
41993
41952
41930
41915
41891
41854
41810
41769
41727
41683
41648
41625
41606
41583
41561
41545
41526
41500
41472
41443
41410
41377
41355
41351
41355
41360
41376
41398
41410
41415
41418
41417
41408
41391
41379
41370
41346
41304
41251
41189
41113
41028
40947
40868
40791
40727
40678
40637
40586
40529
40476
40424
40360
40289
40223
40158
40087
40016
39955
39896
39833
39777
39731
39682
39624
39566
39513
39461
39401
39344
39294
39242
39188
39145
39106
39057
38999
38939
38871
38795
38720
38662
38615
38561
38496
38432
38371
38304
38233
38170
38112
38065
38050
38069
38111
38181
38292
38450
38642
38865
39130
39441
39777
40122
40480
40845
41192
41513
41811
42091
42351
42590
42817
43023
43189
43317
43416
43488
43529
43544
43551
43544
43517
43474
43429
43384
43328
43263
43197
43134
43078
43030
43001
42985
42967
42951
42939
42918
42876
42820
42762
42695
42617
42535
42448
42355
42261
42173
42094
42012
41926
41845
41782
41731
41684
41654
41643
41639
41634
41629
41622
41609
41594
41589
41587
41572
41547
41526
41508
41483
41449
41407
41348
41268
41181
41097
41007
40904
40804
40720
40645
40570
40493
40420
40342
40248
40147
40057
39968
39866
39762
39664
39563
39458
39355
39252
39146
39045
38959
38883
38820
38770
38731
38697
38659
38623
38592
38548
38486
38421
38371
38332
38286
38235
38187
38140
38090
38039
37988
37927
37860
37799
37747
37696
37634
37562
37486
37401
37311
37231
37168
37120
37095
37114
37182
37291
37438
37624
37850
38104
38380
38687
39022
39368
39718
40073
40421
40748
41060
41352
41608
41822
42007
42174
42316
42428
42522
42600
42648
42667
42667
42659
42642
42611
42578
42561
42551
42536
42523
42520
42512
42493
42474
42471
42475
42481
42493
42508
42514
42507
42488
42459
42414
42362
42317
42277
42229
42178
42139
42113
42078
42035
42006
41993
41986
41986
42001
42019
42027
42029
42032
42032
42028
42026
42033
42041
42039
42033
42017
41976
41915
41853
41794
41726
41644
41558
41473
41386
41299
41227
41169
41114
41057
41002
40948
40884
40810
40736
40652
40546
40419
40285
40151
40016
39888
39777
39677
39576
39475
39386
39305
39226
39154
39092
39029
38956
38878
38803
38725
38636
38545
38459
38373
38281
38188
38102
38019
37937
37862
37794
37727
37657
37588
37519
37439
37349
37271
37202
37127
37053
36984
36911
36829
36751
36698
36679
36696
36757
36865
37013
37191
37406
37662
37944
38242
38560
38903
39255
39607
39951
40281
40589
40876
41147
41391
41593
41749
41859
41928
41961
41972
41978
41975
41950
41908
41856
41799
41737
41676
41631
41596
41548
41486
41422
41349
41261
41175
41109
41060
41014
40971
40935
40896
40850
40812
40782
40749
40702
40649
40598
40542
40479
40424
40389
40365
40348
40341
40339
40329
40313
40297
40279
40259
40236
40215
40193
40153
40097
40037
39976
39909
39838
39778
39730
39685
39649
39618
39574
39507
39423
39341
39266
39181
39081
38980
38880
38776
38672
38577
38487
38396
38314
38240
38159
38064
37968
37877
37785
37691
37597
37498
37389
37275
37160
37050
36946
36857
36795
36748
36703
36660
36616
36565
36497
36418
36340
36258
36172
36091
36019
35955
35887
35811
35732
35648
35555
35464
35388
35321
35264
35233
35232
35247
35274
35332
35432
35566
35735
35950
36209
36496
36803
37133
37484
37850
38234
38634
39024
39381
39704
39997
40256
40481
40675
40842
40974
41057
41097
41113
41106
41076
41033
40995
40964
40941
40939
40955
40972
40980
40985
40999
41017
41031
41046
41056
41044
41016
40998
40995
40996
40997
41004
41013
41016
41009
40997
40985
40972
40960
40952
40943
40923
40897
40884
40883
40886
40900
40934
40982
41027
41065
41101
41131
41150
41166
41179
41179
41157
41122
41085
41045
41004
40972
40951
40927
40889
40845
40807
40774
40743
40715
40679
40629
40564
40490
40420
40352
40286
40236
40204
40177
40153
40140
40134
40118
40089
40060
40027
39984
39943
39911
39879
39837
39794
39754
39710
39661
39618
39589
39567
39545
39524
39502
39466
39410
39345
39277
39204
39130
39066
39016
38985
38977
39008
39089
39213
39377
39582
39828
40118
40452
40829
41233
41645
42062
42486
42902
43295
43668
44028
44363
44659
44922
45157
45356
45507
45614
45692
45743
45766
45772
45767
45751
45726
45703
45691
45676
45644
45602
45566
45533
45508
45505
45511
45514
45505
45482
45445
45401
45355
45314
45275
45231
45177
45129
45095
45060
45025
45002
44986
44966
44943
44933
44936
44938
44938
44942
44943
44944
44958
44993
45042
45091
45136
45177
45201
45190
45154
45109
45059
44998
44936
44878
44811
44728
44636
44551
44476
44408
44355
44308
44251
44186
44120
44047
43961
43872
43798
43738
43680
43627
43590
43559
43518
43471
43430
43392
43352
43315
43287
43259
43222
43178
43136
43093
43041
42986
42937
42888
42833
42779
42729
42668
42600
42547
42515
42491
42467
42446
42426
42396
42356
42318
42283
42244
42211
42204
42233
42285
42365
42493
42669
42886
43147
43457
43811
44199
44617
45059
45505
45947
46382
46802
47193
47547
47872
48166
48412
48598
48736
48838
48900
48933
48960
48988
49007
49011
49015
49032
49050
49066
49086
49117
49150
49179
49207
49231
49242
49243
49251
49262
49267
49276
49300
49320
49315
49290
49263
49236
49209
49192
49193
49204
49206
49205
49212
49221
49229
49241
49253
49257
49247
49231
49206
49159
49086
49001
48922
48848
48770
48696
48636
48581
48522
48457
48392
48317
48232
48151
48075
48001
47931
47869
47812
47748
47680
47618
47557
47495
47439
47393
47349
47300
47251
47208
47168
47125
47089
47065
47047
47022
46994
46973
46952
46928
46913
46902
46882
46853
46830
46821
46811
46792
46767
46732
46677
46605
46527
46443
46345
46234
46117
45991
45846
45688
45530
45366
45186
45004
44837
44684
44531
44385
44266
44179
44121
44104
44142
44233
44361
44526
44735
44975
45230
45506
45808
46119
46429
46750
47084
47411
47711
47978
48212
48400
48540
48635
48681
48679
48635
48570
48494
48403
48304
48209
48116
48012
47906
47820
47750
47673
47587
47513
47450
47378
47297
47218
47137
47047
46956
46864
46761
46648
46537
46428
46312
46191
46079
45984
45904
45835
45787
45766
45757
45739
45714
45686
45644
45590
45548
45528
45514
45502
45495
45489
45466
45427
45377
45311
45232
45154
45082
45005
44914
44816
44718
44610
44487
44360
44245
44136
44024
43920
43832
43748
43653
43556
43465
43368
43255
43138
43026
42909
42786
42672
42573
42481
42392
42299
42196
42075
41942
41818
41702
41582
41459
41340
41219
41092
40961
40837
40713
40575
40428
40288
40161
40032
39906
39785
39662
39530
39399
39279
39166
39052
38939
38835
38733
38632
38541
38465
38405
38371
38374
38418
38496
38601
38739
38917
39118
39326
39544
39770
39994
40212
40430
40641
40826
40981
41113
41223
41300
41352
41390
41410
41414
41411
41414
41424
41422
41404
41377
41337
41278
41203
41122
41029
40923
40817
40725
40646
40586
40556
40542
40527
40506
40482
40462
40440
40412
40385
40358
40324
40284
40250
40221
40187
40152
40126
40106
40087
40076
40081
40098
40116
40131
40148
40162
40152
40114
40067
40014
39956
39900
39852
39809
39761
39707
39653
39594
39521
39451
39392
39335
39269
39195
39120
39037
38937
38824
38705
38581
38461
38355
38257
38155
38056
37963
37872
37778
37684
37608
37549
37491
37440
37404
37371
37325
37274
37231
37193
37154
37122
37102
37088
37074
37060
37051
37037
37014
36986
36956
36919
36873
36834
36812
36799
36787
36787
36807
36844
36901
36996
37135
37312
37521
37764
38028
38294
38553
38807
39049
39263
39450
39618
39759
39873
39976
40061
40118
40148
40166
40168
40140
40091
40039
39999
39974
39953
39937
39938
39950
39961
39972
39979
39966
39936
39907
39881
39855
39833
39824
39824
39817
39803
39785
39764
39726
39675
39624
39571
39515
39465
39434
39421
39405
39380
39366
39365
39363
39362
39363
39355
39336
39325
39321
39311
39291
39271
39254
39229
39194
39161
39139
39124
39103
39073
39038
38990
38924
38850
38774
38694
38606
38520
38444
38366
38282
38202
38128
38057
37993
37951
37934
37921
37906
37889
37865
37819
37761
37703
37639
37567
37503
37453
37405
37352
37297
37247
37202
37158
37119
37094
37075
37050
37022
36996
36964
36922
36872
36825
36779
36732
36692
36659
36626
36595
36576
36570
36569
36581
36622
36691
36781
36895
37037
37199
37367
37541
37731
37923
38098
38257
38418
38581
38722
38838
38941
39027
39091
39139
39172
39185
39174
39152
39127
39096
39065
39049
39046
39042
39034
39030
39037
39048
39048
39054
39071
39085
39084
39071
39051
39022
38985
38952
38924
38896
38877
38877
38887
38888
38878
38867
38853
38831
38808
38792
38777
38754
38729
38707
38678
38638
38603
38584
38568
38545
38525
38519
38519
38509
38485
38457
38423
38383
38346
38316
38285
38249
38212
38173
38123
38063
38006
37954
37895
37832
37771
37709
37639
37571
37518
37474
37422
37365
37319
37289
37256
37220
37185
37143
37091
37038
36992
36952
36916
36886
36867
36848
36819
36784
36752
36709
36651
36588
36536
36486
36436
36398
36366
36322
36270
36220
36177
36138
36104
36078
36055
36020
35975
35937
35903
35863
35828
35822
35849
35900
35978
36090
36227
36375
36532
36702
36871
37034
37197
37361
37517
37657
37787
37911
38018
38100
38162
38204
38224
38226
38221
38217
38208
38192
38176
38160
38131
38090
38056
38034
38014
37996
37989
37989
37976
37946
37913
37876
37834
37799
37779
37764
37743
37722
37706
37682
37647
37609
37575
37541
37502
37470
37448
37424
37398
37378
37366
37349
37333
37332
37344
37356
37352
37331
37308
37284
37259
37236
37215
37185
37143
37102
37065
37018
36963
36912
36858
36794
36732
36681
36633
36579
36523
36471
36417
36350
36271
36193
36117
36040
35968
35912
35868
35831
35810
35802
35787
35757
35723
35681
35620
35552
35497
35458
35416
35367
35320
35276
35226
35172
35122
35076
35026
34971
34923
34885
34844
34797
34752
34708
34660
34615
34578
34539
34493
34447
34409
34370
34320
34269
34221
34168
34108
34048
33999
33959
33925
33911
33925
33963
34032
34138
34275
34423
34578
34740
34900
35044
35174
35304
35426
35528
35611
35686
35753
35810
35859
35904
35936
35935
35900
35852
35804
35748
35694
35645
35595
35543
35501
35471
35445
35418
35398
35395
35402
35402
35398
35398
35394
35377
35360
35336
35290
35223
35154
35092
35034
34982
34951
34944
34948
34959
34972
34984
34984
34974
34968
34970
34972
34978
34990
35001
34999
34984
34970
34961
34946
34930
34922
34914
34899
34889
34887
34879
34859
34833
34808
34774
34732
34696
34675
34659
34642
34634
34629
34608
34570
34526
34478
34419
34354
34301
34261
34224
34187
34158
34132
34104
34078
34058
34031
33986
33928
33874
33823
33771
33728
33699
33673
33639
33605
33583
33565
33540
33508
33479
33451
33425
33409
33398
33376
33341
33301
33261
33214
33170
33152
33162
33183
33207
33243
33296
33353
33419
33513
33633
33773
33933
34116
34315
34511
34700
34893
35079
35243
35389
35526
35647
35747
35829
35892
35931
35949
35955
35955
35942
35913
35876
35843
35812
35768
35717
35673
35635
35603
35586
35584
35583
35581
35580
35573
35555
35531
35517
35513
35506
35495
35485
35474
35455
35435
35427
35425
35426
35431
35447
35472
35497
35526
35557
35582
35594
35598
35603
35608
35609
35614
35630
35646
35655
35665
35680
35689
35682
35660
35631
35592
35540
35487
35439
35387
35331
35281
35238
35192
35144
35104
35071
35037
35002
34976
34953
34924
34895
34871
34843
34797
34743
34695
34645
34588
34530
34483
34446
34411
34385
34370
34357
34338
34324
34314
34299
34268
34229
34192
34153
34109
34069
34046
34027
33997
33960
33922
33877
33833
33807
33798
33795
33801
33816
33838
33860
33888
33945
34034
34141
34268
34429
34622
34826
35034
35248
35458
35661
35864
36063
36245
36405
36557
36703
36830
36926
36999
37058
37099
37116
37118
37118
37116
37117
37135
37157
37163
37155
37147
37143
37144
37149
37166
37190
37208
37224
37242
37256
37257
37249
37242
37236
37227
37211
37202
37200
37188
37172
37160
37143
37119
37102
37101
37110
37119
37135
37158
37180
37199
37221
37244
37256
37255
37257
37268
37276
37274
37268
37259
37241
37220
37204
37188
37156
37110
37062
37013
36955
36890
36834
36787
36734
36687
36654
36626
36594
36557
36516
36468
36415
36366
36322
36279
36233
36191
36154
36112
36053
35983
35917
35858
35807
35765
35726
35679
35626
35577
35539
35505
35474
35458
35451
35436
35410
35383
35354
35320
35284
35246
35198
35144
35097
35059
35019
34973
34926
34897
34883
34873
34870
34888
34922
34964
35027
35123
35242
35379
35540
35739
35970
36213
36467
36727
36972
37197
37407
37608
37796
37969
38132
38284
38416
38518
38592
38646
38677
38689
38700
38712
38712
38700
38686
38671
38638
38592
38561
38550
38546
38554
38582
38626
38663
38687
38699
38694
38668
38637
38612
38588
38558
38528
38502
38472
38436
38404
38380
38357
38341
38342
38361
38382
38395
38404
38408
38404
38399
38402
38413
38425
38439
38465
38497
38521
38534
38538
38522
38482
38430
38380
38322
38251
38182
38121
38062
38004
37953
37911
37866
37812
37757
37709
37658
37600
37552
37516
37468
37396
37318
37250
37186
37122
37069
37030
36990
36949
36915
36884
36848
36810
36774
36738
36695
36650
36608
36568
36516
36457
36404
36351
36295
36249
36213
36180
36139
36091
36042
35988
35928
35871
35821
35773
35722
35675
35639
35611
35592
35598
35626
35663
35721
35817
35947
36097
36266
36461
36676
36893
37108
37324
37537
37737
37922
38095
38251
38379
38483
38571
38634
38670
38688
38706
38725
38731
38720
38692
38639
38568
38495
38426
38353
38276
38211
38165
38133
38109
38099
38094
38079
38048
38009
37966
37915
37860
37814
37782
37753
37718
37674
37624
37564
37503
37455
37421
37391
37368
37356
37347
37326
37299
37278
37263
37247
37234
37228
37225
37215
37201
37192
37179
37156
37130
37105
37076
37042
37006
36968
36918
36858
36800
36751
36700
36638
36575
36520
36462
36398
36331
36268
36205
36136
36072
36014
35952
35887
35826
35768
35702
35630
35571
35524
35471
35413
35362
35316
35255
35179
35106
35043
34988
34945
34912
34876
34835
34796
34760
34715
34658
34603
34553
34498
34437
34381
34333
34286
34232
34180
34139
34112
34097
34104
34132
34171
34220
34297
34405
34541
34705
34902
35125
35354
35583
35826
36076
36320
36559
36799
37030
37236
37414
37577
37721
37833
37918
37986
38033
38055
38063
38063
38049
38014
37971
37935
37902
37869
37848
37837
37818
37791
37764
37739
37711
37684
37670
37666
37656
37641
37623
37595
37554
37514
37493
37491
37485
37470
37463
37461
37457
37451
37458
37477
37492
37499
37512
37531
37544
37555
37575
37594
37604
37614
37624
37622
37609
37596
37592
37589
37573
37552
37537
37524
37502
37468
37426
37368
37299
37240
37196
37153
37114
37082
37052
37010
36963
36917
36866
36800
36729
36659
36583
36505
36435
36376
36324
36271
36226
36191
36150
36095
36039
35993
35949
35894
35839
35787
35725
35652
35582
35520
35458
35400
35349
35300
35246
35194
35159
35137
35113
35090
35079
35082
35100
35144
35234
35364
35527
35733
35984
36267
36570
36889
37218
37541
37848
38143
38425
38688
38920
39124
39309
39470
39600
39707
39800
39873
39926
39980
40044
40095
40124
40149
40180
40201
40205
40206
40206
40202
40201
40213
40235
40255
40272
40290
40304
40300
40279
40257
40233
40204
40174
40143
40108
40067
40028
39991
39950
39904
39860
39826
39797
39764
39734
39715
39707
39700
39699
39699
39685
39660
39637
39621
39604
39588
39585
39595
39607
39615
39621
39622
39602
39559
39510
39460
39403
39336
39270
39206
39138
39071
39014
38962
38904
38843
38789
38737
38680
38626
38581
38537
38484
38428
38375
38315
38238
38154
38077
38001
37923
37855
37799
37740
37677
37615
37553
37482
37401
37322
37249
37174
37097
37029
36965
36898
36830
36773
36726
36672
36610
36549
36486
36419
36360
36323
36309
36318
36358
36442
36565
36725
36937
37212
37537
37899
38298
38736
39195
39656
40110
40543
40935
41286
41608
41907
42173
42392
42574
42726
42841
42924
42989
43039
43071
43092
43118
43144
43159
43169
43192
43221
43233
43230
43226
43221
43213
43209
43219
43241
43265
43290
43318
43340
43355
43364
43366
43348
43312
43271
43234
43192
43147
43122
43131
43161
43200
43253
43321
43390
43455
43527
43607
43681
43744
43802
43845
43860
43849
43823
43787
43737
43682
43638
43605
43570
43534
43508
43484
43456
43431
43410
43384
43346
43297
43245
43184
43111
43032
42961
42895
42828
42765
42718
42680
42633
42576
42508
42423
42319
42202
42081
41954
41826
41715
41625
41544
41470
41411
41365
41314
41254
41201
41152
41099
41049
41009
40968
40916
40863
40813
40758
40695
40635
40582
40532
40480
40433
40388
40332
40267
40207
40157
40117
40095
40109
40167
40264
40389
40553
40769
41026
41316
41637
41980
42330
42682
43039
43395
43725
44023
44303
44562
44789
44987
45162
45305
45416
45505
45577
45626
45645
45643
45635
45618
45588
45557
45538
45525
45513
45506
45512
45526
45547
45578
45617
45647
45663
45676
45687
45685
45664
45638
45609
45563
45504
45445
45395
45353
45318
45304
45314
45338
45382
45440
45495
45538
45577
45620
45661
45690
45713
45732
45734
45712
45673
45631
45586
45530
45474
45427
45383
45331
45276
45220
45147
45052
44943
44832
44719
44603
44495
44402
44313
44225
44145
44070
43986
43892
43800
43713
43626
43544
43469
43396
43325
43265
43223
43192
43168
43153
43151
43155
43160
43170
43178
43167
43130
43077
43021
42964
42904
42850
42808
42774
42741
42712
42697
42682
42649
42600
42551
42495
42433
42377
42328
42274
42210
42137
42054
41958
41862
41789
41749
41735
41759
41834
41956
42122
42341
42612
42919
43254
43617
44011
44423
44828
45220
45603
45972
46306
46602
46862
47078
47244
47373
47475
47542
47573
47582
47569
47523
47446
47353
47255
47150
47044
46952
46877
46813
46754
46707
46670
46628
46578
46527
46471
46407
46341
46282
46222
46158
46101
46053
46006
45953
45900
45854
45811
45765
45720
45692
45680
45675
45684
45711
45740
45759
45774
45783
45774
45744
45707
45674
45643
45617
45607
45611
45617
45623
45636
45644
45630
45597
45559
45514
45451
45377
45306
45243
45172
45097
45031
44972
44899
44815
44738
44668
44603
44554
44522
44494
44450
44399
44351
44294
44221
44140
44057
43980
43915
43878
43874
43894
43922
43956
43996
44034
44062
44083
44098
44104
44100
44091
44077
44054
44024
43993
43958
43910
43854
43801
43743
43681
43629
43609
43624
43659
43720
43828
43983
44175
44407
44685
45000
45340
45709
46112
46531
46950
47367
47779
48168
48506
48782
49008
49184
49310
49406
49473
49505
49512
49515
49515
49501
49471
49426
49365
49288
49208
49136
49066
48986
48898
48814
48731
48636
48536
48443
48357
48279
48217
48175
48147
48125
48112
48112
48113
48106
48097
48087
48066
48034
48016
48023
48041
48065
48112
48177
48249
48321
48392
48465
48535
48599
48662
48721
48775
48823
48862
48887
48896
48904
48918
48924
48902
48860
48827
48805
48785
48771
48767
48761
48747
48732
48721
48703
48675
48643
48611
48575
48535
48501
48489
48498
48512
48529
48546
48548
48517
48462
48395
48316
48233
48167
48116
48066
48022
47996
47988
47981
47975
47976
47975
47961
47940
47919
47897
47860
47812
47769
47730
47680
47619
47556
47485
47407
47335
47273
47216
47162
47125
47112
47114
47139
47209
47335
47504
47713
47978
48308
48691
49112
49570
50051
50528
50997
51457
51893
52288
52637
52944
53204
53405
53554
53649
53684
53663
53610
53552
53496
53444
53407
53393
53391
53394
53403
53424
53446
53451
53444
53438
53420
53381
53334
53280
53206
53116
53030
52943
52841
52727
52621
52538
52472
52413
52369
52342
52309
52256
52191
52123
52047
51966
51899
51849
51803
51770
51772
51798
51826
51851
51878
51894
51885
51855
51817
51765
51691
51601
51511
51417
51311
51205
51114
51034
50958
50895
50853
50816
50766
50704
50637
50553
50452
50343
50226
50108
49998
49902
49816
49729
49644
49565
49483
49386
49281
49192
49118
49040
48954
48870
48782
48682
48576
48491
48430
48376
48329
48298
48272
48242
48211
48177
48128
48054
47970
47890
47812
47735
47676
47640
47610
47575
47547
47530
47517
47507
47507
47512
47506
47499
47510
47542
47599
47695
47846
48053
48307
48606
48951
49336
49748
50189
50661
51152
51637
52108
52558
52962
53303
53581
53803
53970
54086
54160
54204
54216
54186
54128
54074
54027
53985
53960
53955
53955
53953
53947
53925
53875
53806
53740
53676
53609
53546
53494
53449
53406
53370
53351
53343
53342
53356
53385
53414
53419
53396
53363
53312
53229
53127
53023
52912
52793
52680
52586
52504
52423
52353
52309
52279
52245
52213
52184
52140
52064
51960
51835
51682
51505
51327
51164
51005
50853
50718
50601
50491
50382
50291
50219
50147
50072
50000
49922
49828
49720
49613
49508
49406
49324
49263
49211
49160
49117
49082
49037
48971
48901
48838
48772
48701
48642
48590
48526
48447
48369
48300
48235
48171
48120
48085
48064
48055
48056
48056
48039
48005
47964
47908
47825
47719
47608
47501
47397
47302
47223
47148
47057
46952
46843
46730
46609
46494
46398
46324
46270
46257
46303
46400
46536
46722
46973
47278
47616
47985
48391
48819
49259
49719
50179
50602
50983
51329
51641
51911
52136
52324
52475
52587
52668
52720
52741
52731
52693
52638
52571
52487
52393
52303
52212
52112
52011
51916
51812
51690
51560
51436
51314
51186
51061
50941
50814
50681
50556
50438
50313
50177
50039
49918
49823
49748
49694
49660
49631
49601
49572
49547
49514
49469
49433
49407
49378
49343
49308
49264
49200
49125
49060
49007
48957
48909
48871
48833
48786
48739
48695
48643
48567
48474
48373
48266
48153
48048
47962
47886
47802
47719
47637
47542
47436
47326
47209
47081
46953
46845
46750
46656
46563
46477
46400
46321
46245
46176
46107
46019
45922
45837
45757
45673
45587
45511
45444
45365
45270
45180
45097
45018
44951
44901
44851
44793
44742
44701
44652
44596
44547
44501
44436
44348
44258
44186
44135
44111
44137
44222
44359
44548
44794
45097
45439
45812
46210
46620
47037
47466
47903
48325
48711
49063
49384
49667
49900
50089
50244
50363
50441
50486
50503
50485
50438
50371
50291
50191
50070
49947
49834
49727
49621
49525
49450
49393
49345
49305
49272
49240
49207
49176
49139
49078
48994
48902
48807
48707
48611
48535
48471
48406
48351
48312
48280
48250
48225
48219
48228
48244
48273
48315
48351
48369
48375
48375
48363
48334
48300
48269
48233
48177
48110
48041
47968
47898
47843
47802
47762
47716
47671
47611
47517
47392
47255
47118
46979
46840
46707
46575
46438
46307
46186
46067
45943
45821
45712
45610
45511
45420
45337
45255
45164
45069
44977
44878
44768
44655
44544
44436
44340
44268
44216
44168
44119
44074
44032
43980
43917
43852
43796
43748
43701
43651
43594
43524
43448
43373
43295
43205
43112
43041
42990
42946
42914
42910
42942
43007
43110
43259
43449
43679
43955
44269
44608
44967
45346
45743
46148
46555
46964
47368
47747
48093
48410
48694
48931
49118
49264
49377
49450
49482
49485
49464
49411
49328
49234
49138
49035
48928
48837
48761
48692
48630
48589
48566
48539
48501
48460
48414
48362
48311
48271
48230
48175
48116
48060
48001
47928
47852
47780
47708
47635
47572
47525
47487
47461
47458
47469
47474
47471
47468
47465
47454
47440
47428
47413
47393
47374
47360
47342
47307
47257
47201
47140
47059
46960
46859
46756
46648
46545
46457
46376
46296
46222
46158
46093
46017
45926
45825
45712
45587
45461
45348
45241
45132
45029
44935
44837
44734
44637
44543
44444
44351
44284
44236
44196
44160
44131
44103
44062
44009
43955
43902
43837
43760
43693
43636
43583
43538
43507
43479
43437
43384
43330
43269
43196
43119
43049
42984
42913
42842
42780
42723
42660
42597
42543
42497
42459
42441
42463
42531
42642
42805
43030
43307
43630
44003
44418
44854
45304
45768
46231
46673
47093
47499
47880
48215
48501
48752
48969
49136
49257
49343
49394
49405
49393
49367
49314
49226
49127
49033
48946
48866
48801
48756
48727
48698
48667
48639
48606
48565
48533
48513
48493
48464
48425
48374
48301
48218
48148
48095
48058
48043
48057
48094
48136
48180
48225
48258
48271
48273
48287
48317
48345
48369
48388
48391
48375
48358
48353
48355
48354
48355
48365
48370
48352
48316
48274
48219
48147
48062
47972
47878
47774
47665
47557
47447
47338
47234
47138
47047
46967
46906
46855
46799
46743
46695
46645
46572
46476
46371
46260
46141
46022
45909
45798
45685
45579
45497
45434
45372
45316
45275
45244
45217
45199
45192
45178
45149
45121
45095
45057
45001
44930
44848
44756
44657
44563
44477
44398
44328
44275
44233
44190
44141
44095
44048
43990
43923
43854
43780
43692
43597
43510
43433
43372
43341
43354
43411
43513
43668
43888
44162
44476
44832
45234
45661
46086
46512
46933
47331
47698
48042
48363
48650
48902
49123
49302
49428
49510
49571
49613
49627
49609
49564
49488
49375
49231
49080
48926
48769
48625
48512
48423
48340
48261
48186
48107
48017
47922
47830
47732
47628
47533
47446
47350
47250
47163
47091
47020
46949
46892
46852
46820
46798
46796
46811
46824
46826
46823
46817
46798
46768
46737
46706
46671
46639
46613
46588
46557
46530
46518
46512
46491
46458
46424
46388
46339
46281
46216
46137
46031
45904
45768
45625
45472
45323
45190
45064
44941
44836
44748
44654
44543
44425
44308
44193
44081
43980
43890
43800
43708
43622
43544
43466
43391
43330
43280
43235
43194
43158
43118
43066
43011
42962
42910
42842
42764
42692
42627
42565
42516
42489
42475
42463
42456
42455
42452
42430
42386
42326
42244
42132
42011
41898
41789
41691
41627
41604
41612
41653
41747
41903
42108
42357
42658
43004
43379
43778
44202
44635
45055
45454
45826
46159
46439
46665
46850
46999
47111
47198
47273
47332
47370
47396
47415
47417
47398
47366
47324
47272
47215
47169
47140
47122
47106
47096
47083
47049
46987
46906
46818
46722
46626
46553
46503
46456
46408
46369
46336
46303
46270
46242
46211
46161
46095
46037
45991
45957
45944
45951
45963
45976
45999
46033
46062
46076
46086
46098
46099
46081
46054
46025
45992
45950
45904
45852
45787
45710
45634
45565
45499
45442
45400
45359
45304
45236
45164
45088
44998
44899
44801
44700
44588
44468
44356
44250
44147
44058
43994
43952
43915
43882
43849
43803
43743
43678
43612
43533
43436
43333
43239
43151
43065
42994
42955
42941
42935
42934
42938
42933
42908
42868
42824
42774
42716
42661
42603
42534
42463
42397
42333
42271
42222
42193
42181
42181
42206
42276
42396
42564
42787
43072
43410
43790
44209
44665
45139
45613
46080
46543
46994
47418
47816
48192
48533
48838
49121
49372
49565
49695
49776
49822
49832
49801
49737
49655
49554
49442
49336
49238
49145
49069
49021
48987
48949
48911
48892
48890
48874
48837
48799
48758
48707
48648
48590
48528
48464
48413
48375
48340
48303
48270
48241
48208
48165
48125
48098
48071
48039
48017
48010
48005
48003
48017
48044
48071
48093
48116
48137
48144
48132
48118
48107
48077
48026
47965
47901
47828
47750
47677
47604
47526
47453
47398
47354
47303
47249
47195
47135
47060
46970
46877
46777
46666
46551
46442
46332
46216
46115
46033
45949
45861
45780
45704
45622
45536
45453
45369
45279
45191
45112
45039
44957
44875
44804
44736
44661
44588
44529
44488
44455
44428
44403
44366
44315
44261
44207
44146
44080
44017
43956
43892
43825
43766
43723
43696
43680
43684
43716
43774
43864
44009
44214
44465
44752
45081
45454
45858
46285
46741
47215
47695
48180
48675
49168
49639
50082
50495
50863
51163
51394
51570
51690
51758
51789
51794
51772
51721
51659
51601
51545
51482
51420
51366
51307
51241
51186
51150
51122
51087
51052
51019
50979
50924
50860
50793
50721
50647
50583
50528
50475
50431
50394
50357
50312
50267
50233
50207
50179
50158
50150
50143
50127
50110
50091
50060
50017
49965
49920
49883
49847
49814
49784
49744
49693
49645
49606
49566
49524
49487
49454
49406
49333
49244
49152
49054
48946
48843
48749
48652
48551
48454
48360
48259
48153
48053
47949
47837
47722
47620
47527
47431
47339
47264
47196
47115
47020
46924
46824
46720
46626
46545
46467
46384
46301
46225
46146
46060
45985
45927
45875
45822
45778
45740
45691
45626
45553
45484
45414
45339
45274
45221
45163
45101
45048
45004
44952
44898
44851
44798
44732
44659
44593
44541
44495
44465
44467
44505
44585
44719
44913
45165
45471
45835
46260
46726
47213
47713
48219
48712
49179
49625
50041
50412
50718
50964
51158
51298
51390
51450
51486
51494
51478
51449
51406
51342
51261
51185
51120
51055
50991
50932
50869
50790
50702
50618
50536
50451
50368
50282
50186
50075
49956
49839
49723
49609
49512
49438
49369
49287
49200
49114
49020
48922
48845
48788
48740
48699
48672
48660
48651
48649
48670
48710
48750
48779
48797
48798
48778
48740
48696
48642
48569
48483
48407
48338
48252
48149
48053
47962
47867
47776
47698
47622
47543
47466
47385
47289
47185
47081
46976
46858
46725
46593
46473
46363
46257
46162
46077
45991
45900
45817
45744
45678
45616
45563
45514
45453
45377
45297
45212
45119
45020
44929
44849
44769
44693
44630
44570
44496
44410
44324
44240
44155
44076
44007
43938
43860
43773
43678
43570
43449
43333
43239
43164
43104
43070
43075
43127
43230
43386
43594
43844
44133
44465
44833
45229
45645
46074
46508
46931
47344
47756
48155
48522
48852
49149
49407
49609
49758
49867
49934
49963
49970
49965
49945
49905
49851
49793
49732
49660
49582
49516
49464
49415
49376
49348
49315
49262
49196
49128
49059
48986
48918
48854
48787
48723
48667
48614
48563
48521
48496
48482
48468
48455
48456
48466
48469
48469
48473
48470
48461
48469
48492
48510
48516
48517
48520
48522
48523
48524
48522
48508
48480
48448
48411
48355
48277
48188
48099
48008
47913
47826
47752
47679
47603
47522
47433
47332
47222
47119
47025
46932
46846
46768
46689
46594
46486
46387
46303
46219
46137
46074
46028
45984
45938
45894
45846
45784
45713
45645
45579
45509
45447
45408
45383
45356
45324
45295
45260
45215
45171
45144
45131
45121
45114
45108
45088
45048
44993
44935
44872
44804
44754
44736
44747
44794
44886
45025
45211
45451
45747
46094
46482
46915
47398
47909
48412
48896
49367
49810
50203
50543
50833
51065
51235
51359
51444
51483
51466
51407
51325
51223
51103
50974
50841
50702
50572
50465
50372
50283
50202
50136
50080
50021
49956
49900
49850
49796
49750
49728
49721
49713
49703
49691
49671
49649
49647
49668
49698
49734
49793
49875
49965
50055
50155
50260
50346
50402
50439
50478
50521
50562
50609
50668
50730
50781
50814
50831
50826
50806
50789
50773
50747
50714
50674
50611
50526
50432
50341
50249
50153
50058
49967
49878
49780
49677
49584
49500
49420
49354
49303
49248
49177
49096
49009
48908
48795
48687
48596
48518
48450
48398
48355
48301
48230
48151
48073
47991
47905
47829
47760
47687
47613
47547
47487
47422
47361
47307
47249
47185
47124
47076
47035
46987
46930
46867
46794
46711
46628
46554
46486
46422
46370
46341
46339
46364
46427
46538
46697
46901
47157
47467
47826
48222
48654
49114
49586
50070
50570
51068
51538
51970
52363
52713
53007
53248
53457
53636
53774
53877
53959
54014
54026
54001
53959
53902
53825
53741
53666
53599
53533
53474
53425
53375
53317
53262
53221
53186
53150
53115
53090
53063
53017
52954
52882
52800
52711
52632
52568
52511
52462
52426
52403
52379
52350
52330
52319
52307
52300
52305
52314
52311
52287
52265
52258
52251
52235
52222
52215
52200
52173
52141
52099
52037
51960
51877
51786
51680
51570
51461
51342
51206
51061
50917
50774
50635
50513
50411
50314
50221
50136
50054
49958
49850
49742
49633
49520
49409
49309
49218
49116
49007
48905
48808
48710
48621
48547
48484
48417
48347
48285
48221
48143
48062
47988
47923
47857
47794
47744
47697
47631
47555
47489
47428
47364
47306
47259
47211
47152
47086
47018
46941
46856
46778
46708
46642
46584
46537
46499
46463
46437
46446
46497
46582
46711
46906
47171
47498
47882
48321
48801
49303
49823
50363
50905
51429
51934
52413
52843
53209
53518
53772
53963
54094
54179
54224
54223
54186
54135
54073
53992
53899
53808
53723
53637
53550
53469
53396
53329
53277
53238
53197
53146
53088
53034
52982
52913
52828
52743
52655
52561
52468
52389
52322
52262
52214
52182
52157
52134
52111
52086
52053
52017
51997
51991
51984
51979
51984
51997
52005
52001
51987
51966
51934
51893
51854
51816
51768
51711
51655
51598
51524
51443
51365
51285
51197
51105
51021
50943
50855
50754
50644
50520
50386
50249
50116
49987
49861
49751
49664
49586
49511
49438
49364
49280
49186
49090
49001
48915
48828
48741
48650
48546
48428
48313
48208
48108
48019
47949
47896
47843
47787
47742
47701
47653
47600
47555
47512
47463
47411
47355
47290
47215
47138
47066
46993
46913
46834
46763
46690
46613
46539
46483
46448
46438
46476
46573
46721
46915
47162
47460
47803
48197
48652
49156
49683
50219
50754
51277
51771
52232
52661
53043
53371
53646
53876
54057
54168
54212
54213
54176
54106
54022
53933
53840
53745
53659
53585
53514
53435
53350
53274
53206
53136
53077
53039
53006
52965
52920
52876
52823
52759
52702
52660
52628
52603
52587
52573
52549
52519
52499
52489
52482
52480
52482
52482
52479
52479
52485
52489
52492
52502
52522
52543
52559
52573
52590
52601
52604
52610
52625
52632
52620
52593
52557
52499
52407
52297
52188
52081
51969
51855
51739
51609
51468
51330
51203
51085
50978
50889
50812
50733
50653
50587
50522
50442
50355
50273
50183
50073
49953
49833
49708
49581
49470
49383
49315
49256
49209
49177
49149
49119
49091
49070
49047
49013
48968
48916
48852
48771
48684
48605
48531
48456
48388
48331
48272
48219
48198
48217
48281
48396
48572
48808
49083
49396
49762
50168
50594
51040
51504
51976
52442
52902
53360
53802
54210
54587
54938
55254
55522
55741
55912
56026
56078
56078
56040
55970
55866
55746
55621
55481
55317
55134
54949
54771
54603
54461
54339
54224
54113
54005
53898
53780
53654
53546
53452
53355
53260
53178
53097
53005
52914
52841
52783
52734
52701
52689
52688
52688
52692
52709
52733
52753
52772
52798
52822
52832
52841
52860
52885
52904
52921
52934
52924
52880
52813
52736
52654
52572
52497
52424
52342
52255
52168
52077
51973
51864
51776
51707
51635
51560
51493
51424
51332
51220
51101
50974
50836
50699
50580
50474
50366
50262
50168
50073
49969
49865
49772
49684
49597
49521
49451
49380
49313
49255
49200
49131
49052
48974
48903
48837
48774
48720
48674
48621
48561
48504
48444
48376
48308
48251
48202
48151
48100
48057
48025
48007
48018
48077
48181
48326
48532
48808
49148
49541
49980
50460
50963
51476
52001
52538
53068
53577
54064
54520
54926
55275
55579
55843
56063
56238
56378
56482
56540
56562
56566
56554
56530
56501
56482
56466
56439
56400
56362
56322
56287
56267
56266
56277
56298
56333
56381
56428
56460
56478
56481
56462
56422
56380
56342
56296
56238
56185
56149
56117
56084
56060
56051
56046
56044
56053
56071
56082
56090
56106
56131
56154
56175
56206
56242
56272
56299
56329
56351
56347
56317
56274
56217
56142
56055
55966
55870
55759
55646
55541
55436
55323
55213
55105
54993
54877
54764
54652
54542
54433
54327
54218
54095
53960
53829
53702
53573
53445
53322
53206
53093
52985
52896
52816
52744
52692
52657
52626
52588
52542
52489
52423
52343
52260
52179
52096
52001
51905
51815
51724
51629
51542
51474
51409
51337
51261
51183
51098
51001
50904
50817
50727
50630
50537
50467
50429
50435
50508
50648
50842
51096
51414
51790
52214
52680
53192
53739
54277
54793
55293
55767
56209
56622
57012
57369
57674
57926
58136
58300
58419
58505
58560
58575
58549
58498
58428
58330
58212
58099
58003
57916
57835
57768
57722
57685
57657
57646
57640
57627
57598
57550
57479
57375
57240
57088
56924
56743
56554
56379
56224
56094
56000
55933
55871
55801
55725
55658
55604
55554
55513
55486
55466
55446
55427
55415
55401
55378
55348
55319
55292
55264
55241
55221
55191
55144
55080
55000
54895
54764
54628
54498
54369
54245
54132
54027
53915
53797
53688
53589
53486
53378
53283
53196
53102
53003
52899
52779
52645
52509
52374
52231
52083
51940
51813
51702
51598
51509
51438
51373
51304
51238
51174
51094
50996
50902
50816
50732
50658
50602
50555
50505
50454
50402
50344
50278
50208
50150
50103
50057
50014
49972
49921
49847
49755
49665
49583
49502
49435
49411
49441
49516
49642
49833
50083
50380
50733
51147
51604
52088
52601
53132
53656
54160
54640
55097
55518
55894
56236
56552
56835
57080
57285
57453
57578
57661
57713
57734
57722
57685
57634
57572
57487
57381
57269
57157
57039
56921
56823
56745
56679
56629
56591
56550
56498
56443
56386
56314
56228
56141
56060
55975
55883
55794
55712
55628
55547
55485
55447
55424
55412
55426
55469
55519
55564
55604
55632
55640
55632
55621
55604
55574
55542
55513
55474
55424
55372
55323
55271
55202
55119
55038
54959
54870
54776
54683
54585
54473
54353
54244
54148
54054
53972
53909
53846
53763
53666
53566
53458
53341
53225
53112
53002
52897
52800
52700
52587
52469
52358
52249
52138
52033
51945
51873
51801
51734
51688
51660
51623
51570
51509
51438
51356
51273
51196
51121
51045
50980
50930
50883
50831
50780
50728
50665
50586
50508
50440
50376
50313
50273
50266
50286
50346
50463
50644
50891
51212
51610
52067
52560
53086
53634
54183
54719
55233
55729
56203
56628
56997
57314
57577
57786
57950
58087
58201
58293
58368
58426
58451
58441
58409
58365
58303
58219
58119
58009
57880
57730
57577
57432
57294
57170
57072
56995
56916
56831
56747
56662
56567
56457
56337
56203
56046
55876
55698
55507
55304
55101
54921
54772
54644
54528
54435
54357
54289
54239
54213
54198
54185
54182
54188
54183
54160
54131
54104
54069
54026
53992
53977
53970
53961
53952
53941
53913
53865
53811
53752
53671
53564
53455
53353
53244
53125
53005
52881
52748
52614
52490
52378
52264
52149
52050
51964
51877
51792
51704
51595
51466
51327
51186
51037
50877
50721
50582
50450
50312
50181
50065
49950
49829
49715
49614
49519
49427
49343
49265
49179
49080
48975
48872
48770
48677
48606
48551
48493
48437
48393
48348
48283
48205
48141
48098
48070
48067
48106
48190
48319
48503
48758
49083
49465
49905
50408
50956
51526
52108
52694
53264
53802
54307
54782
55213
55583
55890
56139
56330
56472
56586
56678
56739
56772
56792
56802
56786
56741
56686
56623
56545
56457
56362
56263
56158
56052
55955
55870
55784
55700
55632
55576
55517
55458
55405
55346
55278
55212
55151
55084
55014
54953
54897
54828
54751
54680
54621
54565
54509
54464
54437
54417
54397
54383
54371
54352
54326
54304
54282
54252
54216
54174
54119
54043
53953
53864
53775
53680
53590
53497
53388
53261
53126
52992
52850
52694
52532
52377
52228
52080
51945
51826
51714
51601
51495
51411
51343
51285
51242
51208
51161
51094
51012
50921
50821
50712
50611
50525
50437
50343
50253
50165
50073
49989
49929
49891
49853
49811
49772
49728
49660
49571
49472
49363
49237
49106
48971
48817
48643
48464
48302
48160
48024
47893
47769
47638
47500
47373
47263
47159
47066
47002
46979
46997
47059
47188
47387
47646
47962
48336
48755
49210
49700
50224
50762
51282
51781
52264
52719
53125
53476
53786
54060
54289
54478
54636
54753
54830
54881
54909
54906
54873
54825
54780
54735
54682
54627
54565
54483
54387
54293
54205
54115
54024
53938
53854
53757
53653
53556
53461
53365
53273
53183
53083
52974
52867
52772
52687
52609
52544
52498
52463
52420
52373
52341
52321
52309
52313
52335
52360
52383
52409
52436
52459
52479
52508
52547
52581
52594
52588
52566
52532
52486
52438
52385
52319
52241
52156
52065
51966
51860
51760
51668
51571
51471
51375
51267
51152
51044
50946
50851
50741
50615
50490
50370
50250
50141
50044
49948
49848
49749
49656
49569
49482
49400
49331
49262
49185
49105
49027
48952
48889
48848
48825
48807
48786
48758
48717
48655
48577
48500
48431
48354
48268
48184
48103
48018
47943
47903
47901
47938
48025
48168
48361
48597
48883
49231
49633
50079
50564
51078
51608
52135
52653
53164
53654
54113
54542
54938
55287
55576
55811
55993
56116
56193
56240
56260
56244
56193
56120
56035
55939
55839
55746
55666
55583
55496
55419
55353
55285
55211
55149
55093
55016
54918
54812
54692
54561
54435
54323
54221
54123
54030
53948
53879
53817
53769
53742
53723
53706
53696
53695
53689
53679
53678
53686
53692
53695
53705
53724
53742
53754
53765
53780
53782
53764
53745
53727
53701
53669
53640
53606
53551
53474
53384
53277
53152
53021
52897
52778
52660
52551
52461
52377
52291
52205
52117
52014
51902
51798
51707
51616
51512
51403
51292
51171
51042
50925
50823
50722
50623
50535
50461
50382
50296
50222
50164
50105
50049
50002
49953
49889
49817
49751
49691
49625
49558
49502
49453
49401
49349
49306
49272
49244
49235
49261
49323
49424
49575
49779
50031
50334
50694
51116
51586
52083
52595
53120
53657
54193
54725
55242
55715
56135
56503
56811
57053
57235
57371
57471
57516
57516
57495
57455
57397
57337
57282
57228
57161
57080
56994
56900
56794
56685
56582
56479
56369
56260
56156
56046
55916
55782
55659
55544
55426
55303
55186
55070
54950
54836
54733
54637
54543
54455
54377
54300
54234
54196
54184
54186
54204
54243
54288
54316
54329
54337
54334
54320
54299
54278
54251
54211
54156
54093
54018
53931
53853
53794
53741
53688
53636
53576
53495
53392
53277
53164
53052
52931
52798
52657
52509
52357
52222
52106
51996
51890
51798
51724
51643
51547
51450
51352
51249
51149
51057
50966
50869
50770
50676
50583
50490
50404
50336
50277
50215
50158
50107
50055
49998
49944
49890
49825
49748
49668
49589
49503
49407
49318
49244
49178
49126
49103
49125
49197
49323
49515
49773
50088
50461
50896
51379
51881
52398
52947
53520
54085
54628
55147
55629
56060
56442
56780
57068
57299
57479
57613
57698
57734
57734
57710
57666
57603
57534
57465
57385
57295
57209
57137
57072
57006
56945
56896
56848
56792
56738
56687
56632
56576
56522
56465
56393
56307
56217
56124
56023
55919
55832
55768
55704
55635
55562
55479
55394
55326
55286
55264
55244
55231
55228
55225
55217
55214
55218
55219
55212
55207
55196
55161
55105
55045
54978
54887
54772
54652
54534
54416
54304
54208
54127
54044
53957
53876
53799
53720
53641
53563
53477
53364
53220
53075
52932
52774
52606
52446
52291
52137
51991
51867
51762
51661
51563
51479
51396
51290
51165
51035
50901
50766
50640
50521
50390
50244
50098
49963
49835
49719
49626
49554
49481
49403
49335
49276
49207
49124
49045
48977
48896
48810
48749
48722
48727
48775
48881
49044
49246
49491
49799
50166
50569
51001
51464
51940
52407
52864
53319
53751
54133
54460
54737
54961
55132
55265
55367
55432
55452
55432
55391
55344
55291
55239
55189
55129
55061
54993
54925
54858
54799
54757
54722
54674
54614
54552
54483
54401
54314
54228
54134
54023
53906
53800
53707
53616
53535
53473
53416
53356
53302
53261
53221
53181
53156
53144
53128
53102
53079
53066
53055
53038
53015
52996
52975
52952
52937
52932
52930
52931
52927
52900
52852
52795
52736
52667
52576
52468
52365
52268
52171
52083
52002
51921
51839
51762
51691
51619
51548
51491
51452
51414
51361
51292
51214
51124
51031
50947
50870
50782
50679
50576
50486
50403
50321
50242
50170
50100
50032
49977
49934
49890
49841
49789
49732
49663
49586
49514
49445
49370
49295
49235
49191
49157
49148
49180
49254
49367
49523
49729
49977
50260
50584
50941
51302
51652
52000
52352
52702
53037
53359
53665
53941
54186
54413
54612
54755
54845
54902
54929
54927
54901
54859
54806
54733
54647
54566
54490
54415
54350
54295
54238
54176
54121
54081
54045
53998
53942
53883
53812
53725
53637
53556
53477
53394
53311
53241
53178
53112
53048
52990
52927
52864
52818
52785
52753
52716
52674
52629
52583
52539
52506
52482
52453
52419
52392
52364
52322
52272
52224
52170
52100
52018
51938
51863
51789
51723
51667
51604
51531
51458
51393
51322
51240
51150
51055
50953
50851
50761
50679
50590
50487
50382
50284
50185
50092
50016
49956
49890
49815
49745
49684
49621
49551
49475
49394
49302
49202
49114
49037
48947
48844
48748
48661
48575
48493
48429
48380
48331
48277
48218
48144
48054
47961
47882
47820
47778
47767
47794
47857
47957
48112
48323
48573
48850
49152
49478
49820
50170
50533
50896
51242
51565
51855
52107
52314
52483
52627
52743
52820
52869
52899
52904
52887
52860
52834
52812
52788
52765
52752
52739
52713
52678
52644
52613
52580
52548
52516
52469
52407
52348
52303
52263
52219
52178
52141
52096
52044
52001
51966
51926
51874
51819
51768
51710
51650
51603
51568
51539
51522
51522
51530
51531
51529
51542
51568
51592
51615
51635
51641
51626
51590
51543
51484
51414
51340
51273
51211
51148
51090
51035
50967
50886
50813
50751
50682
50601
50521
50438
50340
50231
50130
50037
49940
49839
49738
49638
49526
49408
49306
49222
49137
49049
48968
48893
48814
48727
48652
48592
48527
48450
48367
48273
48166
48059
47963
47871
47778
47694
47625
47552
47462
47368
47290
47226
47157
47081
47002
46917
46833
46774
46746
46741
46758
46805
46890
47012
47169
47379
47635
47915
48216
48540
48876
49212
49540
49863
50169
50441
50679
50889
51066
51206
51324
51428
51512
51569
51603
51616
51606
51580
51555
51534
51505
51465
51419
51369
51313
51249
51189
51139
51088
51034
50982
50927
50865
50799
50749
50714
50674
50627
50585
50541
50484
50420
50361
50306
50243
50171
50104
50046
49985
49922
49871
49830
49794
49766
49747
49730
49713
49707
49712
49718
49713
49695
49674
49643
49602
49558
49508
49441
49353
49253
49156
49064
48983
48924
48879
48833
48784
48737
48681
48610
48529
48448
48368
48274
48169
48060
47939
47807
47678
47560
47446
47333
47228
47133
47036
46933
46838
46757
46674
46590
46510
46426
46326
46214
46105
45999
45890
45783
45685
45596
45500
45400
45314
45248
45190
45131
45072
45012
44948
44883
44829
44778
44714
44655
44616
44593
44585
44608
44677
44786
44925
45098
45310
45545
45798
46079
46386
46704
47019
47329
47629
47900
48141
48370
48588
48778
48931
49047
49134
49189
49218
49240
49254
49256
49250
49236
49215
49188
49155
49129
49109
49079
49045
49025
49015
49003
48988
48978
48969
48942
48896
48844
48786
48722
48661
48608
48554
48495
48439
48399
48374
48349
48330
48330
48335
48334
48337
48346
48350
48344
48344
48358
48368
48369
48371
48376
48373
48361
48355
48354
48342
48323
48300
48268
48222
48162
48112
48076
48035
47991
47947
47892
47825
47759
47708
47667
47623
47578
47532
47475
47406
47339
47280
47218
47151
47091
47041
46986
46924
46872
46840
46821
46809
46800
46784
46748
46701
46658
46616
46566
46505
46443
46385
46322
46260
46208
46155
46099
46053
46024
46003
45979
45958
45947
45937
45923
45914
45929
45974
46047
46158
46320
46528
46770
47053
47379
47736
48121
48536
48971
49395
49793
50166
50518
50842
51134
51403
51646
51845
51998
52117
52211
52277
52320
52359
52398
52423
52432
52439
52439
52425
52407
52395
52387
52364
52333
52307
52285
52262
52248
52247
52245
52231
52207
52177
52138
52090
52045
52009
51970
51924
51881
51850
51825
51799
51783
51786
51798
51807
51812
51814
51807
51794
51789
51794
51798
51796
51797
51804
51800
51781
51758
51728
51684
51639
51599
51553
51489
51411
51333
51247
51155
51071
51002
50937
50865
50793
50720
50638
50546
50459
50386
50318
50247
50181
50130
50083
50019
49942
49859
49763
49654
49554
49468
49389
49323
49272
49229
49178
49122
49077
49041
49000
48954
48909
48858
48794
48717
48643
48570
48493
48421
48363
48313
48260
48207
48160
48113
48056
48001
47968
47959
47972
48028
48143
48311
48522
48778
49075
49402
49756
50146
50560
50982
51408
51841
52271
52675
53049
53401
53720
53983
54183
54339
54459
54540
54594
54640
54676
54688
54679
54656
54611
54550
54493
54450
54411
54377
54356
54349
54344
54332
54314
54289
54248
54191
54138
54098
54059
54008
53949
53888
53815
53732
53663
53611
53562
53515
53481
53460
53437
53412
53395
53381
53368
53364
53374
53389
53407
53437
53478
53511
53525
53525
53521
53512
53492
53469
53449
53427
53396
53356
53307
53242
53163
53089
53031
52977
52921
52859
52798
52727
52646
52570
52503
52440
52382
52331
52283
52218
52135
52053
51971
51883
51800
51733
51678
51622
51565
51513
51451
51373
51294
51223
51157
51090
51024
50964
50901
50826
50746
50668
50589
50506
50429
50369
50318
50262
50198
50132
50060
49983
49915
49855
49791
49726
49669
49623
49579
49547
49543
49573
49637
49750
49933
50183
50483
50831
51219
51631
52056
52491
52933
53371
53787
54179
54541
54859
55122
55331
55494
55611
55680
55713
55723
55706
55652
55574
55488
55390
55277
55165
55066
54978
54903
54850
54807
54753
54690
54625
54554
54478
54401
54331
54261
54185
54106
54022
53927
53826
53729
53650
53590
53538
53497
53468
53442
53404
53357
53314
53273
53224
53173
53136
53105
53073
53050
53036
53021
52997
52968
52940
52911
52882
52857
52832
52793
52736
52664
52575
52465
52341
52220
52099
51967
51832
51715
51618
51520
51417
51325
51243
51156
51063
50968
50868
50757
50647
50542
50431
50314
50199
50090
49980
49865
49752
49647
49547
49452
49373
49310
49250
49184
49117
49053
48984
48911
48847
48786
48714
48637
48568
48505
48438
48373
48311
48238
48158
48085
48022
47959
47887
47813
47761
47733
47714
47710
47743
47815
47927
48093
48319
48591
48896
49241
49624
50026
50428
50830
51235
51630
52003
52353
52672
52946
53168
53341
53465
53536
53559
53553
53527
53473
53395
53304
53203
53078
52931
52787
52659
52540
52431
52340
52259
52172
52083
51999
51914
51830
51758
51697
51634
51564
51493
51426
51351
51262
51179
51111
51053
51007
50982
50975
50972
50966
50965
50974
50979
50978
50989
51020
51054
51087
51119
51149
51161
51157
51154
51153
51148
51138
51127
51109
51077
51032
50984
50931
50858
50770
50681
50595
50503
50412
50325
50231
50122
50013
49918
49829
49741
49664
49599
49529
49443
49347
49253
49165
49083
49015
48959
48902
48842
48786
48730
48668
48600
48534
48465
48394
48331
48282
48235
48178
48114
48056
48001
47940
47871
47808
47749
47688
47633
47590
47546
47503
47473
47470
47495
47551
47655
47820
48035
48287
48574
48895
49240
49599
49982
50395
50818
51231
51628
52000
52331
52621
52878
53100
53281
53418
53516
53579
53597
53576
53534
53469
53378
53278
53182
53087
52990
52899
52817
52734
52650
52576
52514
52458
52403
52353
52308
52259
52199
52130
52056
51972
51881
51794
51714
51632
51549
51476
51416
51368
51334
51319
51316
51315
51315
51315
51311
51295
51268
51247
51237
51222
51202
51188
51171
51148
51130
51123
51117
51094
51059
51022
50979
50927
50873
50819
50752
50660
50559
50456
50334
50198
50073
49974
49886
49795
49707
49619
49518
49400
49287
49188
49096
49004
48914
48822
48715
48597
48483
48365
48243
48126
48024
47930
47833
47741
47662
47587
47503
47417
47345
47277
47198
47120
47052
46984
46909
46834
46763
46687
46600
46512
46442
46385
46328
46271
46218
46162
46107
46067
46056
46077
46134
46240
46395
46597
46852
47162
47519
47906
48318
48762
49226
49690
50149
50594
51009
51375
51690
51961
52185
52355
52489
52604
52697
52759
52795
52812
52809
52782
52740
52699
52658
52608
52557
52509
52459
52406
52357
52310
52262
52212
52172
52141
52110
52077
52047
52013
51963
51902
51832
51746
51644
51541
51454
51385
51326
51281
51256
51246
51237
51223
51213
51207
51199
51193
51197
51194
51173
51145
51116
51075
51019
50966
50929
50904
50878
50852
50826
50787
50735
50682
50624
50554
50479
50406
50331
50241
50143
50046
49947
49843
49741
49657
49583
49511
49447
49389
49323
49244
49156
49076
49001
48921
48843
48768
48683
48582
48474
48370
48267
48162
48064
47978
47899
47822
47751
47691
47637
47583
47538
47499
47450
47390
47327
47262
47186
47105
47032
46972
46913
46857
46809
46763
46708
46648
46598
46555
46513
46483
46478
46500
46549
46634
46763
46936
47149
47411
47730
48094
48487
48907
49349
49792
50222
50638
51044
51428
51777
52094
52376
52604
52774
52893
52968
53000
52995
52971
52937
52882
52806
52718
52620
52507
52385
52273
52176
52086
52004
51937
51882
51829
51779
51732
51676
51609
51538
51466
51382
51285
51180
51078
50975
50864
50752
50640
50522
50406
50310
50244
50196
50158
50131
50117
50100
50080
50067
50057
50049
50046
50056
50071
50078
50078
50074
50060
50031
49991
49945
49892
49837
49790
49748
49699
49634
49558
49478
49387
49284
49179
49081
48989
48896
48809
48736
48662
48574
48485
48398
48299
48187
48079
47982
47889
47795
47699
47600
47483
47350
47220
47099
46987
46889
46809
46738
46659
46578
46501
46421
46333
46247
46173
46105
46035
45962
45888
45801
45698
45592
45497
45413
45327
45240
45162
45087
45004
44921
44858
44820
44808
44835
44908
45017
45160
45351
45595
45882
46210
46584
46998
47430
47875
48323
48760
49169
49545
49898
50217
50476
50676
50835
50952
51027
51075
51100
51098
51076
51046
51010
50958
50885
50801
50717
50633
50555
50491
50438
50380
50308
50229
50153
50079
50010
49957
49917
49874
49819
49760
49707
49661
49614
49572
49538
49504
49472
49444
49415
49380
49345
49326
49322
49326
49344
49379
49424
49463
49494
49525
49550
49564
49570
49572
49565
49544
49517
49488
49444
49382
49312
49242
49174
49114
49067
49025
48971
48905
48837
48770
48698
48617
48535
48457
48367
48270
48175
48086
47998
47912
47837
47774
47712
47651
47600
47554
47497
47431
47363
47293
47226
47169
47120
47065
46996
46923
46860
46800
46740
46691
46653
46614
46564
46512
46471
46430
46378
46318
46259
46201
46150
46134
46165
46235
46346
46502
46703
46947
47236
47586
47993
48439
48913
49412
49913
50388
50825
51228
51586
51885
52132
52342
52518
52644
52729
52786
52816
52817
52801
52786
52782
52789
52798
52797
52779
52741
52688
52625
52550
52469
52400
52348
52300
52252
52211
52174
52123
52063
52010
51963
51909
51852
51805
51765
51714
51658
51610
51568
51519
51468
51427
51393
51364
51355
51372
51402
51435
51472
51512
51544
51560
51567
51572
51561
51527
51487
51453
51418
51374
51328
51285
51236
51180
51132
51091
51044
50991
50937
50878
50801
50711
50618
50526
50424
50311
50202
50100
49999
49905
49825
49754
49679
49607
49548
49496
49438
49377
49321
49263
49197
49129
49063
48985
48893
48802
48717
48625
48526
48436
48363
48299
48229
48157
48091
48028
47966
47909
47855
47801
47752
47719
47704
47710
47752
47847
47995
48191
48443
48765
49154
49586
50052
50554
51080
51607
52125
52638
53134
53587
53993
54352
54650
54878
55044
55163
55238
55265
55254
55224
55183
55122
55048
54965
54862
54743
54623
54510
54404
54301
54207
54120
54029
53932
53840
53753
53670
53601
53545
53491
53427
53361
53309
53264
53214
53163
53127
53105
53085
53070
53068
53070
53063
53053
53058
53077
53099
53123
53152
53174
53177
53172
53167
53160
53151
53152
53161
53164
53156
53138
53106
53053
52984
52918
52857
52790
52714
52634
52552
52454
52344
52239
52142
52039
51934
51848
51781
51717
51649
51582
51513
51437
51362
51295
51222
51141
51061
50987
50916
50845
50779
50723
50667
50604
50545
50494
50440
50379
50325
50279
50234
50188
50142
50093
50027
49948
49873
49806
49737
49666
49610
49563
49515
49473
49447
49427
49403
49380
49371
49377
49411
49496
49642
49845
50105
50438
50843
51294
51778
52293
52837
53389
53925
54440
54939
55410
55834
56209
56532
56789
56976
57106
57191
57226
57217
57189
57154
57104
57043
56980
56917
56844
56761
56682
56604
56523
56450
56393
56344
56287
56219
56151
56082
56005
55926
55852
55775
55696
55623
55564
55510
55457
55420
55392
55352
55296
55240
55193
55153
55117
55097
55096
55106
55123
55147
55175
55192
55198
55204
55212
55210
55199
55193
55186
55163
55131
55091
55033
54961
54882
54808
54737
54655
54566
54485
54405
54318
54233
54157
54072
53969
53857
53743
53617
53483
53360
53253
53146
53035
52930
52831
52728
52621
52515
52412
52308
52208
52117
52032
51949
51864
51784
51709
51631
51548
51472
51394
51307
51223
51155
51096
51027
50952
50882
50816
50744
50667
50595
50523
50444
50364
50290
50218
50142
50065
49990
49914
49843
49791
49770
49773
49816
49924
50108
50360
50675
51052
51482
51944
52433
52945
53465
53973
54464
54939
55385
55778
56116
56405
56637
56802
56907
56969
56990
56975
56939
56887
56812
56712
56598
56478
56347
56206
56065
55938
55822
55713
55620
55551
55494
55429
55358
55292
55226
55154
55085
55018
54946
54864
54777
54692
54601
54511
54435
54370
54312
54265
54235
54218
54206
54201
54210
54227
54237
54237
54239
54242
54240
54237
54235
54223
54189
54139
54089
54035
53972
53906
53839
53763
53673
53578
53485
53385
53272
53156
53051
52945
52835
52734
52638
52535
52421
52303
52179
52040
51888
51744
51607
51472
51350
51246
51156
51068
50982
50910
50847
50777
50703
50636
50571
50504
50440
50377
50309
50235
50161
50092
50021
49943
49874
49823
49778
49729
49675
49621
49565
49509
49464
49430
49390
49338
49273
49201
49127
49052
48994
48963
48966
49018
49131
49297
49511
49781
50118
50524
50984
51493
52041
52603
53151
53678
54177
54628
55016
55348
55636
55874
56052
56183
56271
56310
56308
56283
56249
56203
56136
56062
55985
55896
55797
55706
55620
55533
55445
55363
55288
55208
55125
55056
55002
54945
54892
54849
54811
54766
54714
54668
54627
54578
54530
54495
54464
54424
54382
54354
54338
54331
54340
54362
54384
54400
54416
54438
54461
54484
54512
54544
54569
54576
54566
54547
54515
54467
54416
54365
54305
54239
54170
54096
54005
53903
53807
53718
53619
53516
53425
53337
53234
53130
53040
52959
52873
52788
52706
52622
52532
52440
52348
52255
52159
52075
52010
51950
51881
51809
51742
51670
51595
51534
51484
51438
51392
51352
51316
51270
51211
51150
51094
51042
50993
50952
50914
50867
50813
50760
50708
50654
50607
50582
50587
50623
50709
50865
51089
51370
51711
52118
52582
53090
53638
54220
54812
55381
55917
56421
56883
57297
57673
58009
58287
58496
58638
58725
58759
58749
58716
58669
58604
58519
58428
58334
58229
58120
58024
57933
57840
57756
57688
57625
57556
57484
57422
57367
57315
57271
57237
57201
57150
57086
57014
56934
56848
56772
56717
56676
56639
56619
56621
56627
56621
56616
56622
56637
56657
56687
56717
56733
56734
56729
56721
56707
56684
56663
56643
56615
56586
56564
56539
56493
56429
56362
56287
56202
56112
56025
55938
55844
55745
55648
55548
55443
55341
55249
55161
55070
54984
54904
54816
54716
54613
54520
54432
54341
54259
54193
54131
54068
54005
53939
53866
53790
53727
53677
53629
53590
53566
53545
53509
53459
53412
53372
53327
53281
53247
53222
53188
53146
53102
53044
52973
52900
52831
52758
52682
52626
52608
52628
52687
52800
52982
53233
53550
53942
54406
54922
55474
56057
56649
57221
57767
58292
58787
59239
59643
60006
60328
60592
60797
60948
61047
61097
61107
61090
61047
60976
60885
60789
60689
60582
60482
60402
60337
60276
60231
60205
60188
60176
60170
60158
60129
60082
60024
59967
59913
59861
59814
59770
59717
59651
59584
59525
59472
59425
59393
59378
59363
59344
59327
59308
59278
59244
59221
59203
59183
59173
59178
59187
59184
59171
59161
59150
59122
59076
59025
58969
58897
58812
58723
58626
58515
58399
58280
58150
58007
57864
57733
57617
57516
57436
57368
57294
57211
57120
57020
56903
56777
56660
56553
56447
56350
56263
56175
56069
55952
55843
55744
55643
55546
55467
55399
55328
55256
55186
55113
55034
54962
54899
54833
54766
54707
54659
54614
54567
54521
54476
54418
54342
54266
54196
54117
54027
53937
53853
53769
53694
53648
53646
53700
53815
54005
54272
54606
55008
55473
55986
56531
57101
57687
58270
58827
59347
59828
60258
60619
60911
61146
61322
61439
61511
61551
61559
61534
61492
61443
61370
61260
61128
60992
60859
60731
60620
60530
60449
60375
60312
60259
60210
60167
60138
60118
60097
60076
60057
60027
59970
59885
59791
59688
59578
59468
59371
59291
59215
59141
59077
59026
58986
58964
58971
58999
59029
59063
59102
59134
59151
59151
59133
59091
59026
58950
58877
58807
58730
58650
58566
58470
58363
58256
58150
58040
57932
57834
57746
57651
57552
57452
57345
57226
57096
56971
56854
56742
56642
56548
56444
56334
56231
56136
56040
55937
55836
55743
55652
55557
55469
55387
55300
55205
55111
55029
54958
54893
54842
54804
54762
54710
54650
54586
54511
54428
54352
54285
54216
54145
54081
54015
53936
53846
53763
53688
53613
53542
53482
53434
53390
53355
53350
53387
53478
53640
53882
54194
54569
55015
55524
56071
56628
57188
57753
58305
58820
59296
59726
60096
60401
60644
60823
60932
60982
60991
60965
60909
60831
60743
60647
60540
60429
60316
60193
60058
59920
59795
59686
59592
59518
59464
59419
59363
59293
59217
59133
59039
58944
58852
58755
58650
58547
58454
58366
58272
58179
58092
58006
57925
57868
57834
57809
57781
57758
57747
57739
57728
57724
57733
57748
57763
57771
57770
57745
57697
57639
57564
57465
57351
57232
57109
56979
56851
56728
56607
56485
56372
56272
56172
56062
55951
55847
55747
55644
55549
55463
55367
55252
55122
54989
54858
54728
54604
54488
54374
54258
54143
54034
53922
53807
53701
53599
53490
53379
53273
53173
53067
52953
52840
52727
52607
52486
52383
52297
52216
52145
52083
52018
51939
51853
51763
51665
51558
51445
51331
51210
51081
50963
50866
50779
50699
50642
50626
50653
50727
50868
51087
51374
51720
52122
52577
53067
53583
54124
54676
55218
55745
56250
56716
57122
57458
57730
57943
58095
58198
58259
58273
58240
58172
58079
57961
57825
57687
57557
57430
57307
57193
57084
56973
56855
56741
56640
56546
56452
56360
56273
56181
56076
55969
55869
55766
55661
55572
55499
55432
55371
55326
55286
55243
55198
55165
55140
55116
55104
55107
55121
55135
55152
55175
55196
55209
55222
55238
55240
55224
55202
55182
55156
55112
55058
54995
54912
54810
54707
54610
54510
54399
54281
54159
54026
53888
53765
53662
53566
53470
53372
53269
53158
53047
52945
52842
52731
52626
52530
52435
52334
52231
52133
52038
51942
51851
51766
51679
51588
51499
51415
51334
51258
51199
51162
51128
51086
51038
50991
50945
50900
50865
50839
50811
50772
50730
50689
50637
50580
50533
50504
50495
50521
50598
50733
50918
51151
51449
51813
52235
52717
53250
53806
54363
54915
55463
55995
56490
56939
57337
57675
57944
58150
58305
58407
58458
58483
58493
58481
58441
58378
58305
58220
58124
58033
57950
57860
57755
57649
57549
57458
57380
57328
57299
57275
57248
57225
57201
57158
57095
57030
56962
56889
56813
56736
56649
56552
56463
56400
56357
56326
56315
56322
56333
56343
56363
56393
56428
56464
56504
56546
56576
56586
56587
56581
56562
56530
56497
56462
56409
56337
56258
56175
56085
55991
55899
55811
55715
55611
55510
55410
55301
55195
55102
55007
54898
54781
54670
54561
54452
54351
54261
54172
54080
53990
53910
53835
53759
53691
53634
53572
53498
53419
53346
53278
53210
53150
53097
53034
52961
52898
52846
52794
52740
52684
52623
52553
52479
52415
52357
52290
52221
52166
52127
52107
52122
52188
52310
52484
52719
53026
53394
53808
54272
54788
55343
55913
56488
57059
57600
58094
58547
58963
59328
59627
59863
60043
60157
60211
60236
60237
60211
60158
60084
59994
59886
59771
59669
59582
59495
59417
59354
59291
59216
59136
59069
59013
58946
58870
58796
58720
58639
58563
58497
58436
58371
58307
58247
58185
58117
58051
58003
57971
57940
57914
57895
57875
57855
57843
57846
57854
57862
57874
57890
57902
57915
57934
57954
57962
57958
57945
57913
57857
57786
57715
57643
57562
57474
57384
57290
57182
57064
56951
56842
56732
56626
56528
56428
56319
56207
56104
56005
55904
55809
55718
55622
55518
55415
55323
55245
55175
55110
55048
54974
54887
54806
54734
54668
54608
54551
54492
54430
54373
54321
54265
54197
54123
54049
53973
53887
53796
53716
53644
53571
53496
53423
53341
53246
53146
53050
52959
52877
52820
52799
52823
52894
53022
53222
53490
53816
54199
54636
55106
55592
56093
56598
57094
57569
58021
58440
58812
59137
59421
59658
59844
59987
60088
60142
60146
60113
60058
59989
59900
59803
59710
59623
59534
59446
59368
59296
59225
59164
59120
59088
59061
59046
59037
59009
58951
58874
58792
58710
58626
58546
58470
58389
58306
58231
58165
58106
58053
58022
58005
57987
57974
57969
57962
57944
57915
57890
57869
57841
57812
57788
57758
57712
57651
57586
57510
57414
57309
57205
57099
56982
56853
56721
56582
56438
56300
56174
56056
55941
55829
55719
55600
55473
55353
55243
55129
55006
54882
54757
54622
54475
54334
54203
54075
53955
53849
53748
53643
53533
53431
53333
53232
53139
53052
52962
52859
52746
52637
52533
52429
52329
52236
52137
52019
51891
51766
51642
51515
51393
51273
51142
50995
50841
50685
