36672
36558
36455
36348
36228
36106
35989
35873
35750
35629
35509
35383
35256
35140
35039
34936
34822
34708
34602
34496
34388
34284
34185
34087
33991
33904
33818
33722
33630
33549
33468
33378
33281
33182
33085
32989
32895
32806
32717
32632
32575
32566
32607
32701
32867
33115
33432
33801
34212
34657
35120
35588
36062
36540
37001
37445
37876
38284
38647
38965
39253
39509
39717
39879
40015
40138
40237
40306
40357
40402
40438
40460
40480
40500
40512
40520
40532
40541
40537
40538
40556
40563
40544
40517
40488
40442
40378
40302
40215
40112
39997
39882
39774
39661
39547
39447
39366
39286
39200
39128
39080
39042
39005
38977
38958
38940
38922
38908
38895
38874
38855
38842
38814
38764
38717
38683
38648
38599
38536
38456
38364
38268
38170
38070
37964
37850
37734
37616
37495
37375
37264
37165
37064
36955
36843
36731
36614
36492
36372
36258
36147
36038
35930
35817
35698
35583
35478
35371
35255
35145
35049
34949
34829
34711
34611
34519
34424
34338
34265
34195
34119
34034
33938
33836
33734
33628
33524
33428
33347
33293
33281
33314
33399
33555
33790
34090
34434
34821
35249
35705
36171
36641
37113
37581
38032
38455
38843
39194
39512
39797
40039
40232
40391
40531
40650
40737
40797
40844
40884
40914
40924
40923
40917
40909
40907
40918
40924
40913
40902
40904
40901
40874
40833
40783
40718
40636
40543
40443
40331
40210
40094
39985
39868
39749
39649
39572
39503
39433
39376
39343
39319
39292
39272
39272
39279
39277
39269
39263
39253
39239
39228
39213
39182
39139
39095
39037
38952
38859
38777
38694
38595
38490
38390
38289
38182
38074
37969
37864
37750
37636
37526
37411
37292
37176
37060
36930
36786
36654
36543
36438
36326
36219
36122
36027
35932
35840
35740
35628
35521
35428
35333
35227
35124
35029
34935
34837
34735
34632
34531
34436
34349
34270
34189
34100
34020
33961
33923
33916
33962
34078
34260
34501
34798
35148
35541
35973
36434
36905
37371
37826
38276
38718
39125
39492
39833
40151
40434
40669
40863
41033
41178
41300
41400
41468
41501
41524
41558
41588
41604
41614
41622
41629
41635
41639
41645
41642
41627
41607
41587
41558
41506
41439
41362
41273
41171
41058
40935
40805
40679
40562
40444
40319
40196
40098
40022
39946
39876
39826
39801
39787
39775
39771
39779
39788
39776
39748
39721
39690
39652
39612
39570
39521
39470
39421
39360
39280
39194
39109
39013
38906
38799
38693
38580
38456
38329
38201
38070
37938
37811
37685
37552
37420
37294
37171
37045
36918
36800
36692
36577
36451
36330
36224
36123
36012
35898
35791
35689
35584
35483
35386
35281
35173
35075
34977
34870
34767
34677
34583
34476
34368
34269
34171
34068
33971
33893
33842
33829
33869
33974
34135
34356
34651
35012
35410
35837
36308
36820
37343
37849
38341
38827
39288
39711
40098
40450
40762
41037
41284
41496
41663
41799
41921
42018
42080
42126
42169
42198
42205
42201
42197
42195
42198
42209
42228
42243
42252
42267
42286
42290
42264
42232
42198
42143
42061
41967
41870
41756
41619
41480
41351
41231
41120
41019
40922
40825
40737
40669
40611
40559
40521
40505
40495
40474
40454
40447
40434
40401
40360
40321
40276
40218
40158
40096
40026
39946
39860
39773
39682
39586
39488
39385
39276
39164
39055
38943
38819
38693
38577
38461
38334
38203
38084
37980
37875
37756
37636
37525
37413
37288
37160
37038
36916
36798
36696
36597
36486
36375
36278
36177
36064
35946
35829
35718
35616
35521
35433
35340
35241
35144
35047
34943
34838
34744
34662
34578
34488
34411
34371
34379
34441
34560
34730
34951
35240
35603
36019
36467
36940
37434
37938
38431
38902
39349
39773
40170
40533
40864
41155
41395
41601
41788
41940
42050
42140
42221
42289
42343
42383
42413
42429
42433
42439
42449
42453
42446
42443
42445
42437
42416
42391
42364
42331
42281
42213
42131
42033
41928
41827
41715
41585
41454
41332
41215
41100
40994
40905
40834
40775
40719
40664
40610
40558
40519
40495
40472
40440
40414
40401
40384
40351
40310
40270
40224
40164
40094
40019
39937
39850
39762
39665
39552
39434
39328
39227
39110
38984
38866
38760
38647
38517
38381
38247
38107
37966
37836
37709
37567
37428
37304
37176
37037
36901
36778
36658
36534
36413
36299
36184
36067
35951
35832
35707
35579
35463
35360
35256
35142
35030
34932
34841
34739
34626
34508
34388
34271
34160
34051
33946
33855
33786
33737
33713
33736
33830
34000
34237
34529
34871
35258
35677
36114
36564
37025
37487
37944
38395
38825
39224
39592
39924
40214
40458
40668
40853
41001
41108
41186
41252
41306
41345
41377
41398
41403
41396
41392
41390
41376
41353
41335
41324
41308
41276
41240
41207
41165
41097
41012
40921
40821
40708
40596
40482
40357
40228
40110
39993
39874
39773
39702
39639
39566
39503
39457
39417
39380
39347
39320
39286
39246
39217
39202
39180
39145
39111
39087
39058
39015
38960
38893
38810
38721
38633
38535
38417
38297
38191
38084
37965
37843
37723
37602
37480
37354
37222
37091
36965
36845
36730
36603
36457
36314
36181
36046
35908
35777
35655
35532
35402
35273
35153
35038
34922
34811
34708
34603
34494
34387
34281
34168
34052
33952
33863
33766
33658
33550
33447
33339
33221
33104
32997
32898
32810
32749
32727
32744
32817
32962
33172
33435
33760
34148
34568
34999
35447
35913
36381
36839
37281
37705
38106
38477
38817
39123
39380
39589
39772
39934
40062
40148
40208
40252
40280
40294
40296
40286
40261
40232
40209
40182
40146
40112
40085
40057
40020
39979
39932
39877
39811
39729
39634
39534
39430
39323
39215
39097
38969
38848
38739
38631
38525
38440
38384
38345
38314
38287
38265
38248
38235
38225
38214
38197
38182
38171
38150
38111
38073
38046
38013
37967
37920
37876
37817
37731
37629
37522
37418
37315
37207
37090
36965
36835
36711
36592
36473
36347
36223
36109
35994
35870
35747
35632
35515
35387
35262
35148
35035
34914
34789
34668
34548
34431
34320
34213
34106
34001
33901
33797
33682
33575
33490
33407
33315
33228
33153
33073
32975
32869
32766
32674
32601
32557
32555
32607
32719
32894
33133
33424
33753
34130
34550
34992
35444
35912
36387
36848
37278
37678
38055
38407
38731
39022
39274
39481
39655
39806
39922
39991
40031
40064
40093
40114
40122
40127
40138
40140
40124
40101
40083
40063
40036
40004
39971
39931
39883
39832
39771
39694
39612
39538
39456
39355
39251
39150
39042
38924
38814
38725
38649
38576
38507
38453
38415
38388
38369
38351
38331
38314
38300
38275
38234
38187
38151
38118
38074
38025
37981
37937
37879
37805
37720
37637
37556
37470
37379
37286
37193
37101
37010
36914
36812
36706
36598
36482
36352
36216
36079
35939
35799
35675
35563
35442
35315
35204
35112
35015
34905
34800
34706
34604
34492
34384
34286
34189
34084
33985
33901
33819
33725
33622
33527
33433
33332
33232
33135
33035
32940
32859
32785
32726
32708
32749
32835
32963
33153
33412
33724
34075
34469
34906
35367
35833
36301
36770
37231
37677
38107
38522
38901
39231
39521
39782
40014
40211
40375
40510
40617
40699
40768
40821
40855
40885
40925
40960
40973
40977
40993
41006
41005
41008
41018
41016
40995
40971
40946
40906
40845
40774
40697
40612
40520
40421
40315
40200
40084
39982
39891
39799
39714
39646
39589
39532
39479
39447
39434
39418
39389
39362
39347
39332
39305
39274
39247
39217
39175
39125
39070
39003
38931
38860
38780
38684
38587
38505
38417
38309
38196
38089
37979
37860
37738
37618
37498
37379
37264
37153
37042
36930
36819
36704
36584
36467
36365
36267
36152
36032
35926
35826
35719
35613
35521
35442
35359
35267
35172
35077
34982
34883
34782
34683
34585
34482
34373
34260
34147
34042
33953
33868
33784
33721
33691
33695
33732
33818
33972
34197
34483
34824
35208
35628
36078
36555
37043
37529
38006
38472
38914
39316
39682
40023
40334
40605
40838
41041
41220
41372
41493
41584
41650
41692
41724
41757
41780
41789
41806
41840
41870
41876
41874
41872
41866
41851
41831
41809
41781
41749
41715
41669
41595
41498
41401
41306
41199
41084
40978
40885
40790
40689
40595
40516
40447
40389
40343
40300
40253
40214
40190
40166
40134
40106
40090
40074
40049
40018
39984
39942
39892
39835
39773
39705
39629
39551
39471
39382
39287
39196
39106
39004
38883
38760
38641
38519
38394
38270
38148
38026
37911
37806
37700
37588
37477
37371
37261
37142
37027
36924
36823
36718
36612
36507
36408
36316
36224
36131
36040
35947
35848
35746
35637
35521
35413
35317
35219
35119
35033
34959
34884
34806
34730
34662
34596
34526
34462
34413
34390
34411
34486
34617
34803
35051
35363
35724
36112
36533
36987
37465
37945
38413
38868
39312
39730
40104
40438
40736
40996
41227
41439
41618
41759
41877
41978
42046
42079
42093
42104
42116
42128
42146
42170
42191
42208
42229
42247
42246
42227
42209
42196
42168
42122
42068
42012
41942
41859
41767
41660
41542
41426
41318
41206
41086
40973
40878
40800
40732
40669
40614
40572
40548
40532
40515
40496
40474
40451
40424
40387
40339
40294
40258
40222
40182
40143
40102
40049
39982
39907
39828
39740
39637
39524
39406
39281
39150
39022
38898
38770
38643
38521
38392
38250
38115
37997
37877
37748
37625
37512
37396
37271
37145
37024
36908
36797
36694
36598
36500
36392
36280
36170
36061
35951
35844
35739
35625
35503
35390
35283
35166
35042
34932
34837
34737
34625
34513
34413
34322
34232
34152
34090
34048
34041
34087
34184
34324
34527
34809
35144
35510
35914
36358
36817
37278
37741
38201
38641
39050
39438
39805
40138
40431
40686
40904
41085
41230
41357
41462
41532
41575
41611
41641
41648
41627
41603
41589
41579
41562
41543
41526
41508
41491
41476
41451
41406
41353
41298
41225
41130
41031
40932
40818
40685
40543
40403
40271
40147
40034
39934
39848
39773
39710
39659
39611
39564
39536
39533
39533
39520
39502
39483
39464
39442
39419
39393
39356
39308
39250
39176
39087
38994
38911
38825
38723
38615
38514
38412
38300
38179
38056
37933
37808
37673
37538
37409
37287
37170
37055
36931
36797
36669
36554
36435
36309
36186
36072
35955
35833
35714
35601
35489
35375
35265
35159
35049
34939
34836
34732
34618
34504
34402
34313
34224
34124
34021
33926
33833
33730
33623
33521
33424
33345
33300
33289
33312
33396
33554
33771
34032
34348
34728
35150
35596
36067
36557
37045
37519
37980
38427
38847
39232
39581
39892
40155
40375
40567
40728
40849
40938
41016
41082
41118
41125
41125
41128
41124
41108
41089
41077
41061
41034
41001
40971
40940
40903
40870
40838
40791
40731
40661
40571
40455
40330
40211
40087
39956
39831
39717
39608
39503
39412
39336
39269
39210
39161
39126
39101
39087
39082
39077
39065
39051
39046
39041
39017
38973
38923
38874
38821
38753
38680
38609
38529
38431
38325
38218
38106
37992
37882
37770
37652
37533
37417
37291
37151
37013
36888
36761
36624
36490
36364
36243
36127
36014
35899
35772
35639
35521
35419
35315
35206
35104
35010
34905
34785
34670
34567
34461
34346
34236
34140
34045
33946
33850
33753
33650
33553
33478
33420
33375
33371
33431
33546
33713
33950
34262
34624
35019
35451
35918
36401
36884
37365
37834
38280
38697
39088
39449
39770
40052
40303
40519
40692
40830
40951
41049
41107
41133
41156
41182
41199
41200
41193
41195
41201
41200
41192
41183
41170
41147
41111
41070
41025
40966
40892
40802
40698
40587
40471
40341
40197
40051
39912
39775
39639
39522
39434
39360
39288
39227
39182
39143
39103
39068
39044
39024
39003
38986
38968
38945
38916
38882
38832
38762
38696
38643
38579
38490
38401
38323
38241
38145
38047
37951
37846
37727
37598
37466
37338
37216
37093
36962
36820
36670
36528
36396
36263
36127
35998
35880
35765
35647
35530
35419
35305
35183
35057
34940
34830
34721
34612
34501
34382
34265
34159
34050
33930
33813
33707
33597
33472
33354
33257
33167
33076
33009
32988
33009
33076
33211
33427
33710
34049
34447
34902
35391
35895
36412
36932
37444
37936
38409
38862
39284
39671
40030
40350
40620
40853
41069
41262
41417
41536
41635
41720
41784
41822
41846
41880
41922
41958
41995
42033
42064
42089
42115
42134
42142
42156
42182
42193
42171
42129
42078
42014
41934
41846
41756
41654
41545
41446
41363
41280
41193
41124
41078
41039
40999
40970
40962
40966
40968
40970
40975
40973
40966
40965
40963
40951
40938
40927
40898
40837
40772
40721
40665
40588
40505
40424
40332
40227
40112
39988
39861
39736
39614
39493
39367
39235
39106
38982
38856
38728
38609
38497
38371
38233
38107
37996
37877
37744
37622
37516
37408
37290
37167
37047
36930
36818
36718
36619
36509
36411
36335
36249
36140
36026
35915
35803
35691
35582
35474
35368
35269
35179
35102
35049
35037
35092
35221
35410
35657
35979
36377
36829
37318
37843
38394
38952
39502
40039
40554
41035
41479
41889
42257
42574
42845
43077
43262
43396
43507
43614
43703
43768
43819
43861
43892
43912
43923
43928
43928
43926
43927
43931
43926
43905
43880
43856
43817
43759
43693
43618
43523
43402
43268
43135
43002
42868
42731
42594
42461
42336
42224
42121
42024
41945
41889
41840
41786
41743
41718
41691
41655
41621
41593
41562
41522
41473
41415
41355
41295
41230
41154
41065
40964
40867
40781
40690
40582
40467
40352
40233
40106
39973
39841
39708
39568
39424
39279
39133
38995
38865
38732
38591
38448
38315
38189
38056
37912
37772
37640
37504
37358
37215
37090
36973
36855
36741
36632
36516
36405
36310
36207
36085
35963
35850
35734
35609
35487
35373
35267
35165
35071
34984
34892
34798
34721
34672
34648
34662
34749
34920
35156
35443
35793
36213
36682
37182
37711
38264
38823
39375
39913
40417
40872
41289
41676
42016
42300
42546
42765
42944
43081
43186
43270
43331
43375
43409
43438
43461
43479
43494
43503
43498
43485
43483
43488
43483
43461
43434
43408
43373
43322
43250
43154
43043
42929
42814
42687
42543
42393
42261
42150
42048
41942
41837
41747
41670
41596
41535
41484
41435
41397
41380
41366
41340
41316
41299
41279
41252
41225
41197
41161
41117
41064
41006
40935
40848
40758
40670
40576
40473
40364
40254
40136
40012
39892
39772
39647
39527
39418
39307
39188
39068
38960
38855
38740
38614
38482
38354
38229
38095
37955
37815
37673
37538
37417
37295
37152
37009
36877
36750
36622
36501
36388
36277
36169
36068
35966
35851
35723
35601
35493
35386
35272
35162
35063
34969
34881
34799
34729
34683
34686
34753
34877
35055
35303
35628
36018
36448
36900
37369
37855
38351
38848
39331
39790
40217
40608
40957
41250
41483
41681
41858
42004
42114
42199
42268
42316
42348
42377
42399
42401
42380
42360
42348
42328
42291
42254
42230
42206
42172
42133
42086
42025
41957
41887
41796
41674
41545
41429
41314
41189
41055
40920
40794
40684
40588
40499
40415
40335
40268
40221
40182
40143
40118
40117
40121
40117
40109
40100
40085
40059
40024
39980
39924
39864
39806
39742
39659
39566
39475
39379
39271
39158
39049
38940
38820
38684
38540
38405
38275
38136
37990
37849
37712
37572
37436
37294
37135
36976
36836
36700
36555
36415
36285
36152
36013
35877
35746
35615
35479
35345
35215
35088
34966
34860
34765
34660
34542
34436
34342
34240
34121
34002
33892
33785
33677
33568
33459
33350
33254
33189
33151
33151
33224
33385
33616
33905
34257
34669
35125
35611
36120
36643
37163
37675
38176
38655
39103
39513
39890
40232
40527
40773
40986
41166
41298
41385
41446
41491
41511
41501
41480
41466
41456
41440
41422
41403
41384
41372
41368
41351
41306
41258
41223
41180
41117
41038
40946
40848
40745
40641
40537
40427
40303
40179
40065
39953
39836
39729
39640
39573
39525
39497
39483
39464
39440
39426
39425
39416
39388
39362
39353
39349
39336
39314
39278
39222
39158
39093
39013
38910
38803
38707
38613
38515
38411
38298
38178
38053
37924
37794
37656
37510
37361
37210
37053
36892
36741
36607
36480
36352
36232
36123
36017
35911
35806
35699
35585
35466
35352
35239
35117
34993
34880
34777
34665
34538
34410
34293
34179
34060
33943
33837
33739
33651
33580
33521
33476
33482
33562
33710
33925
34212
34566
34977
35440
35940
36462
36988
37507
38017
38513
38977
39400
39790
40153
40476
40748
40971
41152
41295
41406
41496
41568
41625
41676
41736
41789
41808
41791
41756
41725
41694
41653
41613
41577
41536
41495
41459
41411
41341
41265
41189
41096
40985
40872
40761
40639
40505
40367
40234
40105
39986
39888
39811
39745
39689
39657
39649
39643
39624
39601
39584
39573
39557
39535
39507
39470
39433
39400
39361
39301
39230
39160
39087
39003
38914
38826
38734
38635
38526
38412
38290
38162
38029
37893
37752
37609
37475
37350
37220
37080
36945
36820
36693
36561
36430
36306
36181
36055
35934
35816
35689
35552
35424
35313
35204
35080
34950
34828
34710
34593
34481
34366
34242
34124
34025
33921
33804
33701
33635
33610
33636
33725
33887
34124
34435
34816
35255
35731
36231
36752
37287
37815
38320
38809
39291
39750
40163
40526
40844
41123
41371
41589
41767
41903
42013
42112
42198
42249
42269
42282
42304
42326
42335
42341
42344
42336
42338
42359
42386
42407
42411
42397
42371
42329
42267
42188
42093
41979
41863
41754
41635
41496
41360
41237
41122
41008
40898
40801
40720
40654
40609
40583
40559
40533
40520
40514
40496
40464
40439
40426
40409
40380
40347
40315
40270
40206
40135
40066
39993
39922
39860
39787
39689
39585
39486
39379
39255
39124
38991
38855
38720
38586
38455
38323
38189
38056
37925
37790
37652
37524
37410
37301
37197
37090
36977
36862
36750
36645
36539
36432
36334
36248
36157
36046
35932
35827
35720
35603
35475
35349
35235
35132
35036
34950
34884
34851
34875
34973
35141
35371
35668
36039
36462
36913
37395
37906
38431
38949
39458
39954
40428
40877
41301
41687
42019
42301
42557
42789
42977
43113
43214
43305
43385
43449
43498
43537
43567
43595
43628
43650
43652
43656
43674
43686
43683
43672
43653
43627
43595
43550
43488
43413
43323
43222
43114
42992
42857
42729
42619
42516
42415
42320
42233
42146
42062
41989
41922
41855
41797
41765
41754
41737
41707
41681
41666
41652
41630
41599
41560
41507
41450
41398
41333
41250
41167
41091
41007
40910
40805
40697
40589
40484
40377
40263
40141
40012
39884
39766
39646
39510
39368
39232
39098
38964
38837
38713
38584
38456
38343
38239
38119
37980
37849
37737
37628
37508
37390
37285
37182
37079
36983
36877
36751
36626
36516
36403
36284
36170
36068
35976
35901
35848
35828
35861
35961
36134
36381
36690
37050
37465
37926
38407
38897
39404
39923
40441
40941
41415
41860
42272
42647
42980
43267
43510
43721
43905
44053
44162
44250
44327
44381
44409
44428
44452
44479
44504
44520
44525
44516
44492
44469
44461
44455
44441
44424
44411
44380
44315
44229
44132
44019
43889
43757
43628
43496
43368
43250
43141
43036
42939
42855
42783
42720
42678
42655
42632
42596
42559
42537
42524
42499
42458
42415
42381
42347
42300
42244
42188
42129
42061
41986
41903
41809
41707
41604
41491
41366
41244
41132
41019
40902
40787
40672
40546
40414
40293
40181
40053
39911
39767
39629
39492
39351
39214
39086
38961
38837
38715
38594
38471
38351
38243
38141
38035
37924
37815
37706
37584
37458
37347
37241
37122
37000
36886
36767
36635
36508
36401
36310
36229
36179
36176
36223
36326
36498
36747
37068
37454
37894
38377
38882
39397
39920
40440
40942
41422
41886
42325
42715
43057
43366
43645
43883
44079
44242
44383
44495
44572
44624
44667
44702
44721
44730
44734
44728
44718
44716
44709
44690
44681
44687
44694
44689
44678
44664
44634
44578
44498
44401
44290
44171
44054
43937
43811
43686
43579
43487
43394
43302
43230
43178
43130
43076
43029
42998
42974
42943
42912
42890
42870
42849
42829
42803
42756
42692
42626
42554
42464
42369
42287
42205
42116
42021
41925
41822
41709
41592
41474
41349
41220
41097
40980
40852
40709
40573
40446
40314
40171
40031
39903
39781
39657
39531
39406
39279
39157
39050
38945
38827
38712
38606
38492
38366
38242
38130
38024
37921
37822
37729
37634
37535
37436
37335
37229
37119
37009
36900
36786
36672
36572
36501
36457
36449
36499
36623
36825
37103
37450
37848
38285
38760
39263
39773
40274
40776
41291
41804
42278
42696
43070
43411
43712
43964
44175
44347
44475
44581
44683
44762
44806
44836
44870
44892
44895
44893
44896
44900
44901
44909
44920
44921
44906
44886
44866
44831
44771
44701
44626
44534
44425
44312
44202
44081
43950
43822
43707
43605
43521
43454
43392
43325
43270
43237
43207
43172
43142
43124
43112
43100
43083
43056
43015
42964
42906
42845
42782
42713
42649
42595
42532
42451
42364
42275
42176
42062
41937
41806
41672
41539
41408
41273
41127
40979
40845
40723
40599
40467
40342
40228
40113
39987
39858
39738
39624
39517
39420
39319
39207
39101
39010
38919
38819
38717
38620
38526
38434
38345
38257
38164
38068
37969
37865
37753
37639
37535
37441
37347
37256
37185
37151
37154
37202
37314
37499
37750
38055
38413
38819
39263
39739
40235
40730
41211
41688
42160
42596
42980
43326
43644
43927
44170
44373
44540
44677
44788
44878
44948
44991
45011
45024
45037
45041
45031
45023
45029
45038
45040
45033
45018
44991
44954
44915
44869
44807
44736
44665
44583
44472
44342
44212
44089
43963
43836
43720
43625
43541
43461
43392
43344
43305
43268
43243
43220
43190
43167
43168
43172
43161
43140
43117
43084
43037
42989
42946
42900
42846
42792
42732
42650
42551
42456
42368
42269
42153
42042
41943
41834
41710
41584
41461
41338
41213
41086
40954
40814
40680
40557
40433
40301
40177
40065
39961
39857
39751
39646
39545
39446
39346
39244
39136
39022
38913
38814
38711
38603
38498
38408
38317
38205
38083
37965
37854
37750
37656
37575
37510
37477
37490
37548
37647
37804
38040
38348
38704
39100
39543
40025
40520
41013
41507
42000
42476
42913
43312
43683
44025
44333
44604
44836
45031
45204
45363
45495
45591
45672
45750
45815
45862
45904
45954
46004
46045
46078
46110
46139
46165
46188
46200
46199
46190
46180
46162
46117
46042
45955
45867
45777
45668
45543
45412
45273
45142
45034
44937
44836
44749
44680
44618
44561
44514
44478
44454
44446
44437
44415
44384
44345
44308
44274
44227
44164
44103
44051
43996
43925
43845
43764
43684
43605
43524
43429
43319
43206
43098
42985
42859
42728
42605
42485
42361
42237
42121
42006
41886
41756
41619
41485
41357
41228
41097
40970
40845
40727
40621
40509
40381
40265
40176
40092
39999
39905
39818
39734
39641
39542
39435
39321
39207
39104
39005
38895
38780
38679
38592
38505
38419
38357
38338
38362
38434
38569
38776
39040
39346
39704
40117
40573
41057
41566
42084
42592
43085
43569
44025
44437
44817
45172
45486
45751
45980
46179
46347
46484
46599
46699
46781
46851
46918
46977
47015
47038
47069
47113
47147
47164
47184
47218
47249
47266
47278
47288
47288
47269
47236
47180
47094
46995
46896
46784
46648
46510
46386
46274
46173
46083
46000
45921
45843
45767
45702
45646
45595
45557
45533
45513
45490
45470
45459
45445
45418
45381
45336
45283
45226
45173
45109
45024
44932
44850
44767
44665
44547
44433
44330
44225
44106
43984
43870
43755
43642
43537
43421
43284
43149
43029
42913
42796
42681
42569
42450
42323
42199
42077
41953
41830
41714
41602
41484
41364
41258
41166
41075
40980
40891
40807
40725
40636
40540
40432
40309
40187
40078
39967
39846
39735
39639
39538
39421
39312
39227
39153
39100
39094
39149
39261
39427
39653
39942
40286
40681
41122
41601
42107
42626
43149
43665
44168
44651
45109
45536
45916
46241
46531
46796
47022
47201
47344
47467
47576
47670
47746
47803
47848
47893
47942
47983
48009
48028
48054
48090
48130
48166
48193
48210
48210
48187
48143
48083
48008
47926
47841
47743
47626
47507
47393
47273
47145
47022
46910
46806
46710
46627
46560
46501
46454
46429
46416
46396
46364
46340
46329
46314
46283
46243
46208
46169
46119
46062
45991
45902
45809
45724
45634
45531
45419
45306
45197
45091
44984
44872
44751
44624
44495
44367
44232
44087
43946
43819
43696
43567
43440
43321
43195
43054
42914
42781
42641
42499
42365
42234
42097
41956
41832
41729
41628
41518
41409
41310
41208
41095
40978
40866
40754
40642
40540
40435
40312
40186
40075
39964
39837
39712
39603
39498
39393
39295
39214
39153
39117
39128
39205
39343
39538
39805
40147
40544
40984
41468
41986
42519
43056
43589
44104
44595
45059
45494
45885
46226
46529
46799
47023
47196
47342
47481
47596
47676
47726
47760
47788
47818
47849
47876
47900
47925
47947
47960
47961
47949
47935
47922
47898
47859
47817
47776
47718
47635
47535
47423
47300
47167
47029
46889
46752
46630
46524
46421
46316
46224
46157
46110
46059
46001
45955
45931
45911
45883
45857
45842
45823
45792
45760
45723
45669
45606
45545
45470
45377
45282
45199
45111
45005
44892
44784
44674
44554
44430
44304
44174
44045
43921
43797
43660
43519
43390
43267
43130
42977
42827
42689
42551
42403
42254
42111
41967
41823
41691
41565
41435
41308
41192
41076
40952
40836
40735
40636
40531
40428
40330
40231
40128
40026
39925
39821
39711
39599
39487
39365
39236
39117
39010
38905
38808
38736
38707
38741
38850
39034
39280
39584
39953
40381
40847
41327
41820
42330
42849
43362
43850
44313
44752
45154
45510
45828
46107
46337
46535
46712
46849
46938
47005
47067
47113
47137
47146
47149
47147
47136
47126
47124
47116
47098
47084
47075
47056
47023
46988
46952
46900
46820
46729
46642
46542
46415
46279
46143
46006
45866
45731
45599
45467
45351
45264
45186
45108
45050
45019
44997
44977
44958
44941
44926
44908
44884
44852
44809
44753
44697
44648
44595
44526
44443
44350
44240
44118
43996
43870
43733
43594
43461
43328
43186
43043
42906
42771
42627
42472
42323
42191
42063
41922
41775
41636
41499
41365
41242
41115
40974
40838
40718
40597
40465
40334
40210
40088
39966
39851
39744
39640
39540
39441
39337
39218
39089
38966
38854
38737
38607
38482
38373
38269
38168
38079
38014
37989
38032
38157
38351
38604
38923
39316
39768
40255
40757
41266
41788
42308
42817
43318
43796
44232
44634
45012
45348
45626
45859
46062
46224
46343
46431
46496
46540
46572
46602
46629
46640
46641
46654
46674
46685
46685
46685
46693
46696
46692
46680
46646
46585
46517
46452
46371
46261
46136
46013
45893
45772
45642
45505
45373
45248
45132
45030
44941
44859
44789
44739
44694
44639
44589
44555
44525
44483
44440
44406
44374
44333
44283
44226
44157
44075
43993
43909
43808
43695
43585
43478
43358
43230
43110
42998
42876
42736
42589
42450
42311
42159
42003
41852
41701
41548
41409
41274
41127
40978
40837
40689
40529
40380
40256
40136
40004
39871
39745
39621
39491
39360
39234
39111
38986
38867
38751
38620
38478
38343
38221
38096
37970
37859
37758
37644
37509
37374
37261
37170
37101
37077
37128
37260
37470
37758
38128
38567
39061
39602
40175
40758
41336
41902
42450
42967
43457
43927
44357
44733
45067
45366
45619
45819
45983
46126
46248
46343
46417
46473
46507
46530
46559
46591
46607
46607
46609
46621
46629
46632
46642
46659
46663
46648
46625
46589
46528
46453
46377
46284
46167
46040
45910
45780
45655
45540
45433
45323
45213
45116
45036
44962
44891
44833
44796
44764
44726
44687
44652
44615
44574
44530
44484
44439
44401
44370
44331
44274
44206
44144
44081
43994
43884
43769
43661
43553
43430
43300
43169
43032
42895
42766
42632
42477
42319
42172
42026
41874
41728
41601
41481
41360
41239
41112
40971
40825
40688
40562
40433
40297
40170
40062
39958
39852
39751
39654
39554
39451
39352
39255
39151
39048
38946
38837
38714
38593
38481
38365
38241
38128
38042
37979
37941
37952
38029
38172
38382
38666
39024
39441
39899
40385
40892
41410
41927
42439
42945
43431
43887
44316
44714
45064
45370
45643
45879
46076
46241
46381
46496
46584
46658
46726
46784
46828
46859
46889
46922
46954
46969
46975
46990
47011
47029
47045
47058
47058
47045
47026
46990
46925
46846
46762
46656
46524
46391
46271
46152
46025
45906
45803
45710
45619
45537
45467
45409
45368
45345
45327
45304
45287
45285
45289
45285
45271
45258
45242
45204
45142
45071
45004
44932
44841
44737
44632
44527
44423
44326
44229
44121
44017
43933
43846
43734
43616
43507
43393
43269
43145
43024
42901
42775
42652
42535
42414
42293
42184
42083
41973
41848
41723
41607
41502
41402
41302
41194
41078
40970
40879
40791
40692
40579
40467
40367
40271
40169
40069
39977
39888
39799
39712
39615
39497
39373
39264
39174
39104
39063
39068
39120
39224
39394
39636
39927
40251
40612
41013
41440
41887
42353
42825
43277
43705
44120
44526
44906
45248
45552
45817
46037
46223
46383
46510
46599
46662
46713
46760
46796
46825
46861
46898
46916
46930
46961
46991
47006
47014
47017
47016
47014
47013
47008
46987
46944
46889
46831
46756
46657
46546
46435
46322
46208
46105
46012
45921
45829
45751
45693
45641
45584
45531
45490
45454
45423
45405
45392
45368
45345
45335
45319
45282
45235
45184
45126
45066
44999
44927
44852
44776
44700
44621
44531
44427
44317
44211
44104
43992
43883
43783
43681
43568
43450
43333
43211
43086
42960
42841
42727
42613
42497
42377
42253
42140
42045
41949
41842
41738
41641
41541
41430
41324
41234
41146
41052
40963
40884
40803
40719
40634
40549
40458
40363
40263
40161
40057
39945
39833
39726
39615
39507
39420
39363
39327
39316
39358
39458
39604
39798
40055
40372
40721
41084
41468
41876
42298
42721
43142
43551
43933
44285
44612
44906
45159
45381
45584
45753
45875
45972
46060
46126
46158
46176
46202
46231
46252
46267
46275
46278
46276
46271
46262
46247
46228
46212
46199
46170
46119
46067
46017
45948
45858
45764
45676
45576
45461
45349
45249
45157
45069
44994
44935
44885
44843
44813
44790
44764
44745
44741
44737
44714
44687
44671
44653
44620
44587
44565
44534
44485
44433
44384
44328
44258
44181
44102
44017
43925
43829
43730
43623
43510
43402
43297
43185
43066
42957
42862
42768
42662
42555
42455
42350
42232
42114
42005
41897
41785
41673
41560
41443
41334
41244
41158
41065
40981
40911
40836
40742
40647
40558
40466
40366
40266
40175
40083
39987
39899
39814
39718
39610
39519
39451
39395
39351
39342
39380
39455
39561
39711
39917
40179
40493
40853
41240
41639
42058
42496
42925
43329
43709
44063
44386
44677
44933
45152
45339
45501
45638
45749
45828
45880
45923
45967
45998
46014
46033
46058
46076
46084
46090
46094
46095
46093
46087
46073
46052
46027
45994
45943
45872
45790
45710
45628
45529
45414
45298
45193
45085
44969
44858
44759
44667
44589
44534
44492
44445
44405
44388
44376
44357
44336
44317
44297
44273
44249
44227
44197
44151
44097
44042
43980
43898
43808
43726
43653
43582
43507
43420
43322
43229
43153
43075
42973
42848
42723
42608
42495
42373
42250
42134
42018
41904
41803
41701
41588
41480
41387
41292
41187
41081
40975
40861
40744
40630
40522
40413
40301
40202
40123
40048
39965
39880
39799
39717
39629
39539
39443
39337
39232
39144
39068
38977
38870
38777
38705
38641
38584
38553
38567
38635
38757
38938
39168
39433
39745
40108
40501
40904
41326
41771
42216
42646
43061
43449
43802
44121
44410
44673
44903
45097
45272
45438
45577
45680
45760
45829
45880
45914
45950
45991
46018
46033
46055
46089
46122
46141
46156
46173
46185
46191
46193
46177
46133
46081
46035
45980
45908
45824
45729
45626
45522
45417
45306
45187
45069
44970
44898
44834
44768
44715
44680
44656
44634
44612
44590
44563
44536
44516
44499
44472
44440
44411
44382
44333
44259
44184
44120
44055
43982
43907
43824
43733
43644
43558
43455
43324
43190
43070
42956
42844
42735
42632
42531
42425
42318
42211
42102
41994
41893
41800
41704
41601
41497
41392
41281
41167
41064
40982
40910
40833
40748
40657
40562
40466
40372
40277
40180
40088
40011
39944
39868
39776
39680
39590
39497
39404
39320
39230
39125
39030
38960
38904
38864
38850
38865
38920
39025
39178
39375
39620
39912
40256
40647
41062
41490
41934
42386
42825
43232
43609
43957
44272
44551
44799
45015
45196
45355
45498
45619
45713
45787
45858
45927
45980
46013
46040
46069
46092
46102
46104
46105
46104
46111
46132
46147
46136
46117
46103
46070
46009
45935
45858
45771
45671
45562
45453
45339
45218
45102
44997
44897
44804
44731
44677
44623
44556
44498
44458
44421
44377
44338
44316
44301
44279
44250
44212
44163
44109
44059
44002
43928
43853
43784
43702
43597
43482
43368
43258
43155
43055
42950
42833
42701
42565
42432
42298
42167
42048
41938
41822
41700
41583
41475
41362
41238
41113
40993
40878
40765
40652
40539
40425
40312
40206
40104
40003
39906
39818
39729
39626
39524
39430
39331
39218
39111
39019
38931
38844
38753
38653
38549
38451
38355
38257
38156
38057
37963
37880
37808
37754
37737
37766
37840
37961
38147
38403
38709
39044
39415
39825
40259
40703
41159
41619
42058
42458
42824
43165
43478
43758
44008
44226
44403
44549
44680
44787
44857
44908
44958
44994
45011
45026
45049
45063
45060
45052
45051
45049
45044
45032
45015
44995
44971
44948
44917
44857
44772
44683
44595
44493
44372
44247
44126
44000
43860
43730
43626
43537
43450
43374
43312
43260
43223
43207
43194
43165
43136
43120
43098
43058
43021
42998
42973
42933
42887
42836
42775
42703
42624
42541
42453
42365
42279
42192
42087
41959
41827
41698
41561
41419
41293
41191
41094
40985
40877
40781
40691
40589
40482
40380
40279
40178
40082
39975
39849
39727
39622
39516
39391
39271
39175
39080
38966
38856
38763
38669
38564
38466
38383
38298
38202
38101
37996
37884
37771
37666
37570
37478
37401
37349
37322
37324
37372
37483
37644
37843
38089
38392
38744
39122
39522
39958
40422
40886
41329
41754
42169
42556
42903
43212
43484
43709
43892
44048
44173
44258
44326
44391
44437
44456
44470
44496
44518
44526
44530
44537
44539
44530
44514
44495
44472
44449
44423
44385
44323
44246
44172
44096
44000
43885
43772
43663
43544
43411
43283
43174
43075
42976
42881
42809
42753
42698
42644
42603
42570
42543
42525
42506
42475
42440
42405
42358
42293
42233
42191
42145
42080
42004
41927
41843
41749
41653
41552
41443
41331
41221
41109
40984
40850
40723
40607
40483
40353
40231
40125
40020
39904
39780
39659
39538
39422
39315
39203
39077
38954
38848
38742
38624
38507
38403
38302
38198
38095
37996
37899
37802
37704
37600
37484
37364
37254
37153
37048
36939
36842
36769
36719
36696
36712
36777
36897
37076
37313
37594
37917
38293
38721
39178
39644
40117
40596
41074
41536
41963
42353
42710
43030
43307
43549
43745
43887
44003
44115
44209
44274
44324
44370
44407
44436
44461
44477
44479
44472
44470
44473
44467
44450
44433
44422
44407
44381
44340
44278
44193
44094
43991
43879
43753
43620
43495
43381
43267
43148
43031
42929
42836
42748
42677
42612
42540
42485
42461
42443
42415
42376
42330
42279
42230
42190
42152
42110
42070
42031
41982
41911
41820
41731
41647
41555
41453
41351
41252
41146
41035
40917
40793
40667
40546
40430
40303
40159
40019
39893
39769
39638
39514
39403
39292
39179
39068
38957
38849
38739
38623
38503
38381
38260
38156
38075
38003
37923
37838
37751
37655
37546
37430
37310
37184
37054
36927
36811
36694
36580
36493
36446
36432
36452
36522
36656
36851
37109
37429
37796
38196
38635
39113
39605
40090
40569
41038
41491
41926
42329
42693
43014
43294
43535
43738
43900
44023
44126
44221
44296
44348
44392
44439
44477
44501
44513
44514
44508
44508
44521
44537
44538
44523
44512
44510
44497
44450
44376
44306
44241
44168
44083
43985
43877
43773
43682
43588
43480
43369
43263
43169
43090
43021
42953
42886
42819
42765
42727
42689
42640
42595
42566
42537
42491
42445
42408
42367
42322
42278
42231
42164
42078
41996
41918
41827
41719
41603
41487
41371
41253
41139
41025
40904
40790
40686
40579
40458
40336
40223
40119
40015
39899
39773
39645
39521
39399
39286
39177
39063
38955
38863
38773
38671
38564
38458
38350
38241
38140
38048
37952
37850
37755
37669
37577
37468
37352
37246
37150
37070
37012
36980
36978
37028
37139
37303
37513
37773
38092
38462
38867
39291
39732
40188
40647
41098
41538
41953
42325
42665
42986
43278
43534
43759
43956
44121
44254
44360
44442
44493
44518
44537
44562
44587
44607
44625
44641
44653
44670
44690
44697
44678
44647
44620
44591
44546
44482
44413
44348
44276
44199
44122
44035
43929
43820
43724
43627
43517
43414
43335
43268
43209
43155
43099
43045
42997
42960
42932
42905
42878
42859
42845
42820
42780
42733
42682
42626
42566
42502
42428
42339
42247
42164
42078
41974
41858
41749
41652
41551
41433
41309
41194
41083
40970
40860
40746
40618
40494
40385
40272
40148
40032
39931
39834
39739
39644
39546
39445
39336
39230
39131
39025
38910
38800
38704
38608
38501
38387
38276
38169
38068
37974
37884
37792
37700
37614
37527
37422
37305
37199
37117
37055
37008
36997
37040
37140
37288
37487
37734
38020
38351
38727
39124
39525
39947
40389
40821
41226
41616
41998
42353
42667
42946
43194
43403
43571
43708
43815
43894
43959
44025
44089
44132
44159
44187
44220
44240
44244
44249
44267
44286
44294
44298
44300
44290
44258
44210
44146
44063
43978
43905
43822
43714
43597
43486
43365
43231
43109
43016
42939
42870
42808
42750
42693
42639
42598
42567
42531
42484
42443
42417
42394
42369
42341
42312
42280
42241
42191
42125
42043
41960
41884
41800
41696
41587
41491
41400
41304
41195
41080
40971
40869
40761
40644
40527
40410
40294
40183
40071
39952
39841
39742
39632
39502
39375
39261
39153
39045
38944
38845
38744
38642
38543
38443
38343
38249
38162
38079
37993
37907
37827
37750
37662
37562
37465
37375
37281
37177
37069
36968
36871
36779
36704
36662
36658
36692
36769
36894
37073
37310
37600
37931
38289
38675
39087
39507
39923
40343
40764
41167
41541
41889
42216
42502
42738
42935
43107
43246
43348
43427
43497
43547
43573
43588
43603
43614
43609
43600
43601
43603
43594
43585
43583
43577
43561
43542
43510
43455
43385
43310
43219
43105
42983
42869
42751
42622
42499
42393
42299
42207
42127
42065
42016
41974
41940
41911
41876
41841
41825
41823
41817
41806
41801
41797
41776
41739
41704
41675
41640
41586
41519
41450
41375
41285
41185
41087
40990
40884
40771
40656
40541
40427
40315
40207
40104
40002
39892
39773
39649
39530
39414
39291
39166
39055
38957
38849
38731
38621
38528
38437
38342
38254
38179
38100
38011
37920
37835
37750
37665
37583
37492
37383
37274
37181
37090
36985
36880
36790
36713
36652
36616
36613
36653
36741
36878
37071
37322
37625
37971
38352
38756
39177
39618
40074
40525
40956
41369
41767
42130
42451
42737
42993
43211
43385
43530
43650
43746
43826
43893
43938
43958
43977
44003
44012
44001
43995
44004
44008
43995
43976
43956
43937
43918
43891
43851
43799
43734
43659
43578
43484
43370
43253
43140
43028
42919
42822
42745
42680
42616
42556
42501
42452
42412
42377
42342
42309
42287
42270
42250
42221
42196
42185
42176
42154
42114
42064
42011
41949
41867
41769
41669
41568
41468
41375
41279
41170
41061
40964
40868
40767
40670
40582
40484
40369
40251
40140
40030
39914
39793
39674
39560
39451
39342
39226
39107
38997
38900
38802
38698
38597
38501
38402
38293
38187
38094
38009
37921
37828
37736
37648
37558
37459
37356
37251
37147
37044
36950
36866
36796
36761
36774
36826
36917
37067
37285
37555
37864
38215
38609
39038
39494
39969
40454
40936
41407
41863
42293
42684
43038
43368
43668
43921
44130
44316
44486
44626
44732
44816
44892
44958
45008
45049
45081
45098
45113
45140
45163
45163
45159
45170
45185
45183
45172
45159
45137
45103
45063
45016
44949
44864
44773
44676
44566
44444
44326
44223
44130
44040
43955
43874
43798
43733
43685
43643
43597
43555
43529
43511
43485
43452
43417
43377
43335
43288
43238
43192
43148
43093
43024
42945
42854
42757
42660
42557
42445
42337
42239
42133
42013
41896
41786
41673
41550
41423
41300
41180
41063
40945
40818
40677
40537
40410
40291
40172
40058
39957
39865
39767
39652
39533
39425
39321
39212
39103
38998
38888
38783
38693
38602
38497
38397
38315
38238
38153
38063
37971
37878
37791
37721
37675
37658
37673
37738
37863
38044
38276
38558
38895
39278
39700
40156
40636
41133
41643
42159
42653
43106
43520
43905
44257
44564
44818
45034
45221
45373
45502
45621
45715
45773
45817
45862
45894
45910
45919
45924
45928
45938
45952
45969
45983
45990
45996
46000
45982
45933
45870
45808
45745
45675
45594
45500
45391
45273
45154
45033
44911
44798
44703
44617
44527
44438
44363
44302
44243
44179
44118
44074
44040
44016
44003
43986
43950
43910
43874
43825
43753
43669
43587
43506
43420
43331
43237
43133
43017
42899
42785
42664
42538
42421
42309
42185
42047
41908
41775
41640
41506
41381
41256
41122
40985
40853
40721
40579
40440
40316
40192
40063
39944
39843
39749
39654
39551
39439
39324
39207
39089
38976
38859
38731
38612
38511
38403
38273
38137
38010
37890
37771
37660
37555
37449
37342
37253
37195
37171
37186
37252
37378
37556
37790
38082
38417
38786
39193
39638
40108
40582
41046
41499
41945
42372
42769
43133
43457
43734
43980
44205
44389
44520
44611
44674
44724
44765
44793
44811
44810
44793
44779
44778
44776
44765
44752
44735
44710
44683
44657
44621
44563
44490
44418
44344
44255
44143
44022
43899
43767
43628
43489
43344
43190
43052
42948
42855
42761
42679
42621
42581
42550
42518
42480
42444
42410
42378
42349
42317
42273
42227
42182
42127
42060
41983
41894
41795
41694
41596
41500
41399
41290
41184
41085
40975
40848
40722
40603
40479
40344
40206
40068
39928
39795
39671
39539
39395
39261
39142
39026
38902
38775
38654
38535
38415
38291
38167
38038
37906
37789
37689
37590
37492
37402
37325
37246
37152
37047
36942
36837
36730
36621
36510
36396
36287
36193
36104
36009
35924
35877
35884
35938
36034
36189
36412
36691
37019
37397
37810
38243
38703
39189
39673
40141
40597
41037
41443
41807
42126
42397
42631
42835
43009
43152
43258
43330
43384
43427
43452
43457
43451
43442
43422
43390
43358
43332
43308
43285
43255
43208
43148
43088
43032
42968
42885
42789
42688
42581
42457
42314
42165
42022
41889
41770
41670
41578
41478
41383
41310
41246
41180
41122
41083
41055
41033
41016
41003
40984
40958
40935
40916
40885
40836
40783
40726
40650
40559
40466
40374
40273
40168
40077
39992
39901
39801
39694
39574
39435
39296
39168
39033
38889
38750
38624
38504
38383
38261
38134
38004
37871
37740
37612
37479
37336
37204
37091
36981
36865
36752
36646
36541
36434
36327
36220
36110
36005
35902
35789
35663
35538
35430
35329
35223
35128
35063
35030
35023
35054
35145
35309
35539
35826
36170
36567
37002
37460
37939
38428
38913
39400
39893
40363
40790
41183
41544
41862
42133
42365
42564
42727
42854
42957
43040
43098
43137
43171
43187
43179
43160
43150
43151
43142
43121
43103
43088
43063
43023
42977
42936
42890
42821
42734
42642
42546
42431
42300
42163
42022
41883
41756
41626
41485
41356
41248
41150
41054
40980
40938
40913
40889
40865
40839
40804
40764
40728
40696
40657
40611
40569
40532
40477
40399
40316
40240
40155
40052
39945
39847
39749
39640
39526
39418
39307
39183
39057
38936
38812
38680
38548
38415
38277
38137
38007
37877
37734
37596
37478
37360
37229
37098
36978
36863
36746
36629
36516
36405
36292
36181
36068
35941
35806
35686
35582
35466
35332
35206
35096
34987
34870
34762
34675
34608
34564
34561
34613
34722
34897
35148
35458
35808
36210
36671
37164
37667
38182
38699
39208
39713
40204
40669
41099
41487
41830
42126
42371
42569
42737
42876
42978
43047
43101
43149
43183
43204
43217
43222
43215
43200
43186
43169
43148
43132
43122
43111
43088
43049
43003
42954
42894
42811
42711
42598
42470
42334
42200
42061
41908
41762
41639
41525
41415
41318
41240
41178
41129
41092
41062
41028
40992
40963
40940
40909
40869
40835
40812
40781
40729
40663
40593
40523
40455
40389
40315
40226
40133
40045
39943
39817
39685
39558
39437
39319
39195
39065
38936
38809
38676
38537
38395
38253
38122
38005
37889
37768
37651
37544
37436
37315
37186
37064
36949
36837
36726
36619
36510
36398
36289
36180
36063
35947
35842
35741
35629
35508
35392
35288
35189
35094
35018
34979
34986
35041
35150
35327
35567
35864
36219
36629
37088
37589
38120
38650
39164
39672
40174
40649
41085
41490
41866
42192
42463
42691
42883
43038
43162
43263
43341
43391
43421
43447
43476
43492
43489
43485
43490
43484
43456
43420
43396
43375
43342
43300
43255
43204
43145
43085
43010
42904
42788
42675
42546
42392
42238
42102
41985
41878
41783
41706
41641
41577
41516
41459
41406
41366
41346
41334
41309
41271
41240
41220
41197
41160
41117
41079
41043
41001
40951
40891
40817
40735
40649
40546
40424
40303
40197
40091
39976
39853
39723
39591
39459
39327
39197
39067
38938
38820
38714
38604
38486
38369
38257
38138
38010
37884
37766
37648
37529
37417
37310
37194
37072
36962
36863
36764
36664
36574
36494
36402
36293
36189
36099
36009
35908
35808
35729
35674
35650
35677
35758
35890
36088
36359
36685
37051
37458
37905
38375
38853
39319
39769
40202
40614
41004
41369
41697
41984
42242
42486
42704
42880
43014
43115
43189
43241
43272
43283
43282
43281
43285
43282
43262
43228
43197
43176
43158
43128
43088
43047
42995
42933
42866
42783
42672
42554
42447
42338
42220
42107
42010
41921
41836
41756
41683
41610
41539
41484
41444
41404
41361
41324
41302
41288
41278
41266
41249
41221
41186
41147
41104
41054
41005
40962
40914
40849
40771
40692
40612
40522
40414
40301
40192
40080
39960
39842
39722
39593
39472
39373
39280
39179
39081
38992
38897
38789
38679
38577
38477
38371
38266
38168
38067
37956
37842
37733
37626
37522
37426
37337
37240
37135
37040
36956
36864
36758
36659
36576
36498
36414
36334
36268
36217
36194
36222
36303
36433
36628
36894
37205
37543
37916
38325
38743
39157
39575
39998
40410
40795
41146
41461
41734
41963
42159
42323
42448
42543
42628
42709
42769
42797
42811
42822
42824
42814
42800
42787
42774
42767
42766
42752
42716
42676
42641
42591
42523
42452
42381
42295
42188
42072
41948
41822
41703
41597
41503
41417
41339
41275
41224
41176
41132
41102
41088
41079
41073
41078
41091
41095
41083
41067
41054
41037
41011
40970
40918
40857
40798
40742
40679
40608
40536
40465
40381
40276
40174
40088
40001
39905
39810
39726
39650
39570
39484
39397
39309
39217
39128
39043
38954
38868
38791
38716
38629
38524
38421
38333
38251
38159
38064
37972
37879
37785
37689
37589
37489
37395
37309
37223
37135
37064
37030
37033
37063
37127
37243
37420
37649
37916
38220
38559
38923
39302
39693
40086
40471
40852
41234
41593
41913
42202
42466
42702
42904
43075
43214
43325
43413
43492
43557
43595
43616
43634
43654
43659
43640
43619
43614
43614
43605
43591
43570
43535
43496
43461
43412
43337
43244
43148
43058
42976
42887
42792
42698
42600
42500
42408
42318
42227
42154
42104
42068
42035
42009
41993
41983
41974
41967
41958
41939
41911
41890
41876
41855
41819
41778
41742
41703
41657
41609
41557
41500
41443
41384
41306
41211
41122
41048
40974
40879
40768
40660
40559
40464
40367
40269
40171
40070
39974
39891
39803
39699
39594
39498
39407
39317
39230
39143
39054
38962
38878
38808
38734
38646
38558
38476
38396
38311
38224
38134
38046
37968
37906
37857
37824
37822
37870
37967
38108
38295
38532
38814
39129
39466
39825
40211
40620
41035
41446
41845
42223
42575
42901
43196
43459
43705
43938
44140
44297
44421
44526
44609
44673
44727
44776
44816
44853
44897
44939
44969
44994
45027
45060
45076
45073
45068
45072
45066
45039
45000
44960
44910
44853
44801
44741
44660
44574
44495
44411
44317
44229
44158
44096
44041
43997
43966
43943
43922
43904
43886
43863
43833
43809
43793
43769
43737
43712
43694
43665
43618
43573
43540
43497
43434
43371
43319
43266
43197
43112
43025
42931
42828
42727
42632
42534
42438
42345
42250
42148
42051
41968
41883
41783
41686
41600
41510
41404
41301
41207
41117
41022
40927
40838
40742
40638
40539
40444
40342
40239
40151
40074
39984
39879
39782
39698
39612
39521
39448
39405
39389
39400
39447
39533
39654
39824
40050
40314
40605
40934
41306
41693
42077
42464
42853
43221
43554
43859
44145
44405
44639
44840
45007
45139
45237
45316
45384
45437
45477
45510
45535
45541
45537
45549
45575
45589
45583
45577
45584
45589
45571
45541
45515
45483
45430
45362
45289
45206
45101
44986
44873
44763
44660
44571
44482
44383
44290
44219
44159
44100
44056
44028
43997
43957
43915
43877
43837
43794
43754
43718
43675
43632
43599
43566
43516
43449
43382
43312
43220
43107
42999
42907
42813
42707
42605
42510
42407
42289
42170
42063
41958
41849
41744
41644
41539
41433
41338
41241
41133
41030
40941
40854
40762
40678
40600
40515
40418
40318
40221
40125
40026
39925
39820
39707
39594
39487
39385
39283
39186
39098
39008
38913
38824
38750
38683
38618
38571
38559
38579
38634
38743
38907
39107
39337
39601
39898
40213
40539
40881
41232
41582
41922
42251
42569
42865
43130
43369
43584
43766
43912
44038
44154
44253
44337
44414
44477
44513
44528
44545
44570
44589
44596
44607
44625
44631
44623
44615
44610
44597
44571
44542
44512
44462
44386
44294
44201
44109
44012
43912
43818
43730
43643
43558
43482
43420
43376
43346
43313
43273
43239
43214
43188
43153
43120
43100
43079
43049
43012
42976
42939
42901
42866
42823
42770
42714
42660
42600
42524
42440
42356
42270
42178
42078
41982
41895
41809
41714
41608
41498
41389
41279
41173
41067
40961
40859
40762
40666
40564
40470
40393
40311
40215
40126
40051
39977
39896
39816
39737
39655
39566
39477
39389
39297
39209
39141
39086
39033
39000
39017
39080
39174
39303
39480
39703
39959
40242
40556
40900
41261
41622
41980
42338
42687
43018
43335
43638
43919
44177
44410
44613
44784
44937
45078
45195
45287
45366
45443
45509
45558
45595
45628
45655
45681
45706
45726
45735
45744
45760
45780
45784
45767
45742
45712
45666
45596
45514
45430
45336
45233
45130
45025
44912
44805
44725
44658
44586
44522
44481
44452
44419
44387
44365
44348
44334
44317
44299
44274
44240
44204
44169
44123
44058
43992
43932
43867
43789
43703
43617
43528
43432
43331
43225
43118
43014
42914
42804
42681
42567
42468
42367
42260
42160
42068
41978
41886
41793
41697
41599
41498
41391
41277
41164
41055
40951
40849
40741
40626
40515
40410
40305
40195
40088
39993
39902
39808
39716
39639
39586
39561
39568
39606
39679
39798
39967
40178
40426
40713
41044
41404
41780
42177
42593
43015
43427
43809
44158
44483
44783
45054
45297
45512
45696
45856
46001
46125
46225
46319
46418
46506
46574
46626
46671
46712
46740
46759
46772
46779
46783
46795
46810
46806
46785
46761
46733
46687
46618
46537
46455
46359
46242
46124
46021
45920
45813
45710
45613
45518
45431
45362
45297
45222
45150
45098
45050
44992
44942
44911
44881
44843
44806
44772
44732
44683
44631
44579
44519
44449
44372
44282
44180
44075
43980
43888
43783
43672
43570
43472
43361
43233
43101
42972
42845
42717
42593
42478
42363
42245
42132
42015
41882
41753
41644
41541
41428
41315
41211
41104
40989
40873
40757
40637
40512
40390
40279
40172
40066
39965
39871
39776
39673
39577
39499
39442
39410
39404
39433
39503
39619
39786
39999
40257
40565
40923
41305
41698
42115
42558
42996
43412
43812
44196
44560
44893
45191
45450
45677
45874
46048
46203
46330
46428
46516
46605
46676
46722
46761
46797
46823
46839
46854
46867
46876
46885
46893
46892
46875
46850
46829
46807
46766
46699
46619
46535
46436
46318
46195
46076
45950
45817
45700
45598
45501
45415
45346
45281
45210
45141
45083
45030
44978
44931
44892
44855
44820
44786
44750
44696
44620
44539
44460
44377
44286
44191
44097
44004
43911
43817
43713
43602
43493
43392
43289
43170
43043
42919
42798
42671
42536
42399
42267
42132
41994
41860
41726
41586
41449
41329
41209
41077
40949
40841
40737
40620
40503
40396
40292
40185
40077
39968
39853
39734
39622
39513
39395
39268
39147
39042
38938
38824
38713
38625
38562
38530
38538
38587
38674
38814
39014
39255
39528
39850
40224
40626
41046
41485
41936
42382
42807
43205
43570
43905
44212
44482
44711
44899
45054
45186
45296
45378
45436
45490
45546
45589
45621
45659
45701
45730
45738
45743
45754
45761
45763
45756
45730
45684
45628
45565
45486
45390
45288
45187
45088
44980
44855
44727
44609
44493
44379
44278
44178
44071
43975
43906
43852
43799
43746
43694
43644
43595
43546
43500
43449
43390
43341
43303
43263
43208
43136
43052
42958
42860
42763
42660
42547
42432
42325
42224
42116
41995
41876
41769
41659
41531
41397
41266
41134
41010
40901
40788
40659
40532
40419
40303
40179
40053
39929
39803
39676
39550
39432
39316
39199
39089
38992
38900
38804
38702
38595
38475
38354
38251
38159
38052
37927
37801
37688
37578
37459
37342
37231
37128
37039
36973
36923
36892
36905
36979
37105
37274
37491
37759
38072
38425
38811
39221
39645
40070
40496
40919
41318
41682
42027
42362
42665
42918
43129
43313
43467
43590
43692
43771
43819
43846
43875
43903
43913
43903
43900
43914
43927
43922
43905
43884
43861
43841
43824
43788
43722
43645
43569
43476
43358
43233
43118
43005
42892
42786
42686
42585
42481
42381
42291
42209
42140
42094
42067
42040
42007
41978
41958
41941
41921
41899
41870
41831
41783
41732
41676
41609
41537
41466
41388
41299
41197
41097
41009
40922
40822
40715
40605
40485
40363
40253
40140
40011
39886
39778
39669
39547
39423
39297
39167
39036
38914
38800
38690
38581
38481
38389
38290
38182
38077
37976
37874
37767
37663
37562
37463
37367
37279
37189
37082
36966
36856
36753
36645
36525
36409
36310
36216
36126
36056
36008
35975
35981
36046
36159
36314
36524
36793
37108
37463
37852
38266
38700
39144
39591
40033
40455
40847
41216
41561
41869
42134
42356
42540
42694
42824
42937
43022
43077
43119
43165
43208
43229
43227
43218
43214
43206
43181
43149
43122
43095
43063
43030
42989
42923
42837
42746
42643
42521
42406
42312
42217
42106
41991
41879
41772
41667
41571
41488
41409
41340
41296
41269
41241
41211
41186
41162
41124
41078
41045
41024
40997
40959
40916
40861
40789
40711
40632
40545
40448
40356
40269
40166
40041
39914
39797
39679
39559
39443
39334
39224
39106
38980
38851
38722
38592
38465
38343
38219
38091
37968
37847
37718
37580
37450
37334
37225
37118
37012
36901
36785
36673
36566
36450
36328
36219
36133
36051
35958
35864
35775
35684
35580
35468
35360
35260
35161
35058
34958
34876
34821
34794
34804
34862
34979
35159
35396
35680
36002
36366
36770
37199
37642
38096
38565
39033
39475
39883
40263
40612
40928
41218
41475
41694
41888
42064
42209
42314
42391
42458
42510
42538
42543
42538
42534
42526
42508
42486
42464
42430
42399
42389
42384
42361
42325
42288
42237
42161
42072
41984
41886
41769
41645
41525
41408
41291
41180
41073
40965
40859
40773
40704
40635
40569
40521
40494
40460
40410
40363
40331
40305
40279
40255
40231
40200
40165
40129
40074
39991
39902
39822
39738
39647
39557
39465
39369
39270
39171
39067
38951
38819
38690
38572
38448
38316
38187
38072
37964
37851
37734
37607
37470
37330
37197
37074
36946
36812
36686
36573
36458
36335
36214
36108
36013
35923
35840
35757
35666
35575
35493
35406
35306
35209
35120
35024
34916
34808
34707
34609
34506
34404
34313
34229
34148
34084
34052
34056
34106
34213
34378
34592
34849
35159
35528
35938
36367
36809
37260
37712
38159
38598
39011
39394
39757
40104
40414
40673
40892
41081
41238
41358
41444
41510
41567
41615
41653
41683
41699
41701
41700
41704
41703
41687
41667
41658
41646
41617
41586
41555
41512
41454
41386
41310
41220
41123
41023
40910
40785
40660
40549
40445
40339
40236
40146
40067
39989
39912
39851
39807
39762
39717
39678
39646
39611
39568
39526
39491
39462
39427
39379
39324
39267
39200
39124
39044
38957
38866
38771
38666
38552
38440
38333
38219
38095
37970
37853
37733
37598
37466
37347
37225
37093
36962
36839
36713
36582
36459
36341
36221
36106
35996
35879
35748
35625
35521
35415
35296
35181
35083
34988
34890
34795
34705
34612
34515
34418
34324
34235
34150
34062
33966
33858
33742
33632
33532
33432
33341
33283
33262
33267
33305
33405
33575
33796
34051
34347
34688
35060
35445
35832
36220
36604
36973
37329
37666
37971
38247
38498
38716
38890
39036
39168
39275
39342
39386
39426
39450
39451
39439
39425
39411
39390
39365
39344
39320
39289
39257
39219
39168
39106
39048
38993
38924
38834
38741
38658
38572
38472
38368
38268
38166
38063
37965
37871
37777
37695
37635
37578
37516
37467
37441
37412
37370
37332
37307
37282
37252
37224
37203
37181
37154
37123
37084
37033
36964
36889
36813
36728
36637
36550
36461
36354
36232
36117
36015
35905
35784
35669
35575
35488
35393
35294
35198
35103
35003
34906
34809
34702
34591
34487
34387
34283
34187
34106
34019
33914
33805
33705
33602
33490
33378
33270
33167
33072
32985
32905
32825
32736
32646
32560
32469
32371
32281
32208
32148
32104
32083
32098
32153
32261
32432
32652
32901
33186
33519
33882
34250
34603
34946
35288
35619
35932
36235
36510
36743
36952
37146
37314
37446
37547
37621
37672
37707
37732
37748
37748
37728
37704
37686
37667
37641
37617
37595
37565
37533
37511
37496
37469
37418
37357
37297
37228
37148
37063
36971
36871
36775
36694
36614
36524
36444
36387
36340
36296
36251
36211
36185
36170
36163
36158
36150
36138
36131
36133
36131
36116
36094
36070
36042
36009
35974
35936
35887
35824
35764
35711
35656
35590
35518
35448
35377
35308
35239
35155
35048
34940
34845
34757
34670
34578
34485
34401
34317
34223
34124
34020
33907
33802
33717
33636
33543
33452
33372
33297
33225
33152
33074
32990
32899
32810
32728
32643
32552
32472
32409
32347
32280
32222
32190
32195
32241
32336
32482
32674
32918
33207
33526
33856
34204
34576
34956
35323
35668
36001
36324
36624
36885
37111
37309
37479
37623
37746
37842
37910
37962
38006
38031
38033
38033
38042
38051
38052
38047
38039
38023
38002
37979
37949
37909
37866
37841
37824
37783
37713
37633
37558
37476
37377
37271
37178
37095
37016
36945
36873
36801
36747
36715
36683
36640
36607
36599
36599
36599
36595
36584
36566
36545
36525
36503
36474
36436
36399
36365
36319
36257
36195
36141
36089
36028
35960
35886
35813
35744
35665
35577
35482
35391
35307
35222
35126
35025
34935
34852
34763
34668
34575
34490
34409
34323
34232
34143
34055
33967
33881
33791
33689
33588
33501
33419
33331
33244
33166
33087
33000
32914
32831
32750
32677
32625
32600
32605
32641
32729
32879
33069
33288
33553
33870
34224
34596
34983
35381
35780
36178
36569
36933
37255
37555
37839
38086
38289
38463
38622
38756
38858
38939
39008
39067
39115
39149
39168
39176
39178
39177
39171
39160
39144
39130
39118
39099
39069
39040
39016
38987
38938
38876
38810
38743
38674
38596
38508
38416
38332
38259
38179
38088
38009
37956
37915
37870
37831
37806
37785
37763
37742
37727
37718
37712
37704
37688
37666
37640
37615
37588
37549
37497
37449
37410
37363
37297
37223
37150
37074
36995
36917
36835
36747
36657
36571
36482
36378
36267
36166
36074
35974
35864
35759
35670
35587
35498
35410
35328
35241
35148
35062
34974
34872
34771
34688
34609
34521
34432
34351
34272
34191
34114
34040
33964
33887
33813
33749
33699
33672
33688
33752
33854
34001
34207
34471
34779
35112
35472
35859
36265
36680
37102
37515
37907
38274
38619
38929
39195
39431
39645
39828
39981
40118
40238
40333
40399
40445
40476
40494
40502
40504
40504
40500
40488
40475
40464
40449
40431
40421
40419
40407
40378
40338
40292
40237
40173
40101
40022
39938
39856
39780
39696
39600
39506
39422
39342
39261
39195
39156
39140
39133
39125
39117
39112
39106
39089
39063
39039
39018
38993
38960
38917
38873
38831
38785
38733
38676
38618
38558
38484
38396
38307
38223
38142
38058
37971
37884
37802
37720
37637
37545
37445
37347
37254
37156
37051
36948
36853
36754
36642
36531
36439
36359
36273
36171
36064
35967
35883
35799
35711
35619
35520
35423
35334
35240
35133
35030
34940
34848
34751
34666
34609
34583
34588
34638
34732
34860
35034
35270
35561
35886
36233
36614
37027
37453
37874
38289
38695
39083
39452
39798
40104
40361
40590
40807
40992
41127
41234
41327
41395
41440
41474
41502
41525
41547
41564
41573
41567
41550
41532
41519
41499
41470
41445
41427
41396
41340
41269
41193
41112
41023
40929
40826
40715
40605
40512
40436
40357
40266
40181
40113
40055
39996
39945
39910
39882
39863
39861
39862
39853
39839
39829
39816
39798
39771
39735
39696
39656
39608
39549
39481
39403
39326
39256
39181
39096
39004
38914
38821
38726
38637
38552
38454
38341
38231
38130
38025
37907
37790
37687
37592
37495
37401
37313
37219
37125
37038
36941
36831
36730
36649
36569
36478
36388
36307
36224
36132
36036
35944
35853
35762
35674
35589
35495
35394
35298
35208
35115
35025
34959
34933
34949
35005
35100
35241
35434
35686
35997
36351
36728
37131
37567
38015
38443
38848
39247
39639
40006
40334
40631
40900
41135
41339
41514
41647
41732
41792
41844
41881
41904
41920
41931
41938
41942
41938
41926
41902
41870
41845
41823
41785
41735
41686
41641
41585
41510
41412
41300
41181
41063
40953
40842
40727
40621
40537
40462
40378
40302
40250
40210
40172
40139
40113
40090
40068
40041
40009
39978
39954
39937
39916
39884
39840
39788
39734
39667
39585
39503
39428
39354
39276
39195
39117
39035
38949
38860
38759
38647
38534
38440
38361
38273
38165
38052
37943
37828
37704
37585
37481
37380
37267
37152
37047
36941
36821
36700
36586
36471
36364
36275
36181
36067
35954
35859
35769
35673
35582
35503
35427
35345
35264
35191
35115
35022
34921
34823
34723
34619
34527
34458
34404
34371
34388
34466
34593
34765
34996
35291
35632
36000
36394
36814
37246
37676
38104
38522
38913
39286
39643
39962
40231
40468
40686
40868
41002
41105
41190
41248
41278
41290
41289
41278
41261
41242
41216
41171
41115
41071
41034
40986
40924
40863
40811
40750
40673
40587
40498
40402
40292
40177
40067
39958
39842
39727
39615
39504
39406
39335
39275
39213
39163
39135
39108
39070
39039
39026
39022
39017
39014
39011
38997
38970
38938
38904
38863
38807
38750
38691
38619
38534
38448
38371
38285
38184
38073
37962
37854
37757
37672
37587
37492
37392
37287
37169
37034
36898
36777
36670
36566
36449
36324
36207
36095
35981
35867
35750
35624
35508
35418
35333
35236
35141
35058
34973
34882
34790
34697
34603
34509
34426
34351
34270
34180
34086
33988
33878
33765
33679
33631
33607
33609
33667
33799
33991
34227
34509
34842
35210
35598
36008
36434
36854
37269
37681
38075
38432
38765
39083
39368
39604
39801
39967
40100
40200
40274
40325
40352
40363
40370
40373
40361
40331
40297
40268
40241
40207
40173
40142
40105
40060
40004
39930
39836
39737
39639
39532
39408
39277
39151
39024
38887
38753
38634
38533
38449
38381
38328
38293
38272
38258
38243
38224
38205
38191
38179
38160
38132
38106
38089
38071
38036
37987
37935
37881
37822
37762
37701
37632
37557
37481
37400
37303
37194
37090
36998
36897
36781
36671
36579
36488
36384
36272
36151
36019
35892
35786
35683
35569
35450
35336
35227
35117
35005
34895
34792
34698
34609
34522
34431
34335
34244
34160
34072
33972
33864
33748
33628
33515
33422
33342
33258
33165
33080
33007
32937
32876
32847
32866
32935
33063
33259
33512
33810
34158
34557
34985
35423
35876
36341
36805
37257
37687
38089
38467
38821
39145
39436
39680
39870
40022
40153
40259
40337
40399
40450
40480
40490
40490
40483
40465
40443
40426
40406
40370
40324
40283
40246
40195
40121
40046
39981
39914
39826
39727
39635
39545
39445
39343
39243
39137
39038
38957
38879
38796
38725
38675
38623
38557
38493
38447
38422
38412
38410
38417
38420
38414
38409
38400
38375
38328
38274
38222
38173
38124
38068
38006
37936
37859
37779
37690
37589
37487
37394
37306
37210
37101
36987
36876
36759
36631
36501
36377
36258
36146
36042
35936
35818
35698
35589
35484
35376
35278
35191
35105
35011
34919
34832
34741
34644
34548
34452
34355
34259
34175
34100
34009
33901
33798
33711
33626
33535
33454
33400
33376
33386
33441
33538
33669
33860
34122
34431
34773
35157
35587
36047
36520
36996
37470
37938
38393
38831
39245
39618
39942
40226
40479
40695
40869
41004
41104
41174
41218
41247
41256
41250
41241
41242
41245
41229
41194
41162
41142
41121
41093
41060
41021
40972
40924
40879
40817
40733
40640
40544
40442
40335
40222
40103
39986
39875
39776
39693
39610
39517
39445
39405
39375
39342
39317
39305
39296
39286
39270
39249
39215
39172
39136
39109
39078
39034
38989
38950
38903
38839
38769
38702
38627
38544
38455
38352
38234
38119
38015
37910
37796
37678
37555
37436
37321
37204
37085
36964
36842
36726
36621
36513
36397
36289
36193
36094
35984
35872
35762
35652
35540
35423
35302
35177
35053
34940
34835
34725
34611
34507
34416
34315
34203
34101
34019
33941
33862
33803
33788
33819
33909
34070
34286
34539
34841
35205
35606
36023
36461
36920
37383
37835
38266
38672
39052
39399
39714
40001
40252
40465
40648
40804
40918
40982
41019
41049
41069
41073
41065
41055
41039
41015
40988
40959
40927
40896
40865
40819
40759
40703
40650
40588
40502
40386
40251
40116
39988
39862
39736
39606
39470
39347
39245
39144
39033
38936
38867
38817
38780
38757
38743
38721
38695
38681
38676
38659
38623
38580
38545
38513
38475
38434
38391
38345
38295
38244
38177
38083
37979
37883
37791
37694
37587
37474
37361
37245
37116
36980
36845
36712
36584
36463
36341
36213
36093
35988
35882
35765
35644
35525
35407
35286
35169
35059
34950
34838
34731
34632
34532
34422
34312
34211
34111
34012
33919
33838
33757
33668
33572
33471
33367
33269
33188
33117
33061
33053
33116
33238
33411
33637
33916
34252
34639
35066
35518
35987
36463
36940
37413
37867
38288
38680
39051
39390
39686
39941
40160
40334
40462
40552
40611
40644
40659
40665
40662
40634
40586
40543
40516
40486
40436
40384
40348
40317
40280
40238
40192
40136
40067
39985
39880
39750
39617
39497
39381
39263
39150
39042
38934
38834
38753
38690
38641
38602
38573
38550
38527
38501
38480
38467
38455
38429
38402
38384
38366
38341
38307
38265
38214
38161
38116
38065
38002
37934
37866
37787
37691
37594
37507
37415
37306
37185
37064
36950
36842
36732
36619
36496
36366
36244
36132
36018
35894
35773
35663
35552
35437
35324
35211
35092
34973
34868
34770
34665
34549
34442
34349
34255
34151
34046
33946
33850
33758
33678
33613
33571
33575
33637
33743
33888
34089
34354
34677
35045
35446
35876
36332
36805
37289
37775
38239
38664
39061
39436
39771
40056
40302
40515
40685
40812
40907
40974
41008
41015
41017
41021
41014
40988
40960
40945
40928
40898
40859
40809
40754
40702
40647
40572
40473
40372
40281
40183
40069
39951
39840
39725
39604
39482
39368
39264
39167
39077
38994
38912
38839
38783
38743
38708
38678
38665
38666
38661
38641
38620
38603
38584
38553
38511
38462
38404
38342
38280
38203
38103
38001
37908
37813
37707
37600
37502
37415
37323
37216
37096
36982
36874
36763
36650
36536
36416
36295
36181
36067
35943
35826
35724
35615
35491
35367
35254
35141
35019
34898
34779
34659
34540
34428
34324
34216
34101
33998
33908
33816
33720
33645
33602
33578
33577
33623
33734
33909
34140
34434
34792
35200
35647
36129
36617
37091
37565
38051
38528
38976
39396
39790
40141
40444
40700
40912
41083
41217
41326
41415
41472
41501
41520
41534
41529
41505
41485
41474
41461
41439
41418
41402
41379
41347
41310
41260
41195
41124
41051
40965
40860
40753
40648
40531
40399
40264
40134
40009
39893
39783
39680
39589
39514
39454
39400
39348
39301
39268
39251
39239
39227
39218
39208
39185
39143
39094
39050
39006
38953
38892
38821
38740
38655
38571
38478
38365
38244
38136
38040
37939
37827
37715
37608
37489
37353
37217
37093
36971
36846
36726
36610
36487
36358
36233
36108
35974
35850
35750
35651
35538
35420
35306
35194
35075
34958
34849
34746
34640
34532
34422
34309
34193
34091
34010
33942
33893
33886
33934
34032
34178
34385
34661
34994
35369
35790
36255
36745
37242
37744
38244
38729
39195
39637
40041
40394
40707
40988
41227
41422
41584
41727
41836
41903
41942
41966
41976
41968
41950
41931
41912
41894
41881
41870
41844
41802
41763
41728
41678
41607
41535
41467
41384
41278
41160
41042
40923
40797
40672
40551
40435
40334
40249
40166
40074
39989
39921
39860
39802
39751
39712
39678
39641
39604
39571
39538
39507
39481
39460
39430
39384
39329
39275
39210
39123
39022
38920
38820
38718
38617
38517
38416
38319
38230
38133
38013
37882
37754
37618
37468
37319
37185
37064
36947
36815
36667
36525
36396
36272
36150
36029
35907
35790
35684
35570
35437
35314
35214
35112
34999
34887
34782
34675
34565
34459
34355
34243
34128
34032
33950
33862
33775
33727
33741
33809
33926
34107
34362
34684
35056
35477
35949
36445
36946
37453
37960
38451
38926
39385
39807
40174
40504
40814
41081
41294
41467
41613
41730
41817
41874
41904
41911
41903
41892
41883
41861
41830
41804
41781
41746
41698
41651
41610
41563
41500
41430
41362
41289
41205
41109
40995
40864
40731
40602
40467
40329
40203
40102
40015
39931
39851
39775
39708
39651
39609
39580
39555
39527
39506
39497
39484
39454
39419
39382
39337
39285
39232
39177
39116
39052
38990
38929
38853
38753
38642
38528
38413
38299
38185
38063
37934
37813
37707
37604
37491
37364
37236
37117
37000
36880
36763
36644
36514
36387
36274
36155
36023
35894
35773
35647
35517
35395
35282
35174
35076
34986
34904
34823
34732
34636
34539
34438
34331
34220
34101
33978
33864
33773
33704
33644
33600
33602
33669
33794
33971
34207
34497
34832
35223
35666
36131
36598
37084
37597
38106
38589
39049
39482
39877
40226
40532
40797
41018
41193
41337
41458
41548
41601
41634
41658
41665
41647
41617
41583
41544
41507
41476
41442
41386
41310
41240
41186
41130
41062
40988
40903
40798
40686
40573
40449
40309
40172
40047
39925
39805
39691
39585
39489
39402
39319
39243
39173
39106
39058
39038
39027
39010
38996
38985
38964
38934
38901
38861
38802
38731
38666
38607
38539
38459
38371
38280
38179
38074
37977
37875
37754
37628
37508
37387
37260
37127
36996
36870
36742
36605
36462
36314
36157
36004
35871
35742
35599
35456
35325
35199
35073
34947
34822
34697
34568
34441
34315
34186
34054
33935
33833
33734
33633
33527
33409
33274
33133
33004
32889
32773
32649
32531
32429
32337
32260
32222
32230
32286
32416
32638
32928
33267
33663
34111
34595
35102
35614
36114
36598
37063
37510
37935
38325
38670
38979
39251
39476
39655
39800
39920
40004
40055
40092
40118
40116
40087
40049
40011
39969
39927
39887
39842
39783
39715
39648
39579
39493
39393
39292
39186
39064
38930
38801
38672
38530
38388
38260
38130
37990
37859
37748
37652
37570
37509
37467
37430
37391
37360
37343
37329
37309
37294
37289
37284
37271
37245
37203
37151
37098
37044
36982
36901
36804
36708
36620
36527
36424
36316
36205
36081
35953
35828
35697
35556
35413
35274
35137
35005
34870
34731
34592
34457
34329
34210
34082
33934
33785
33649
33516
33378
33243
33113
32985
32862
32751
32649
32535
32407
32287
32176
32065
31950
31836
31727
31619
31508
31396
31276
31148
31030
30933
30855
30798
30773
30804
30917
31114
31388
31735
32139
32578
33051
33560
34075
34575
35070
35564
36040
36486
36899
37270
37590
37864
38104
38314
38479
38599
38695
38777
38837
38865
38862
38832
38785
38736
38688
38631
38567
38504
38451
38402
38347
38281
38210
38143
38071
37977
37867
37743
37604
37466
37338
37205
37051
36896
36762
36643
36533
36439
36364
36303
36247
36199
36163
36132
36102
36086
36083
36077
36061
36052
36054
36051
36036
36010
35975
35928
35870
35808
35740
35659
35578
35503
35416
35304
35186
35073
34951
34816
34680
34550
34426
34307
34187
34059
33932
33810
33691
33572
33447
33312
33178
33052
32925
32790
32660
32540
32416
32286
32162
32050
31936
31812
31684
31554
31426
31305
31191
31073
30943
30817
30701
30584
30463
30366
30318
30325
30391
30529
30743
31035
31400
31824
32294
32800
33328
33862
34390
34901
35385
35848
36292
36698
37058
37382
37677
37929
38132
38295
38429
38532
38603
38653
38681
38679
38658
38639
38625
38597
38552
38504
38459
38405
38343
38285
38229
38170
38111
38055
37986
37890
37780
37668
37544
37402
37257
37122
36997
36883
36779
36685
36593
36498
36407
36329
36269
36224
36203
36203
36203
36191
36173
36153
36130
36105
36082
36053
36013
35972
35938
35897
35831
35749
35671
35600
35520
35421
35315
35216
35115
35000
34873
34738
34591
34446
34322
34198
34059
33926
33813
33702
33581
33460
33344
33228
33108
32992
32877
32757
32632
32512
32398
32278
32153
32038
31932
31819
31699
31588
31490
31389
31274
31148
31013
30877
30749
30636
30532
30440
30383
30382
30444
30572
30773
31053
31405
31813
32266
32757
33269
33787
34318
34864
35401
35911
36394
36851
37278
37664
38009
38313
38570
38786
38972
39126
39237
39306
39354
39394
39420
39430
39430
39417
39393
39374
39366
39357
39337
39314
39294
39261
39209
39155
39110
39064
39003
38922
38823
38717
38607
38488
38361
38232
38099
37970
37854
37746
37646
37568
37515
37472
37433
37406
37392
37379
37359
37341
37330
37315
37292
37269
37243
37207
37168
37130
37080
37013
36944
36882
36823
36751
36662
36570
36480
36379
36258
36128
36004
35880
35754
35636
35516
35384
35251
35133
35014
34882
34747
34624
34513
34407
34300
34189
34075
33957
33842
33733
33619
33492
33370
33267
33168
33064
32959
32856
32751
32645
32541
32428
32307
32194
32097
32009
31930
31886
31901
31975
32110
32308
32575
32922
33339
33796
34278
34781
35298
35821
36344
36852
37331
37788
38227
38628
38974
39280
39554
39789
39982
40145
40279
40379
40454
40509
40548
40575
40596
40620
40636
40631
40611
40589
40577
40569
40549
40522
40498
40469
40428
40381
40326
40257
40177
40097
40002
39882
39756
39646
39540
39428
39321
39226
39137
39052
38979
38918
38867
38830
38805
38785
38763
38740
38725
38717
38703
38675
38645
38612
38578
38549
38523
38486
38434
38377
38318
38252
38168
38066
37963
37869
37772
37665
37554
37449
37341
37222
37099
36977
36855
36735
36625
36513
36391
36271
36160
36044
35918
35799
35697
35597
35492
35387
35286
35188
35089
34992
34893
34792
34691
34591
34489
34377
34259
34152
34051
33943
33830
33729
33642
33560
33483
33436
33435
33487
33593
33766
34018
34339
34707
35115
35560
36036
36533
37049
37565
38065
38550
39017
39449
39831
40178
40500
40780
41010
41198
41350
41466
41551
41614
41657
41685
41708
41729
41736
41723
41705
41691
41672
41641
41613
41598
41588
41569
41534
41484
41427
41358
41269
41167
41058
40938
40812
40688
40559
40414
40274
40157
40050
39942
39844
39765
39700
39645
39602
39565
39521
39471
39433
39410
39389
39359
39333
39314
39289
39245
39187
39126
39063
38997
38933
38862
38779
38686
38594
38490
38364
38237
38125
38018
37903
37784
37669
37554
37436
37318
37196
37074
36951
36824
36694
36561
36425
36291
36165
36041
35912
35784
35663
35545
35426
35312
35204
35096
34984
34869
34748
34627
34515
34411
34308
34201
34098
33998
33886
33761
33643
33550
33476
33420
33400
33436
33537
33710
33952
34262
34635
35061
35526
36019
36527
37039
37554
38064
38548
38998
39426
39835
40203
40520
40789
41018
41207
41354
41466
41548
41608
41656
41695
41713
41702
41676
41653
41628
41595
41557
41533
41520
41503
41471
41431
41392
41344
41279
41208
41126
41024
40913
40807
40688
40546
40397
40255
40127
40017
39926
39853
39792
39736
39688
39650
39608
39557
39514
39483
39460
39445
39434
39418
39396
39376
39361
39339
39294
39231
39167
39109
39047
38969
38883
38800
38715
38622
38525
38419
38293
38169
38058
37938
37795
37649
37515
37388
37265
37139
37006
36869
36730
36597
36473
36348
36224
36109
36004
35903
35798
35688
35568
35440
35312
35192
35075
34944
34802
34673
34561
34448
34320
34192
34078
33976
33886
33816
33762
33730
33754
33858
34034
34273
34577
34940
35348
35794
36275
36778
37289
37796
38292
38774
39227
39645
