27389
27448
27441
27442
27433
27451
27479
27490
27498
27496
27523
27541
27574
27595
27603
27667
27699
27765
27792
27804
27909
27925
28005
28058
28111
28195
28199
28295
28374
28419
28466
28519
28537
28583
28575
28604
28631
28613
28563
28613
28550
28582
28580
28552
28554
28511
28504
28507
28498
28491
28436
28485
28465
28476
28471
28431
28393
28352
28378
28385
28382
28371
28347
28356
28334
28303
28332
28306
28290
28317
28271
28259
28275
28264
28270
28228
28266
28230
28251
28243
28201
28218
28188
28177
28181
28146
28166
28102
28118
28145
28093
28097
28115
28081
28038
28058
28016
28016
28031
28036
28029
27990
27976
27972
28001
27955
27943
27977
27924
27975
27943
27919
27921
27910
27911
27901
27880
27862
27861
27871
27843
27837
27845
27857
27856
27831
27855
27824
27804
27821
27847
27815
27816
27777
27793
27813
27806
27763
27816
27793
27787
27795
27770
27789
27770
27770
27731
27713
27704
27715
27702
27694
27668
27702
27624
27619
27624
27652
27604
27584
27564
27604
27574
27524
27581
27565
27564
27577
27609
27547
27570
27616
27603
27632
27609
27668
27687
27698
27734
27823
27807
27829
27883
27951
27997
28077
28126
28173
28224
28305
28363
28434
28460
28519
28568
28594
28646
28705
28708
28685
28727
28692
28667
28705
28677
28659
28696
28654
28686
28651
28635
28622
28619
28641
28587
28642
28621
28606
28588
28582
28569
28584
28565
28571
28551
28558
28566
28549
28558
28567
28566
28559
28554
28544
28509
28550
28535
28491
28519
28501
28492
28520
28506
28459
28478
28450
28420
28476
28445
28424
28452
28455
28428
28420
28425
28408
28348
28380
28347
28341
28324
28328
28309
28278
28274
28263
28265
28257
28236
28215
28198
28249
28180
28174
28186
28181
28147
28126
28106
28087
28126
28096
28095
28083
28053
28077
28065
28040
28043
28051
28008
28037
27983
27986
28004
27982
27977
27996
27917
27989
27964
27951
27969
27959
27947
27909
27907
27813
27859
27868
27857
27850
27790
27769
27767
27810
27765
27739
27711
27697
27681
27683
27660
27688
27647
27643
27652
27634
27652
27626
27643
27682
27651
27680
27696
27698
27727
27782
27789
27806
27848
27878
27930
27998
28063
28105
28150
28199
28227
28340
28359
28415
28511
28562
28604
28665
28690
28743
28739
28761
28800
28769
28797
28785
28762
28782
28757
28720
28750
28759
28731
28715
28720
28692
28682
28658
28663
28694
28704
28638
28664
28671
28659
28632
28626
28626
28608
28623
28594
28590
28587
28600
28579
28581
28565
28551
28540
28536
28497
28499
28502
28463
28458
28485
28450
28438
28409
28403
28398
28420
28327
28376
28340
28302
28312
28328
28301
28246
28263
28251
28208
28222
28229
28192
28197
28201
28131
28158
28138
28147
28123
28117
28117
28121
28087
28065
28079
28068
28062
28057
28049
28049
28014
28043
28021
28001
27992
28009
27991
27977
27976
27961
27963
27946
27987
27915
27959
27933
27945
27953
27917
27934
27918
27891
27902
27872
27896
27874
27916
27870
27894
27832
27849
27847
27773
27805
27790
27802
27733
27709
27713
27707
27685
27693
27679
27662
27649
27642
27601
27622
27598
27631
27630
27620
27605
27632
27661
27672
27659
27676
27703
27725
27779
27744
27813
27846
27896
27916
27966
28003
28069
28130
28181
28248
28331
28367
28445
28481
28519
28578
28648
28664
28715
28707
28716
28734
28742
28704
28707
28707
28682
28662
28673
28689
28674
28648
28645
28648
28651
28616
28620
28617
28620
28634
28595
28578
28613
28554
28581
28552
28524
28558
28560
28523
28517
28501
28506
28490
28504
28513
28497
28463
28509
28491
28468
28454
28424
28441
28449
28416
28399
28379
28374
28379
28376
28332
28361
28360
28361
28324
28280
28328
28309
28334
28301
28277
28253
28263
28260
28281
28240
28243
28190
28198
28244
28183
28174
28199
28164
28174
28160
28134
28134
28117
28098
28094
28085
28074
28128
28063
28047
28076
28041
28026
28048
28029
28056
28028
28012
28053
27997
28003
27991
27964
27964
27950
27993
27938
27951
27958
27960
27946
27929
27921
27945
27909
27902
27903
27880
27829
27826
27798
27781
27760
27751
27759
27727
27699
27689
27663
27677
27686
27652
27662
27658
27651
27675
27680
27698
27673
27685
27695
27705
27764
27758
27794
27796
27809
27885
27867
27912
28000
28037
28082
28098
28172
28274
28274
28346
28421
28484
28548
28585
28655
28651
28723
28703
28739
28732
28692
28708
28720
28696
28693
28673
28664
28653
28694
28642
28668
28647
28615
28608
28623
28580
28581
28578
28529
28590
28563
28551
28543
28538
28519
28543
28536
28535
28513
28479
28506
28518
28481
28457
28486
28466
28456
28488
28439
28440
28463
28458
28428
28420
28449
28430
28425
28369
28380
28340
28345
28298
28309
28323
28322
28328
28300
28297
28255
28256
28266
28252
28232
28209
28196
28189
28184
28175
28190
28197
28158
28129
28158
28144
28149
28143
28111
28058
28100
28090
28084
28101
28054
28059
28039
28047
28029
28027
28037
28014
27999
27993
27978
27992
27980
28002
27976
27978
27982
27982
27974
27962
27959
27972
27948
27929
27939
27937
27901
27891
27853
27882
27824
27833
27833
27813
27836
27767
27749
27747
27755
27721
27708
27664
27654
27638
27679
27647
27634
27670
27644
27647
27672
27640
27634
27678
27693
27698
27740
27745
27795
27826
27830
27874
27914
27951
27981
28050
28094
28144
28217
28281
28307
28382
28411
28471
28519
28605
28602
28640
28658
28660
28670
28682
28689
28669
28660
28675
28644
28613
28650
28607
28598
28594
28592
28564
28550
28562
28548
28546
28508
28502
28532
28499
28528
28490
28493
28458
28482
28469
28445
28419
28442
28399
28415
28447
28414
28418
28378
28390
28395
28408
28365
28361
28370
28363
28336
28324
28348
28299
28283
28273
28268
28245
28241
28227
28241
28203
28177
28194
28146
28142
28153
28121
28131
28126
28118
28100
28068
28103
28080
28005
28033
28039
28005
28018
28021
28020
27976
27942
27978
27925
27937
27938
27894
27883
27905
27904
27878
27854
27849
27865
27867
27848
27809
27847
27828
27792
27809
27839
27761
27795
27770
27755
27788
27753
27729
27742
27701
27706
27696
27691
27651
27681
27647
27617
27609
27586
27563
27596
27549
27490
27530
27485
27461
27466
27447
27444
27430
27472
27439
27422
27439
27460
27441
27455
27475
27465
27496
27528
27545
27557
27605
27621
27649
27698
27720
27751
27797
27840
27934
27972
28027
28073
28111
28185
28266
28308
28388
28409
28444
28468
28426
28447
28462
28471
28423
28432
28437
28384
28395
28405
28390
28393
28371
28335
28362
28336
28341
28305
28307
28316
28311
28284
28274
28263
28266
28276
28253
28268
28222
28253
28209
28249
28213
28241
28223
28153
28185
28222
28236
28177
28169
28136
28154
28121
28137
28117
28071
28071
28082
28031
28071
28049
28019
28017
28015
27973
27998
27963
27984
27958
27963
27955
27948
27914
27911
27875
27883
27892
27856
27819
27810
27793
27825
27821
27805
27783
27786
27747
27738
27771
27714
27757
27732
27712
27679
27668
27676
27667
27691
27681
27632
27671
27676
27646
27641
27617
27654
27623
27597
27640
27566
27543
27636
27606
27574
27579
27541
27550
27523
27479
27495
27481
27470
27458
27443
27385
27422
27390
27341
27339
27383
27301
27283
27332
27287
27305
27297
27227
27288
27267
27251
27285
27269
27288
27286
27320
27292
27339
27359
27368
27432
27447
27474
27510
27548
27563
27693
27737
27729
27828
27850
27903
28014
28048
28092
28183
28229
28239
28288
28334
28304
28331
28325
28316
28310
28291
28301
28310
28300
28306
28287
28252
28255
28265
28227
28248
28224
28207
28210
28214
28207
28192
28187
28166
28169
28116
28106
28153
28099
28131
28084
28136
28146
28086
28058
28050
28086
28046
28034
28014
28039
28014
28025
28026
27978
27993
27942
27991
27965
27980
27950
27913
27918
27900
27881
27919
27926
27867
27865
27866
27820
27804
27802
27811
27807
27783
27744
27764
27771
27733
27743
27739
27715
27703
27714
27680
27674
27649
27682
27650
27642
27674
27600
27660
27614
27584
27614
27598
27589
27562
27582
27528
27573
27586
27568
27531
27536
27584
27499
27545
27520
27522
27504
27497
27499
27515
27473
27416
27469
27481
27416
27414
27405
27356
27374
27354
27323
27340
27268
27260
27252
27253
27238
27219
27192
27198
27232
27209
27199
27200
27240
27226
27240
27263
27286
27283
27279
27333
27370
27369
27384
27394
27453
27515
27534
27581
27687
27688
27745
27814
27845
27918
28002
28080
28131
28158
28228
28240
28249
28244
28289
28280
28288
28253
28280
28274
28244
28256
28272
28192
28194
28228
28182
28199
28177
28136
28152
28109
28126
28116
28083
28108
28091
28048
28098
28075
28079
28052
28041
28081
28047
28017
28022
28046
28013
27978
28009
27999
27969
27986
27967
27935
27935
27964
27937
27905
27892
27911
27831
27895
27878
27873
27856
27858
27800
27782
27808
27818
27807
27791
27736
27758
27745
27723
27715
27677
27681
27626
27678
27697
27629
27616
27652
27653
27625
27595
27592
27578
27567
27616
27540
27556
27514
27519
27523
27511
27529
27532
27526
27530
27464
27525
27513
27513
27471
27470
27439
27450
27429
27440
27418
27377
27358
27387
27378
27334
27368
27324
27318
27337
27310
27334
27270
27259
27225
27208
27215
27192
27145
27163
27151
27152
27184
27115
27114
27156
27118
27084
27146
27155
27139
27158
27205
27180
27212
27237
27298
27278
27348
27355
27374
27399
27493
27482
27568
27631
27669
27686
27789
27861
27910
27986
28017
28090
28153
28175
28222
28203
28247
28251
28225
28263
28245
28233
28190
28224
28197
28194
28180
28165
28218
28192
28195
28165
28112
28152
28144
28138
28106
28109
28080
28066
28083
28082
28014
28030
28060
28015
28035
28028
28007
28002
28036
28010
27993
27984
27986
27969
27936
27948
27933
27954
27949
27916
27929
27894
27895
27908
27839
27855
27840
27849
27841
27776
27814
27788
27800
27770
27740
27760
27762
27727
27720
27708
27672
27698
27666
27666
27660
27674
27642
27628
27646
27634
27611
27585
27557
27609
27570
27547
27540
27562
27557
27542
27539
27501
27516
27497
27500
27468
27471
27458
27458
27462
27468
27451
27476
27415
27438
27407
27437
27377
27384
27390
27373
27370
27335
27310
27284
27307
27291
27254
27222
27200
27196
27172
27196
27173
27159
27114
27112
27165
27111
27119
27113
27108
27161
27114
27155
27160
27160
27154
27197
27215
27232
27258
27297
27339
27365
27387
27431
27494
27524
27550
27642
27685
27718
27802
27850
27916
27972
28031
28067
28124
28190
28197
28178
28160
28143
28207
28132
28176
28154
28156
28108
28112
28103
28099
28124
28071
28045
28060
28058
28082
28030
28064
28072
28012
27998
28001
27969
27996
28005
28017
27939
27957
27919
27912
27964
27932
27905
27894
27893
27881
27865
27886
27888
27817
27828
27834
27825
27803
27810
27768
27759
27781
27725
27718
27743
27731
27725
27689
27708
27702
27636
27664
27648
27637
27636
27594
27592
27579
27592
27616
27562
27534
27538
27502
27513
27505
27497
27531
27496
27441
27495
27491
27491
27424
27468
27436
27455
27454
27416
27440
27427
27409
27441
27419
27385
27371
27382
27369
27351
27378
27356
27358
27357
27341
27295
27324
27306
27280
27267
27193
27246
27183
27165
27180
27127
27139
27138
27107
27103
27066
27078
27094
27051
27048
27066
27078
27056
27063
27073
27110
27119
27146
27145
27147
27204
27178
27252
27283
27268
27326
27418
27423
27444
27508
27544
27628
27671
27711
27807
27893
27919
27981
28043
28066
28098
28155
28155
28165
28169
28150
28156
28149
28150
28127
28154
28134
28098
28116
28085
28087
28062
28098
28075
28038
28027
28049
28037
28048
28005
27984
28015
27982
27956
27979
27963
27976
27911
27946
27922
27950
27941
27897
27891
27898
27895
27876
27856
27877
27853
27826
27830
27838
27806
27819
27766
27775
27790
27751
27740
27730
27715
27693
27719
27700
27657
27663
27635
27661
27611
27622
27612
27604
27592
27529
27562
27541
27565
27536
27549
27556
27486
27497
27461
27485
27458
27436
27441
27423
27432
27430
27402
27439
27391
27414
27423
27386
27404
27380
27343
27376
27352
27323
27340
27324
27294
27303
27294
27272
27258
27237
27240
27238
27181
27207
27156
27174
27165
27100
27091
27081
27079
27058
27035
27022
27009
27004
26997
27013
27001
27033
27014
27047
27034
27045
27086
27093
27127
27145
27154
27169
27205
27291
27313
27323
27387
27426
27516
27545
27629
27650
27746
27795
27850
27908
27946
28030
28081
28104
28120
28161
28151
28141
28135
28125
28096
28138
28122
28102
28087
28038
28053
28044
28065
28065
28042
28005
27989
27982
27986
27984
27992
27953
27984
27944
27954
27911
27934
27918
27945
27911
27901
27932
27871
27847
27874
27850
27849
27863
27791
27799
27831
27775
27794
27768
27762
27749
27731
27696
27695
27704
27646
27714
27665
27642
27631
27595
27579
27612
27582
27560
27548
27553
27553
27518
27505
27505
27463
27470
27496
27463
27439
27435
27447
27415
27405
27390
27403
27399
27365
27387
27360
27357
27375
27365
27342
27325
27291
27315
27318
27302
27301
27275
27304
27297
27260
27234
27261
27250
27204
27249
27254
27215
27236
27179
27194
27159
27183
27121
27134
27110
27129
27064
27078
27058
27035
26989
27004
26935
26983
26967
26951
27016
26979
26932
26939
26968
26974
26981
26985
27005
27017
27022
27051
27076
27116
27139
27148
27174
27215
27288
27308
27360
27441
27457
27509
27570
27647
27697
27787
27830
27897
27932
27999
28067
28091
28086
28080
28102
28091
28081
28097
28103
28081
28077
28080
28077
28047
28041
28037
28016
28040
28021
27982
28009
27975
27966
27976
27931
27935
27917
27955
27923
27922
27921
27892
27883
27909
27882
27832
27903
27853
27848
27854
27832
27844
27844
27853
27835
27799
27793
27772
27796
27813
27766
27766
27697
27751
27728
27706
27698
27707
27683
27720
27645
27658
27647
27625
27610
27617
27606
27609
27607
27572
27568
27540
27540
27525
27546
27539
27536
27515
27500
27474
27507
27467
27473
27432
27463
27446
27479
27444
27404
27452
27420
27389
27442
27430
27393
27379
27381
27399
27390
27368
27377
27364
27343
27364
27314
27356
27331
27308
27297
27308
27256
27253
27227
27238
27207
27194
27177
27140
27102
27120
27135
27083
27104
27081
27041
27064
27047
27032
27039
27053
27056
27056
27089
27107
27071
27094
27145
27140
27167
27203
27215
27269
27273
27362
27382
27444
27480
27503
27565
27660
27713
27806
27831
27911
27944
27999
28068
28141
28133
28176
28200
28171
28174
28167
28172
28234
28144
28156
28170
28121
28132
28095
28083
28084
28088
28058
28026
28054
28014
28002
28053
28013
28019
28000
28017
27994
28010
27996
27935
28000
28004
27962
27979
27950
27904
27932
27874
27914
27893
27890
27865
27865
27880
27877
27840
27825
27804
27825
27842
27764
27808
27797
27780
27766
27774
27768
27743
27723
27728
27704
27693
27687
27703
27698
27646
27688
27638
27619
27627
27651
27589
27607
27592
27584
27597
27557
27553
27526
27550
27556
27540
27528
27509
27512
27494
27508
27513
27474
27504
27497
27467
27467
27462
27467
27428
27450
27453
27443
27428
27449
27418
27409
27384
27390
27397
27357
27385
27359
27323
27318
27310
27304
27270
27253
27269
27225
27201
27236
27142
27157
27196
27131
27158
27131
27129
27138
27050
27091
27122
27077
27119
27079
27139
27137
27174
27142
27182
27227
27219
27254
27292
27316
27338
27441
27448
27493
27578
27604
27671
27757
27824
27863
27891
27963
28068
28106
28163
28128
28180
28158
28176
28171
28220
28201
28154
28166
28168
28133
28129
28128
28136
28105
28112
28105
28096
28031
28047
28064
28051
28031
27997
28014
28024
28046
27983
28002
27982
27976
27992
27956
27954
27975
27934
27942
27938
27933
27898
27924
27903
27885
27904
27858
27847
27857
27854
27849
27863
27816
27852
27804
27766
27848
27784
27760
27769
27761
27783
27701
27737
27717
27713
27734
27733
27705
27700
27727
27683
27641
27654
27674
27635
27610
27637
27607
27641
27544
27588
27614
27592
27552
27550
27560
27573
27562
27516
27546
27558
27524
27510
27562
27498
27481
27526
27464
27515
27494
27489
27465
27482
27469
27497
27477
27417
27457
27467
27443
27426
27436
27400
27406
27389
27407
27380
27352
27316
27344
27271
27253
27302
27245
27223
27212
27225
27194
27181
27135
27207
27166
27134
27136
27212
27193
27178
27183
27209
27200
27242
27228
27309
27327
27330
27400
27411
27503
27544
27555
27634
27663
27771
27772
27828
27925
27964
28032
28066
28108
28165
28146
28153
28172
28214
28165
28112
28165
28173
28124
28134
28119
28155
28127
28094
28093
28117
28101
28069
28086
28099
28077
28071
28069
28074
28018
28028
28055
28013
27992
27994
27986
27991
28022
28004
27990
27972
27960
27922
27925
27987
27928
27983
27961
27922
27912
27894
27888
27910
27917
27868
27868
27872
27849
27830
27823
27831
27841
27837
27824
27841
27769
27827
27774
27766
27735
27777
27749
27713
27706
27697
27683
27720
27707
27681
27678
27653
27688
27651
27656
27628
27643
27611
27619
27611
27611
27613
27591
27578
27567
27557
27553
27549
27545
27570
27550
27548
27585
27559
27531
27580
27578
27518
27568
27542
27529
27542
27564
27482
27509
27512
27478
27476
27472
27462
27454
27454
27408
27402
27380
27374
27387
27368
27343
27331
27310
27293
27315
27267
27274
27267
27251
27282
27259
27251
27275
27279
27267
27302
27310
27343
27373
27400
27408
27485
27476
27531
27531
27607
27653
27733
27790
27848
27876
28007
28076
28074
28114
28168
28187
28218
28223
28218
28247
28259
28228
28239
28207
28211
28179
28209
28171
28214
28183
28129
28145
28110
28110
28113
28109
28075
28097
28084
28049
28101
28041
28058
28031
28005
28003
28006
28008
27988
27958
27962
27952
27968
27954
27961
27921
27891
27908
27876
27930
27867
27860
27851
27857
27817
27809
27815
27781
27825
27746
27752
27765
27747
27716
27692
27728
27731
27686
27715
27674
27670
27676
27650
27613
27628
27612
27614
27602
27586
27548
27551
27585
27513
27539
27526
27519
27522
27501
27511
27495
27479
27474
27468
27462
27470
27437
27436
27402
27446
27417
27402
27420
27425
27410
27424
27419
27389
27359
27396
27349
27377
27336
27304
27346
27333
27332
27309
27318
27283
27227
27291
27206
27187
27189
27172
27153
27159
27113
27103
27103
27093
27049
27053
27049
27014
27041
27042
27050
27016
27037
27044
27052
27055
27101
27067
27082
27115
27145
27178
27186
27185
27227
27316
27302
27398
27405
27444
27491
27570
27608
27687
27758
27799
27891
27920
27946
28010
28037
28045
28071
28134
28108
28104
28071
28120
28084
28048
28060
28058
28030
28025
28039
28031
27980
27974
28016
27986
27947
27959
27965
27945
27928
27944
27961
27892
27882
27903
27884
27870
27877
27859
27904
27868
27858
27841
27828
27821
27815
27808
27831
27783
27789
27782
27783
27734
27708
27727
27712
27711
27715
27656
27682
27659
27654
27681
27639
27591
27633
27618
27567
27576
27567
27572
27538
27509
27516
27487
27507
27520
27518
27475
27463
27480
27418
27432
27438
27392
27411
27405
27385
27363
27375
27334
27351
27344
27340
27320
27319
27350
27347
27282
27338
27271
27286
27274
27293
27255
27273
27274
27267
27218
27270
27259
27214
27234
27198
27200
27173
27181
27184
27119
27140
27120
27065
27076
27064
27034
27008
26998
26975
26952
26988
26948
26947
26954
26971
26956
26949
26948
26970
26972
27003
27038
26998
27060
27064
27068
27098
27115
27165
27206
27222
27229
27299
27329
27359
27450
27499
27569
27610
27663
27744
27820
27863
27937
28000
28013
28087
28160
28139
28123
28178
28195
28166
28172
28154
28184
28152
28153
28160
28133
28158
28131
28132
28096
28181
28093
28102
28075
28090
28091
28071
28072
28067
28030
28074
28042
28036
28040
28029
28048
28027
28031
28046
28012
27975
28002
27973
27987
27956
27968
27955
27974
27970
27958
27942
27968
27938
27922
27953
27896
27923
27948
27919
27891
27900
27895
27870
27885
27851
27848
27817
27824
27839
27828
27750
27777
27777
27753
27761
27752
27731
27786
27740
27720
27712
27744
27677
27689
27666
27636
27664
27688
27640
27664
27643
27623
27641
27631
27634
27625
27638
27640
27633
27570
27622
27640
27600
27614
27606
27636
27583
27597
27597
27594
27564
27558
27558
27564
27555
27524
27559
27505
27452
27513
27460
27448
27431
27418
27417
27410
27419
27373
27376
27371
27299
27326
27329
27327
27351
27317
27353
27351
27355
27338
27355
27383
27358
27410
27455
27454
27495
27517
27549
27567
27658
27699
27739
27787
27816
27900
27974
28026
28089
28171
28182
28305
28332
28366
28380
28406
28468
28426
28435
28433
28455
28426
28409
28399
28426
28412
28429
28389
28366
28377
28386
28374
28373
28358
28352
28331
28363
28358
28326
28330
28359
28288
28310
28319
28301
28295
28291
28284
28295
28245
28246
28283
28254
28271
28278
28249
28259
28236
28231
28235
28238
28189
28199
28224
28198
28240
28192
28215
28195
28159
28135
28139
28102
28113
28127
28118
28106
28101
28113
28059
28044
28078
28056
28051
28002
28005
27958
27979
27953
27969
27965
27905
27905
27955
27930
27913
27910
27911
27906
27914
27896
27873
27858
27869
27832
27855
27817
27830
27817
27815
27801
27786
27798
27795
27772
27787
27772
27790
27764
27759
27736
27743
27737
27730
27683
27655
27654
27594
27631
27554
27567
27518
27538
27494
27456
27463
27425
27435
27433
27447
27418
27403
27379
27404
27385
27426
27414
27393
27424
27469
27454
27473
27475
27514
27508
27544
27634
27631
27661
27717
27749
27776
27874
27909
27994
28060
28114
28147
28177
28269
28305
28379
28412
28415
28451
28444
28418
28425
28418
28433
28397
28420
28376
28380
28375
28339
28354
28322
28382
28323
28326
28310
28279
28321
28304
28269
28254
28224
28269
28259
28220
28233
28182
28217
28192
28173
28149
28190
28132
28168
28136
28126
28137
28121
28134
28088
28084
28111
28045
28063
28052
28034
28024
28039
27996
27995
27980
27997
27985
27956
27991
27992
27922
27949
27934
27906
27927
27887
27855
27901
27885
27837
27817
27821
27824
27807
27800
27783
27770
27773
27782
27719
27732
27724
27740
27733
27715
27721
27693
27718
27703
27672
27640
27646
27692
27655
27647
27619
27637
27603
27575
27627
27580
27615
27608
27606
27574
27559
27601
27518
27521
27540
27529
27494
27476
27480
27467
27442
27436
27397
27411
27387
27375
27377
27343
27327
27291
27317
27308
27248
27277
27279
27297
27299
27297
27308
27307
27314
27345
27337
27351
27373
27397
27439
27413
27476
27495
27533
27577
27621
27672
27751
27754
27820
27877
28001
28009
28113
28163
28209
28277
28337
28400
28407
28439
28469
28468
28490
28496
28473
28458
28464
28444
28452
28427
28446
28398
28382
28397
28369
28327
28393
28374
28357
28318
28330
28282
28282
28319
28314
28272
28250
28245
28240
28253
28261
28214
28219
28235
28244
28194
28177
28220
28227
28161
28189
28130
28144
28174
28100
28142
28039
28065
28086
28060
28022
28054
28013
28047
28007
27992
27976
27978
27947
27939
27970
27885
27917
27962
27918
27912
27903
27911
27846
27848
27841
27880
27828
27835
27828
27827
27804
27782
27775
27780
27742
27761
27791
27751
27738
27773
27735
27749
27725
27747
27730
27705
27714
27712
27699
27727
27746
27761
27702
27708
27731
27735
27734
27726
27704
27702
27676
27706
27702
27683
27672
27695
27707
27680
27672
27670
27639
27619
27623
27601
27574
27583
27558
27521
27519
27548
27511
27528
27546
27509
27492
27525
27510
27492
27519
27504
27531
27544
27533
27595
27632
27636
27661
27722
27779
27779
27846
27842
27900
27946
27991
28094
28108
28221
28246
28356
28426
28437
28476
28535
28555
28604
28629
28635
28623
28661
28623
28604
28611
28612
28587
28592
28561
28609
28564
28577
28593
28564
28571
28529
28557
28564
28508
28535
28557
28497
28500
28508
28518
28478
28486
28492
28477
28461
28458
28444
28452
28452
28465
28460
28396
28409
28451
28392
28401
28389
28423
28390
28376
28392
28380
28354
28383
28320
28335
28321
28269
28309
28294
28234
28239
28242
28212
28215
28214
28214
28206
28167
28129
28168
28128
28144
28132
28135
28130
28136
28101
28068
28089
28076
28056
28051
28036
28013
28042
28028
28036
28039
28009
28020
27986
27993
27995
27950
27960
27968
27923
27924
27918
27937
27927
27894
27960
27914
27903
27907
27901
27871
27864
27853
27841
27850
27784
27770
27819
27757
27751
27796
27732
27703
27695
27670
27693
27680
27628
27623
27616
27614
27587
27610
27569
27571
27579
27559
27592
27576
27595
27614
27633
27641
27626
27661
27683
27747
27758
27796
27806
27878
27914
27949
28033
28094
28131
28186
28232
28299
28404
28369
28428
28521
28519
28587
28555
28558
28609
28581
28571
28587
28561
28555
28576
28505
28535
28530
28503
28530
28479
28506
28485
28443
28467
28436
28414
28448
28408
28353
28405
28408
28369
28397
28391
28355
28375
28379
28325
28344
28313
28299
28331
28294
28320
28294
28252
28297
28261
28242
28263
28240
28273
28235
28223
28216
28201
28186
28211
28194
28127
28182
28149
28119
28143
28114
28108
28102
28109
28098
28072
28032
28056
28063
28062
28045
28004
28056
28032
27965
27979
27953
27972
27906
27972
27950
27957
27917
27938
27902
27902
27916
27913
27866
27890
27906
27869
27889
27854
27860
27843
27829
27820
27835
27823
27813
27771
27813
27801
27793
27757
27766
27759
27710
27750
27774
27709
27709
27706
27674
27669
27689
27654
27646
27627
27601
27604
27579
27593
27552
27600
27553
27569
27527
27492
27517
27493
27509
27536
27499
27509
27548
27514
27525
27540
27578
27651
27638
27609
27677
27730
27749
27792
27843
27860
27904
28000
28032
28114
28157
28229
28266
28299
28362
28406
28457
28492
28478
28505
28493
28502
28479
28475
28511
28461
28453
28485
28476
28398
28439
28422
28400
28428
28419
28372
28381
28387
28361
28370
28369
28333
28334
28336
28329
28306
28311
28293
28272
28297
28273
28278
28258
28260
28237
28284
28224
28231
28248
28217
28191
28237
28192
28181
28169
28203
28152
28154
28166
28114
28151
28077
28111
28117
28086
28085
28055
28099
28043
28003
28077
28012
28009
28033
27996
28011
27980
27986
27980
27942
27945
27936
27904
27898
27901
27912
27857
27899
27839
27814
27856
27829
27796
27788
27772
27768
27760
27772
27747
27777
27729
27726
27714
27697
27707
27690
27693
27669
27672
27653
27638
27663
27633
27665
27656
27638
27606
27581
27571
27570
27549
27517
27524
27511
27465
27482
27432
27433
27414
27410
27393
27397
27331
27384
27356
27344
27274
27323
27312
27319
27345
27312
27329
27322
27371
27390
27404
27442
27460
27449
27470
27493
27538
27553
27641
27691
27742
27773
27823
27874
27939
28006
28110
28138
28205
28262
28274
28324
28335
28377
28405
28367
28428
28412
28365
28405
28389
28375
28350
28362
28360
28349
28360
28350
28329
28280
28283
28298
28256
28252
28264
28255
28215
28233
28256
28230
28194
28190
28203
28207
28175
28194
28185
28156
28170
28158
28160
28131
28131
28130
28119
28177
28116
28102
28086
28072
28085
28091
28038
28025
28083
28043
28055
28029
27996
27971
28010
27981
27981
27976
27955
27958
27947
27955
27903
27886
27918
27906
27883
27879
27846
27877
27828
27826
27837
27841
27800
27794
27770
27839
27792
27743
27781
27750
27800
27741
27716
27734
27720
27706
27696
27677
27674
27672
27711
27676
27670
27677
27649
27657
27676
27663
27652
27611
27640
27631
27601
27599
27583
27584
27558
27559
27558
27532
27517
27510
27525
27482
27460
27448
27409
27412
27408
27381
27377
27348
27363
27364
27331
27332
27347
27344
27358
27390
27344
27391
27384
27445
27433
27423
27480
27471
27485
27512
27556
27611
27662
27706
27757
27792
27847
27871
27940
27987
28036
28117
28181
28221
28299
28358
28340
28421
28469
28450
28455
28463
28449
28443
28407
28421
28426
28421
28402
28383
28414
28389
28385
28373
28358
28356
28333
28355
28332
28332
28302
28346
28299
28357
28288
28293
28321
28267
28262
28310
28232
28246
28259
28226
28234
28245
28228
28223
28234
28197
28190
28170
28157
28201
28155
28150
28156
28197
28152
28125
28165
28143
28139
28143
28094
28137
28106
28098
28091
28101
28087
28103
28066
28084
28054
28027
28059
28005
28001
28044
27993
28014
28013
28003
27949
27939
27959
27949
27896
27910
27957
27939
27939
27926
27936
27946
27918
27917
27926
27924
27943
27886
27920
27914
27906
27893
27891
27896
27931
27898
27914
27909
27900
27898
27922
27889
27875
27897
27837
27863
27868
27854
27806
27825
27802
27840
27761
27766
27750
27722
27710
27723
27674
27677
27680
27640
27642
27664
27610
27643
27668
27634
27642
27647
27670
27679
27681
27689
27725
27741
27780
27823
27785
27850
27890
27933
27954
28022
28047
28124
28174
28234
28312
28399
28397
28464
28510
28581
28602
28639
28672
28663
28684
28718
28687
28696
28707
28639
28663
28637
28615
28600
28607
28575
28621
28612
28587
28609
28583
28594
28597
28533
28555
28572
28551
28570
28504
28515
28508
28517
28490
28496
28486
28483
28468
28506
28451
28471
28440
28460
28463
28418
28403
28453
28400
28375
28406
28382
28343
28362
28356
28360
28314
28333
28322
28322
28305
28261
28296
28288
28240
28260
28255
28230
28232
28238
28215
28204
28206
28161
28191
28211
28129
28158
28180
28133
28165
28134
28157
28106
28087
28091
28125
28106
28091
28078
28053
28034
28055
28057
28070
28039
28055
28083
28025
28036
28041
27982
28014
28000
27992
28004
28013
27974
27929
27988
27946
27943
27934
27919
27888
27852
27872
27842
27801
27804
27799
27794
27758
27763
27725
27695
27691
27693
27709
27669
27679
27668
27635
27640
27654
27667
27647
27699
27668
27689
27759
27722
27740
27776
27789
27813
27902
27863
27926
27964
28028
28094
28119
28174
28266
28321
28331
28419
28469
28495
28598
28595
28621
28660
28673
28644
28633
28683
28660
28634
28634
28639
28623
28604
28596
28572
28559
28588
28545
28591
28561
28545
28531
28541
28521
28483
28504
28513
28507
28457
28458
28456
28442
28421
28448
28438
28434
28417
28420
28416
28413
28402
28400
28417
28395
28379
28349
28355
28326
28336
28321
28310
28308
28280
28278
28306
28264
28239
28239
28257
28222
28196
28241
28201
28211
28206
28163
28198
28166
28140
28155
28136
28094
28116
28077
28073
28075
28069
28052
28055
28033
28024
27987
27979
27965
27980
27970
27969
27966
27937
27952
27935
27920
27917
27892
27953
27915
27906
27917
27910
27870
27863
27866
27849
27851
27856
27831
27835
27823
27847
27808
27780
27786
27755
27755
27767
27735
27695
27714
27723
27624
27659
27622
27569
27596
27571
27530
27547
27510
27501
27477
27521
27476
27501
27533
27506
27534
27517
27485
27569
27534
27518
27546
27574
27606
27605
27590
27643
27677
27739
27784
27805
27871
27934
27939
27993
28091
28127
28260
28271
28317
28371
28441
28437
28511
28522
28494
28516
28485
28504
28485
28487
28462
28454
28454
28440
28439
28417
28445
28399
28416
28385
28387
28385
28386
28356
28346
28340
28359
28316
28331
28332
28291
28294
28291
28295
28244
28280
28250
28246
28253
28253
28236
28210
28263
28199
28229
28177
28148
28187
28151
28149
28160
28115
28129
28114
28044
28102
28075
28056
28028
28063
28047
28018
27990
28050
27997
28007
28023
27997
27975
27953
27970
27932
27941
27924
27919
27928
27919
27931
27903
27885
27923
27885
27869
27876
27856
27882
27861
27863
27852
27874
27866
27840
27843
27849
27854
27840
27833
27837
27839
27841
27817
27816
27855
27818
27795
27797
27796
27820
27764
27788
27793
27752
27757
27711
27736
27677
27709
27663
27649
27646
27652
27613
27598
27582
27577
27524
27506
27496
27496
27496
27485
27507
27475
27461
27481
27473
27497
27474
27517
27515
27541
27549
27581
27584
27573
27611
27667
27701
27748
27788
27809
27861
27898
27985
28042
28082
28159
28191
28286
28336
28397
28445
28453
28529
28516
28567
28543
28574
28568
28553
28522
28562
28541
28542
28497
28507
28532
28501
28517
28464
28458
28466
28507
28450
28423
28451
28448
28410
28419
28425
28409
28381
28398
28357
28389
28374
28341
28364
28316
28351
28357
28319
28310
28346
28308
28307
28303
28287
28269
28294
28265
28262
28273
28228
28189
28220
28207
28178
28170
28151
28127
28126
28108
28131
28101
28102
28078
28077
28106
28070
28040
28060
27954
27991
27949
27955
28003
27942
27884
27955
27905
27908
27906
27873
27883
27882
27823
27846
27868
27828
27845
27824
27769
27804
27793
27755
27791
27762
27748
27765
27766
27724
27704
27751
27729
27713
27730
27755
27715
27689
27696
27675
27664
27655
27604
27614
27592
27585
27560
27558
27532
27517
27514
27451
27448
27429
27406
27405
27378
27347
27341
27365
27362
27317
27322
27325
27345
27323
27324
27361
27361
27371
27400
27409
27385
27467
27472
27472
27520
27555
27579
27634
27665
27718
27776
27833
27872
27922
28017
28083
28140
28220
28289
28273
28382
28365
28405
28421
28433
28414
28424
28395
28414
28395
28368
28366
28355
28346
28346
28359
28317
28298
28296
28288
28264
28276
28238
28231
28262
28211
28232
28222
28189
28234
28161
28159
28201
28141
28148
28176
28138
28098
28140
28143
28110
28099
28105
28097
28084
28085
28038
28065
28067
28014
28029
28031
28034
28009
28007
27956
27936
27948
27934
27957
27914
27945
27952
27894
27883
27838
27866
27844
27801
27803
27835
27771
27805
27800
27781
27778
27771
27730
27704
27714
27750
27696
27699
27663
27664
27671
27672
27695
27674
27653
27681
27615
27634
27621
27614
27575
27611
27592
27580
27560
27567
27566
27548
27614
27522
27511
27559
27530
27500
27478
27501
27477
27497
27460
27428
27431
27399
27360
27366
27347
27326
27276
27283
27262
27289
27250
27235
27243
27189
27212
27210
27172
27214
27207
27212
27214
27218
27248
27276
27226
27281
27299
27311
27357
27376
27416
27440
27488
27538
27570
27616
27671
27687
27758
27873
27924
28013
28023
28097
28163
28198
28249
28278
28317
28298
28289
28295
28296
28301
28311
28289
28261
28247
28246
28235
28218
28224
28210
28171
28179
28193
28152
28184
28187
28147
28162
28148
28145
28102
28149
28114
28139
28085
28100
28085
28035
28036
28078
27999
28047
28020
28020
28029
27999
28008
28003
27982
27994
27972
27960
27964
27935
27928
27922
27897
27934
27886
27876
27868
27863
27831
27838
27826
27795
27816
27799
27767
27787
27788
27716
27707
27719
27756
27719
27693
27670
27644
27663
27673
27637
27630
27639
27626
27612
27590
27611
27598
27582
27549
27562
27545
27543
27542
27528
27504
27526
27499
27508
27525
27489
27487
27498
27486
27470
27495
27434
27449
27456
27433
27413
27406
27416
27376
27424
27359
27365
27360
27326
27263
27280
27269
27232
27219
27211
27198
27173
27138
27163
27115
27111
27163
27124
27145
27132
27130
27156
27183
27162
27199
27193
27226
27257
27298
27314
27336
27356
27415
27498
27502
27594
27646
27681
27743
27795
27858
27911
28001
28021
28088
28173
28208
28307
28245
28319
28359
28321
28309
28336
28311
28313
28272
28301
28289
28223
28231
28261
28222
28203
28211
28198
28187
28205
28178
28169
28170
28144
28121
28130
28110
28073
28137
28113
28085
28065
28084
28084
28092
28053
28061
28037
28066
28016
28001
28021
27961
27985
27957
27946
27929
27934
27938
27924
27924
27911
27927
27878
27879
27849
27873
27858
27832
27806
27797
27771
27799
27790
27756
27753
27778
27739
27716
27731
27698
27688
27728
27621
27659
27679
27639
27647
27668
27615
27621
27616
27577
27582
27568
27566
27570
27546
27529
27541
27552
27503
27511
27504
27512
27474
27481
27495
27451
27456
27468
27449
27474
27464
27459
27422
27423
27375
27390
27363
27353
27346
27332
27340
27295
27271
27269
27243
27269
27219
27183
27176
27152
27111
27130
27140
27107
27123
27110
27097
27093
27082
27070
27088
27102
27107
27109
27083
27147
27164
27150
27202
27210
27283
27309
27294
27414
27410
27476
27525
27579
27634
27636
27826
27809
27844
27949
28018
28049
28130
28147
28194
28219
28185
28227
28230
28181
28208
28208
28174
28225
28141
28167
28139
28105
28104
28117
28125
28096
28082
28084
28064
28077
28075
28062
28061
28037
28055
27993
27952
28044
27997
27956
27989
27977
27951
27986
27960
27922
27957
27951
27910
27900
27933
27913
27935
27895
27878
27884
27887
27877
27854
27892
27872
27822
27848
27832
27829
27846
27806
27822
27808
27780
27770
27795
27737
27775
27718
27723
27747
27718
27701
27699
27660
27696
27679
27649
27663
27634
27641
27639
27619
27621
27600
27622
27587
27594
27591
27586
27592
27551
27577
27547
27620
27558
27539
27566
27533
27547
27550
27543
27493
27514
27516
27471
27473
27471
27463
27437
27487
27422
27425
27398
27393
27342
27340
27349
27282
27318
27288
27269
27258
27255
27228
27241
27230
27204
27227
27248
27237
27250
27264
27261
27269
27304
27355
27342
27373
27430
27427
27455
27519
27556
27597
27645
27732
27752
27819
27909
27931
28027
28073
28151
28200
28287
28272
28369
28376
28414
28391
28384
28401
28388
28390
28396
28363
28343
28356
28367
28325
28291
28308
28279
28307
28274
28255
28288
28216
28232
28232
28209
28230
28221
28190
28206
28235
28165
28192
28214
28150
28148
28147
28146
28140
28102
28092
28119
28072
28054
28064
28039
28041
28030
28037
28046
28003
27995
27981
27972
27998
27968
27959
27911
27936
27908
27886
27862
27877
27847
27833
27862
27805
27798
27823
27774
27780
27755
27750
27745
27737
27710
27708
27703
27657
27684
27686
27653
27639
27648
27620
27651
27598
27619
27626
27581
27600
27581
27518
27557
27570
27549
27578
27527
27509
27519
27533
27511
27520
27522
27482
27465
27497
27451
27461
27451
27431
27447
27424
27400
27385
27385
27354
27339
27300
27303
27299
27256
27241
27241
27215
27218
27173
27189
27163
27168
27159
27150
27168
27167
27192
27182
27164
27214
27228
27237
27259
27298
27264
27363
27377
27405
27480
27476
27547
27587
27642
27691
27763
27792
27891
27969
28034
28072
28180
28191
28230
28304
28316
28359
28326
28348
28325
28323
28303
28320
28301
28305
28284
28286
28264
28289
28226
28244
28245
28213
28219
28213
28170
28166
28203
28179
28156
28154
28126
28153
28143
28093
28107
28102
28060
28092
28093
28058
28043
28036
28044
28039
28027
28024
27977
28006
28000
27999
27964
27968
27958
27982
27937
27935
27912
27864
27886
27890
27847
27857
27872
27838
27852
27835
27818
27807
27779
27766
27756
27741
27717
27704
27710
27708
27684
27652
27668
27645
27623
27622
27589
27628
27598
27599
27597
27560
27569
27564
27567
27510
27538
27514
27518
27558
27507
27537
27492
27502
27470
27478
27446
27441
27476
27428
27448
27407
27417
27440
27395
27399
27392
27350
27296
27329
27320
27245
27266
27225
27234
27188
27181
27147
27156
27095
27107
27128
27095
27083
27118
27130
27135
27070
27103
27113
27092
27123
27150
27166
27152
27230
27240
27273
27292
27315
27381
27390
27441
27517
27615
27631
27672
27726
27821
27867
27906
28029
28078
28108
28141
28194
28214
28272
28269
28308
28256
28242
28247
28231
28212
28237
28202
28198
28205
28190
28191
28210
28135
28143
28155
28101
28108
28119
28117
28102
28084
28097
28071
28077
28097
28039
28050
28030
28052
27992
28003
28040
28012
28001
27980
27954
27968
27968
27910
27936
27959
27890
27935
27907
27865
27896
27886
27818
27818
27805
27820
27794
27786
27768
27793
27780
27736
27742
27700
27710
27677
27712
27689
27692
27668
27648
27661
27609
27607
27595
27569
27597
27563
27553
27561
27575
27520
27521
27502
27487
27496
27484
27468
27470
27466
27436
27446
27434
27467
27414
27423
27409
27399
27374
27402
27393
27432
27395
27413
27373
27336
27317
27335
27292
27336
27280
27240
27275
27248
27214
27198
27200
27167
27146
27147
27117
27130
27098
27074
27084
27039
27055
27066
27078
27078
27066
27092
27095
27084
27102
27124
27144
27195
27181
27214
27226
27278
27319
27366
27403
27456
27457
27519
27625
27637
27684
27808
27819
27875
27973
28024
28056
28116
28190
28208
28233
28232
28309
28287
28280
28292
28233
28267
28231
28205
28251
28217
28228
28223
28200
28188
28142
28150
28163
28153
28124
28132
28113
28133
28088
28109
28105
28089
28062
28111
28052
28081
28059
28062
28073
27995
28015
28021
28000
28001
28002
27945
27963
27952
27984
27951
27949
27939
27936
27906
27900
27887
27866
27844
27858
27863
27819
27855
27829
27807
27814
27765
27767
27774
27737
27745
27704
27681
27704
27649
27671
27661
27628
27663
27603
27611
27609
27601
27588
27584
27593
27582
27539
27542
27549
27554
27536
27520
27493
27524
27477
27449
27485
27499
27448
27497
27460
27439
27448
27394
27396
27427
27414
27387
27395
27384
27363
27358
27341
27319
27277
27263
27281
27264
27215
27203
27175
27174
27154
27142
27082
27117
27122
27087
27085
27127
27049
27093
27124
27117
27128
27141
27154
27186
27140
27206
27233
27256
27267
27311
27308
27361
27421
27463
27513
27559
27664
27673
27754
27818
27850
27907
28009
28040
28168
28194
28201
28278
28296
28266
28277
28341
28274
28288
28288
28267
28301
28257
28230
28230
28189
28179
28169
28172
28162
28192
28164
28170
28146
28111
28129
28099
28101
28103
28095
28054
28057
28073
28034
28044
28044
27984
27990
28005
27980
27962
27965
27915
27948
27953
27883
27925
27900
27858
27864
27879
27849
27821
27827
27799
27759
27733
27734
27760
27693
27698
27725
27694
27663
27672
27690
27617
27646
27611
27576
27630
27570
27561
27565
27520
27514
27534
27516
27502
27468
27481
27459
27458
27467
27456
27407
27427
27429
27428
27398
27392
27396
27377
27384
27351
27342
27352
27299
27326
27348
27283
27278
27299
27270
27240
27240
27228
27233
27198
27158
27148
27144
27144
27122
27069
27087
27007
27020
26991
26958
26968
26970
26911
26989
26934
26940
26952
26930
26948
26975
26966
26996
27000
26998
26983
27042
27066
27060
27111
27094
27137
27197
27260
27252
27324
27376
27387
27474
27519
27576
27630
27703
27742
27823
27907
27971
28018
28054
28155
28167
28198
28245
28235
28228
28226
28246
28219
28211
28194
28175
28172
28174
28146
28112
28130
28136
28089
28098
28115
28085
28062
28078
28042
28084
28059
28016
28003
28016
28029
27980
27955
27973
27960
27936
27962
27946
27913
27928
27934
27923
27906
27890
27903
27907
27862
27839
27807
27829
27788
27803
27785
27795
27809
27754
27727
27729
27716
27701
27690
27644
27639
27649
27624
27634
27626
27631
27574
27592
27589
27572
27559
27535
27535
27472
27501
27514
27506
27456
27431
27454
27457
27455
27434
27413
27376
27408
27404
27384
27378
27360
27389
27348
27304
27351
27347
27292
27308
27292
27272
27268
27251
27261
27252
27194
27198
27183
27188
27169
27150
27112
27079
27072
27096
27075
27014
27049
27029
27003
27034
27031
27015
27028
27034
27006
27066
27037
27039
27069
27093
27095
27130
27140
27156
27228
27245
27247
27301
27342
27376
27435
27453
27491
27540
27614
27652
27736
27793
27834
27911
28016
28078
28117
28212
28249
28335
28329
28411
28398
28436
28413
28413
28433
28384
28420
28401
28341
28391
28343
28391
28355
28334
28339
28296
28309
28323
28338
28315
28285
28300
28312
28286
28266
28274
28317
28245
28243
28271
28285
28252
28263
28249
28208
28213
28222
28171
28210
28230
28201
28160
28177
28216
28176
28118
28133
28165
28125
28147
28131
28155
28112
28079
28087
28086
28042
28082
28087
28054
28019
28033
28038
28016
28012
27979
27969
27971
27927
27957
27929
27940
27927
27884
27903
27923
27895
27878
27885
27880
27853
27856
27837
27858
27824
27803
27820
27833
27822
27840
27822
27821
27815
27809
27807
27795
27761
27789
27793
27784
27804
27826
27770
27753
27729
27696
27708
27743
27712
27705
27700
27646
27645
27582
27596
27582
27572
27576
27576
27544
27570
27554
27535
27552
27554
27593
27575
27601
27613
27591
27632
27633
27670
27656
27717
27738
27758
27804
27822
27914
27957
27943
28002
28100
28152
28166
28292
28269
28389
28429
28510
28563
28655
28651
28698
28746
28721
28761
28745
28732
28673
28751
28724
28737
28715
28700
28693
28690
28681
28679
28680
28651
28677
28640
28627
28633
28619
28616
28601
28613
28638
28598
28607
28610
28594
28592
28607
28569
28571
28587
28540
28543
28564
28534
28518
28535
28494
28558
28508
28505
28496
28482
28462
28462
28448
28472
28446
28422
28419
28403
28391
28371
28351
28395
28317
28350
28374
28340
28320
28332
28277
28295
28297
28288
28244
28267
28260
28237
28261
28245
28231
28226
28202
28217
28199
28182
28210
28206
28189
28160
28220
28151
28184
28161
28157
28156
28165
28149
28134
28127
28134
28111
28116
28113
28075
28096
28088
28039
28031
28056
28009
27957
27980
27971
27929
27933
27904
27916
27881
27853
27859
27841
27828
27813
27816
27849
27798
27819
27829
27872
27816
27817
27856
27875
27886
27929
27921
27966
27996
27974
28033
28093
28119
28176
28216
28216
28296
28367
28428
28460
28548
28632
28690
28725
28810
28836
28866
28894
28915
28881
28892
28906
28855
28918
28878
28852
28862
28832
28879
28836
28807
28812
28785
28758
28776
28765
28766
28773
28725
28715
28724
28731
28719
28702
28720
28685
28675
28705
28677
28675
28656
28632
28638
28643
28618
28594
28585
28586
28560
28573
28558
28512
28503
28530
28474
28466
28470
28436
28461
28445
28428
28397
28430
28406
28403
28362
28368
28354
28334
28383
28327
28295
28292
28316
28286
28280
28263
28284
28253
28237
28258
28207
28184
28188
28231
28160
28211
28187
28141
28172
28152
28153
28163
28134
28128
28139
28108
28098
28122
28109
28096
28085
28083
28101
28070
28073
28064
28056
28064
28048
28036
27993
27962
27992
27951
27921
27875
27864
27854
27829
27832
27816
27807
27801
27786
27791
27778
27756
27794
27788
27737
27781
27791
27749
27789
27791
27775
27783
27831
27819
27860
27888
27927
27917
27995
28031
28073
28106
28163
28222
28279
28340
28392
28432
28477
28559
28609
28626
28692
28726
28746
28745
28740
28765
28750
28737
28744
28712
28686
28668
28703
28672
28641
28669
28665
28630
28599
28575
28606
28606
28600
28579
28599
28571
28555
28546
28539
28534
28511
28501
28469
28495
28492
28474
28466
28439
28447
28444
28431
28407
28418
28385
28379
28367
28356
28338
28353
28389
28355
28318
28336
28354
28326
28308
28305
28306
28331
28312
28238
28271
28254
28220
28225
28237
28196
28198
28189
28215
28159
28157
28151
28150
28129
28130
28108
28113
28109
28081
28126
28067
28065
28108
28078
28013
28046
28045
28063
28051
28026
28033
28043
27993
27999
28000
27991
28001
27998
28013
28007
27979
27974
27950
27992
27944
27957
27939
27902
27923
27937
27862
27892
27843
27837
27816
27816
27784
27769
27793
27760
27717
27757
27733
27745
27760
27729
27715
27738
27722
27699
27750
27757
27803
27772
27777
27813
27799
27810
27908
27915
27945
27977
28046
28091
28136
28162
28206
28290
28354
28428
28473
28546
28557
28612
28672
28706
28752
28737
28779
28742
28762
28741
28731
28771
28749
28742
28751
28705
28676
28731
28673
28612
28647
28637
28605
28604
28616
28583
28572
28592
28564
28561
28505
28526
28544
28522
28527
28524
28531
28501
28507
28490
28482
28448
28462
28439
28450
28436
28426
28408
28409
28414
28380
28392
28378
28374
28372
28371
28357
28329
28306
28358
28315
28310
28318
28300
28308
28266
28287
28249
28236
28247
28249
28270
28253
28230
28198
28238
28182
28205
28212
28229
28202
28222
28148
28159
28175
28159
28154
28157
28143
28167
28138
28132
28108
28131
28136
28116
28118
28128
28114
28106
28125
28105
28087
28110
28089
28060
28091
28079
28074
28050
28048
28040
28004
27996
27979
27967
27946
27911
27903
27879
27894
27842
27859
27837
27809
27805
27818
27769
27781
27789
27778
27794
27765
27809
27778
27777
27787
27793
27797
27851
27878
27880
27866
27892
27954
27989
28072
28055
28102
28165
28203
28237
28298
28410
28441
28485
28556
28571
28666
28666
28711
28751
28725
28721
28742
28733
28717
28722
28735
28718
28676
28679
28698
28677
28673
28659
28636
28650
28612
28637
28607
28587
28587
28595
28565
28581
28591
28583
28559
28554
28532
28549
28555
28512
28530
28495
28525
28505
28504
28479
28528
28480
28472
28462
28435
28417
28464
28451
28441
28392
28434
28398
28397
28384
28408
28368
28372
28379
28334
28312
28321
28328
28284
28278
28294
28261
28228
28263
28253
28224
28224
28182
28242
28164
28176
28210
28173
28158
28150
28144
28119
28128
28131
28080
28076
28101
28051
28063
28081
28056
28044
28039
28033
28040
28041
27981
27998
28003
27966
27989
27949
27954
27928
27944
27950
27890
27953
27914
27888
27874
27850
27841
27846
27812
27826
27803
27801
27772
27775
27745
27714
27751
27696
27698
27712
27704
27711
27687
27718
27695
27689
27734
27733
27778
27732
27755
27793
27861
27800
27873
27936
27975
28019
28064
28071
28148
28239
28243
28296
28393
28452
28491
28557
28572
28616
28667
28665
28687
28698
28701
28718
28694
28638
28668
28694
28647
28662
28617
28666
28615
28594
28588
28593
28596
28573
28539
28593
28572
28525
28495
28474
28505
28491
28509
28495
28486
28458
28470
28470
28443
28465
28477
28450
28428
28436
28396
28408
28406
28398
28390
28354
28337
28384
28333
28361
28346
28333
28315
28317
28310
28329
28288
28309
28290
28283
28224
28229
28249
28221
28218
28235
28186
28133
28189
28169
28166
28129
28128
28167
28140
28133
28107
28116
28125
28083
28066
28063
28090
28070
28073
27990
27996
28033
28047
27991
28018
28016
27980
27995
27969
27997
27955
27967
27974
27989
27960
27942
27960
27914
27913
27912
27915
27868
27884
27843
27808
27840
27796
27747
27753
27787
27720
27707
27696
27696
27651
27635
27606
27644
27600
27633
27603
27590
27603
27593
27650
27648
27622
27658
27707
27695
27686
27748
27774
27835
27836
27875
27922
27950
27995
28081
28154
28181
28207
28291
28335
28396
28443
28506
28505
28546
28558
28584
28543
28596
28553
28552
28603
28558
28527
28533
28519
28521
28486
28505
28474
28487
28454
28458
28446
28473
28489
28431
28415
28419
28394
28385
28392
28353
28397
28351
28347
28324
28304
28333
28338
28324
28331
28269
28270
28298
28275
28285
28232
28299
28220
28240
28216
28188
28203
28145
28166
28198
28189
28150
28153
28128
28128
28078
28082
28070
28087
28057
28043
28049
28038
28055
28003
28057
27981
27990
27961
27967
27941
27918
27926
27937
27894
27878
27900
27859
27883
27859
27890
27846
27854
27894
27845
27853
27829
27842
27861
27785
27813
27766
27783
27770
27744
27741
27789
27779
27762
27727
27704
27737
27702
27697
27661
27693
27673
27651
27619
27626
27579
27579
27569
27569
27522
27521
27543
27531
27508
27480
27500
27483
27514
27475
27473
27478
27503
27486
27471
27475
27525
27557
27548
27586
27601
27599
27617
27705
27703
27720
27763
27823
27870
27917
27975
28021
28094
28138
28186
28274
28294
28413
28386
28467
28485
28518
28534
28497
28512
28485
28493
28492
28477
28442
28476
28499
28459
28416
28471
28440
28413
28416
28425
28418
28399
28364
28386
28385
28341
28337
28341
28346
28308
28317
28308
28326
28287
28327
28302
28271
28246
28248
28245
28296
28264
28225
28244
28251
28196
28240
28210
28179
28194
28184
28174
28186
28180
28166
28184
28145
28159
28144
28122
28168
28091
28088
28111
28085
28090
28079
28025
28051
28028
28005
27988
27992
28012
27944
27996
28007
27937
27965
28008
27951
27956
27950
27957
27917
27942
27952
27950
27923
27930
27946
27926
27938
27923
27964
27944
27896
27936
27940
27935
27912
27922
27891
27911
27899
27900
27875
27860
27864
27848
27847
27827
27826
27822
27801
27798
27772
27756
27760
27750
27730
27735
27757
27731
27742
27719
27732
27743
27731
27707
27804
27746
27788
27788
27830
27818
27811
27852
27937
27904
27966
28003
28041
28044
28095
28169
28232
28224
28333
28422
28406
28512
28522
28577
28643
28689
28698
28758
28777
28785
28768
28807
28856
28814
28798
28812
28822
28796
28816
28840
28821
28824
28801
28813
28801
28790
28780
28811
28782
28791
28780
28812
28750
28747
28750
28732
28756
28775
28770
28680
28720
28766
28720
28701
28727
28701
28708
28669
28711
28675
28664
28678
28686
28642
28623
28622
28643
28649
28615
28579
28595
28594
28558
28554
28573
28545
28485
28545
28572
28545
28517
28494
28505
28454
28479
28480
28462
28476
28434
28427
28440
28392
28422
28429
28419
28393
28402
28389
28363
28359
28385
28373
28383
28376
28371
28384
28400
28367
28383
28375
28384
28364
28328
28399
28329
28358
28345
28311
28319
28310
28300
28291
28249
28240
28257
28235
28230
28206
28195
28180
28160
28168
28136
28117
28125
28128
28086
28093
28106
28079
28093
28112
28083
28093
28124
28124
28127
28130
28142
28180
28227
28230
28249
28301
28331
28327
28357
28448
28511
28539
28604
28655
28726
28755
28811
28858
28905
28927
28947
29014
29005
29016
29022
29022
28982
28957
28948
28949
28939
28893
28905
28926
28930
28907
28868
28877
28858
28864
28837
28832
28844
28831
28785
28805
28819
28753
28796
28794
28740
28729
28752
28760
28738
28722
28742
28711
28694
28740
28693
28685
28706
28678
28664
28646
28666
28627
28651
28664
28614
28613
28604
28621
28628
28567
28566
28601
28530
28573
28570
28531
28538
28550
28530
28515
28495
28528
28472
28472
28457
28464
28427
28437
28410
28399
28423
28387
28375
28408
28407
28391
28370
28342
28377
28352
28334
28340
28286
28348
28325
28299
28315
28315
28291
28322
28308
28301
28314
28292
28241
28294
28250
28278
28260
28299
28245
28278
28260
28267
28229
28257
28211
28205
28175
28169
28145
28166
28143
28127
28090
28116
28084
28065
28066
28065
28031
28050
28065
28042
28016
28049
28033
28051
28087
28064
28076
28110
28116
28144
28170
28174
28219
28248
28282
28333
28384
28422
28449
28513
28576
28607
28687
28773
28803
28857
28940
28987
28985
29047
29052
29040
29105
29071
29108
29064
29069
29049
29057
29075
29051
29082
29071
29059
29045
29050
29037
29072
29030
29016
29031
29057
28996
29026
29047
29037
29030
29005
29013
28990
29009
29007
28964
29012
28972
28978
28976
28980
28949
28931
28927
28911
28927
28902
28903
28882
28864
28850
28874
28821
28828
28814
28815
28766
28770
28795
28745
28760
28731
28746
28723
28699
28711
28689
28684
28704
28673
28659
28645
28620
28621
28626
28621
28580
28603
28607
28543
28526
28530
28522
28490
28505
28499
28457
28436
28425
28434
28431
28427
28411
28369
28387
28413
28378
28349
28333
28356
28368
28339
28270
28310
28324
28285
28266
28255
28267
28217
28258
28272
28239
28204
28231
28212
28206
28204
28153
28195
28144
28141
28114
28061
28092
28067
28051
28039
28028
28024
28024
28010
27996
27995
27982
27997
27954
27995
28016
28015
28002
28044
28070
28096
28102
28140
28132
28206
28216
28280
28302
28379
28391
28448
28516
28546
28579
28655
28695
28741
28805
28812
28817
28816
28824
28836
28809
28836
28820
28835
28834
28809
28801
28806
28775
28762
28751
28734
28754
28745
28739
28706
28712
28704
28704
28703
28712
28698
28691
28689
28671
28644
28625
28672
28668
28632
28655
28679
28632
28651
28638
28653
28615
28638
28655
28631
28629
28645
28644
28618
28625
28624
28671
28609
28607
28679
28610
28619
28628
28614
28620
28636
28590
28619
28606
28603
28590
28587
28552
28563
28589
28541
28545
28544
28542
28527
28552
28542
28525
28514
28525
28536
28500
28484
28492
28501
28471
28495
28483
28480
28448
28456
28426
28452
28467
28388
28426
28434
28408
28411
28419
28401
28372
28396
28384
28362
28368
28301
28369
28300
28323
28310
28302
28292
28268
28292
28251
28255
28227
28192
28204
28158
28132
28132
28132
28079
28092
28021
28011
28016
28011
27991
27977
27992
27980
27967
27949
27949
27960
27919
27920
27950
27939
27953
27943
27970
27992
28019
28071
28075
28116
28188
28174
28228
28293
28340
28416
28442
28471
28478
28513
28532
28552
28594
28605
28567
28593
28552
28550
28545
28541
28524
28528
28539
28515
28514
28512
28502
28466
28466
28455
28470
28448
28456
28435
28433
28410
28420
28380
28405
28409
28365
28387
28381
28352
28365
28358
28333
28359
28351
28320
28283
28302
28313
28323
28350
28283
28292
28253
28305
28271
28221
28248
28225
28237
28221
28180
28172
28210
28202
28187
28155
28195
28189
28150
28153
28138
28130
28153
28111
28106
28096
28098
28089
28089
28086
28064
28065
28036
28048
28041
28016
28019
28015
28021
27985
27991
27969
27945
27929
27949
27948
27913
27949
27925
27906
27926
27885
27890
27909
27893
27897
27871
27874
27871
27849
27852
27863
27816
27863
27861
27821
27821
27843
27801
27832
27821
27824
27819
27792
27777
27741
27761
27721
27747
27707
27737
27676
27669
27675
27670
27637
27630
27628
27583
27634
27619
27598
27611
27609
27615
27633
27641
27638
27677
27683
27695
27694
27718
27744
27806
27791
27845
27884
27943
27984
28011
28101
28158
28188
28245
28324
28336
28393
28440
28429
28469
28475
28479
28451
28462
28474
28470
28460
28446
28485
28423
28430
28412
28439
28397
28398
28402
28378
28379
28350
28350
28362
28332
28333
28319
28303
28296
28259
28241
28274
28242
28230
28257
28262
28252
28196
28217
28250
28184
28202
28207
28178
28174
28183
28148
28129
28147
28138
28139
28153
28118
28120
28129
28112
28122
28108
28062
28082
28104
28098
28052
28054
28038
28056
28067
28039
28033
28035
28027
27998
28004
27984
27978
27963
27973
27974
27931
27941
27892
27906
27899
27886
27900
27884
27873
27880
27857
27828
27838
27836
27808
27840
27791
27781
27795
27803
27755
27769
27783
27758
27753
27753
27763
27739
27745
27746
27754
27742
27740
27721
27728
27682
27688
27662
27651
27668
27645
27605
27596
27589
27569
27579
27545
27544
27483
27476
27490
27483
27461
27425
27442
27467
27434
27406
27463
27432
27454
27506
27489
27523
27554
27548
27567
27640
27660
27669
27749
27729
27803
27862
27920
27961
28009
28037
28137
28189
28226
28288
28392
28437
28499
28491
28567
28596
28578
28589
28607
28605
28598
28606
28569
28559
28603
28570
28521
28550
28539
28559
28550
28519
28547
28507
28527
28513
28501
28515
28524
28509
28534
28509
28502
28494
28474
28456
28469
28436
28427
28416
28416
28412
28382
28385
28372
28353
28366
28334
28346
28318
28343
28330
28325
28294
28272
28261
28236
28246
28229
28224
28193
28216
28160
28182
28178
28168
28136
28156
28160
28092
28147
28128
28086
28076
28062
28093
28060
28023
28031
28043
28009
28017
27980
27970
28000
27948
27948
27945
27934
27931
27927
27909
27910
27904
27916
27908
27919
27908
27888
27878
27891
27887
27875
27903
27865
27869
27873
27851
27865
27849
27857
27841
27833
27850
27817
27766
27769
27778
27761
27760
27747
27720
27737
27708
27665
27679
27665
27673
27658
27626
27620
27646
27596
27643
27668
27647
27665
27679
27712
27684
27748
27762
27792
27806
27834
27856
27896
27921
27970
27997
28030
28059
28098
28163
28256
28296
28315
28444
28483
28511
28605
28663
28748
28768
28845
28864
28903
28935
28916
28947
28963
28913
28945
28962
28930
28925
28941
28905
28910
28897
28871
28882
28904
28883
28860
28888
28843
28824
28878
28827
28817
28830
28827
28788
28796
28770
28774
28790
28784
28754
28769
28737
28728
28737
28724
28733
28734
28706
28723
28722
28694
28706
28684
28661
28690
28680
28629
28604
28647
28656
28608
28624
28584
28585
28577
28540
28571
28551
28557
28571
28521
28536
28501
28504
28472
28502
28448
28426
28440
28446
28395
28423
28393
28366
28331
28352
28365
28322
28314
28310
28308
28315
28304
28283
28251
28277
28280
28233
28291
28268
28200
28241
28240
28189
28218
28175
28228
28199
28171
28219
28197
28183
28163
28157
28135
28150
28158
28174
28127
28147
28097
28104
28098
28069
28067
28081
28032
28016
28017
28013
28014
28035
27968
27980
27995
27989
28054
27959
28012
28026
28009
28030
28079
28056
28120
28136
28135
28194
28208
28251
28283
28339
28362
28403
28484
28525
28611
28674
28730
28765
28857
28923
28995
29057
29145
29181
29264
29304
29341
29361
29385
29391
29368
29436
29409
29381
29343
29375
29341
29332
29357
29349
29293
29330
29332
29296
29283
29284
29274
29284
29309
29243
29276
29283
29251
29261
29224
29221
29236
29238
29231
29201
29211
29173
29189
29175
29155
29157
29171
29116
29104
29121
29095
29092
29125
29066
29047
29062
29033
29024
29001
29014
28985
29001
29001
28964
28936
28925
28930
28924
28851
28888
28855
28861
28838
28841
28797
28774
28763
28784
28733
28720
28689
28695
28655
28704
28669
28665
28651
28598
28634
28606
28576
28580
28559
28564
28587
28559
28546
28528
28512
28546
28505
28493
28521
28464
28480
28516
28469
28455
28458
28464
28453
28450
28484
28440
28449
28427
28465
28442
28410
28432
28359
28367
28392
28334
28352
28331
28307
28304
28288
28299
28258
28274
28215
28186
28193
28172
28143
28184
28151
28168
28173
28147
28188
28156
28177
28168
28234
28227
28212
28223
28304
28255
28311
28333
28361
28432
28464
28499
28543
28592
28649
28711
28764
28818
28907
28991
29017
29026
29126
29147
29184
29205
29258
29236
29276
29273
29272
29269
29235
29245
29213
29203
29229
29202
29198
29186
29193
29160
29150
29185
29132
29133
29143
29104
29122
29145
29107
29087
29141
29098
29086
29057
29078
29064
29044
29062
29037
29061
29048
29031
29038
29051
28992
29022
29022
29038
28990
28986
28991
28947
28969
28942
28924
28933
28927
28925
28937
28901
28875
28923
28854
28864
28900
28834
28825
28827
28825
28776
28825
28822
28772
28807
28778
28764
28744
28745
28769
28720
28767
28741
28707
28699
28675
28669
28671
28694
28651
28653
28652
28651
28651
28642
28656
28590
28636
28616
28612
28627
28610
28607
28613
28563
28564
28552
28545
28533
28563
28553
28478
28498
28518
28499
28469
28460
28469
28465
28399
28414
28406
28335
28325
28381
28328
28297
28293
28284
28264
28271
28253
28253
28281
28253
28246
28280
28291
28321
28312
28314
28339
28362
28372
28421
28431
28450
28486
28521
28577
28592
28623
28712
28762
28784
28892
28943
28980
29054
29134
29206
29259
29276
29346
29341
29379
29387
29425
29404
29376
29368
29398
29387
29356
29348
29351
29308
29316
29370
29276
29267
29268
29291
29272
29256
29280
29233
29216
29224
29186
29175
29215
29210
29179
29166
29155
29139
29135
29142
29120
29129
29136
29133
29116
29099
29077
29064
29065
29049
29010
28998
28992
29010
28976
28970
29003
28950
28964
28912
28922
28930
28909
28875
28875
28876
28868
28874
28816
28818
28824
28834
28829
28800
28768
28749
28736
28726
28731
28733
28709
28686
28709
28687
28666
28646
28632
28615
28616
28581
28589
28558
28567
28550
28543
28543
28539
28538
28514
28483
28494
28478
28466
28445
28462
28462
28495
28431
28431
28444
28388
28424
28420
28412
28417
28389
28357
28360
28335
28304
28325
28288
28309
28278
28261
28236
28211
28190
28175
28132
28138
28133
28135
28112
28126
28105
28104
28113
28162
28137
28129
28167
28119
28160
28182
28147
28189
28217
28232
28268
28318
28307
28347
28367
28457
28464
28493
28573
28633
28660
28761
28828
28845
28933
28985
29038
29091
29132
29200
29243
29252
29235
29258
29241
29255
29249
29231
29247
29222
29190
29240
29154
29178
29139
29158
29175
29165
29117
29111
29125
29114
29131
29148
29073
29097
29086
29077
29083
29073
29070
29044
28986
29040
29041
29010
29036
29010
29006
28979
28980
28975
28982
28971
28978
28953
28951
28948
28908
28883
28927
28896
28892
28872
28857
28871
28873
28848
28855
28822
28836
28783
28779
28776
28760
28762
28773
28764
28757
28701
28723
28742
28693
28706
28683
28657
28661
28659
28635
28598
28607
28614
28592
28613
28560
28597
28573
28561
28533
28541
28505
28527
28514
28496
28466
28494
28486
28477
28470
28464
28436
28445
28454
28419
28436
28420
28388
28408
28439
28347
28346
28367
28349
28314
28316
28292
28284
28291
28247
28254
28232
28220
28194
28151
28148
28159
28138
28127
28117
28120
28107
28124
28097
28105
28130
28157
28162
28166
28177
28188
28217
28227
28269
28273
28285
28322
28370
28415
28459
28488
28525
28560
28622
28696
28765
28790
28851
28932
28990
28996
29089
29177
29215
29232
29312
29294
29328
29317
29320
29364
29333
29286
29302
29298
29279
29256
29269
29275
29281
29253
29229
29238
29236
29207
29232
29214
29197
29196
29207
29188
29203
29198
29170
29170
29197
29188
29148
29135
29184
29139
29152
29128
29104
29105
29138
29115
29073
29076
29086
29067
29081
29048
29019
29055
29058
29008
29048
29028
28984
29015
28985
28996
28965
28936
28979
28944
28929
28943
28906
28912
28897
28919
28863
28886
28849
28866
28852
28832
28797
28840
28820
28781
28782
28800
28731
28768
28711
28765
28747
28725
28719
28732
28701
28700
28678
28652
28640
28680
28632
28625
28673
28660
28651
28634
28620
28641
28594
28602
28605
28593
28591
28580
28554
28558
28524
28515
28470
28499
28439
28453
28457
28420
28371
28366
28370
28335
28328
28304
28306
28295
28291
28300
28265
28284
28318
28254
28218
28280
28309
28304
28326
28333
28368
28371
28426
28403
28476
28517
28486
28511
28572
28580
28671
28690
28718
28785
28834
28888
28948
29017
29049
29112
29175
29246
29267
29333
29414
29442
29458
29477
29534
29515
29471
29500
29504
29499
29469
29481
29450
29449
29439
29453
29440
29457
29391
29463
29432
29401
29443
29432
29392
29406
29396
29425
29396
29412
29434
29379
29419
29382
29361
29376
29397
29376
29380
29391
29343
29355
29352
29349
29350
29366
29326
29356
29331
29369
29323
29324
29318
29335
29273
29310
29295
29283
29287
29271
29273
29238
29227
29219
29237
29195
29208
29209
29198
29174
29158
29163
29145
29106
29123
29112
29089
29071
29074
29068
29058
29053
29019
28997
29003
28990
28972
29004
28987
28989
28986
28965
28934
28954
28924
28882
28948
28954
28906
28933
28915
28905
28928
28949
28900
28899
28884
28905
28859
28858
28864
28875
28883
28863
28825
28805
28828
28784
28784
28784
28761
28738
28732
28676
28720
28686
28668
28665
28635
28662
28655
28647
28635
28631
28640
28664
28652
28656
28641
28659
28683
28699
28720
28780
28789
28792
28853
28866
28911
28942
28973
29067
29089
29133
29175
29273
29335
29379
29394
29483
29546
29565
29638
29653
29684
29698
29661
29676
29703
29649
29646
29624
29645
29648
29625
29631
29665
29596
29599
29603
29595
29583
29565
29598
29585
29531
29565
29562
29542
29526
29530
29552
29533
29491
29513
29504
29457
29467
29488
29467
29443
29475
29402
29462
29409
29427
29442
29418
29380
29369
29403
29375
29378
29369
29385
29361
29347
29311
29336
29302
29298
29299
29266
29268
29290
29230
29212
29247
29187
29196
29190
29181
29178
29174
29142
29152
29161
29099
29139
29099
29105
29079
29092
29055
29082
29058
29031
29042
29006
29026
29000
28975
28963
28997
28951
28974
28988
28942
28955
28958
28923
28936
28926
28923
28905
28932
28884
28891
28885
28865
28833
28835
28859
28816
28820
28803
28794
28788
28762
28706
28763
28703
28658
28674
28673
28646
28629
28639
28629
28644
28599
28583
28587
28600
28589
28614
28653
28649
28663
28708
28684
28708
28781
28794
28790
28838
28844
28927
28912
28954
29046
29082
29147
29225
29239
29321
29369
29424
29470
29498
29551
29600
29632
29659
29689
29643
29646
29649
29638
29616
29633
29562
29593
29614
29560
29557
29548
29575
29536
29534
29509
29476
29501
29516
29457
29515
29463
29459
29434
29437
29461
29450
29419
29424
29422
29388
29408
29390
29375
29358
29389
29347
29329
29368
29338
29303
29308
29315
29266
29302
29298
29283
29235
29259
29239
29245
29218
29206
29196
29179
29173
29146
29153
29144
29164
29086
29069
29102
29070
29046
29056
29019
29012
29035
28988
28989
29005
28973
28941
28928
28913
28946
28917
28845
28871
28914
28866
28878
28867
28863
28870
28858
28859
28852
28779
28847
28851
28826
28849
28816
28810
28839
28807
28820
28802
28800
28784
28769
28769
28726
28752
28700
28712
28715
28692
28660
28647
28671
28638
28589
28612
28568
28557
28556
28530
28508
28507
28469
28445
28457
28534
28463
28485
28460
28508
28468
28525
28481
28507
28530
28504
28577
28597
28561
28634
28655
28695
28749
28762
28798
28855
28941
28927
29018
29115
29149
29200
29289
29327
29381
29416
29467
29505
29529
29538
29534
29534
29553
29499
29501
29504
29492
29501
29492
29451
29463
29447
29436
29473
29395
29417
29440
29412
29385
29414
29387
29357
29347
29343
29355
29384
29337
29327
29344
29325
29304
29346
29296
29293
29249
29287
29273
29267
29235
29280
29207
29198
29206
29198
29195
29219
29176
29169
29172
29163
29152
29112
29134
29147
29112
29071
29098
29058
29046
29072
29080
29064
29043
29066
29002
29002
28976
28982
28957
28987
28977
28943
28941
28910
28950
28889
28894
28875
28883
28821
28883
28847
28841
28868
28834
28827
28827
28804
28800
28791
28811
28812
28785
28763
28765
28748
28760
28777
28773
28733
28724
28728
28698
28714
28703
28706
28681
28640
28622
28611
28646
28589
28563
28552
28540
28534
28496
28499
28456
28487
28436
28436
28437
28421
28424
28410
28424
28425
28411
28398
28458
28466
28477
28506
28498
28464
28554
28577
28569
28612
28652
28727
28729
28773
28838
28840
28912
28955
28980
29092
29117
29204
29241
29307
29416
29432
29443
29539
29534
29546
29554
29523
29526
29528
29524
29523
29496
29509
29507
29466
29431
29452
29464
29446
29403
29442
29394
29373
29410
29396
29343
29367
29370
29351
29328
29329
29322
29320
29314
29287
29317
29271
29265
29262
29243
29232
29248
29223
29245
29229
29193
29194
29190
29222
29158
29206
29158
29127
29111
29145
29094
29085
29118
29087
29068
29070
29048
28994
29047
29007
29006
28999
28980
29003
28958
28945
28931
28905
28902
28911
28859
28871
28876
28853
28845
28819
28821
28822
28793
28805
28804
28775
28759
28787
28768
28747
28748
28729
28717
28709
28714
28736
28661
28684
28687
28671
28657
28667
28662
28658
28612
28619
28637
28592
28584
28556
28552
28570
28519
28533
28514
28458
28446
28477
28429
28396
28431
28374
28389
28364
28342
28358
28316
28344
28268
28343
28320
28289
28325
28315
28294
28304
28373
28339
28397
28400
28401
28433
28466
28473
28515
28553
28593
28680
28713
28733
28843
28901
28906
28992
29060
29102
29162
29254
29272
29353
29382
29440
29452
29483
29451
29487
29485
29473
29462
29486
29436
29446
29467
29395
29393
29415
29377
29375
29380
29336
29360
29362
29329
29305
29346
29319
29319
29293
29296
29302
29277
29245
29262
29259
29253
29224
29211
29228
29213
29202
29223
29183
29162
29201
29144
29126
29134
29117
29134
29121
29106
29117
29098
29103
29091
29049
29063
29043
29013
29036
29005
29011
28982
28984
28951
28979
28935
28925
28913
28912
28885
28896
28929
28866
28817
28871
28877
28802
28822
28835
28814
28784
28833
28792
28785
28800
28747
28760
28736
28743
28726
28713
28689
28704
28680
28665
28660
28667
28671
28665
28659
28629
28656
28657
28639
28632
28612
28616
28622
28625
28606
28585
28568
28575
28520
28546
28499
28507
28452
28475
28440
28442
28410
28378
28354
28370
28357
28344
28336
28329
28329
28305
28299
28301
28329
28321
28336
28330
28359
28357
28401
28428
28476
28455
28471
28547
28535
28601
28630
28669
28732
28763
28817
28858
28943
29012
29095
29128
29171
29257
29316
29366
29371
29408
29396
29387
29417
29450
29405
29374
29390
29368
29364
29333
29358
29328
29321
29353
29306
29307
29292
29286
29303
29253
29280
29251
29221
29248
29246
29229
29208
29201
29206
29199
29213
29169
29184
29209
29175
29156
29143
29135
29129
29139
29108
29120
29077
29089
29091
29063
29074
29065
29076
29045
29022
29018
28996
29012
28992
28992
28973
28939
28962
28922
28951
28914
28842
28885
28901
28874
28858
28827
28862
28803
28819
28814
28787
28807
28809
28808
28770
28779
28758
28741
28711
28730
28732
28710
28728
28705
28687
28699
28677
28677
28663
28677
28652
28639
28631
28622
28645
28621
28607
28622
28646
28611
28591
28576
28558
28543
28555
28530
28493
28506
28521
28481
28495
28452
28410
28431
28423
28350
28370
28340
28301
28306
28317
28260
28287
28287
28264
28290
28263
28279
28262
28301
28322
28304
28333
28361
28390
28388
28407
28425
28474
28503
28562
28590
28610
28687
28725
28769
28783
28891
28922
29020
29090
29115
29197
29246
29287
29342
29353
29359
29422
29392
29373
29413
29378
29325
29341
29321
29322
29312
29302
29295
29278
29286
29259
29220
29253
29229
29191
29240
29232
29175
29192
29211
29158
29205
29160
29144
29174
29114
29113
29109
29107
29137
29123
29112
29084
29077
29069
29034
29051
29032
29016
29067
28998
29012
28963
28986
28974
28965
28977
28976
28914
28931
28918
28903
28872
28882
28867
28831
28878
28832
28807
28791
28811
28797
28781
28807
28792
28752
28751
28751
28723
28692
28720
28681
28667
28680
28668
28683
28652
28675
28613
28628
28657
28598
28596
28603
28599
28566
28546
28600
28555
28580
28544
28569
28499
28503
28561
28492
28507
28426
28491
28472
28451
28456
28435
28455
28430
28385
28406
28352
28372
28357
28324
28339
28306
28314
28252
28261
28251
28231
28202
28189
28174
28163
28207
28191
28153
28188
28242
28184
28220
28252
28210
28295
28272
28279
28337
28357
28423
28435
28465
28519
28568
28614
28638
28695
28750
28809
28862
28919
28964
29059
29085
29155
29216
29243
29290
29325
29322
29397
29329
29326
29325
29296
29321
29305
29268
29328
29300
29264
29283
29276
29257
29233
29242
29196
29183
29220
29215
29167
29135
29146
29169
29155
29132
29118
29113
29115
29099
29084
29069
29068
29066
29069
29039
29067
29055
29005
28998
29009
28983
29029
29002
28967
28981
28962
28947
28922
28957
28926
28927
28899
28933
28928
28882
28858
28886
28848
28830
28855
28830
28838
28785
28792
28790
28814
28765
28777
28743
28716
28754
28740
28717
28728
28729
28691
28684
28702
28624
28655
28678
28645
28623
28659
28614
28596
28622
28593
28579
28576
28585
28551
28573
28581
28524
28538
28555
28536
28548
28558
28520
28511
28526
28516
28473
28474
28496
28478
28468
28433
28447
28448
28371
28374
28400
28362
28350
28355
28313
28279
28280
28296
28279
28275
28284
28305
28274
28300
28310
28334
28295
28303
28355
28364
28361
28377
28425
28458
28477
28527
28566
28580
28652
28692
28744
28809
28843
28902
28998
29015
29106
29190
29225
29293
29333
29370
29427
29479
29467
29507
29520
29510
29529
29521
29457
29487
29452
29475
29437
29461
29429
29433
29430
29425
29428
29384
29420
29393
29384
29388
29377
29348
29376
29361
29338
29352
29322
29332
29334
29305
29311
29307
29279
29308
29282
29257
29252
29256
29189
29206
29225
29185
29195
29189
29168
29161
29169
29150
29162
29145
29118
29120
29116
29106
29083
29057
29068
29040
29042
29035
29037
29023
29025
28987
29014
28962
28967
28984
28926
28954
28948
28926
28960
28899
28905
28872
28885
28870
28874
28853
28861
28843
28875
28830
28810
28809
28843
28849
28789
28790
28802
28801
28778
28782
28762
28754
28764
28754
28748
28760
28754
28716
28746
28728
28679
28681
28697
28646
28644
28672
28628
28618
28594
28615
28521
28541
28538
28491
28487
28500
28464
28433
28442
28431
28422
28446
28451
28432
28451
28446
28460
28480
28466
28505
28525
28505
28542
28605
28619
28626
28662
28693
28736
28758
28813
28849
28862
28919
28989
29044
29149
29198
29233
29339
29409
29440
29450
29534
29534
29580
29635
29625
29594
29593
29591
29578
29589
29556
29550
29531
29547
29554
29517
29514
29489
29481
29534
29449
29473
29465
29425
29456
29427
29440
29459
29408
29426
29415
29426
29410
29377
29378
29356
29389
29342
29352
29367
29333
29351
29313
29328
29300
29263
29307
29271
29249
29242
29247
29232
29242
29226
29185
29174
29206
29190
29162
29163
29181
29142
29149
29101
29098
29105
29036
29090
29061
29060
29053
29049
28997
29015
29038
29015
29024
28981
28982
28977
28978
28946
28955
28966
28940
28922
28913
28919
28882
28898
28887
28906
28925
28908
28905
28899
28934
28905
28893
28894
28894
28869
28887
28870
28867
28884
28849
28867
28847
28829
28838
28798
28806
28762
28777
28713
28727
28712
28708
28690
28660
28661
28643
28635
28570
28622
28635
28582
28622
28593
28589
28622
28604
28639
28645
28657
28649
28685
28699
28738
28758
28768
28774
28857
28855
28911
28952
29000
29049
29125
29194
29230
29275
29327
29422
29463
29534
29601
29627
29681
