59718
59656
59597
59542
59480
59383
59243
59065
58872
58697
58569
58478
58392
58292
58179
58097
58079
58083
58054
57995
57928
57871
57851
57851
57835
57788
57711
57614
57482
57333
57225
57159
57084
56983
56877
56781
56696
56629
56582
56526
56455
56395
56347
56308
56266
56203
56125
56054
55996
55949
55924
55934
55984
56090
56273
56513
56763
57026
57304
57615
57979
58379
58801
59195
59535
59879
60232
60537
60804
61071
61327
61554
61737
61852
61881
61858
61837
61814
61737
61592
61418
61232
61059
60918
60779
60632
60486
60344
60226
60161
60153
60192
60260
60322
60340
60309
60246
60150
60022
59869
59713
59595
59527
59477
59426
59393
59375
59344
59297
59261
59237
59209
59179
59153
59126
59095
59064
59015
58949
58889
58833
58778
58730
58693
58684
58715
58762
58809
58858
58883
58874
58850
58821
58782
58708
58600
58498
58416
58330
58222
58099
58000
57958
57924
57850
57767
57700
57664
57637
57564
57460
57371
57308
57247
57170
57068
56965
56896
56846
56790
56734
56677
56578
56451
56365
56304
56211
56124
56088
56062
55993
55902
55855
55864
55883
55878
55817
55695
55563
55463
55383
55301
55207
55122
55085
55095
55119
55130
55122
55102
55107
55117
55070
54979
54871
54763
54703
54672
54601
54470
54298
54139
54034
53938
53836
53750
53644
53515
53415
53383
53396
53377
53307
53217
53119
53047
53005
52949
52879
52792
52682
52606
52612
52680
52791
52949
53156
53412
53699
54029
54393
54750
55121
55518
55912
56260
56514
56711
56880
57000
57092
57165
57183
57120
57019
56954
56919
56889
56874
56843
56779
56712
56624
56523
56455
56420
56390
56329
56227
56115
56051
56023
55990
55948
55882
55795
55726
55678
55635
55612
55598
55547
55464
55369
55293
55266
55262
55233
55166
55098
55078
55107
55181
55270
55330
55361
55342
55278
55206
55116
55040
55006
54983
54950
54925
54940
54987
55033
55071
55088
55071
55016
54931
54850
54791
54754
54743
54758
54765
54721
54643
54540
54396
54226
54083
53993
53945
53900
53854
53837
53821
53744
53614
53465
53302
53136
52999
52894
52787
52681
52608
52584
52589
52590
52598
52640
52688
52715
52737
52742
52701
52636
52606
52621
52645
52645
52608
52522
52375
52200
52049
51941
51877
51845
51810
51774
51767
51769
51760
51737
51703
51661
51621
51586
51554
51516
51462
51390
51313
51255
51229
51218
51181
51117
51056
50991
50894
50768
50625
50475
50319
50170
50052
49967
49905
49866
49859
49878
49922
50009
50132
50282
50466
50679
50928
51223
51538
51834
52086
52301
52506
52715
52936
53153
53333
53473
53576
53646
53692
53703
53680
53637
53576
53507
53427
53331
53237
53155
53070
52972
52869
52778
52701
52618
52510
52393
52281
52182
52113
52073
52041
51986
51909
51823
51752
51731
51760
51802
51817
51798
51756
51704
51662
51612
51564
51554
51580
51626
51668
51681
51683
51672
51625
51542
51443
51374
51372
51430
51514
51586
51626
51636
51624
51588
51542
51515
51499
51481
51468
51463
51455
51435
51398
51363
51325
51268
51198
51138
51088
51030
50961
50886
50812
50746
50709
50710
50730
50733
50696
50627
50535
50417
50282
50134
49988
49863
49767
49712
49668
49617
49589
49595
49622
49636
49620
49616
49618
49557
49443
49335
49249
49168
49081
48999
48954
48960
49003
49054
49088
49084
49046
49010
48995
48987
48980
48984
48989
48954
48858
48714
48532
48353
48240
48179
48130
48084
48020
47922
47833
47784
47757
47739
47720
47697
47668
47638
47590
47507
47413
47328
47234
47118
47009
46935
46864
46781
46719
46694
46700
46730
46738
46669
46542
46415
46307
46206
46123
46086
46108
46205
46397
46666
46978
47318
47674
48018
48307
48573
48839
49066
49268
49463
49610
49684
49703
49690
49651
49606
49572
49546
49522
49485
49449
49433
49416
49372
49313
49255
49201
49155
49109
49045
48961
48872
48772
48667
48598
48595
48620
48641
48679
48718
48734
48758
48797
48821
48825
48809
48758
48711
48703
48697
48629
48516
48424
48358
48321
48313
48314
48338
48371
48402
48459
48524
48561
48601
48642
48654
48637
48583
48481
48370
48282
48194
48100
47995
47891
47834
47831
47850
47842
47774
47683
47636
47640
47677
47735
47793
47841
47882
47923
47930
47885
47800
47649
47459
47305
47177
47041
46939
46876
46808
46719
46635
46587
46576
46563
46521
46465
46388
46315
46274
46246
46220
46178
46142
46118
46091
46102
46163
46227
46250
46206
46099
45984
45882
45779
45676
45563
45443
45339
45281
45265
45236
45189
45160
45143
45119
45103
45110
45105
45067
45010
44935
44865
44824
44787
44760
44741
44741
44761
44739
44688
44673
44693
44740
44813
44910
45042
45168
45246
45298
45343
45402
45522
45679
45845
46038
46256
46476
46724
46989
47216
47396
47554
47693
47806
47886
47896
47825
47719
47609
47525
47483
47458
47455
47462
47450
47404
47326
47256
47228
47236
47261
47300
47340
47334
47278
47192
47061
46883
46704
46561
46455
46374
46312
46271
46255
46266
46298
46338
46366
46362
46344
46368
46455
46561
46626
46647
46681
46758
46837
46855
46811
46731
46653
46607
46560
46497
46452
46434
46411
46403
46417
46400
46357
46298
46229
46202
46232
46276
46278
46210
46121
46045
45967
45905
45897
45899
45856
45797
45775
45777
45764
45742
45735
45739
45728
45655
45538
45442
45388
45368
45358
45325
45257
45193
45180
45190
45143
45052
44975
44920
44906
44910
44889
44844
44765
44672
44584
44500
44457
44461
44482
44524
44569
44561
44513
44450
44352
44247
44188
44168
44180
44186
44160
44161
44196
44187
44136
44118
44117
44054
43949
43850
43755
43699
43686
43662
43638
43621
43590
43592
43661
43745
43787
43791
43799
43850
43957
44121
44348
44622
44925
45245
45544
45795
46011
46215
46396
46532
46645
46766
46884
46992
47086
47167
47212
47207
47164
47083
46993
46929
46868
46794
46737
46706
46662
46598
46534
46462
46399
46396
46451
46499
46483
46421
46379
46359
46311
46232
46131
46037
45974
45915
45859
45821
45806
45797
45810
45859
45906
45941
45994
46086
46185
46245
46254
46210
46131
46075
46051
46044
46052
46069
46124
46225
46346
46443
46491
46520
46558
46567
46496
46385
46295
46197
46088
46001
45918
45834
45766
45724
45736
45780
45819
45877
45930
45937
45897
45825
45765
45740
45738
45752
45755
45726
45697
45677
45637
45561
45468
45420
45428
45427
45365
45251
45096
44946
44846
44781
44762
44795
44853
44914
44966
45011
45023
44976
44917
44870
44823
44802
44789
44737
44652
44555
44476
44447
44430
44359
44248
44164
44120
44078
44039
44010
43957
43863
43749
43640
43554
43502
43489
43508
43566
43673
43830
44037
44277
44539
44835
45144
45408
45636
45878
46126
46352
46548
46717
46893
47078
47248
47407
47557
47671
47741
47780
47795
47789
47775
47757
47722
47663
47596
47544
47517
47513
47532
47566
47570
47514
47430
47348
47273
47208
47153
47115
47092
47068
47047
47028
46987
46929
46875
46835
46812
46814
46833
46847
46862
46898
46959
47044
47144
47247
47329
47371
47394
47420
47422
47381
47328
47299
47289
47272
47247
47236
47228
47177
47084
46980
46897
46871
46913
46996
47081
47147
47213
47282
47335
47359
47350
47315
47252
47153
47042
46933
46825
46722
46612
46495
46386
46291
46204
46148
46120
46067
45976
45854
45731
45637
45570
45536
45529
45544
45559
45556
45583
45645
45686
45686
45678
45670
45646
45606
45571
45547
45517
45495
45478
45430
45361
45337
45340
45304
45255
45211
45148
45066
44967
44888
44853
44821
44767
44681
44557
44434
44358
44318
44272
44201
44120
44062
44067
44133
44208
44237
44234
44275
44380
44501
44600
44682
44788
44966
45231
45540
45842
46143
46465
46810
47169
47543
47912
48237
48510
48723
48868
48959
49022
49070
49096
49103
49109
49122
49120
49101
49073
49024
48956
48887
48822
48757
48695
48639
48608
48619
48649
48662
48643
48610
48591
48596
48598
48587
48565
48527
48472
48400
48331
48282
48246
48217
48197
48184
48185
48197
48219
48244
48271
48311
48347
48374
48408
48461
48534
48612
48690
48757
48799
48814
48803
48764
48713
48671
48637
48606
48575
48553
48541
48521
48487
48447
48417
48392
48349
48294
48240
48169
48081
47999
47939
47903
47887
47877
47869
47868
47857
47807
47699
47545
47395
47305
47292
47328
47367
47389
47394
47371
47309
47220
47130
47060
47041
47063
47079
47070
47049
47024
47001
46985
46969
46954
46945
46909
46821
46705
46594
46508
46446
46418
46423
46428
46420
46401
46367
46319
46267
46242
46255
46268
46243
46198
46167
46143
46114
46071
45970
45824
45701
45611
45530
45465
45445
45479
45555
45656
45757
45834
45908
46014
46160
46338
46555
46819
47113
47418
47739
48087
48449
48801
49093
49319
49517
49710
49898
50066
50206
50307
50364
50384
50383
50390
50417
50441
50449
50453
50454
50457
50485
50520
50520
50490
50457
50412
50339
50247
50137
50017
49913
49839
49777
49691
49579
49472
49410
49397
49391
49394
49464
49602
49756
49890
49995
50069
50106
50107
50089
50054
50016
50010
50048
50109
50156
50176
50198
50219
50211
50186
50162
50137
50121
50099
50047
49965
49855
49747
49697
49711
49751
49801
49844
49857
49834
49777
49703
49630
49564
49512
49460
49391
49303
49210
49126
49057
49002
48933
48825
48707
48624
48570
48513
48448
48398
48367
48346
48333
48323
48315
48314
48314
48304
48271
48220
48182
48157
48114
48042
47971
47903
47833
47783
47761
47743
47727
47723
47705
47648
47575
47516
47464
47413
47358
47298
47256
47249
47270
47297
47309
47309
47293
47237
47155
47068
46983
46891
46787
46680
46558
46406
46241
46104
46016
45976
45956
45924
45886
45875
45905
45976
46092
46250
46444
46678
46955
47264
47608
47995
48399
48779
49125
49459
49804
50177
50569
50936
51225
51414
51499
51502
51473
51442
51416
51393
51372
51349
51325
51307
51270
51197
51117
51053
51014
50992
50975
50957
50937
50921
50907
50879
50846
50822
50815
50810
50786
50766
50764
50746
50704
50659
50621
50588
50558
50519
50477
50431
50358
50273
50204
50150
50113
50093
50107
50162
50216
50251
50287
50346
50423
50473
50490
50487
50453
50387
50324
50313
50325
50298
50247
50241
50289
50323
50312
50287
50256
50202
50127
50040
49957
49909
49909
49923
49924
49913
49892
49860
49799
49722
49676
49632
49533
49389
49253
49148
49068
49004
48944
48865
48782
48724
48690
48654
48610
48559
48510
48470
48442
48421
48405
48405
48416
48402
48347
48280
48213
48142
48080
48037
48002
47961
47911
47850
47764
47646
47523
47431
47371
47327
47294
47274
47270
47282
47305
47331
47359
47411
47509
47675
47907
48171
48454
48764
49084
49391
49687
49977
50269
50583
50906
51204
51463
51686
51878
52042
52169
52254
52314
52361
52393
52381
52335
52308
52289
52239
52169
52088
51982
51838
51670
51511
51384
51285
51230
51256
51322
51332
51298
51289
51286
51278
51304
51348
51332
51248
51135
51008
50902
50879
50945
51042
51113
51161
51220
51295
51376
51448
51520
51603
51679
51730
51742
51720
51674
51611
51543
51489
51451
51404
51351
51306
51262
51250
51278
51312
51327
51291
51206
51116
51048
50995
50930
50829
50721
50639
50573
50509
50436
50343
50237
50148
50102
50096
50106
50100
50073
50040
50001
49950
49887
49823
49778
49762
49776
49820
49858
49829
49733
49631
49543
49449
49362
49310
49301
49293
49252
49191
49126
49040
48919
48775
48616
48475
48381
48315
48252
48165
48073
48052
48084
48084
48033
47973
47941
47943
47991
48096
48256
48457
48682
48939
49246
49615
50026
50442
50837
51198
51543
51888
52229
52555
52872
53195
53498
53759
53977
54146
54264
54340
54380
54387
54377
54361
54326
54246
54141
54062
54037
54054
54091
54153
54228
54270
54269
54253
54239
54229
54237
54274
54325
54354
54339
54330
54350
54354
54312
54238
54129
54009
53900
53808
53759
53750
53750
53733
53704
53685
53691
53681
53647
53622
53599
53575
53539
53514
53559
53645
53687
53704
53732
53754
53785
53814
53807
53749
53664
53612
53607
53632
53672
53718
53744
53700
53589
53448
53303
53200
53138
53062
52944
52819
52752
52718
52669
52633
52621
52617
52605
52571
52523
52479
52448
52421
52391
52363
52329
52258
52162
52079
51998
51916
51857
51826
51786
51697
51600
51537
51494
51470
51440
51375
51276
51140
50990
50854
50730
50615
50544
50511
50470
50423
50359
50268
50184
50138
50134
50139
50096
50029
49995
49976
49962
49976
50028
50117
50255
50430
50630
50858
51124
51456
51846
52263
52692
53133
53577
53999
54407
54838
55274
55680
56036
56324
56526
56625
56657
56670
56670
56698
56764
56835
56887
56890
56844
56788
56757
56760
56787
56786
56765
56803
56884
56923
56911
56903
56907
56873
56809
56775
56795
56819
56770
56668
56570
56478
56404
56351
56310
56294
56301
56316
56349
56393
56408
56366
56305
56284
56285
56260
56198
56108
56013
55936
55904
55926
55992
56066
56114
56170
56242
56302
56339
56348
56346
56317
56238
56125
55963
55747
55515
55325
55207
55130
55090
55094
55121
55142
55125
55058
54969
54854
54690
54500
54349
54253
54185
54147
54137
54129
54116
54104
54094
54072
54035
54022
54016
53954
53856
53745
53602
53461
53366
53275
53158
53021
52910
52853
52793
52723
52679
52646
52651
52678
52649
52556
52452
52394
52373
52353
52335
52300
52243
52210
52202
52170
52077
51968
51887
51820
51801
51874
52036
52262
52518
52825
53176
53531
53898
54270
54649
55070
55507
55916
56332
56736
57047
57287
57554
57863
58145
58362
58556
58754
58914
58994
58994
58925
58824
58750
58723
58754
58831
58917
58992
59066
59144
59209
59244
59260
59248
59194
59099
58943
58773
58633
58493
58346
58209
58110
58059
58017
57963
57897
57814
57732
57660
57615
57607
57626
57667
57738
57830
57897
57913
57904
57897
57894
57890
57863
57817
57795
57791
57765
57739
57735
57734
57724
57712
57705
57695
57643
57545
57454
57384
57305
57206
57111
57038
56987
56929
56828
56689
56550
56467
56431
56393
56367
56359
56337
56279
56202
56109
55978
55849
55774
55733
55662
55538
55388
55252
55154
55076
54995
54920
54872
54871
54899
54948
54988
54993
54984
54954
54885
54811
54741
54650
54540
54433
54367
54348
54335
54294
54223
54139
54070
54038
54006
53919
53812
53766
53794
53861
53954
54066
54192
54351
54589
54924
55324
55774
56245
56721
57213
57712
58204
58677
59101
59461
59780
60104
60392
60579
60682
60725
60725
60714
60725
60749
60725
60645
60567
60515
60493
60485
60445
60362
60272
60212
60189
60174
60138
60075
60003
59957
59933
59911
59893
59885
59878
59866
59843
59807
59760
59716
59690
59675
59651
59615
59565
59502
59438
59386
59354
59339
59323
59297
59273
59269
59283
59289
59269
59230
59183
59132
59071
58984
58874
58778
58719
58686
58661
58627
58594
58588
58611
58628
58605
58537
58426
58285
58150
58047
57944
57817
57703
57593
57453
57284
57130
57057
57039
57023
57004
56994
56995
56980
56927
56840
56752
56667
56564
56466
56391
56320
56246
56177
56103
55997
55875
55771
55689
55623
55586
55615
55706
55789
55797
55749
55715
55692
55635
55549
55499
55496
55499
55466
55405
55382
55400
55422
55425
55441
55510
55635
55859
56174
56516
56875
57239
57630
58104
58630
59132
59571
59939
60251
60525
60781
61031
61237
61373
61465
61516
61508
61470
61434
61390
61344
61293
61223
61139
61070
61064
61117
61159
61177
61232
61316
61391
61445
61461
61449
61421
61374
61312
61228
61109
60957
60761
60542
60334
60153
60017
59924
59885
59883
59856
59792
59747
59778
59879
60007
60148
60267
60313
60285
60199
60080
59942
59807
59703
59611
59508
59403
59299
59201
59144
59170
59258
59352
59393
59353
59247
59120
59002
58861
58675
58493
58371
58283
58192
58114
58068
58041
58004
57927
57816
57709
57607
57488
57373
57267
57131
56996
56909
56854
56812
56752
56690
56670
56656
56630
56608
56588
56589
56619
56654
56665
56650
56610
56516
56370
56194
56003
55830
55679
55561
55494
55438
55377
55345
55358
55378
55370
55355
55313
55217
55130
55076
55050
55110
55267
55459
55690
55976
56267
56544
56832
57163
57532
57927
58353
58806
59267
59691
60092
60519
60930
61278
61574
61802
61931
61977
61992
62030
62060
62014
61901
61763
61638
61550
61512
61533
61588
61644
61690
61712
61707
61679
61630
61601
61590
61554
61480
61379
61276
61167
61036
60898
60755
60605
60442
60271
60126
60001
59843
59655
59491
59395
59366
59398
59500
59625
59705
59741
59782
59880
60040
60196
60308
60412
60516
60581
60586
60501
60360
60214
60050
59894
59758
59622
59516
59438
59343
59196
59031
58907
58806
58728
58675
58586
58460
58355
58268
58176
58086
57969
57824
57710
57640
57594
57593
57609
57597
57564
57487
57379
57264
57144
57038
56923
56802
56726
56695
56670
56619
56528
56438
56376
56300
56194
56114
56063
55971
55847
55775
55749
55710
55668
55640
55613
55585
55557
55510
55424
55314
55218
55150
55121
55134
55232
55438
55718
56080
56519
56973
57413
57846
58298
58814
59387
59954
60443
60834
61161
61462
61724
61915
62033
62120
62240
62407
62601
62770
62851
62864
62871
62869
62864
62894
62945
62978
62977
62953
62944
62980
63020
62988
62900
62835
62817
62797
62742
62661
62527
62351
62189
62050
61916
61815
61760
61713
61639
61532
61408
61285
61182
61105
61053
61018
60977
60935
60927
60953
60954
60912
60872
60870
60903
60927
60911
60877
60825
60753
60679
60621
60569
60516
60457
60355
60204
60029
59862
59722
59568
59378
59192
59048
58921
58806
58757
58769
58781
58748
58664
58554
58421
58273
58156
58082
58006
57906
57812
57771
57784
57822
57843
57805
57723
57618
57472
57310
57191
57120
57068
57018
56969
56948
56950
56933
56879
56773
56637
56505
56393
56330
56321
56313
56279
56252
56234
56190
56125
56066
56008
55951
55897
55834
55747
55595
55414
55251
55083
54917
54761
54596
54437
54329
54289
54259
54211
54176
54153
54147
54139
54083
53985
53849
53706
53597
53492
53401
53391
53506
53755
54091
54470
54904
55401
55960
56560
57168
57774
58380
58987
59581
60129
60598
60972
61269
61544
61828
62082
62256
62353
62413
62485
62590
62687
62726
62714
62693
62668
62601
62498
62423
62422
62483
62560
62623
62667
62683
62691
62690
62655
62591
62499
62372
62228
62069
61894
61716
61555
61443
61365
61293
61231
61177
61132
61080
61031
60983
60903
60802
60729
60712
60731
60785
60867
60964
61076
61157
61184
61174
61098
60969
60845
60726
60582
60415
60267
60172
60099
60003
59922
59884
59865
59877
59922
59930
59855
59745
59626
59476
59281
59086
58962
58912
58873
58810
58735
58646
58558
58460
58332
58225
58138
58014
57841
57670
57545
57449
57388
57363
57309
57234
57200
57200
57179
57129
57063
56964
56817
56645
56501
56433
56423
56431
56418
56339
56203
56046
55893
55775
55702
55676
55689
55714
55715
55675
55598
55468
55329
55247
55207
55167
55090
54985
54885
54777
54639
54514
54455
54423
54359
54283
54258
54261
54202
54098
54026
53968
53855
53697
53538
53387
53248
53115
52962
52809
52710
52663
52635
52615
52577
52545
52578
52675
52824
53049
53371
53769
54199
54641
55108
55609
56135
56668
57214
57752
58262
58764
59279
59796
60247
60603
60894
61104
61248
61372
61464
61532
61596
61650
61681
61696
61704
61679
61592
61498
61422
61348
61283
61189
61056
60953
60900
60840
60766
60741
60764
60780
60777
60735
60619
60443
60237
60010
59775
59581
59473
59430
59425
59453
59503
59561
59599
59588
59524
59412
59261
59122
59055
59062
59091
59122
59159
59183
59172
59130
59078
59022
58928
58810
58734
58689
58633
58581
58521
58421
58315
58237
58165
58062
57955
57879
57819
57760
57692
57616
57517
57368
57183
57002
56824
56666
56523
56378
56271
56204
56120
55994
55851
55702
55533
55372
55273
55246
55274
55327
55373
55409
55431
55438
55431
55378
55275
55145
54997
54852
54724
54624
54567
54537
54504
54451
54367
54254
54140
54049
53972
53897
53820
53736
53643
53546
53455
53381
53321
53261
53181
53089
53025
53003
52994
52974
52936
52897
52854
52822
52799
52757
52689
52584
52443
52289
52155
52058
51994
51957
51940
51920
51907
51955
52086
52272
52501
52800
53227
53778
54376
54971
55561
56133
56657
57145
57611
58026
58382
58710
59016
59278
59474
59613
59710
59759
59738
59658
59559
59473
59420
59380
59326
59257
59154
59014
58860
58709
58591
58543
58547
58522
58447
58374
58317
58242
58140
58022
57888
57765
57690
57675
57671
57633
57581
57532
57482
57434
57421
57449
57493
57547
57601
57648
57693
57743
57784
57817
57842
57844
57836
57825
57783
57740
57693
57591
57464
57350
57219
57068
56922
56796
56683
56571
56459
56356
56282
56213
56134
56056
55973
55919
55903
55869
55785
55661
55489
55306
55187
55112
55045
54997
54959
54909
54814
54699
54637
54637
54641
54601
54554
54547
54551
54529
54486
54411
54309
54209
54093
53941
53783
53671
53633
53610
53557
53499
53432
53358
53274
53152
52994
52843
52764
52731
52668
52559
52437
52364
52326
52263
52167
52062
52001
51966
51899
51824
51787
51773
51744
51698
51651
51618
51617
51634
51654
51725
51896
52141
52425
52786
53234
53736
54251
54737
55194
55635
56098
56610
57113
57549
57943
58315
58621
58850
59026
59149
59244
59340
59434
59489
59486
59454
59389
59284
59150
58988
58830
58729
58679
58620
58550
58504
58496
58531
58590
58643
58670
58650
58578
58474
58346
58189
58022
57883
57775
57660
57514
57370
57253
57166
57134
57146
57155
57141
57120
57109
57118
57152
57195
57233
57253
57226
57154
57059
56956
56859
56768
56675
56580
56486
56390
56308
56247
56181
56109
56050
55994
55936
55859
55747
55617
55495
55385
55275
55162
55049
54942
54849
54780
54721
54656
54594
54548
54516
54485
54448
54390
54299
54198
54111
54027
53935
53871
53849
53840
53831
53827
53812
53760
53681
53591
53480
53338
53195
53077
52964
52836
52696
52575
52465
52356
52278
52226
52168
52100
52043
52010
51986
51965
51966
51972
51946
51911
51864
51782
51690
51613
51552
51476
51364
51211
51038
50883
50740
50621
50587
50598
50561
50472
50390
50350
50336
50351
50426
50576
50829
51222
51703
52207
52723
53235
53740
54240
54725
55220
55728
56209
56664
57133
57608
58043
58402
58685
58932
59148
59287
59357
59404
59441
59468
59496
59524
59537
59509
59431
59331
59239
59190
59174
59122
59028
58937
58859
58799
58784
58820
58887
58932
58888
58765
58615
58479
58374
58250
58088
57949
57834
57679
57513
57396
57297
57184
57086
57045
57053
57078
57078
57042
57022
57034
57039
57005
56947
56916
56894
56857
56847
56850
56837
56816
56781
56730
56693
56652
56544
56383
56219
56038
55866
55765
55702
55615
55515
55439
55396
55373
55357
55340
55321
55263
55114
54906
54688
54468
54257
54047
53848
53684
53568
53494
53416
53347
53314
53264
53172
53085
53017
52950
52901
52891
52915
52952
53005
53048
53015
52911
52807
52728
52636
52521
52410
52297
52206
52148
52064
51938
51823
51763
51731
51676
51587
51470
51351
51247
51153
51106
51116
51115
51056
50965
50900
50857
50818
50766
50678
50561
50413
50254
50122
50016
49910
49779
49625
49474
49363
49314
49302
49297
49318
49411
49604
49879
50192
50545
50966
51466
52033
52642
53292
53990
54705
55368
55948
56484
56992
57445
57826
58122
58332
58472
58552
58545
58439
58283
58149
58041
57920
57823
57762
57698
57612
57523
57473
57437
57343
57199
57046
56914
56859
56849
56794
56711
56645
56591
56556
56536
56501
56438
56383
56329
56236
56094
55933
55787
55678
55641
55673
55739
55803
55864
55950
56023
56014
55953
55908
55896
55885
55859
55856
55853
55820
55817
55849
55874
55886
55861
55780
55691
55609
55486
55335
55214
55107
54986
54851
54689
54498
54305
54140
54003
53860
53723
53643
53600
53545
53468
53372
53259
53157
53077
52979
52840
52709
52626
52575
52553
52555
52547
52505
52470
52438
52357
52262
52186
52106
52004
51871
51731
51627
51544
51464
51420
51421
51426
51381
51278
51168
51104
51080
51055
51008
50927
50797
50629
50457
50287
50099
49926
49830
49784
49735
49683
49625
49577
49538
49482
49388
49273
49207
49220
49301
49462
49688
49944
50240
50576
50949
51381
51854
52324
52803
53327
53897
54472
55014
55492
55871
56163
56406
56624
56827
56998
57145
57280
57369
57381
57314
57209
57094
56968
56871
56795
56667
56489
56311
56141
55965
55803
55708
55660
55592
55522
55474
55415
55332
55222
55067
54869
54670
54508
54367
54235
54134
54093
54087
54052
53967
53882
53873
53948
54052
54126
54155
54140
54102
54105
54144
54165
54158
54127
54073
54025
53988
53912
53782
53633
53493
53385
53300
53233
53193
53157
53085
52989
52911
52849
52783
52701
52596
52484
52376
52262
52120
51974
51884
51825
51728
51604
51503
51435
51380
51331
51285
51240
51200
51168
51122
51008
50860
50736
50591
50426
50306
50234
50186
50135
50070
50032
50005
49919
49790
49673
49581
49511
49445
49371
49317
49307
49325
49355
49374
49345
49261
49134
48975
48797
48611
48422
48215
48005
47823
47681
47612
47604
47611
47652
47714
47745
47779
47879
48049
48280
48567
48904
49309
49806
50394
51021
51619
52176
52721
53279
53856
54432
54966
55419
55781
56078
56331
56546
56709
56822
56877
56834
56727
56624
56532
56435
56292
56099
55895
55724
55598
55509
55438
55339
55241
55205
55189
55130
55043
54966
54903
54832
54729
54602
54466
54316
54174
54088
54058
54040
54014
53956
53861
53745
53658
53640
53681
53757
53822
53820
53777
53737
53687
53637
53644
53695
53731
53743
53748
53745
53745
53754
53763
53751
53707
53641
53547
53430
53308
53186
53035
52853
52682
52542
52420
52324
52274
52256
52232
52173
52067
51953
51904
51909
51887
51818
51720
51605
51495
51372
51227
51088
50974
50899
50836
50761
50689
50656
50667
50692
50705
50706
50720
50733
50680
50568
50480
50439
50391
50291
50168
50088
50060
50045
49985
49887
49778
49662
49539
49406
49296
49248
49250
49262
49258
49241
49203
49135
49035
48891
48697
48502
48387
48354
48354
48370
48419
48563
48808
49107
49464
49899
50387
50907
51460
52031
52603
53165
53749
54348
54884
55349
55763
56136
56504
56868
57173
57365
57449
57505
57534
57470
57317
57127
56955
56801
56640
56510
56448
56427
56411
56378
56322
56254
56203
56189
56184
56160
56150
56141
56069
55941
55806
55651
55457
55279
55182
55129
55036
54927
54860
54803
54718
54618
54535
54518
54551
54567
54582
54616
54636
54645
54679
54736
54800
54851
54851
54805
54732
54656
54599
54557
54519
54483
54444
54390
54302
54224
54181
54127
54043
53931
53772
53586
53423
53289
53165
53039
52905
52780
52686
52622
52570
52525
52481
52435
52392
52332
52254
52196
52156
52115
52068
52018
51964
51904
51827
51727
51614
51499
51373
51268
51199
51146
51107
51074
51036
50978
50926
50904
50895
50900
50907
50909
50917
50936
50930
50872
50805
50721
50590
50462
50362
50263
50157
50077
50011
49899
49757
49642
49555
49470
49390
49331
49282
49244
49230
49241
49260
49298
49397
49583
49857
50185
50539
50937
51382
51844
52329
52865
53461
54104
54746
55326
55845
56336
56792
57200
57536
57779
57911
57946
57956
57978
58000
57985
57914
57842
57804
57771
57721
57664
57604
57512
57400
57301
57202
57106
57039
56967
56841
56663
56448
56210
56000
55877
55841
55840
55811
55770
55742
55688
55600
55510
55433
55361
55312
55332
55413
55489
55540
55619
55744
55854
55912
55964
56032
56071
56068
56071
56101
56102
56038
55946
55855
55780
55720
55621
55449
55255
55109
54995
54876
54763
54669
54598
54541
54487
54421
54332
54234
54121
53973
53816
53674
53542
53426
53352
53303
53231
53139
53068
53005
52923
52828
52698
52548
52451
52399
52315
52178
52047
51947
51855
51771
51665
51551
51503
51516
51535
51550
51557
51506
51398
51272
51115
50942
50791
50675
50583
50527
50500
50457
50397
50321
50212
50078
49938
49800
49677
49612
49601
49614
49671
49783
49901
49999
50136
50352
50625
50956
51325
51680
52009
52341
52722
53213
53777
54311
54799
55278
55730
56113
56452
56753
56962
57063
57104
57155
57221
57244
57182
57061
56958
56888
56818
56742
56663
56585
56509
56445
56373
56295
56227
56167
56148
56135
56062
55940
55777
55589
55438
55336
55249
55173
55115
55112
55135
55122
55079
55028
55007
55042
55092
55103
55090
55089
55087
55072
55042
54991
54921
54857
54813
54792
54785
54754
54693
54612
54508
54414
54389
54405
54401
54382
54368
54330
54241
54117
53963
53762
53550
53398
53291
53192
53135
53092
53018
52964
52952
52935
52867
52729
52534
52332
52172
52067
52025
52015
51975
51904
51841
51770
51657
51535
51448
51392
51355
51326
51254
51149
51060
50995
50960
50922
50853
50777
50713
50680
50656
50611
50538
50441
50333
50187
50000
49816
49660
49529
49405
49275
49154
49059
48987
48964
49000
49047
49101
49196
49339
49548
49841
50233
50689
51146
51611
52115
52690
53337
53990
54612
55215
55756
56219
56675
57114
57457
57694
57843
57937
58000
58035
58091
58168
58193
58164
58124
58059
57973
57908
57861
57841
57840
57823
57787
57744
57723
57709
57654
57564
57488
57437
57397
57347
57242
57087
56921
56766
56628
56481
56339
56262
56244
56242
56267
56299
56266
56183
56109
56042
55968
55887
55846
55842
55807
55745
55708
55718
55738
55698
55600
55482
55352
55226
55124
55037
54931
54827
54759
54701
54623
54522
54409
54314
54228
54115
53982
53849
53707
53568
53479
53451
53473
53514
53513
53447
53343
53248
53201
53187
53176
53171
53158
53107
53019
52915
52809
52704
52594
52474
52366
52306
52266
52205
52141
52078
51996
51893
51781
51693
51660
51667
51669
51663
51666
51678
51660
51563
51429
51328
51243
51134
51005
50877
50778
50704
50629
50574
50526
50430
50306
50198
50116
50080
50143
50318
50583
50947
51384
51848
52356
52900
53427
53927
54438
54967
55476
55970
56474
56961
57390
57762
58081
58373
58638
58844
59001
59118
59177
59199
59219
59232
59220
59165
59072
58962
58867
58789
58711
58650
58584
58512
58484
58514
58561
58590
58611
58626
58624
58601
58560
58499
58372
58168
57959
57783
57631
57505
57394
57241
57069
56954
56859
56725
56586
56482
56382
56294
56268
56307
56377
56440
56450
56416
56392
56376
56346
56295
56231
56138
56018
55915
55845
55789
55714
55600
55441
55274
55139
55036
54989
54990
54988
54963
54941
54905
54800
54643
54474
54308
54169
54054
53935
53795
53622
53446
53332
53303
53319
53343
53377
53396
53387
53365
53310
53214
53086
52940
52809
52715
52676
52684
52713
52724
52684
52628
52595
52578
52565
52570
52570
52493
52346
52181
52041
51972
51952
51918
51838
51716
51594
51482
51368
51259
51138
51024
50940
50852
50773
50737
50725
50733
50792
50924
51098
51324
51672
52126
52647
53228
53854
54504
55161
55808
56403
56933
57413
57837
58241
58665
59080
59420
59669
59849
59934
59932
59900
59865
59861
59863
59831
59807
59787
59720
59619
59535
59492
59477
59460
59391
59245
59071
58914
58771
58653
58568
58504
58455
58430
58396
58297
58143
57960
57783
57652
57539
57420
57326
57280
57289
57328
57385
57450
57504
57559
57621
57669
57677
57623
57520
57410
57329
57268
57184
57086
57030
57017
56984
56896
56788
56711
56653
56579
56504
56428
56339
56261
56200
56140
56080
56029
55970
55894
55798
55673
55524
55383
55267
55172
55086
54987
54883
54810
54757
54675
54564
54450
54351
54299
54249
54170
54088
54015
53979
53988
54005
54011
54014
54032
54049
54030
53969
53867
53763
53681
53599
53533
53465
53369
53266
53152
53058
52993
52933
52909
52894
52831
52734
52634
52532
52413
52288
52173
52077
52019
51990
51966
51958
51996
52103
52279
52527
52848
53217
53656
54188
54776
55371
55982
56618
57216
57710
58121
58530
58943
59321
59666
59960
60145
60229
60286
60348
60363
60277
60116
59947
59797
59666
59542
59400
59268
59180
59134
59108
59100
59083
59000
58876
58757
58646
58552
58450
58306
58127
57906
57650
57402
57204
57050
56911
56817
56771
56721
56673
56662
56664
56645
56622
56637
56665
56665
56661
56685
56757
56857
56941
56960
56888
56757
56637
56574
56532
56443
56330
56268
56255
56232
56173
56079
55952
55779
55573
55381
55223
55105
55028
54958
54874
54791
54716
54649
54573
54462
54329
54223
54137
54047
53962
53872
53746
53594
53468
53381
53288
53164
53043
52984
52969
52950
52912
52841
52738
52639
52588
52573
52557
52532
52508
52482
52447
52387
52262
52093
51953
51835
51680
51509
51399
51331
51224
51070
50928
50817
50719
50637
50573
50545
50602
50785
51080
51428
51808
52234
52704
53210
53721
54233
54761
55300
55846
56363
56844
57311
57763
58186
58556
58845
59044
59178
59294
59425
59547
59614
59625
59580
59464
59287
59112
58985
58895
58849
58821
58792
58802
58846
58869
58828
58763
58715
58644
58527
58406
58331
58301
58264
58180
58086
58024
57955
57857
57751
57617
57469
57382
57349
57337
57336
57317
57291
57260
57202
57152
57116
57048
56921
56773
56677
56654
56679
56711
56716
56665
56582
56511
56450
56406
56363
56274
56147
55989
55806
55629
55455
55274
55097
54937
54808
54742
54728
54726
54706
54661
54589
54464
54300
54125
53938
53764
53616
53501
53438
53378
53314
53282
53269
53274
53296
53315
53304
53279
53283
53283
53251
53229
53215
53145
53023
52910
52833
52768
52680
52572
52472
52404
52368
52345
52333
52323
52293
52226
52122
52000
51861
51722
51600
51479
51350
51223
51121
51038
50944
50805
50648
50553
50498
50441
50401
50379
50415
50524
50670
50870
51165
51560
52022
52522
53070
53633
54178
54710
55220
55746
56339
56957
57543
58077
58522
58902
59241
59510
59737
59964
60153
60275
60355
60392
60366
60288
60215
60159
60058
59940
59882
59873
59868
59862
59863
59861
59850
59835
59803
59762
59726
59688
59634
59554
59452
59369
59306
59221
59107
58964
58803
58658
58534
58419
58294
58147
58010
57919
57869
57837
57804
57739
57608
57450
57341
57264
57197
57179
57182
57142
57055
56969
56939
56955
56990
57030
57019
56937
56820
56673
56518
56411
56320
56196
56086
56002
55895
55785
55695
55612
55540
55434
55286
55134
54988
54853
54739
54673
54664
54695
54725
54714
54655
54544
54409
54294
54197
54126
54076
54008
53914
53792
53683
53602
53493
53367
53293
53293
53317
53304
53247
53177
53113
53020
52898
52801
52756
52766
52780
52762
52721
52663
52583
52444
52247
52038
51859
51751
51675
51576
51498
51465
51425
51338
51204
51078
51010
50966
50957
51045
51250
51554
51888
52233
52629
53069
53546
54052
54565
55105
55691
56274
56824
57377
57963
58538
59014
59363
59630
59848
60018
60141
60197
60203
60196
60152
60058
59963
59925
59930
59900
59836
59786
59764
59798
59862
59874
59848
59839
59852
59865
59843
59740
59596
59467
59322
59160
59019
58888
58781
58715
58664
58602
58502
58393
58286
58156
58022
57907
57817
57775
57781
57820
57874
57900
57896
57893
57877
57835
57779
57730
57733
57767
57786
57781
57729
57642
57535
57409
57310
57272
57249
57194
57146
57110
57057
57018
56981
56907
56823
56749
56656
56514
56334
56152
55958
55760
55594
55470
55400
55361
55309
55244
55173
55062
54946
54900
54895
54865
54828
54813
54804
54792
54795
54794
54745
54633
54471
54300
54186
54115
54026
53913
53804
53727
53695
53673
53597
53462
53303
53163
53069
52998
52939
52885
52831
52776
52704
52628
52562
52500
52391
52236
52084
51952
51854
51780
51736
51712
51657
51585
51567
51621
51746
51938
52175
52458
52773
53121
53536
54033
54602
55179
55737
56314
56882
57401
57874
58298
58679
59017
59323
59596
59826
60051
60257
60403
60477
60500
60511
60506
60483
60438
60368
60310
60279
60232
60104
59925
59747
59543
59341
59205
59121
59033
58931
58824
58707
58579
58445
58310
58184
58079
57992
57909
57839
57818
57829
57824
57779
57714
57689
57711
57731
57723
57683
57618
57547
57476
57392
57306
57256
57221
57152
57054
56932
56766
56551
56298
56029
55776
55544
55355
55249
55223
55217
55159
55028
54886
54798
54767
54741
54677
54577
54474
54416
54396
54358
54276
54130
53935
53730
53539
53369
53216
53061
52909
52777
52646
52536
52503
52513
52501
52476
52444
52406
52386
52376
52355
52309
52240
52172
52117
52073
52032
51955
51836
51710
51583
51484
51454
51462
51462
51449
51394
51325
51284
51220
51144
51130
51183
51273
51366
51429
51458
51518
51683
51936
52246
52635
53093
53567
54058
54612
55233
55868
56475
57041
57536
57965
58336
58656
58974
59282
59535
59733
59897
60015
60086
60107
60038
59885
59704
59554
59457
59367
59238
59066
58883
58739
58654
58620
58593
58534
58462
58422
58424
58435
58415
58360
58286
58202
58096
57997
57929
57881
57816
57689
57517
57355
57215
57098
57010
56932
56836
56728
56633
56559
56517
56483
56449
56438
56441
56456
56455
56434
56441
56458
56446
56409
56331
56187
56002
55827
55670
55527
55387
55246
55143
55080
55020
54929
54802
54666
54522
54393
54313
54285
54270
54220
54159
54113
54069
54035
54012
53983
53912
53783
53654
53540
53394
53245
53155
53122
53083
53010
52944
52902
52886
52888
52871
52810
52705
52602
52528
52447
52346
52233
52121
52039
52004
51983
51921
51818
51733
51667
51563
51420
51265
51123
51004
50881
50773
50734
50761
50828
50913
50992
51029
51036
51085
51186
51328
51543
51838
52193
52592
53016
53436
53856
54321
54882
55498
56086
56620
57129
57626
58093
58541
58973
59368
59703
59992
60221
60357
60420
60455
60462
60407
60322
60229
60108
60003
59941
59887
59858
59852
59807
59714
59624
59559
59478
59396
59376
59397
59401
59349
59223
59069
58954
58849
58702
58533
58382
58263
58137
57986
57854
57748
57649
57563
57500
57454
57388
57296
57212
57147
57084
57018
56957
56908
56901
56934
56966
56962
56924
56851
56756
56683
56666
56690
56708
56669
56586
56473
56331
56179
56033
55903
55774
55648
55552
55486
55451
55432
55404
55367
55330
55305
55274
55191
55062
54919
54770
54611
54448
54282
54109
53939
53800
53697
53606
53518
53425
53328
53266
53251
53256
53267
53263
53217
53127
53025
52946
52890
52855
52828
52771
52675
52558
52444
52342
52241
52147
52069
51999
51922
51819
51697
51586
51520
51507
51503
51483
51466
51481
51521
51556
51592
51667
51820
52062
52374
52742
53162
53619
54110
54648
55263
55945
56649
57314
57904
58431
58892
59269
59591
59901
60166
60343
60481
60588
60592
60525
60455
60357
60205
60048
59957
59925
59903
59893
59909
59930
59902
59830
59769
59702
59599
59469
59312
59132
58947
58779
58662
58608
58607
58644
58697
58736
58735
58680
58572
58431
58293
58170
58067
58001
58000
58053
58110
58166
58234
58304
58375
58452
58514
58520
58487
58454
58412
58344
58244
58115
57973
57822
57655
57479
57310
57166
57049
56909
56752
56652
56604
56551
56478
56408
56335
56202
56017
55861
55759
55683
55613
55533
55463
55418
55385
55338
55244
55086
54912
54776
54645
54511
54385
54271
54187
54134
54085
54004
53925
53877
53844
53845
53875
53866
53804
53758
53731
53673
53588
53480
53379
53298
53221
53147
53050
52925
52797
52696
52617
52513
52372
52202
52029
51899
51803
51715
51638
51575
51560
51630
51759
51909
52080
52321
52681
53159
53737
54378
55021
55635
56231
56827
57404
57943
58427
58840
59186
59477
59700
59833
59871
59864
59862
59823
59725
59627
59562
59499
59424
59323
59185
59034
58896
58780
58721
58737
58800
58837
58793
58680
58525
58363
58227
58112
57996
57886
57781
57642
57473
57335
57273
57269
57288
57302
57288
57263
57230
57182
57145
57111
57064
57016
56974
56936
56888
56854
56879
56944
57006
57064
57130
57193
57206
57159
57085
56982
56855
56693
56514
56387
56313
56249
56159
56035
55904
55762
55592
55407
55227
55057
54898
54782
54715
54668
54629
54596
54562
54538
54542
54558
54573
54554
54472
54373
54278
54153
54005
53877
53787
53695
53591
53511
53462
53430
53401
53389
53378
53326
53246
53166
53100
53031
52968
52931
52906
52852
52750
52648
52555
52438
52318
52200
52069
51942
51839
51769
51749
51822
51968
52141
52342
52570
52852
53241
53726
54240
54723
55165
55590
56033
56500
56977
57464
57944
58428
58894
59293
59622
59884
60094
60225
60273
60274
60240
60193
60113
59976
59838
59761
59722
59674
59639
59608
59521
59384
59254
59164
59098
59024
58935
58832
58716
58600
58499
58428
58383
58327
58216
58033
57806
57575
57381
57227
57094
57007
56982
56990
57015
57032
57027
57005
56996
57006
56990
56934
56853
56785
56779
56834
56894
56887
56818
56734
56650
56554
56431
56291
56130
55981
55914
55904
55883
55859
55838
55789
55712
55651
55596
55500
55373
55226
55053
54868
54713
54608
54498
54353
54225
54165
54144
54138
54143
54116
54074
54064
54080
54098
54077
54034
53985
53901
53784
53637
53470
53332
53247
53212
53193
53124
53026
52988
53023
53070
53069
53011
52939
52879
52790
52648
52478
52282
52059
51848
51678
51543
51429
51355
51368
51471
51629
51838
52111
52413
52715
53038
53394
53812
54323
54882
55433
55982
56543
57123
57698
58195
58618
59036
59427
59716
59918
60093
60241
60345
60435
60541
60632
60644
60604
60553
60458
60312
60177
60112
60108
60153
60235
60316
60375
60394
60380
60374
60352
60235
60058
59885
59692
59496
59351
59272
59214
59130
59040
58964
58900
58838
58762
58680
58597
58478
58323
58210
58160
58146
58164
58178
58159
58145
58161
58176
58157
58139
58149
58152
58144
58147
58163
58174
58124
58016
57921
57837
57711
57546
57368
57195
57027
56873
56714
56572
56508
56493
56454
56395
56347
56328
56315
56290
56242
56143
56028
55935
55859
55774
55668
55562
55467
55387
55316
55239
55151
55075
55022
54967
54898
54834
54775
54673
54539
54454
54423
54405
54404
54396
54349
54284
54186
54065
53946
53824
53732
53683
53611
53498
53410
53382
53357
53299
53221
53119
52990
52828
52650
52516
52456
52466
52556
52742
53006
53320
53715
54181
54667
55180
55707
56228
56767
57319
57867
58410
58940
59460
59960
60387
60724
61011
61260
61429
61481
61461
61448
61440
61411
61349
61215
61032
60870
60732
60618
60545
60506
60508
60534
60549
60523
60436
60309
60167
60027
59885
59736
59600
59495
59407
59315
59251
59222
59192
59144
59065
58972
58879
58774
58688
58651
58626
58574
58525
58534
58601
58657
58658
58639
58604
58535
58452
58375
58307
58253
58215
58183
58165
58179
58177
58098
57981
57888
57810
57704
57543
57331
57082
56823
56602
56467
56411
56368
56273
56150
56030
55906
55822
55774
55690
55564
55417
55238
55067
54948
54850
54745
54657
54604
54571
54559
54565
54574
54544
54476
54415
54350
54278
54181
54066
53966
53866
53784
53757
53782
53822
53836
53822
53766
53679
53603
53522
53420
53308
53170
53041
52929
52797
52643
52475
52310
52198
52157
52151
52187
52307
52508
52778
53126
53541
53999
54482
54977
55463
55928
56408
56944
57526
58086
58563
58950
59290
59597
59839
60001
60101
60144
60129
60096
60057
59981
59874
59733
59574
59435
59294
59139
59004
58931
58917
58947
58987
58993
58989
58970
58893
58764
58580
58345
58082
57851
57706
57610
57530
57464
57396
57327
57249
57158
57070
57007
56973
56963
57001
57105
57251
57417
57572
57690
57764
57785
57786
57768
57675
57546
57463
57408
57313
57176
57061
57008
56969
56888
56774
56629
56443
56257
56125
56035
55963
55915
55856
55778
55730
55695
55633
55571
55494
55334
55120
54912
54698
54491
54341
54275
54252
54222
54177
54108
54017
53908
53790
53683
53589
53518
53486
53448
53390
53364
53388
53420
53415
53407
53405
53347
53208
53038
52879
52716
52569
52470
52400
52345
52275
52175
52091
52065
52075
52101
52147
52202
52267
52353
52498
52694
52914
53202
53573
53998
54496
55047
55564
56051
56566
57108
57632
58072
58413
58718
59019
59296
59542
59760
59937
60062
60131
60130
60074
60019
59960
59861
59721
59557
59382
59202
59027
58873
58748
58646
58567
58515
58478
58450
58432
58406
58326
58175
57979
57787
57640
57527
57475
57496
57537
57547
57538
57530
57498
57451
57445
57489
57539
57564
57551
57535
57574
57652
57735
57806
57837
57810
57716
57588
57510
57465
57396
57301
57193
57084
56969
56875
56804
56719
56612
56484
56352
56196
56006
55824
55652
55488
55366
55307
55296
55268
55202
55124
55011
54850
54684
54568
54513
54465
54400
54342
54283
54212
54166
54146
54104
54008
53902
53843
53797
53744
53720
53723
53699
53638
53550
53402
53230
53087
52943
52782
52632
52528
52479
52483
52500
52499
52489
52470
52479
52552
52689
52863
53058
53292
53555
53882
54334
54894
55501
56086
56623
57121
57597
58062
58494
58870
59190
59467
59721
59978
60220
60401
60515
60596
60650
60680
60703
60708
60701
60673
60608
60552
60538
60550
60571
60589
60606
60628
60643
60615
60508
60329
60130
59953
59805
59678
59605
59564
59478
59326
59156
59012
58867
58732
58657
58610
58540
58474
58449
58469
58515
58554
58580
58572
58527
58458
58362
58277
58236
58220
58202
58176
58146
58095
58018
57920
57833
57806
57826
57859
57872
57858
57848
57834
57774
57672
57556
57440
57331
57236
57138
57046
56978
56919
56849
56767
56667
56507
56294
56073
55844
55609
55423
55307
55237
55194
55163
55145
55116
55063
55047
55066
55054
54996
54944
54925
54922
54914
54874
54809
54752
54696
54623
54552
54495
54467
54445
54397
54332
54241
54141
54058
53948
53801
53688
53616
53522
53433
53421
53482
53556
53613
53712
53919
54198
54482
54801
55219
55720
56245
56785
57377
58024
58676
59297
59848
60291
60642
60920
61127
61256
61325
61382
61479
61587
61636
61636
61611
61554
61486
61448
61455
61489
61515
61516
61497
61478
61482
61507
61527
61505
61428
61312
61192
61091
60986
60864
60738
60599
60429
60224
60015
59873
59789
59680
59562
59506
59516
59561
59609
59630
59621
59579
59494
59378
59263
59196
59170
59142
59093
59035
58983
58950
58939
58928
58906
58897
58889
58870
58875
58891
58884
58863
58820
58715
58536
58305
58067
57858
57679
57537
57431
57356
57325
57301
57238
57139
57014
56866
56718
56602
56521
56458
56395
56342
56326
56338
56354
56357
56305
56163
55978
55799
55639
55549
55541
55541
55479
55372
55285
55243
55221
55199
55161
55090
54998
54878
54742
54641
54575
54514
54433
54312
54174
54072
53971
53841
53723
53635
53578
53550
53561
53626
53738
53870
54003
54167
54390
54694
55065
55447
55815
56218
56682
57196
57764
58337
58858
59330
59723
60026
60297
60571
60819
60998
61092
61124
61111
61063
61020
60994
60977
60962
60918
60838
60735
60613
60526
60475
60415
60355
60299
60250
60182
60092
60003
59881
59737
59621
59541
59495
59455
59387
59286
59165
59057
58991
58956
58917
58834
58721
58644
58629
58651
58671
58655
58619
58589
58527
58439
58371
58298
58216
58140
58070
58012
57962
57920
57888
57881
57916
57975
58018
58009
57934
57777
57581
57415
57284
57186
57089
56943
56762
56577
56419
56289
56157
56038
55964
55926
55918
55937
55952
55924
55862
55809
55778
55729
55640
55540
55439
55316
55145
54969
54873
54852
54837
54802
54764
54732
54728
54726
54670
54582
54482
54362
54252
54173
54095
53988
53881
53782
53668
53553
53478
53450
53418
53345
53238
53113
52975
52850
52793
52794
52791
52812
52951
53210
53512
53815
54167
54600
55054
55514
56037
56642
57302
57950
58504
58959
59372
59757
60091
60379
60599
60727
60820
60881
60857
60763
60599
60400
60256
60162
60060
59946
59814
59673
59557
59444
59304
59152
59005
58879
58828
58825
58805
58761
58665
58520
58386
58293
58247
58225
58195
58172
58151
58085
58000
57970
58010
58080
58150
58224
58301
58347
58316
58233
58179
58159
58111
58023
57954
57908
57839
57766
57718
57654
57558
57440
57290
57135
57018
56926
56809
56674
56559
56472
56408
56345
56252
56135
56019
55922
55853
55819
55817
55807
55727
55585
55435
55311
55233
55204
55201
55188
55148
55099
55041
54947
54809
54665
54558
54483
54430
54381
54318
54255
54214
54213
54238
54231
54159
54042
53920
53815
53705
53597
53527
53495
53466
53424
53376
53296
53171
53009
52808
52621
52489
52369
52245
52172
52199
52312
52489
52724
53006
53354
53783
54285
54857
55473
56077
56677
57273
57824
58341
58842
59305
59712
60076
60399
60669
60847
60953
61055
61154
61242
61305
61299
61233
61172
61131
61104
61086
61067
61043
61013
60942
60811
60643
60485
60366
60279
60231
60221
60249
60277
60251
60172
60055
59928
59839
59762
59641
59521
59435
59351
59281
59246
59233
59224
59220
59245
59262
59239
59238
59288
59358
59406
59404
59343
59237
59122
59025
58942
58858
58781
58737
58724
58704
58636
58517
58387
58265
58113
57940
57805
57708
57615
57522
57440
57352
57235
57126
57030
56920
56811
56698
56566
56406
56233
56102
56002
55868
55708
55552
55424
55357
55312
55260
55233
55224
55201
55160
55088
54989
54883
54771
54663
54592
54562
54522
54439
54337
54229
54105
53981
53878
53794
53726
53666
53606
53546
53486
53414
53313
53190
53082
53044
53060
53070
53087
53151
53255
53427
53723
54132
54611
55134
55670
56215
56759
57270
57771
58311
58879
59417
59885
60315
60706
60989
61149
61252
61368
61491
61605
61714
61794
61806
61712
61527
61322
61183
61102
61023
60964
60920
60863
60810
60773
60770
60797
60834
60860
60855
60799
60689
60565
60442
60307
60155
59992
59822
59636
59431
59222
59057
58966
58913
58837
58749
58686
58628
58567
58532
58532
58530
58532
58568
58646
58768
58903
59015
59084
59087
59002
58851
58686
58535
58383
58234
58120
58032
57948
57856
57752
57632
57511
57412
57323
57229
57116
56987
56862
56754
56660
56550
56394
56194
56007
55864
55752
55700
55680
55612
55515
55468
55472
55488
55475
55388
55251
55113
54994
54909
54867
54842
54803
54763
54736
54711
54672
54615
54532
54439
54366
54279
54152
54018
53888
53757
53613
53431
53226
53030
52853
52743
52727
52772
52856
52962
53063
53159
53268
53402
53618
53953
54355
54755
55158
55606
56125
56709
57303
57851
58358
58858
59345
59792
60152
60418
60643
60836
60947
60977
60967
60905
60791
60654
60534
60474
60468
60485
60517
60552
60558
60520
60444
60327
60172
60007
59859
59721
59582
59445
59290
59107
58911
58725
58565
58419
58297
58242
58250
58290
58350
58416
58494
58552
58572
58605
58665
58733
58787
58817
58848
58893
58932
58941
58907
58825
58699
58538
58357
58205
58109
58049
57989
57921
57853
57785
57724
57670
57601
57494
57356
57225
57124
57041
56968
56906
56852
56801
56744
56674
56613
56536
56411
56252
56088
55935
55769
55602
55495
55430
55349
55246
55153
55101
55094
55114
55114
55060
54981
54894
54787
54655
54489
54325
54213
54143
54098
54079
54085
54110
54123
54086
54004
53937
53902
53862
53772
53626
53469
53368
53383
53494
53630
53786
54009
54333
54738
55180
55669
56237
56875
57519
58143
58733
59236
59651
60039
60394
60690
60944
61136
61247
61321
61381
61414
61403
61346
61250
61124
60991
60887
60822
60799
60789
60732
60629
60556
60505
60400
60239
60076
59960
59896
59858
59828
59786
59715
59623
59520
59408
59279
59144
59020
58905
58800
58722
58686
58668
58654
58643
58614
58573
58554
58582
58647
58726
58800
58846
58861
58875
58883
58846
58764
58679
58600
58507
58410
58315
58210
58084
57945
57813
57691
57584
57484
57365
57218
57052
56867
56654
56449
56326
56267
56217
56182
56150
56101
56013
55891
55761
55647
55596
55582
55547
55497
55457
55454
55491
55532
55531
55487
55441
55387
55276
55108
54909
54690
54496
54355
54224
54074
53936
53829
53759
53749
53785
53832
53876
53902
53874
53751
53583
53441
53339
53282
53260
53265
53309
53406
53576
53844
54192
54593
55057
55571
56118
56662
57204
57788
58404
59003
59529
59984
60399
60751
61050
61301
61507
61682
61829
61974
62092
62109
62058
62012
61981
61989
62016
62013
62009
62014
61996
61980
61982
61968
61914
61841
61789
61734
61614
61454
61331
61237
61123
60963
60784
60653
60556
60428
60267
60132
60047
59975
59885
59774
59674
59621
59601
59576
59542
59533
59546
59534
59507
59524
59578
59639
59678
59679
59650
59575
59442
59292
59175
59108
59051
58952
58814
58678
58528
58355
58189
58045
57940
57875
57801
57670
57508
57372
57268
57200
57153
57100
57025
56925
56824
56733
56646
56560
56478
56405
56314
56159
55957
55773
55639
55542
55488
55451
55384
55304
55230
55172
55150
55119
55021
54888
54764
54632
54511
54434
54383
54335
54275
54225
54202
54187
54183
54171
54116
54023
53902
53744
53538
53300
53090
52952
52871
52821
52788
52765
52739
52689
52615
52539
52503
52535
52628
52766
52948
53205
53549
53956
54422
54954
55552
56176
56780
57389
58021
58635
59198
59700
60122
60457
60739
61004
61257
61478
61639
61736
61780
61781
61767
61763
61737
61649
61543
61460
61393
61365
61377
61402
61432
61466
61497
61518
61513
61453
61332
61174
61002
60835
60674
60533
60403
60264
60131
60019
59927
59848
59784
59731
59684
59658
59630
59580
59536
59516
59519
59528
59503
59457
59446
59445
59426
59415
59415
59418
59395
59317
59184
59043
58936
58869
58818
58748
58662
58572
58484
58399
58327
58259
58165
58054
57956
57876
57810
57728
57597
57423
57233
57062
56907
56742
56562
56390
56250
56136
56023
55903
55812
55769
55750
55740
55717
55680
55642
55564
55433
55306
55208
55110
54987
54855
54743
54665
54611
54569
54529
54473
54404
54334
54262
54197
54151
54106
54042
53965
53875
53788
53710
53623
53514
53398
53284
53166
53060
52986
52930
52863
52781
52693
52615
52569
52566
52614
52716
52878
53103
53402
53775
54195
54639
55095
55577
56108
56678
57257
57826
58371
58888
59385
59847
60252
60599
60880
61084
61192
61213
61186
61134
61069
61004
60941
60864
60772
60671
60575
60493
60419
60346
60274
60208
60151
60093
60032
59972
59913
59845
59765
59678
59580
59471
59358
59252
59153
59053
58973
58929
58883
58805
58717
58639
58581
58532
58475
58424
58401
58399
58398
58393
58389
58386
58387
58395
58390
58347
58277
58206
58144
58080
58005
57938
57872
57766
57623
57471
57308
57131
56975
56899
56880
56859
56807
56679
56510
56384
56282
56176
56096
56038
55953
55810
55618
55418
55260
55152
55033
54903
54802
54699
54582
54467
54343
54244
54195
54142
54088
54085
54095
54065
54001
53901
53791
53731
53699
53639
53539
53420
53311
53212
53118
53064
53062
53074
53083
53112
53143
53139
53113
53072
53013
52921
52764
52580
52450
52369
52285
52186
52075
51958
51844
51736
51648
51595
51585
51619
51701
51848
52084
52427
52855
53333
53828
54323
54826
55348
55886
56407
56901
57393
57874
58313
58688
58985
59210
59365
59439
59477
59515
59539
59538
59493
59404
59290
59155
59015
58906
58845
58819
58785
58694
58554
58392
58220
58052
57900
57785
57736
57711
57635
57506
57363
57241
57145
57056
56965
56877
56816
56804
56827
56846
56854
56879
56894
56888
56897
56938
57033
57148
57207
57198
57177
57181
57182
57173
57170
57185
57200
57171
57106
57046
56979
56853
56687
56520
56343
56169
56010
55863
55763
55725
55737
55747
55716
55649
55556
55474
55405
55335
55259
55154
55021
54904
54818
54713
54585
54462
54354
54255
54141
54004
53888
53813
53738
53656
53601
53556
53516
53504
53525
53585
53646
53662
53649
53603
53521
53428
53330
53196
53049
52956
52907
52837
52747
52678
52615
52535
52432
52321
52260
52244
52227
52214
52214
52266
52438
52720
53069
53462
53858
54245
54670
55176
55744
56359
57010
57631
58160
58589
58918
59183
59429
59636
59811
59967
60064
60083
60068
60052
60026
59996
59963
59903
59787
59638
59501
59372
59221
59050
58888
58771
58690
58620
58600
58641
58670
58629
58547
58444
58335
58249
58187
58148
58121
58059
57945
57819
57732
57683
57657
57664
57705
57765
57824
57872
57907
57925
57916
57888
57849
57794
57727
57670
57637
57628
57624
57606
57579
57560
57528
57460
57373
57274
57183
57076
56901
56677
56418
56159
55974
55854
55749
55662
55603
55554
55502
55464
55410
55277
55099
54976
54923
54884
54800
54678
54581
54522
54482
54470
54456
54429
54431
54436
54370
54234
54064
53889
53745
53639
53539
53424
53313
53228
53179
53168
53144
53074
52987
52880
52755
52636
52515
52399
52324
52278
52219
52163
52134
52130
52196
52344
52539
52792
53122
53532
54007
54522
55046
55559
56094
56662
57205
57701
58207
58744
59272
59766
60201
60555
60847
61085
61282
61449
61550
61560
61477
61318
61136
60994
60904
60858
60838
60791
60707
60615
60539
60511
60549
60608
60597
60538
60520
60525
60485
60384
60237
60095
60004
59937
59853
59744
59602
59465
59369
59315
59299
59305
59283
59204
59085
58946
58809
58721
58693
58685
58679
58703
58752
58785
58792
58790
58803
58830
58824
58795
58784
58749
58660
58560
58458
58357
58300
58294
58281
58235
58162
58030
57853
57674
57498
57364
57263
57163
57064
56924
56721
56513
56346
56179
55996
55829
55674
55555
55521
55546
55551
55526
55520
55536
55545
55545
55554
55546
55476
55375
55271
55154
55050
54947
54819
54690
54594
54531
54462
54382
54301
54193
54051
53905
53796
53723
53651
53591
53558
53516
53483
53493
53541
53630
53763
53960
54206
54492
54851
55292
55818
56401
56987
57558
58143
58754
59356
59904
60409
60867
61255
61597
61882
62078
62186
62215
62206
62196
62163
62087
61979
61866
61781
61717
61679
61688
61699
61674
61639
61610
61565
61451
61272
61094
60943
60808
60678
60528
60363
60211
60043
59866
59723
59634
59606
59631
59696
59753
59757
59704
59603
59505
59482
59527
59567
59581
59617
59694
59756
59734
59644
59545
59477
59466
59462
59404
59295
59145
58970
58802
58667
58573
58499
58453
58403
58289
58124
57965
57857
57806
57785
57739
57616
57446
57277
57131
57030
56941
56849
56789
56729
56641
56562
56473
56349
56218
56118
56053
55990
55937
55907
55857
55777
55688
55587
55469
55359
55298
55276
55221
55113
55007
54931
54872
54853
54859
54836
54788
54756
54716
54605
54457
54319
54153
53947
53743
53570
53429
53350
53368
53438
53527
53680
53959
54358
54828
55356
55918
56486
57030
57530
58017
58503
58963
59405
59865
60307
60680
60985
61199
61324
61390
61412
61416
61400
61371
61348
61316
61236
61123
61045
60997
60949
60900
60841
60814
60843
60890
60896
60800
60642
60482
60307
60137
59999
59876
59747
59635
59571
59534
59473
59377
59278
59230
59260
59349
59435
59461
59468
59484
59492
59492
59471
59448
59435
59395
59352
59341
59351
59359
59350
59340
59336
59353
59379
59343
59227
59090
58963
58809
58645
58511
58386
58287
58223
58147
58063
58001
57925
57781
57603
57455
57328
57202
57085
56966
56854
56766
56704
56665
56629
56596
56549
56468
56368
56265
56185
56129
56084
56013
55928
55852
55779
55734
55735
55751
55732
55684
55641
55613
55580
55505
55377
55226
55085
54974
54926
54919
54889
54848
54837
54879
54991
55166
55435
55791
56173
56582
57076
57655
58276
58888
59426
59909
60380
60836
61271
61661
62016
62363
62699
62998
63232
63386
63442
63433
63392
63321
63239
63133
62995
62848
62696
62550
62459
62436
62408
62368
62358
62357
62341
62308
62281
62274
62247
62180
62091
61963
61817
61680
61523
61374
61277
61233
61209
61169
61113
61064
61065
61091
61060
60998
60976
60984
61015
61057
61085
61129
61176
61175
61147
61124
61091
61013
60886
60757
60653
60566
60486
60419
60374
60319
60222
60102
59967
59804
59615
59435
59287
59139
58999
58911
58881
58909
58941
58908
58805
58644
58478
58378
58306
58212
58141
58117
58090
58050
57994
57887
57749
57607
57462
57336
57211
57091
57005
56911
56814
56752
56689
56624
56573
56526
56488
56455
56417
56373
56321
56246
56145
56025
55886
55763
55706
55731
55817
55931
56063
56255
56537
56895
57303
57735
58203
58736
59322
59934
60550
61146
61708
62219
62636
62987
63326
63629
63858
64012
64108
64154
64191
64242
64267
64281
64296
64281
64253
64241
64257
64304
64360
64404
64431
64444
64466
64476
64417
64314
64222
64136
64051
64013
64018
64032
64031
63983
63908
63816
63684
63510
63291
63060
62853
62690
62610
62589
62552
62493
62425
62371
62358
62363
62375
62395
62417
62442
62447
62424
62381
62279
62122
61954
61811
61711
61647
61614
61569
61493
61421
61326
61202
61101
60993
60859
60739
60632
60534
60447
60366
60246
60110
60025
59954
59865
59789
59717
59651
59577
59478
59392
59323
59245
59165
59085
58971
58847
58783
58771
58780
58780
58718
58586
58416
58263
58184
58166
58137
58062
57979
57906
57807
57671
57540
57459
57426
57408
57364
57285
57222
57190
57159
57123
57078
57020
56954
56878
56787
56672
56551
56477
56489
56593
56784
57053
57391
57828
58341
58875
59422
59959
60478
60979
61483
61983
62435
62825
63161
63466
63750
64033
64322
64563
64697
64753
64791
64825
64837
64817
64797
64775
64734
64697
64657
64600
64524
64455
64434
64444
64425
64363
64304
64240
64109
63935
63772
63590
63368
63157
63006
62923
62881
62852
62817
62735
62626
62546
62497
62496
62523
62513
62484
62490
62532
62599
62676
62721
62731
62744
62777
62818
62850
62859
62832
62777
62697
62583
62453
62321
62211
62107
61947
61745
61579
61437
61262
61054
60824
60572
60348
60223
60169
60089
59963
59848
59773
59716
59657
59580
59475
59381
59318
59280
59251
59188
59106
59069
59065
59044
59011
58967
58862
58715
58582
58473
58395
58334
58287
58264
58231
58163
58054
57909
57757
57588
57420
57311
57241
57146
57028
56919
56838
56812
56823
56816
56789
56766
56803
56973
57254
57577
57953
58396
58867
59346
59839
60346
60856
61356
61832
62277
62689
63064
63407
62430
59386
56548
54084
50755
48430
48265
49520
51593
53994
56356
58491
60313
61784
62907
63711
64226
64491
64573
64528
64403
64233
64031
63822
63600
63353
63096
62832
62598
62408
62230
62046
61844
61640
61483
61385
61315
61254
61215
61212
61213
61226
61269
61317
61386
61457
61510
61540
61502
61401
61278
61189
61145
61097
61018
60909
60809
60762
60737
60679
60607
60571
60546
60485
60374
60215
60049
59933
59844
59746
59654
59578
59517
59449
59370
59294
59241
59200
59109
58974
58841
58741
58696
58694
58712
58725
58747
58787
58826
58870
58916
58935
58912
58858
58769
58680
58603
58481
58298
58098
57923
57769
57650
57561
57458
57352
57250
57168
57114
57062
57001
56947
56927
56936
56987
57120
57363
57711
58123
58584
59114
59685
60220
60726
61235
61712
62167
62653
63156
63617
62703
59684
56860
54406
49790
42858
35011
28479
25869
27287
31189
35074
37362
38463
38697
38348
37660
38102
39216
39359
40164
42629
45948
49555
53059
56214
58893
61025
62595
63630
64246
64593
64721
64641
64439
64203
63945
63668
63416
63241
63160
63121
63076
63028
62961
62893
62880
62900
62885
62824
62720
62590
62491
62468
62513
62578
62630
62677
62697
62662
62578
62452
62301
62148
62013
61857
61678
61543
61457
61396
61359
61342
61298
61182
61041
60937
60859
60771
60653
60480
60289
60148
60037
59892
59745
59630
59500
59351
59224
59128
59058
59007
58963
58879
58761
58661
58586
58529
58461
58376
58271
58142
57994
57836
57680
57547
57464
57414
57375
57337
57269
57168
57097
57102
57185
57338
57559
57818
58078
58346
58655
59025
59448
59914
60424
60972
61506
62019
62551
61788
57658
51707
46372
40578
34955
32460
33456
36630
39666
41067
41308
40782
41096
41926
40415
36219
31925
30489
31012
31460
33108
36694
41224
46015
50604
54671
58056
60727
62740
64142
65009
65463
53
65471
65181
64804
64441
64109
63798
63549
63398
63333
63295
63239
63165
63064
62936
62790
62668
62617
62609
62606
62616
62655
62710
62746
62738
62721
62712
62672
62609
62538
62439
62310
62177
62058
61978
61908
61772
61597
61473
61375
61218
61028
60892
60795
60666
60515
60381
60260
60174
60125
60058
59965
59884
59789
59646
59486
59339
59182
59015
58870
58749
58644
58517
58347
58165
57991
57843
57729
57645
57583
57543
57492
57402
57322
57260
57200
57149
57093
57062
57096
57203
57347
57486
57661
57904
58194
58540
58949
59406
59889
60370
60872
61438
62046
61347
58570
54688
49129
42939
39420
37891
36483
36578
38926
41233
40730
38453
36515
33660
30423
29772
32146
36304
41272
46348
51095
55264
58736
61453
63413
64732
24
454
534
359
42
65171
64710
64259
63895
63613
63355
63141
63001
62925
62886
62834
62743
62650
62599
62590
62602
62612
62589
62529
62447
62336
62195
62065
61971
61902
61879
61866
61801
61709
61601
61490
61400
61316
61252
61208
61125
61013
60932
60893
60900
60931
60917
60809
60633
60444
60276
60140
60044
60000
59965
59861
59688
59500
59324
59151
58997
58899
58832
58760
58690
58660
58661
58636
58566
58473
58411
58388
58369
58333
58242
58121
58023
57957
57889
57752
57572
57407
57220
57025
56905
56886
56911
56933
56990
57085
57206
57372
57567
57774
58008
58322
58737
59205
59728
60315
60927
61571
62224
62837
63379
62531
58280
52204
48036
46715
46038
43242
39294
36205
33934
33673
35992
39797
44265
48776
52946
56581
59594
61963
63694
64816
65433
168
214
117
65452
65177
64870
64558
64233
63900
63586
63280
62982
62719
62490
62297
62159
62094
62072
62074
62130
62210
62268
62336
62426
62513
62566
62571
62581
62603
62583
62540
62493
62435
62403
62384
62338
62260
62138
61978
61803
61666
61568
61448
61292
61117
60952
60810
60680
60569
60496
60425
60289
60118
59995
59926
59876
59815
59748
59687
59625
59550
59421
59228
59032
58881
58778
58720
58688
58658
58608
58517
58429
58380
58347
58297
58227
58162
58099
58004
57868
57701
57515
57336
57199
57098
56996
56903
56853
56839
56834
56830
56829
56817
56779
56726
56684
56667
56670
56694
56747
56824
56909
57007
57136
57334
57664
58102
58594
59119
59646
60193
60785
61356
61849
62269
62611
62890
63125
63301
63441
63579
63677
63707
63710
63710
63682
63620
63538
63465
63429
63424
63432
63445
63436
63394
63331
63218
63068
62925
62757
62554
62337
62120
61924
61719
61500
61320
61181
61046
60923
60860
60874
60935
61013
61081
61113
61123
61145
61176
61187
61184
61215
61288
61339
61326
61288
61260
61221
61124
60963
60780
60600
60445
60330
60244
60179
60126
60075
59982
59841
59687
59516
59326
59152
59041
58954
58824
58678
58549
58433
58361
58331
58282
58190
58091
58005
57920
57871
57839
57748
57593
57421
57288
57210
57160
57140
57166
57192
57148
57056
56971
56877
56756
56649
56581
56508
56381
56224
56063
55885
55687
55502
55388
55357
55362
55361
55305
55202
55113
55056
55035
55065
55115
55191
55356
55633
55984
56369
56798
57290
57825
58398
58977
59507
60010
60503
60972
61442
61919
62348
62668
62846
62934
62987
62990
62932
62827
62703
62600
62533
62478
62416
62357
62308
62233
62117
61998
61875
61724
61557
61408
61271
61105
60921
60733
60511
60290
60130
60005
59887
59782
59662
59539
59462
59456
59511
59584
59636
59655
59645
59610
59570
59559
59582
59632
59719
59827
59922
59997
60043
60057
60017
59957
59908
59816
59671
59530
59419
59331
59270
59201
59074
58924
58820
58766
58715
58646
58583
58503
58397
58286
58157
58032
57941
57877
57816
57766
57734
57707
57683
57658
57620
57545
57413
57240
57068
56950
56874
56785
56692
56591
56468
56365
56270
56140
56000
55864
55718
55603
55524
55454
55394
55342
55297
55256
55221
55211
55247
55342
55513
55734
56006
56352
56737
57146
57609
58144
58753
59413
60057
60642
61165
61610
61994
62344
62669
62972
63235
63463
63664
63821
63898
63876
63766
63602
63414
63222
63048
62887
62745
62604
62475
62413
62383
62320
62246
62181
62086
61944
61785
61642
61524
61414
61303
61173
61040
60941
60843
60717
60577
60478
60452
60461
60501
60572
60644
60708
60771
60818
60837
60856
60902
60969
61060
61137
61157
61164
61169
61144
61119
61101
61075
61045
61007
60939
60823
60667
60490
60307
60127
59944
59744
59540
59352
59204
59098
58974
58827
58689
58575
58531
58534
58496
58423
58371
58361
58354
58311
58247
58185
58125
58033
57877
57700
57580
57536
57503
57438
57351
57242
57111
56964
56835
56744
56665
56613
56590
56564
56525
56474
56450
56483
56566
56690
56869
57118
57411
57731
58122
58574
59024
59492
60030
60630
61252
61880
62471
62973
63424
63854
64215
64485
64705
64899
63751
60516
57497
56159
55975
56508
57467
58643
59878
61065
62085
62888
63502
63935
64208
64364
64455
64491
64448
64374
64291
64181
64085
64009
63912
63784
63636
63458
63254
63080
62943
62829
62765
62736
62717
62711
62698
62675
62671
62691
62722
62744
62741
62700
62652
62623
62574
62494
62413
62329
62241
62184
62134
62053
61969
61889
61775
61647
61544
61459
61416
61382
61292
61167
61043
60934
60830
60713
60623
60576
60538
60459
60301
60104
59925
59764
59630
59530
59465
59452
59448
59392
59283
59131
58957
58796
58647
58543
58484
58408
58293
58144
57993
57879
57770
57629
57487
57369
57282
57250
57258
57273
57289
57316
57352
57412
57526
57712
57976
58284
58627
59050
59575
60172
60788
61364
61905
62466
63022
63507
63907
62938
59878
57022
55840
55825
55242
51760
46718
42381
38823
37315
37234
36767
36086
35328
35880
38524
42292
46508
50693
54517
57788
60411
62402
63816
64722
65216
65386
65306
65078
64814
64576
64381
64185
63951
63711
63473
63259
63130
63094
63096
63094
63111
63170
63262
63344
63372
63334
63248
63140
63034
62942
62832
62688
62568
62516
62500
62456
62393
62362
62364
62390
62399
62350
62277
62192
62079
61957
61827
61680
61535
61403
61264
61101
60961
60884
60825
60716
60563
60403
60226
60025
59843
59717
59630
59559
59493
59424
59349
59275
59207
59138
59054
58952
58857
58797
58749
58694
58629
58521
58365
58209
58089
57994
57915
57848
57792
57759
57763
57822
57941
58118
58371
58706
59101
59542
60025
60548
61116
61721
62313
62848
63320
63732
64098
63126
58769
51284
43707
37987
32612
27874
26498
27396
28399
29385
28987
27742
28640
32124
36971
42280
47453
52141
56169
59472
62023
63814
64944
49
321
287
62
65316
65006
64637
64261
63972
63755
63537
63322
63146
62994
62862
62781
62763
62807
62873
62905
62907
62909
62927
62978
63023
63049
63101
63159
63182
63201
63224
63231
63207
63139
63046
62941
62825
62695
62559
62435
62330
62226
62136
62064
61995
61921
61808
61663
61520
61352
61173
61023
60880
60770
60702
60615
60519
60436
60359
60325
60332
60331
60283
60200
60095
59988
59923
59870
59760
59592
59421
59289
59179
59065
58943
58811
58696
58665
58740
58894
59082
59284
59550
59890
60284
60730
61184
61633
62131
62673
63182
62323
59378
55385
49799
42356
34287
26421
19335
13355
8547
4837
2139
337
0
0
0
0
0
537
4180
7584
9261
9693
10573
12952
16113
20806
27371
33291
37032
40386
43208
44146
43789
42616
42288
43807
46407
49543
52789
55842
58496
60639
62289
63471
64227
64678
64921
64973
64882
64747
64619
64506
64415
64321
64185
64025
63862
63703
63578
63530
63514
63459
63357
63215
63050
62910
62837
62820
62827
62852
62894
62939
62972
62963
62897
62793
62683
62593
62516
62429
62319
62189
62049
61904
61796
61717
61608
61488
61366
61220
61046
60864
60711
60574
60415
60260
60160
60093
60017
59970
59962
59954
59941
59920
59884
59847
59831
59838
59831
59832
59892
60031
60297
60692
61182
61746
61039
58277
54433
50230
46180
41277
34924
28199
21787
16052
11233
7434
4619
2628
1267
414
0
0
0
67
326
578
791
981
1177
1403
1639
1850
2009
2104
2176
2233
2231
2157
2046
1927
1801
1625
1416
1236
1091
974
2192
5454
8461
11070
15797
21481
24721
24849
24284
25916
30120
34333
35601
33596
30972
30750
32072
31689
28968
24961
21717
20508
19406
18475
19035
20497
23685
29012
35295
40405
43049
45172
48066
51225
54303
57091
59500
61447
62905
63960
64685
65112
65262
65197
65000
64716
64412
64166
64008
63894
63777
63642
63471
63292
63155
63055
62955
62852
62780
62725
62637
62501
62320
62113
61892
61679
61520
61403
61285
61166
61049
60942
60864
60830
60801
60700
60540
60389
60268
60171
60104
60067
60072
60180
60403
60699
61036
61391
61767
60887
56745
49613
41199
32657
24722
17846
12247
7930
4780
2636
1311
617
396
538
939
1474
2012
2476
2865
3158
3345
3472
3587
3707
3795
3788
3686
3568
3504
3474
3433
3386
3339
3312
3293
3228
3123
3027
2953
2886
2794
2626
2416
2251
2137
2017
1870
1731
1646
1592
1529
1487
1474
1487
1530
1580
1584
1507
1367
1198
1024
858
708
574
480
481
558
1937
6619
13050
18790
23613
27461
30374
31147
30455
30161
28855
27003
27531
30835
35666
41082
46432
51334
55519
58866
61414
63261
64543
65377
281
395
283
32
65254
64895
64503
64140
63827
63545
63288
63067
62864
62679
62540
62426
62306
62202
62167
62193
62229
62248
62239
62232
62202
62131
62071
62002
61885
61776
61684
61571
61465
61361
61250
61163
61070
60932
60795
60690
60596
60493
60395
60352
60365
60429
60592
60868
61220
61622
62062
61221
57074
49899
41370
32664
24585
17582
11851
7411
4171
2022
805
301
261
457
757
1120
1550
1991
2358
2656
2926
3145
3276
3351
3412
3459
3460
3383
3256
3144
3060
2976
2901
2823
2718
2605
2475
2286
2022
1743
1529
1375
1220
1077
1007
989
966
935
920
916
899
866
823
781
751
740
769
855
974
1093
1199
2569
5919
8951
11515
14877
18492
21974
23779
24349
25380
26608
29132
32286
34323
36790
40604
44946
49284
53292
56776
59645
61856
63412
64412
65002
65282
65355
65299
65138
64908
64656
64395
64154
63933
63717
63530
63353
63150
62961
62849
62815
62796
62723
62604
62506
62438
62377
62306
62196
62041
61867
61730
61614
61449
61230
61016
60858
60746
60682
60668
60659
60604
60531
60484
60454
60462
60560
60758
61033
61377
61799
62276
62752
61917
57780
50594
42047
33349
25288
18290
12518
8021
4756
2566
1224
507
250
285
491
814
1206
1583
1874
2071
2163
2191
2243
2332
2398
2402
2379
2336
2247
2121
1939
1704
1482
1325
1207
2375
5558
9776
15608
23296
30259
34882
38928
43612
48355
51456
50636
47354
45368
45696
47487
50059
52883
55593
58009
60083
61793
63101
64002
64553
64856
64998
65023
64945
64776
64581
64401
64226
64052
63870
63681
63470
63228
62969
62729
62563
62471
62417
62372
62306
62203
62080
61973
61888
61811
61747
61684
61597
61476
61343
61221
61098
60973
60850
60736
60635
60560
60552
60578
60595
60635
60682
60669
60592
60503
60412
60302
60184
60073
59967
59837
59674
59500
59339
59183
59047
58988
58993
58997
58988
59028
59157
59320
59468
59652
59914
60223
60563
60972
61461
62007
62597
61922
57943
50908
42495
33888
25860
18859
13138
8742
5544
3373
2052
1376
1107
1066
1198
1476
1838
2235
2617
2944
3221
3444
3602
3717
3784
3780
3722
3625
3493
3340
3215
3121
3000
2856
2705
2511
2282
2073
1880
1684
1479
2561
6985
14505
23408
31196
36343
39378
39530
37820
36344
33843
30872
29128
28330
28208
28499
28996
29579
30180
29451
27932
28619
31942
35379
37316
39410
42740
46612
50512
54114
57201
59671
61536
62857
63712
64178
64372
64432
64408
64301
64161
64024
63903
63781
63622
63422
63202
62995
62795
62609
62467
62342
62210
62083
61964
61860
61760
61664
61624
61644
61655
61618
61571
61541
61496
61403
61286
61209
61157
61079
60997
60925
60857
60777
60637
60450
60259
60047
59811
59568
59327
59108
58925
58769
58657
58597
58587
58635
58734
58895
59089
59306
59592
59940
60345
60840
61412
62021
61350
57336
50198
41653
32958
24935
18015
12363
8007
4864
2774
1530
895
693
796
1056
1351
1625
1894
2179
2471
2749
2973
3136
3283
3434
3551
3564
3487
3396
3308
3199
3074
2945
2788
2593
2357
2077
1806
1576
1350
1108
870
678
573
547
577
633
1966
6572
12907
18575
24666
30532
34485
36880
38067
39692
41476
41919
41484
40530
39313
38012
38038
38917
38972
39760
42260
44387
44792
45334
47207
49769
52572
55289
57723
59808
61522
62861
63841
64515
64939
65157
65193
65062
64817
64525
64260
64057
63872
63652
63405
63159
62947
62818
62771
62763
62761
62711
62595
62479
62400
62313
62245
62215
62187
62157
62131
62093
62015
61921
61847
61779
61705
61666
61677
61690
61644
61511
61330
61146
60981
60831
60667
60502
60354
60230
60134
60040
59926
59798
59687
59613
59557
59480
59393
59334
59329
59419
59617
59880
60203
60626
61141
61712
