33907
34080
33922
34080
34093
34100
34150
34274
34209
34352
34177
34166
34371
34316
34478
34360
34416
34497
34444
34412
34566
34477
34523
34549
34543
34553
34608
34688
34627
34766
34797
34714
34718
34808
34781
34800
34803
34828
34827
34869
34890
34889
34889
34889
34916
34957
35014
34951
35013
35014
35102
34996
35172
35103
35089
35238
35178
35201
35276
35209
35274
35149
35283
35302
35332
35333
35304
35332
35348
35385
35414
35458
35396
35455
35461
35547
35554
35585
35480
35637
35393
35419
35421
35345
35335
35261
35260
35195
35270
35183
35109
35098
35029
34993
35096
34918
34944
35019
34943
35001
34901
34922
34716
34684
34842
34795
34804
34701
34580
34743
34722
34697
34550
34606
34668
34639
34662
34551
34648
34644
34809
34728
34807
34755
34762
34824
34695
34907
34795
34820
34950
34812
34872
34890
34956
34864
34957
34920
35010
34945
35045
35186
35008
35163
35190
35088
35253
35253
35081
35264
35301
35128
35115
35253
35275
35165
35259
35314
35162
35280
35245
35327
35417
35394
35375
35391
35499
35431
35567
35460
35520
35406
35522
35453
35507
35536
35602
35571
35604
35592
35671
35735
35696
35685
35680
35753
35725
35818
35687
35698
35731
35672
35812
35607
35486
35528
35519
35401
35396
35464
35378
35349
35242
35235
35186
35129
35146
35128
35082
35072
35066
35018
35078
35043
35077
34976
34838
34939
34902
34877
34841
34966
34890
34749
34965
34961
34827
34734
34997
34753
34803
34975
34890
34819
34839
35000
34969
35094
35085
35020
35051
35080
35037
35125
35211
35295
35114
35180
35340
35263
35350
35317
35282
35299
35309
35213
35395
35459
35314
35474
35419
35334
35400
35512
35473
35372
35431
35602
35593
35590
35657
35635
35668
35649
35519
35627
35682
35643
35767
35687
35751
35725
35812
35810
35759
35940
35925
35806
35866
35987
35801
35843
35983
35949
35990
35949
36083
35937
36063
36080
35877
35851
36011
35869
35869
35845
35862
35767
35759
35689
35616
35579
35435
35415
35394
35372
35339
35322
35292
35283
35207
35120
35179
35179
35091
35209
35108
34942
35154
35010
35108
35090
35001
35091
34967
34925
34923
34881
35047
35032
34966
35050
35007
35159
35023
35085
35114
35212
35133
35136
35282
35110
35181
35216
35265
35236
35410
35388
35268
35385
35288
35301
35417
35321
35498
35430
35415
35521
35508
35542
35490
35586
35508
35545
35577
35578
35687
35594
35566
35723
35632
35597
35641
35804
35703
35816
35739
35840
35812
35757
35816
35734
35820
35796
35894
35817
35969
35911
35894
35822
36046
35851
35915
35925
36014
35944
35980
35963
36054
36190
36170
36026
36070
36146
36147
36015
35948
35975
36038
35876
35934
35852
35695
35705
35593
35750
35560
35514
35502
35464
35548
35462
35541
35426
35311
35362
35363
35306
35382
35328
35350
35375
35165
35274
35271
35092
35313
35083
35235
35093
35094
35235
35128
35177
35307
35255
35295
35180
35326
35289
35320
35415
35494
35372
35367
35525
35477
35402
35454
35441
35684
35505
35596
35745
35618
35704
35613
35548
35615
35735
35735
35735
35748
35814
35815
35805
35831
35831
35921
35913
35928
35944
35961
35969
36019
35999
36085
36100
36093
36160
36129
36181
36184
36225
36263
36289
36295
36337
36333
36299
36302
36334
36407
36292
36372
36403
36392
36312
36458
36519
36444
36471
36415
36613
36666
36469
36624
36490
36458
36617
36645
36416
36597
36376
36513
36393
36275
36348
36353
36215
36109
36103
35969
35963
35930
35987
35942
35790
35804
35824
35776
35695
35768
35733
35730
35751
35714
35674
35748
35641
35592
35611
35640
35596
35607
35581
35625
35604
35539
35510
35608
35618
35687
35678
35679
35692
35741
35696
35741
35785
35736
35792
35788
35823
35802
35857
35999
35875
36000
35930
36035
36068
35959
36080
35935
35922
36150
36102
36158
36206
36025
36075
36085
36135
36247
36259
36238
36225
36242
36361
36360
36277
36400
36348
36340
36356
36382
36461
36397
36491
36459
36521
36501
36488
36561
36547
36534
36620
36586
36622
36589
36572
36623
36713
36697
36662
36640
36733
36753
36671
36740
36767
36788
36766
36758
36813
36894
36823
36709
36816
36693
36763
36763
36653
36583
36570
36451
36516
36519
36351
36251
36400
36304
36305
36125
36059
36195
36003
35980
35956
35985
35977
35906
35803
35967
35792
35932
35696
35828
35728
35648
35627
35763
35635
35681
35520
35580
35512
35555
35535
35542
35495
35671
35496
35696
35757
35636
35783
35608
35683
35886
35924
35688
35902
35843
35925
35765
35947
35745
35870
35914
35863
35786
35916
35927
35847
36007
35948
35817
35912
35930
35947
36050
35876
35966
35958
35947
35980
36103
35893
36041
36025
36051
36084
36090
36092
36139
36099
36131
36176
36162
36187
36170
36173
36218
36230
36205
36210
36261
36256
36345
36326
36342
36240
36190
36380
36439
36284
36354
36445
36256
36398
36373
36388
36356
36401
36460
36436
36419
36521
36343
36583
36386
36419
36610
36422
36459
36449
36531
36435
36638
36430
36507
36430
36463
36507
36529
36340
36339
36328
36258
36228
36153
36119
36076
35998
35929
35948
35795
35751
35784
35859
35761
35583
35576
35667
35477
35542
35537
35432
35501
35445
35381
35357
35321
35246
35286
35331
35298
35400
35297
35291
35264
35433
35349
35375
35301
35311
35378
35267
35331
35400
35351
35545
35434
35423
35523
35547
35673
35588
35482
35496
35699
35559
35664
35615
35716
35668
35746
35597
35741
35675
35730
35870
35807
35656
35775
35817
35774
35807
35839
35827
35875
35880
35886
36031
35910
35953
35901
35979
35939
35985
36022
36004
36016
36031
36070
36068
36067
36132
36112
36141
36143
36077
36202
36246
36147
36263
36266
36338
36239
36236
36326
36296
36402
36343
36440
36373
36478
36441
36572
36521
36572
36611
36621
36582
36533
36641
36639
36643
36658
36578
36641
36710
36754
36735
36660
36674
36712
36893
36717
36872
36859
36687
36868
36812
36562
36743
36568
36628
36489
36524
36398
36456
36385
36342
36235
36140
36177
36067
36151
36180
36101
35944
35967
35976
36019
35884
35912
35844
35843
35834
35813
35800
35779
35758
35774
35730
35743
35731
35670
35743
35756
35710
35840
35844
35717
35879
35816
35849
35820
35823
35938
35885
35903
35876
35842
35912
35958
35938
35970
35988
36027
35908
35948
36131
36029
36139
35995
36131
36014
36102
36013
36133
35999
36141
36043
36217
36218
36237
36225
36157
36250
36135
36207
36330
36254
36260
36255
36308
36310
36349
36304
36301
36344
36346
36351
36349
36381
36379
36420
36465
36519
36439
36446
36466
36496
36465
36482
36532
36526
36538
36551
36611
36628
36607
36640
36636
36630
36637
36664
36705
36636
36657
36771
36604
36796
36831
36793
36768
36756
36795
36767
36771
36765
36844
36797
36832
36815
36813
36803
36765
36750
36732
36719
36634
36621
36557
36537
36447
36432
36365
36350
36259
36271
36219
36224
36134
36136
36103
36082
36020
36001
35978
35952
35903
35894
35880
35874
35832
35827
35825
35756
35788
35804
35751
35737
35730
35713
35704
35734
35744
35744
35756
35799
35827
35775
35855
35877
35833
35836
35882
35937
35947
35953
35949
35977
35972
35988
36107
35884
35989
35978
35997
36052
36019
36080
36098
36069
36107
36117
36146
36160
36139
36149
36184
36177
36175
36223
36248
36211
36243
36292
36331
36249
36368
36434
36448
36436
36361
36388
36417
36399
36432
36483
36480
36490
36526
36587
36558
36418
36463
36545
36594
36576
36606
36601
36606
36646
36636
36666
36663
36692
36730
36705
36735
36786
36788
36742
36741
36786
36872
36812
36739
36811
36867
36685
36885
36761
36888
36798
36870
36961
36905
36975
36983
36923
37021
36950
36940
36937
36826
36942
36818
36953
36720
36682
36723
36685
36651
36532
36455
36630
36481
36363
36506
36428
36323
36376
36293
36266
36216
36105
36308
36136
36196
36001
35956
36011
36174
36055
36061
35998
36032
36122
35892
35899
35957
36019
36039
35947
36027
36040
35892
36122
36110
36028
35950
36178
36012
36119
36026
36124
36067
36171
36242
36201
36187
36249
36314
36295
36200
36236
36348
36252
36386
36357
36182
36376
36252
36409
36281
36398
36488
36245
36317
36338
36448
36401
36376
36401
36479
36489
36621
36550
36587
36574
36550
36580
36617
36590
36654
36580
36644
36593
36754
36804
36687
36700
36690
36759
36767
36725
36742
36791
36805
36792
36802
36840
36837
36825
36916
36935
36937
36988
36939
37026
37026
37001
37093
37027
36944
37011
37152
37148
37047
37152
37164
37195
37133
37009
37187
37207
37254
37211
37289
37233
37382
37224
37267
37347
37201
37408
37293
37161
37270
37196
37209
37071
37181
37025
37175
37019
37023
36962
36965
37023
36763
36783
36859
36767
36806
36728
36647
36637
36658
36594
36615
36549
36568
36606
36494
36460
36459
36413
36428
36418
36375
36420
36403
36403
36376
36392
36386
36446
36434
36413
36425
36561
36338
36498
36505
36500
36540
36613
36617
36644
36561
36672
36543
36546
36766
36723
36681
36685
36747
36706
36748
36730
36761
36752
36758
36700
36813
36809
36722
36796
36768
36827
36796
36843
36860
36863
36826
36941
36877
36898
36868
36911
36899
36911
36910
36960
36933
36988
36874
36980
36919
36897
36940
36973
37006
37018
37032
37030
37038
37026
37072
37063
37030
37092
37106
37083
37120
37112
37161
37141
37127
37072
37036
37186
37081
37177
37190
37123
37275
37187
37048
37172
37292
37151
37265
37230
37280
37138
37186
37320
37074
37199
37185
37335
37134
37191
37078
37054
37202
37179
37064
37095
37051
36836
36795
36829
36852
36792
36783
36664
36682
36592
36587
36551
36471
36483
36454
36410
36366
36386
36455
36367
36202
36393
36370
36341
36188
36174
36263
36065
36164
36205
36169
36103
36176
36249
36040
36116
36070
36242
36207
36227
36187
36246
36183
36256
36261
36269
36257
36223
36292
36408
36252
36247
36489
36439
36250
36228
36383
36294
36433
36491
36417
36273
36395
36376
36465
36338
36443
36493
36392
36429
36429
36475
36330
36492
36454
36528
36603
36595
36608
36526
36410
36536
36637
36479
36546
36562
36570
36622
36547
36480
36599
36717
36625
36658
36662
36691
36731
36733
36651
36672
36706
36719
36728
36752
36792
36757
36630
36709
36820
36907
36738
36741
36895
36750
36940
36950
36745
36885
36784
36869
36849
36901
37009
37038
36986
37051
36907
36993
36907
37038
36890
37031
36901
36954
36934
36931
36944
36821
36719
36733
36672
36651
36570
36618
36538
36495
36343
36435
36344
36426
36388
36202
36125
36177
36218
36055
36102
36054
36117
36109
35932
35972
35852
36047
35974
36027
35831
35903
35820
35872
35846
35884
35760
35938
35925
35816
35738
35850
35870
35918
35873
35845
35911
35950
35907
36003
35949
35983
35962
36022
35986
35986
35975
35989
36017
36065
36055
36021
36024
36030
36092
36053
35920
35995
36050
35966
36172
36078
36003
36087
36013
36103
35967
36153
36056
36080
36088
36113
36167
36124
36160
36213
36177
36187
36207
36141
36157
36244
36286
36179
36195
36224
36206
36181
36142
36311
36242
36214
36257
36278
36272
36269
36289
36321
36317
36349
36323
36328
36241
36351
36371
36438
36389
36350
36399
36422
36421
36445
36451
36522
36372
36486
36423
36509
36655
36561
36469
36611
36612
36607
36593
36566
36578
36595
36674
36585
36661
36515
36557
36389
36338
36490
36308
36255
36288
36224
36187
36116
36073
36012
36040
35891
35900
35861
35666
35732
35604
35687
35739
35667
35662
35679
35628
35586
35591
35652
35526
35562
35571
35588
35503
35515
35540
35623
35581
35448
35481
35548
35449
35519
35526
35703
35579
35718
35599
35695
35704
35617
35625
35642
35676
35714
35744
35784
35769
35812
35821
35877
35877
35907
35908
35956
35953
35959
36007
35996
35980
36016
36084
36031
36052
36088
36048
36103
36004
36069
36231
36203
36181
36267
36299
36274
36300
36328
36372
36370
36351
36415
36442
36473
36417
36565
36516
36651
36588
36675
36612
36643
36693
36682
36701
36667
36750
36729
36833
36788
36801
36819
36897
36912
36991
36961
36913
36916
37071
36961
36977
37125
37154
37075
37072
37158
37079
37001
37110
37218
37128
37101
37184
37147
37134
37221
37270
37334
37297
37273
37338
37257
37295
37248
37239
37194
37172
37132
37090
37072
37013
36915
36921
36909
36849
36777
36789
36799
36694
36586
36604
36648
36486
36501
36471
36432
36390
36386
36445
36403
36377
36371
36323
36323
36247
36201
36149
36217
36267
36241
36204
36177
36181
36187
36170
36162
36102
36224
36129
36182
36142
36148
36128
36175
36178
36145
36196
36209
36227
36145
36337
36308
36183
36302
36275
36268
36263
36267
36258
36220
36280
36266
36146
36224
36252
36210
36235
36228
36339
36229
36251
36210
36292
36281
36146
36197
36338
36173
36159
36259
36186
36329
36334
36301
36330
36306
36262
36325
36318
36313
36310
36323
36339
36310
36329
36359
36355
36304
36325
36322
36362
36343
36381
36358
36272
36232
36264
36420
36339
36284
36395
36381
36353
36396
36409
36320
36373
36393
36382
36408
36389
36419
36435
36426
36453
36441
36437
36416
36402
36328
36363
36272
36265
36203
36109
36132
36177
35893
35974
35914
35891
35845
35754
35689
35687
35689
35593
35537
35508
35481
35475
35412
35373
35400
35293
35317
35196
35321
35140
35150
35117
35101
35160
35232
35167
35163
35106
35054
35138
35030
35114
35066
35193
35076
35122
35138
35232
35134
35147
35130
35216
35157
35103
35249
35279
35110
35105
35171
35215
35179
35190
35215
35178
35220
35190
35176
35205
35200
35177
35198
35243
35268
35239
35140
35307
35422
35284
35309
35383
35351
35432
35419
35371
35434
35421
35446
35417
35443
35495
35419
35482
35498
35530
35617
35525
35591
35577
35534
35494
35653
35475
35583
35516
35570
35602
35450
35588
35728
35608
35672
35640
35767
35692
35607
35728
35758
35848
35817
35855
35890
35842
35850
35816
35938
35870
35886
35902
35837
35856
35853
35871
35825
35906
35855
35872
35788
35678
35736
35720
35644
35600
35563
35529
35501
35432
35393
35350
35336
35250
35199
35202
35109
35103
35224
34990
34982
35034
34980
34906
34894
34859
34874
34805
34744
34740
34631
34690
34759
34698
34585
34692
34500
34569
34404
34546
34478
34375
34469
34449
34491
34582
34519
34591
34472
34619
34637
34670
34627
34688
34718
34682
34735
34716
34769
34683
34715
34708
34860
34760
34765
34718
34850
34845
34851
34882
34742
34893
34929
34820
34954
34780
34933
34945
34839
34984
34826
34964
35087
35027
35071
34911
35072
34965
34991
34987
35070
35100
35108
35065
35083
35199
35155
35189
35203
35152
35249
35351
35247
35351
35239
35285
35430
35393
35456
35381
35494
35449
35320
35314
35343
35340
35361
35444
35466
35362
35462
35390
35533
35389
35531
35529
35418
35450
35583
35536
35513
35683
35620
35696
35646
35688
35705
35686
35630
35644
35618
35569
35600
35506
35433
35430
35381
35310
35226
35220
35176
35130
35088
35075
34999
34897
34948
34979
34869
34898
34815
34949
34855
34865
34760
34670
34553
34573
34593
34663
34632
34689
34537
34421
34585
34502
34555
34664
34503
34655
34651
34598
34720
34663
34600
34596
34706
34772
34835
34856
34765
34917
34875
34781
34893
34939
34967
35005
34999
35041
35009
35053
35035
35067
35090
35047
35192
35122
35098
35163
35087
35191
35091
35181
35278
35290
35251
35299
35317
35380
35326
35329
35372
35317
35526
35389
35365
35317
35575
35396
35517
35500
35531
35534
35566
35566
35619
35632
35672
35689
35760
35823
35825
35775
35828
35818
35824
35856
35872
35854
35899
35931
35927
35916
35964
35977
36014
36002
36062
36015
36031
36019
36142
36134
36127
36096
36161
36194
36201
36254
36264
36281
36297
36297
36363
36272
36316
36316
36425
36307
36275
36138
36205
36064
36068
36007
36039
36000
35977
35900
35931
35895
35879
35862
35723
35697
35728
35689
35651
35607
35717
35569
35626
35480
35511
35485
35440
35438
35437
35380
35342
35473
35393
35490
35414
35273
35383
35281
35328
35486
35413
35352
35360
35325
35428
35294
35474
35556
35495
35370
35591
35503
35630
35467
35527
35652
35622
35556
35696
35595
35725
35635
35616
35803
35761
35749
35808
35717
35655
35720
35669
35868
35903
35864
35778
35788
35784
35801
35830
35790
36016
35892
35945
36059
35963
35960
35972
36030
36073
36058
36080
36121
36098
36104
36154
36190
36192
36193
36213
36256
36301
36257
36280
36332
36296
36314
36313
36319
36402
36395
36360
36339
36375
36467
36366
36473
36526
36490
36501
36508
36547
36515
36555
36550
36561
36557
36571
36536
36539
36511
36488
36457
36446
36386
36336
36351
36334
36293
36229
36165
36149
36090
36034
36006
36018
35928
35992
35884
35808
35710
35835
35823
35784
35730
35713
35574
35731
35497
35594
35514
35520
35458
35446
35411
35491
35525
35615
35484
35654
35546
35630
35412
35501
35444
35540
35598
35666
35579
35727
35620
35632
35704
35639
35621
35682
35703
35727
35646
35761
35795
35745
35745
35706
35734
35702
35722
35729
35741
35773
35743
35765
35764
35856
35741
35868
35846
35828
35783
35949
35972
35827
35853
35941
35906
35894
35877
35912
35939
35815
35908
35897
35976
36028
36065
35965
35883
36032
36061
36047
36020
36053
36115
36064
36036
36094
36146
36133
36185
36142
36199
36204
36204
36215
36202
36194
36220
36198
36287
36207
36208
36338
36381
36357
36300
36277
36418
36305
36298
36450
36381
36433
36396
36281
36326
36191
36240
36276
36258
36108
36102
35971
35840
36020
35953
35754
35757
35872
35587
35577
35642
35467
35472
35465
35406
35426
35321
35327
35285
35315
35262
35257
35337
35185
35323
35247
35265
35210
35197
35156
35168
35114
35117
35028
35140
35147
35069
35232
35069
35137
35273
35158
35142
35307
35206
35264
35210
35376
35492
35309
35304
35399
35349
35396
35342
35448
35484
35380
35528
35588
35448
35485
35488
35573
35545
35582
35486
35474
35500
35711
35571
35742
35710
35621
35693
35638
35703
35643
35745
35751
35877
35716
35867
35755
35858
35756
35853
35852
35864
35812
35984
35975
35925
35973
35967
35809
35933
35941
35993
36029
36019
36003
35936
35991
36022
35997
35910
36108
36096
35998
35994
36004
35953
36032
36136
36109
36179
36045
36258
36059
36111
36271
36221
36083
36167
36032
36046
36137
35997
36057
35923
36057
35966
35843
35738
35779
35751
35705
35556
35651
35633
35496
35635
35542
35487
35392
35521
35372
35291
35458
35268
35343
35259
35140
35203
35073
35290
35264
35117
35240
35091
35204
35118
35034
35192
35210
35081
35115
35199
35182
35159
35192
35096
35190
35186
35179
35280
35308
35256
35339
35320
35252
35281
35352
35385
35351
35419
35323
35493
35533
35361
35392
35567
35479
35509
35431
35519
35620
35548
35560
35529
35523
35629
35598
35543
35584
35706
35555
35527
35685
35691
35618
35695
35793
35747
35710
35802
35686
35778
35807
35772
35872
35861
35797
35965
35886
35888
36033
35953
35931
35910
35996
36091
36053
36074
36076
36097
36081
36125
36076
36277
36268
36234
36150
36233
36392
36361
36435
36270
36351
36476
36297
36254
36231
36244
36444
36106
36139
36110
36265
35971
36006
36045
35888
35867
35782
35673
35732
35811
35756
35738
35528
35617
35578
35521
35362
35488
35328
35388
35381
35305
35378
35337
35138
35259
35129
35201
35199
35155
35189
35274
35211
35158
35229
35198
35177
35103
35199
35363
35235
35164
35243
35404
35321
35309
35352
35344
35436
35434
35514
35478
35554
35485
35441
35591
35426
35586
35630
35662
35554
35600
35660
35635
35603
35713
35564
35663
35713
35690
35566
35499
35700
35536
35703
35666
35670
35699
35805
35803
35655
35770
35721
35814
35897
35793
35858
35871
35740
35866
35917
35915
35899
35933
35980
35949
35987
36074
36027
35949
36001
36109
36097
35986
36211
36105
36165
36243
36223
36238
36128
36251
36317
36239
36362
36346
36421
36226
36311
36395
36272
36198
36226
36370
36257
36254
36138
36213
36110
36039
36031
35969
35821
35959
35761
35696
35765
35744
35756
35683
35596
35718
35574
35693
35773
35559
35639
35628
35550
35751
35684
35800
35702
35783
35729
35621
35584
35822
35834
35762
35842
35917
35803
35815
35773
35953
35808
35881
35896
35935
35987
35967
35926
36012
36076
36003
35985
36034
36053
36067
35994
36029
35998
36157
35991
35997
36135
36058
36242
36234
36129
36148
36230
36176
36123
36359
36140
36201
36221
36355
36370
36275
36344
36281
36469
36397
36424
36470
36368
36527
36548
36589
36503
36564
36582
36521
36521
36731
36536
36566
36617
36580
36654
36708
36603
36722
36677
36628
36738
36818
36737
36745
36857
36801
36877
36799
36714
36787
36807
36796
36734
36795
36917
36697
36772
36598
36558
36552
36585
36537
36441
36448
36440
36507
36382
36433
36334
36268
36177
36235
36299
36259
36264
36251
36173
36131
36231
36054
36007
36065
36170
36083
35918
36007
35951
35940
35979
36042
36080
36196
36193
36095
36225
36258
36156
36146
36279
36255
36291
36234
36431
36259
36257
36480
36469
36444
36456
36495
36485
36503
36519
36586
36615
36543
36540
36500
36498
36473
36498
36702
36737
36688
36598
36675
36699
36654
36736
36642
36667
36746
36791
36648
36871
36791
36867
36832
36878
36840
36792
36888
36802
36981
36940
36889
37098
36933
36948
37016
36973
36877
37034
36927
37078
36994
37003
36986
37000
37040
37028
37092
37090
37062
37069
37043
37236
37215
37156
37076
37098
37068
36993
36934
36884
36872
36833
36737
36716
36626
36640
36623
36659
36479
36567
36571
36506
36465
36520
36405
36411
36284
36382
36243
36275
36224
36380
36179
36365
36266
36357
36160
36169
36317
36313
36227
36354
36401
36332
36308
36445
36467
36560
36492
36559
36586
36563
36511
36640
36687
36656
36535
36730
36531
36710
36691
36693
36714
36669
36572
36666
36817
36725
36800
36645
36792
36797
36685
36668
36789
36939
36930
36976
37044
37070
37074
37061
37148
37159
37043
37131
37053
37172
37061
37088
37080
37133
37194
37259
37288
37150
37193
37191
37113
37253
37233
37251
37143
37226
37282
37318
37287
37226
37263
37241
37338
37385
37443
37307
37185
37280
37156
37255
37143
37165
37128
37097
36996
37003
36943
36870
36859
36858
36840
36750
36659
36687
36614
36600
36603
36634
36507
36528
36438
36317
36493
36397
36346
36211
36328
36138
36254
36314
36214
36182
36350
36287
36136
36156
36232
36240
36164
36170
36271
36260
36257
36247
36264
36458
36341
36381
36417
36443
36423
36450
36438
36500
36483
36545
36459
36519
36603
36519
36646
36591
36640
36572
36717
36658
36698
36571
36746
36636
36817
36806
36639
36880
36771
36656
36671
36809
36880
36708
36801
36872
36724
36756
36743
36759
36798
36839
36814
36859
36849
36879
36831
36960
36911
36932
37113
37096
37022
37026
36972
37124
36991
37145
37083
37156
37139
36969
37130
37039
37121
37011
37179
37235
37193
36957
36961
37114
37037
36936
36944
36835
36758
36755
36844
36634
36746
36600
36666
36499
36592
36487
36368
36343
36430
36275
36349
36359
36244
36087
36186
36245
36114
36051
36056
35961
35914
36085
36084
35942
35964
35988
35891
36004
36052
35960
35857
36004
35960
35852
36052
36029
36042
36115
35974
35962
35989
36131
36043
36061
36067
36027
36126
36201
36024
36250
36235
36120
36131
36071
36101
36137
36096
36204
36252
36155
36314
36249
36108
36165
36355
36145
36212
36254
36317
36262
36349
36428
36359
36447
36314
36375
36456
36571
36524
36628
36490
36569
36606
36618
36578
36560
36552
36462
36522
36549
36549
36626
36614
36506
36658
36629
36557
36526
36623
36612
36752
36655
36578
36589
36608
36715
36645
36639
36737
36645
36663
36863
36894
36926
36706
36771
36885
36778
36729
36761
36693
36689
36731
36627
36475
36479
36393
36390
36252
36267
36239
36301
36222
36094
36178
36056
36082
35986
35887
35871
35865
35811
35791
35951
35693
35818
35852
35840
35840
35737
35669
35652
35639
35638
35618
35561
35603
35545
35753
35587
35575
35587
35627
35711
35770
35814
35705
35657
35782
35870
35812
35960
35858
35859
35986
36017
35897
36090
36112
36014
36148
36029
36214
36049
36055
36098
36175
36105
36293
36252
36224
36301
36161
36357
36343
36402
36236
36221
36376
36444
36457
36429
36563
36422
36574
36388
36449
36601
36590
36626
36738
36670
36681
36731
36675
36784
36693
36872
36670
36923
36857
36953
36757
36944
36882
36830
36943
36943
36981
36863
37015
37066
37093
37071
37019
37065
37064
37026
37107
37100
37283
37195
37272
37251
37247
37273
37362
37284
37370
37409
37368
37236
37358
37349
37275
37274
37225
37071
37127
36966
36955
36896
36833
36723
36822
36770
36688
36817
36633
36691
36608
36577
36464
36704
36660
36580
36470
36382
36396
36530
36329
36331
36439
36313
36281
36295
36435
36204
36307
36219
36303
36195
36333
36415
36323
36415
36397
36300
36497
36360
36412
36478
36425
36465
36546
36511
36499
36568
36429
36440
36575
36624
36667
36425
36570
36663
36574
36621
36477
36554
36641
36733
36696
36624
36693
36713
36571
36736
36596
36663
36628
36639
36604
36748
36867
36794
36630
36799
36892
36833
36649
36771
36725
36867
36746
36955
36997
36962
36781
36902
37016
36978
37040
37029
36962
37022
37021
36969
37052
36986
37005
37125
37023
37167
36953
36995
37159
37147
37017
37067
37228
37129
37252
37144
37025
37110
37139
37179
37196
37226
37163
37011
37127
37108
37035
37033
36997
36982
36856
36720
36743
36868
36757
36811
36719
36682
36673
36665
36596
36443
36494
36389
36475
36427
36495
36465
36466
36327
36308
36319
36357
36421
36167
36282
36341
36137
36249
36299
36210
36215
36266
36168
36217
36300
36223
36338
36365
36346
36237
36286
36389
36415
36495
36434
36452
36416
36389
36525
36515
36386
36385
36527
36457
36388
36566
36613
36546
36480
36457
36443
36638
36512
36670
36516
36729
36687
36602
36685
36594
36707
36755
36653
36706
36787
36684
36665
36765
36839
36824
36659
36865
36823
36758
36873
36833
36881
36937
36863
36947
36985
36998
36903
36869
36889
36894
36921
36904
37000
36962
36938
36926
37013
37142
36990
37087
37053
37057
37118
37038
37045
37077
37170
37090
37123
37241
37079
37270
37215
37105
37083
37117
37228
37110
37073
36950
36976
36923
36852
36833
36841
36808
36720
36682
36621
36644
36566
36439
36479
36485
36484
36531
36444
36287
36447
36373
36261
36188
36351
36298
36320
36281
36197
36157
36090
36129
36153
36124
36000
36155
36202
36077
36148
36157
36132
36122
36165
36063
36238
36258
36213
36166
36237
36108
36273
36301
36167
36137
36161
36211
36115
36275
36292
36186
36235
36192
36241
36296
36171
36198
36281
36196
36335
36388
36270
36281
36324
36395
36402
36320
36447
36503
36411
36442
36326
36410
36333
36476
36524
36440
36559
36433
36596
36425
36624
36566
36645
36638
36557
36665
36690
36637
36584
36515
36569
36635
36609
36541
36615
36706
36616
36710
36600
36710
36632
36698
36710
36640
36778
36673
36572
36647
36583
36747
36823
36734
36628
36814
36625
36714
36822
36681
36749
36706
36648
36619
36567
36514
36638
36417
36440
36478
36314
36392
36220
36195
36287
36236
36223
36120
36185
36002
36047
35980
35940
35957
35959
35893
35885
35781
35677
35754
35721
35641
35687
35703
35576
35568
35543
35575
35605
35533
35551
35598
35639
35511
35489
35728
35713
35696
35765
35578
35629
35775
35643
35799
35882
35772
35895
35790
35837
35860
35894
35876
35815
35915
35847
35878
35930
36014
35944
35807
36013
35920
35976
35871
36064
35892
36064
36119
36127
35974
36021
36162
36126
36117
36218
36059
36246
36233
36299
36156
36256
36187
36103
36252
36152
36156
36209
36312
36191
36195
36269
36435
36386
36294
36362
36428
36293
36352
36364
36494
36561
36485
36366
36572
36403
36537
36640
36554
36478
36693
36714
36587
36843
36672
36759
36715
36717
36702
36710
36586
36607
36713
36653
36553
36459
36568
36413
36464
36255
36267
36219
36249
36248
36261
36075
36173
36240
36148
36084
36115
35974
35972
35953
36065
35964
36038
35950
35802
35884
35974
35927
35818
35852
35683
35904
35848
35801
35788
35699
35821
35886
35896
35832
35812
36031
35898
36033
35906
35958
36059
36067
35959
35915
35993
35982
36064
36021
36039
36090
36157
36065
35983
36159
36179
36093
36180
36270
36297
36293
36232
36228
36202
36248
36162
36326
36224
36178
36163
36343
36246
36206
36382
36200
36343
36421
36288
36266
36446
36315
36357
36344
36297
36360
36508
36375
36481
36420
36533
36355
36554
36469
36582
36402
36356
36489
36478
36600
36420
36488
36453
36544
36523
36669
36523
36538
36673
36592
36604
36644
36642
36636
36670
36559
36667
36525
36485
36462
36399
36357
36406
36279
36163
36197
36103
36136
36108
35967
36005
36096
35935
35819
35909
35992
35840
35883
35862
35864
35712
35696
35755
35914
35718
35720
35691
35668
35825
35645
35754
35807
35606
35793
35773
35738
35745
35716
35941
35945
35868
35805
35896
35958
35907
35855
36003
36069
36082
35969
36138
35953
35990
36174
36111
36171
36024
36177
36144
36159
36251
36169
36178
36325
36270
36330
36176
36344
36377
36225
36217
36201
36342
36380
36364
36242
36396
36239
36433
36294
36451
36278
36472
36399
36447
36395
36372
36416
36328
36399
36547
36560
36568
36560
36569
36528
36583
36640
36512
36747
36610
36633
36586
36619
36634
36769
36676
36573
36758
36659
36678
36727
36763
36597
36715
36584
36693
36619
36457
36392
36442
36402
36374
36337
36198
36132
36149
36100
36169
35972
36066
36104
36091
35898
36002
36074
35817
35810
35928
35777
35876
35850
35851
35714
35793
35857
35796
35700
35787
35648
35612
35637
35729
35752
35622
35778
35891
35719
35673
35900
35773
35759
35899
35835
35813
35921
36029
35975
35913
35861
36004
36041
35972
35885
35974
35985
36013
36027
35944
36019
36111
36057
36085
36158
36187
36117
36136
36088
36068
36156
36072
36195
36108
36164
36269
36173
36264
36362
36284
36223
36235
36380
36257
36233
36274
36321
36488
36493
36505
36454
36354
36484
36552
36385
36541
36522
36554
36431
36495
36570
36664
36611
36638
36467
36578
36632
36576
36571
36672
36767
36714
36651
36663
36599
36572
36745
36542
36424
36621
36414
36472
36358
36291
36314
36418
36306
36281
36222
36278
36200
35992
36021
36141
36087
36035
36032
35961
35952
35904
36023
35891
35934
35864
35830
35914
35783
35781
35788
35845
35710
35736
35883
35814
35797
35769
35855
35751
35836
35848
35911
35965
35930
36063
35985
36025
36065
35989
36027
36070
36064
36127
36163
36294
36134
36173
36214
36239
36225
36271
36379
36211
36390
36219
36248
36311
36297
36388
36342
36230
36348
36421
36349
36469
36347
36412
36516
36429
36384
36543
36457
36501
36645
36569
36476
36629
36563
36747
36602
36604
36523
36747
36637
36670
36761
36758
36715
36596
36694
36793
36759
36658
36697
36861
36813
36778
36688
36871
36922
36813
36782
36769
36884
36704
36824
36869
36817
36806
36770
36814
36719
36719
36629
36530
36501
36434
36393
36272
36316
36251
36244
36115
36147
36121
36123
36112
35999
36019
36094
35913
35939
35898
36052
35838
35923
35968
35965
35837
35821
35841
35739
35759
35973
35818
35787
35873
35779
35912
35996
35891
35797
35921
35868
35888
35963
35950
36070
36064
36052
36184
36146
36056
36052
36128
36149
36189
36167
36202
36281
36217
36106
36203
36166
36211
36146
36286
36364
36281
36246
36435
36488
36354
36430
36367
36337
36481
36529
36320
36350
36413
36509
36489
36580
36427
36461
36552
36668
36563
36560
36588
36582
36589
36702
36625
36554
36757
36730
36752
36776
36746
36765
36652
36798
36794
36757
36722
36837
36760
36891
36788
36956
36989
36925
36982
36991
37042
37039
36878
36899
37072
37028
36895
36903
37021
36839
36984
36996
36874
36805
36725
36653
36574
36586
36570
36590
36394
36461
36365
36426
36476
36386
36340
36248
36287
36203
36211
36123
36163
36140
36191
36200
36029
36095
36078
36126
36097
35951
35979
36164
36052
36097
36099
36009
35963
36015
36043
36018
36150
36097
36010
36090
36090
36185
36053
36140
36294
36178
36202
36160
36375
36221
36290
36447
36304
36461
36446
36448
36473
36276
36361
36426
36324
36538
36553
36488
36394
36483
36481
36496
36607
36555
36535
36572
36543
36619
36505
36563
36717
36739
36743
36549
36684
36596
36738
36799
36689
36842
36649
36570
36799
36743
36856
36792
36760
36842
36910
36804
36923
36805
36751
36841
37015
36924
36848
36970
37037
37049
36910
36872
37006
36938
37011
37129
37033
37122
37011
36984
37154
37006
37151
37080
37026
37091
37031
37224
37218
37114
37135
37124
37006
37085
36996
36999
37015
37006
36911
36875
36848
36877
36746
36781
36686
36782
36603
36635
36515
36571
36492
36423
36473
36491
36281
36182
36407
36204
36233
36211
36124
36095
36075
36073
36217
36105
36058
36119
36170
36007
36189
36172
36131
35998
36164
36130
36035
36073
36164
36051
36200
36251
36321
36215
36210
36185
36424
36273
36427
36416
36325
36355
36372
36348
36479
36418
36403
36394
36500
36495
36607
36445
36504
36439
36595
36500
36594
36716
36595
36510
36654
36745
36611
36621
36717
36612
36709
36862
36805
36782
36749
36805
36879
36892
36775
36914
36996
36815
36940
36983
36876
37060
36972
36948
36945
37008
37031
37112
37087
37088
37076
37220
37117
37135
37188
37232
37134
37132
37231
37279
37328
37309
37194
37379
37231
37290
37352
37404
37286
37254
37269
37386
37382
37351
37329
37510
37387
37350
37537
37355
37468
37419
37526
37479
37562
37533
37488
37424
37437
37374
37369
37302
37323
37188
37225
37195
37012
37117
37044
37106
37127
36984
36966
36875
36841
36872
36905
36874
36844
36802
36805
36699
36783
36691
36824
36748
36624
36627
36684
36610
36749
36735
36672
36539
36556
36659
36676
36573
36774
36737
36584
36690
36843
36821
36705
36755
36683
36825
36739
36848
36733
36932
36876
36855
36900
36930
36844
36969
36862
36833
36890
36776
36844
36807
36765
36902
37014
36867
36856
36966
36948
36992
37090
36856
36873
37021
37079
37016
36952
37045
37023
37099
37063
36956
37060
37047
37051
37053
37016
37068
37020
37093
37169
37042
37203
37093
37058
37235
37124
37218
37168
37160
37310
37317
37185
37339
37179
37167
37386
37354
37214
37233
37310
37474
37363
37375
37363
37303
37424
37284
37498
37294
37512
37485
37531
37566
37377
37560
37582
37533
37415
37442
37312
37384
37381
37308
37428
37231
37301
37096
37084
37102
37146
36973
37000
36926
36978
36880
37007
36773
36789
36701
36852
36858
36884
36809
36718
36683
36801
36698
36587
36725
36656
36745
36732
36706
36635
36663
36628
36741
36719
36626
36633
36747
36687
36626
36685
36628
36729
36613
36747
36700
36783
36805
36684
36895
36732
36869
36925
36855
36822
36779
36845
36779
36744
36887
36836
36825
36960
36853
36792
36838
36921
37004
36957
36819
37026
36896
37049
36833
36976
37014
37055
37074
36924
36951
37130
36991
36913
37051
37143
37162
37215
37118
37006
37081
37182
37224
37119
37195
37242
37079
37025
37299
37120
37264
37293
37297
37193
37142
37209
37374
37240
37218
37368
37319
37273
37351
37332
37329
37429
37307
37418
37393
37315
37396
37442
37395
37484
37442
37454
37393
37374
37374
37513
37431
37448
37407
37415
37489
37407
37505
37304
37492
37408
37426
37211
37175
37212
37248
37076
37144
36914
36981
37045
36873
37045
36902
36854
36761
36930
36741
36778
36660
36831
36651
36752
36580
36635
36506
36630
36624
36614
36572
36601
36719
36638
36644
36501
36446
36488
36495
36644
36460
36518
36749
36585
36616
36686
36662
36649
36588
36536
36790
36885
36646
36773
36717
36792
36818
36835
36760
36839
36917
36907
36913
36888
36865
36954
36827
36871
36848
36810
36925
36984
36843
37062
36969
36939
36963
37129
36940
36891
36984
36951
37062
37132
37107
37207
37115
37043
37168
37212
37232
37220
37241
37234
37164
37205
37304
37222
37240
37205
37283
37329
37221
37388
37250
37358
37256
37187
37292
37227
37380
37231
37324
37292
37244
37449
37465
37327
37295
37376
37385
37504
37447
37367
37402
37364
37510
37572
37360
37508
37550
37387
37365
37304
37454
37252
37401
37320
37251
37109
37121
37123
37104
37115
36964
36914
37048
36863
36990
36942
36774
36857
36728
36823
36709
36771
36628
36776
36630
36659
36669
36551
36751
36710
36494
36486
36509
36605
36525
36454
36570
36676
36563
36663
36603
36546
36634
36656
36707
36620
36589
36756
36764
36737
36737
36821
36893
36706
36834
36874
36795
36970
36829
36857
36811
37040
36847
36824
36965
36922
36947
37038
36931
37100
36967
36938
37099
37075
36997
37190
37204
37156
37157
37270
37087
37171
37343
37246
37234
37291
37316
37261
37273
37499
37473
37464
37575
37400
37482
37601
37474
37413
37528
37465
37611
37617
37609
37638
37657
37738
37698
37658
37649
37823
37826
37784
37816
37823
37676
37766
37760
37903
37784
37775
37872
37750
37940
37889
37898
37951
37992
38028
38052
37831
38060
38015
37911
37916
37835
37959
37876
37794
37916
37703
37611
37745
37740
37619
37606
37578
37606
37502
37457
37417
37478
37235
37306
37144
37241
37103
37184
37127
37106
37154
37226
37012
37180
37173
37099
36967
37104
36957
36966
37061
36999
37038
37107
37009
36846
36916
37074
36963
36997
37037
37057
37063
37064
37065
37056
36994
37104
37075
37132
37141
37148
37058
37090
37143
37099
37276
37129
37170
37319
37304
37137
37294
37186
37280
37313
37157
37215
37209
37258
37305
37182
37220
37245
37402
37208
37276
37208
37376
37314
37362
37391
37289
37389
37302
37413
37357
37469
37481
37375
37504
37388
37445
37462
37396
37360
37403
37553
37405
37556
37482
37499
37499
37522
37587
37612
37606
37530
37585
37633
37658
37587
37653
37644
37472
37535
37767
37652
37535
37668
37579
37547
37655
37668
37691
37626
37516
37472
37477
37623
37481
37535
37426
37210
37388
37378
37252
37158
37066
37244
36968
37006
36999
37084
36986
37033
36925
36982
36925
36881
36728
36936
36806
36883
36732
36873
36776
36727
36696
36783
36749
36697
36691
36648
36690
36739
36620
36784
36825
36804
36644
36760
36753
36857
36789
36862
36968
36952
36768
36954
36811
36927
36811
36837
36936
36890
36923
37030
36899
37072
36990
37069
36963
36948
37120
37014
37132
36874
37147
37062
37095
37162
37131
37037
37009
37108
37159
37162
37047
37202
37132
37157
37293
37188
37161
37256
37214
37396
37297
37333
37312
37190
37318
37325
37291
37249
37266
37341
37364
37369
37407
37374
37490
37364
37539
37459
37323
37484
37327
37429
37360
37500
37518
37469
37406
37434
37447
37415
37634
37586
37570
37432
37450
37556
37378
37535
37351
37218
37310
37153
37087
37147
37213
37100
36910
36962
36938
36923
36901
36709
36794
36686
36628
36612
36624
36511
36653
36517
36497
36631
36496
36485
36464
36310
36512
36429
36424
36390
36366
36296
36306
36319
36342
36293
36289
36330
36342
36337
36311
36392
36378
36456
36302
36382
36583
36460
36483
36544
36540
36573
36635
36547
36534
36530
36611
36688
36592
36526
36671
36703
36537
36630
36673
36623
36724
36624
36580
36653
36554
36673
36600
36672
36594
36642
36672
36627
36681
36705
36663
36735
36711
36873
36809
36727
36812
36741
36833
36779
36757
36837
37033
36886
36843
37055
36922
36945
36998
37071
36986
37079
37111
37040
37176
37002
37139
37199
37145
37097
37150
37138
37069
37179
37149
37053
37114
37137
37248
37076
37234
37199
37281
37186
37321
37180
37113
37195
37055
37042
37093
37036
37047
36956
36972
36838
36699
36832
36674
36586
36724
36494
36426
36573
36456
36513
36353
36353
36379
36262
36252
36222
36245
36166
36206
36272
36113
36100
36276
36103
36264
36186
36272
36102
36088
36057
36024
36193
36182
36068
36050
36112
36128
36088
36109
36075
36246
36138
36222
36088
36151
36358
36180
36369
36312
36284
36174
36278
36331
36327
36269
36496
36370
36318
36398
36363
36471
36355
36333
36557
36561
36343
36362
36562
36500
36372
36437
36427
36473
36380
36545
36540
36524
36445
36566
36495
36571
36621
36610
36676
36688
36619
36609
36707
36575
36685
36818
36819
36734
36771
36796
36691
36844
36858
36734
36814
36813
36895
36853
36747
36839
36773
36948
36808
36924
36999
36943
36872
36857
36990
36961
36925
36843
36987
36993
36897
36872
36891
36923
36728
36715
36720
36711
36717
36500
36461
36557
36372
36341
36226
36256
36232
36289
36162
36146
36257
36230
36189
36189
36131
35931
35919
35890
36040
35905
35849
35910
36000
35934
36033
35895
35823
35837
35968
35909
35979
35819
35849
35939
35810
35922
35904
36054
35940
36148
35937
36034
36158
36041
36079
36122
36111
36063
36052
36270
36207
36159
36231
36263
36308
36336
36168
36167
36309
36185
36329
36253
36201
36315
36267
36369
36191
36274
36306
36229
36424
36368
36382
36461
36365
36358
36328
36373
36366
36368
36477
36523
36450
36381
36485
36633
36548
36391
36449
36605
36448
36490
36653
36622
36534
36560
36718
36644
36741
36611
36727
36664
36547
36760
36724
36640
36627
36643
36832
36713
36757
36843
36798
36701
36679
36807
36776
36610
36721
36641
36681
36463
36382
36467
36290
36268
36401
36270
36059
36130
36036
36089
35957
36051
35908
35904
35989
35938
35828
35889
35883
35727
35813
35674
35815
35746
35728
35616
35668
35740
35845
35603
35597
35783
35728
35624
35730
35747
35638
35885
35684
35900
35847
35919
35768
35928
35992
35854
35891
35852
36074
36074
35873
35914
35925
35913
36034
36104
35997
36014
36116
35990
35972
36111
36038
36064
36083
36055
36295
36229
36214
36212
36078
36138
36232
36321
36358
36331
36393
36271
36339
36384
36342
36375
36360
36466
36435
36336
36454
36375
36448
36379
36509
36643
36634
36475
36606
36744
36513
36584
36556
36697
36635
36565
36730
36712
36618
36737
36788
36707
36815
36676
36789
36697
36887
36759
36912
36746
36901
36946
36902
36815
36835
36689
36702
36783
36743
36773
36568
36528
36609
36490
36275
36299
36259
36210
36122
36272
36250
36080
36159
36229
36189
36053
35937
36130
36081
36000
36029
35939
36018
35863
35948
35950
35969
35871
35946
36080
35884
35923
36097
36118
36120
36064
36030
36223
36213
36195
36219
36349
36208
36392
36437
36441
36386
36540
36458
36391
36487
36454
36577
36470
36641
36652
36544
36534
36688
36781
36617
36661
36666
36776
36722
36696
36796
36711
36756
36671
36673
36670
36573
36638
36738
36624
36729
36833
36879
36681
36880
36716
36848
36926
36825
36924
36802
36941
36931
36814
36870
36892
36951
36839
36829
36913
36751
36860
36717
36914
36977
36933
37014
36959
36842
36935
36956
37000
37046
36933
36885
37038
37076
36881
37003
36881
37021
36909
37018
36828
37009
36814
36880
36793
36847
36695
36754
36647
36509
36567
36509
36515
36511
36391
36473
36439
36210
36381
36322
36181
36261
36290
36229
36224
36170
36251
36078
36216
36069
36269
36025
36010
36257
36200
36085
36086
36290
36114
36311
36177
36324
36336
36225
36412
36547
36322
36492
36482
36422
36513
36595
36523
36677
36589
36714
36717
36756
36581
36754
36719
36750
36819
36679
36707
36612
36706
36598
36705
36657
36705
36746
36678
36571
36688
36574
36682
36558
36540
36531
36456
36554
36566
36512
36340
36597
36567
36511
36461
36486
36601
36447
36448
36477
36490
36551
36530
36604
36606
36641
36638
36573
36747
36728
36760
36840
36640
36826
36757
36816
36832
36872
36755
36697
36794
36580
36571
36677
36657
36730
36761
36608
36718
36472
36553
36452
36443
36333
36326
36385
36258
36388
36200
36202
36239
36027
36242
36181
36072
36059
36119
36028
36127
36122
36087
36007
35812
35836
35785
35858
35745
35749
35659
35754
35680
35742
35844
35666
35864
35790
35826
35681
35769
35788
35815
35904
36024
36117
35950
36096
36154
36080
36101
36264
36193
36241
36249
36265
36385
36293
36244
36316
36309
36276
36202
36391
36343
36272
36241
36217
36348
36460
36347
36248
36311
36346
36522
36440
36580
36445
36505
36723
36615
36783
36776
36618
36707
36858
36737
36980
36952
36885
36841
36912
37047
37081
37182
37164
37023
37119
37131
37166
37237
37315
37180
37170
37310
37331
37256
37370
37418
37448
37317
37235
37418
37254
37390
37371
37345
37507
37382
37393
37311
37352
37416
37310
37488
37446
37437
37266
37106
37212
37273
37099
37151
36981
37016
36817
36849
36798
36809
36953
36846
36849
36704
36737
36743
36745
36621
36738
36716
36538
36458
36627
36490
36458
36494
36642
36677
36484
36621
36645
36564
36607
36604
36657
36581
36592
36470
36664
36474
36590
36574
36440
36662
36557
36546
36510
36521
36463
36604
36617
36670
36535
36687
36652
36578
36626
36618
36563
36572
36615
36850
36656
36725
36758
36768
36844
36843
36921
36788
36750
36866
36759
36752
36978
36935
36869
36825
36813
36915
36870
36886
36888
36958
37044
37074
37089
36896
37147
37183
37088
36976
37223
37121
37087
37252
37294
37215
37137
37241
37269
37228
37156
37213
37342
37217
37270
37267
37226
37219
37336
37316
37221
37189
37305
37271
37284
37193
37366
37218
37276
37168
37054
37237
37059
36954
37027
36985
37027
36849
36753
36851
36836
36793
36692
36598
36643
36599
36408
36574
36592
36478
36329
36487
36296
36307
36261
36209
36154
36138
36239
36280
36257
36115
36313
36138
36124
36222
36158
36260
36158
36218
36194
36277
36213
36293
36457
36346
36476
36528
36529
36499
36390
36562
36422
36597
36512
36411
36558
36613
36565
36661
36618
36414
36453
36460
36634
36605
36673
36731
36631
36651
36713
36590
36657
36675
36573
36806
36682
36657
36866
36793
36813
36833
36888
36689
36805
36998
36880
36878
36954
37047
37061
36981
37093
37026
37061
37157
37032
37048
36952
37180
37116
37089
37155
37154
37216
37127
37071
37216
37117
37204
37304
37170
37224
37416
37326
37240
37352
37278
37342
37296
37314
37240
37189
37353
37266
37275
37049
36982
37148
36988
37016
36938
36800
36977
36921
36925
36718
36932
36687
36907
36830
36733
36819
36755
36688
36875
36817
36659
36688
36749
36727
36692
36642
36769
36584
36736
36617
36568
36630
36507
36696
36765
36688
36645
36766
36694
36744
36820
36710
36736
36837
36871
36886
36800
36772
36887
36826
36846
36670
36886
36767
36717
36768
36753
36781
36783
36821
36772
36765
36770
36855
36825
36838
36872
36816
36841
36835
36845
36918
36844
37004
36976
37080
37066
37034
36961
37011
37068
36984
37162
37143
37109
37171
37154
37166
37178
37184
37225
37298
37317
37271
37278
37303
37330
37396
37335
37200
37297
37288
37410
37357
37451
37401
37492
37439
37500
37511
37544
37495
37391
37546
37462
37432
37280
37338
37333
37265
37335
37223
37359
37278
37238
37205
37068
37071
37226
37102
37248
37253
37186
37122
37066
37197
37050
36964
37141
37006
37000
36925
37090
36868
36827
36921
37005
37038
36938
36893
36875
37001
36897
36945
37113
37098
37011
37058
37003
37005
37121
37199
37160
37270
37202
37158
37250
37291
37259
37278
37275
37273
37339
37331
37404
37330
37302
37431
37496
37445
37591
37446
37533
37435
37523
37403
37503
37603
37612
37652
37459
37591
37698
37687
37585
37705
37734
37668
37799
37807
37740
37755
37832
37703
37821
37708
37628
37774
37711
37819
37889
37816
37708
37843
37881
37888
37725
37961
37747
37958
37909
37830
37902
37998
37950
38128
37988
38011
37920
37881
38054
37887
37975
37820
37831
37799
37712
37682
37544
37576
37664
37422
37554
37498
37546
37476
37423
37262
37277
37371
37289
37241
37307
37362
37177
37261
37164
37210
37235
37203
37231
37184
36965
37071
37129
37012
37071
36965
37042
36997
37180
37099
37077
37038
37263
37128
37061
37296
37284
37112
37195
37165
37173
37247
37273
37118
37261
37338
37256
37374
37311
37323
37183
37230
37152
37197
37251
37192
37322
37285
37286
37393
37267
37448
37330
37353
37312
37523
37485
37486
37531
37653
37520
37556
37524
37764
37600
37546
37685
37737
37688
37617
37685
37833
37772
37682
37628
37843
37735
37788
37722
37779
37799
37743
37916
37855
37681
37826
37711
37883
37897
37753
37711
37896
37712
37926
37910
37880
37880
37823
37631
37829
37675
37456
37576
37424
37493
37420
37251
37328
37367
37248
37117
37145
37193
37129
37151
37070
37160
37047
36955
37094
36969
37048
37008
36962
36930
37087
36949
36987
37032
36903
37032
36831
36924
36914
36847
36858
36888
36970
36964
37071
37127
37021
36939
37070
37007
37098
37155
37128
37242
37194
37164
37061
37162
37115
37189
37269
37162
37247
37154
37347
37378
37326
37340
37195
37392
37376
37307
37419
37318
37281
37364
37451
37417
37375
37413
37427
37532
37495
37533
37595
37579
37544
37517
37486
37607
37544
37567
37609
37590
37569
37599
37582
37583
37580
37717
37787
37776
37851
37827
37761
37888
37816
37937
37748
37807
37797
37800
37854
37865
37841
37843
37977
37943
37860
38004
37837
37836
37972
37816
37766
37835
37707
37627
37775
37636
37612
37572
37491
37438
37399
37505
37378
37436
37340
37338
37238
37253
37262
37066
37177
37089
37065
37138
37051
37181
37103
37128
37110
37100
37162
37145
37128
37145
37161
37085
36990
37189
37155
37153
37218
37208
37277
37209
37173
37125
37101
37189
37160
37137
37315
37228
37320
37250
37186
37264
37218
37250
37249
37300
37391
37336
37416
37371
37312
37398
37488
37471
37464
37439
37440
37463
37487
37595
37500
37423
37579
37481
37560
37665
37495
37705
37713
37521
37700
37792
37638
37743
37669
37717
37685
37640
37681
37726
37820
37738
37761
37625
37656
37698
37710
37808
37813
37957
37879
37729
37822
37729
37908
37828
37918
37944
37868
37892
37919
37840
37862
37975
37875
37869
37871
37796
37814
37660
37675
37593
37704
37660
37687
37517
37439
37417
37410
37616
37374
37505
37423
37499
37397
37447
37394
37307
37405
37387
37249
37246
37324
37324
37403
37361
37298
37363
37308
37428
37314
37477
37482
37520
37528
37502
37503
37542
37756
37749
37649
37583
37596
37610
37680
37738
37725
37695
37827
37944
37739
37931
37866
37987
37891
37943
37998
37901
37914
38038
37980
38035
38022
38053
38187
38181
38133
38196
38296
38192
38258
38308
38353
38452
38457
38483
38432
38538
38381
38362
38602
38549
38580
38404
38446
38598
38449
38648
38502
38580
38747
38639
38762
38638
38661
38782
38773
38843
38847
38707
38863
38738
38783
38822
38697
38789
38650
38636
38805
38637
38698
38726
38645
38470
38486
38655
38459
38587
38543
38504
38362
38453
38494
38438
38296
38408
38363
38345
38412
38418
38223
38258
38230
38203
38264
38158
38298
38314
38279
38233
38329
38332
38422
38295
38320
38450
38501
38527
38537
38521
38434
38504
38460
38470
38585
38482
38441
38428
38492
38468
38510
38640
38508
38549
38694
38663
38516
38627
38603
38639
38549
38551
38563
38678
38613
38791
38772
38667
38736
38761
38783
38554
38821
38729
38622
38638
38617
38631
38772
38699
38744
38789
38797
38815
38725
38810
38787
38763
38770
38810
38846
38772
38794
38773
38638
38842
38642
38797
38884
38834
38782
38705
38749
38716
38796
38646
38697
38558
38629
38507
38335
38482
38355
38325
38376
38216
38219
38276
38202
38085
38244
38104
38106
38073
38113
38129
38047
38112
37974
37864
37822
37957
37816
37874
37947
37862
37822
37843
37698
37721
37783
37686
37750
37823
37757
37709
37840
37823
37737
37744
37762
37778
37676
37723
37649
37746
37676
37704
37673
37663
37738
37675
37785
37683
37584
37666
37722
37677
37587
37634
37649
37628
37764
37692
37826
37733
37720
37784
37772
37665
37859
37740
37764
37722
37738
37686
37820
37880
37759
37788
37791
37832
37751
37794
37865
37741
37777
37801
37802
37727
37689
37809
37678
37835
37761
37664
37768
37744
37728
37718
37638
37591
37574
37574
37507
37479
37488
37454
37389
37362
37261
37290
37205
37140
37049
37058
37073
36963
36940
36863
36934
36761
36843
36699
36843
36721
36691
36601
36696
36569
36566
36629
36479
36573
36535
36414
36507
36570
36514
36560
36443
36363
36428
36510
36455
36622
36440
36619
36561
36641
36631
36644
36619
36699
36541
36682
36547
36536
36710
36622
36608
36481
36519
36509
36483
36546
36592
36640
36530
36526
36479
36680
36600
36664
36499
36612
36658
36601
36559
36552
36513
36645
36745
36632
36600
36616
36675
36695
36624
36588
36725
36717
36721
36782
36818
36846
36785
36866
36755
36731
36782
36839
36846
36851
36887
36757
36752
36764
36646
36596
36720
36744
36667
36605
36670
36561
36424
36392
36455
36332
36230
36233
36267
36382
36141
36131
36151
36255
36193
36035
36155
35986
36110
36096
35943
35889
35899
35952
35848
35823
35898
35825
35933
35819
35790
35820
35925
35882
35811
35833
35887
35849
35947
35840
35976
35975
36034
35901
35901
36043
35955
36007
35889
35955
35993
36035
36102
36002
36105
35965
35983
36034
36131
36046
36205
36081
36029
36117
36228
36140
36134
36277
36203
36309
36204
36281
36285
36349
36331
36389
36420
36240
36283
36395
36324
36278
36407
36446
36411
36527
36484
36494
36600
36612
36659
36611
36511
36648
36617
36523
36508
36644
36779
36742
36840
36655
36786
36703
36701
36817
36694
36754
36684
36604
36571
36465
36632
36548
36350
36437
36447
36317
36429
36401
36334
36212
36111
36220
36243
36090
36220
36195
36114
36009
35956
36127
36084
36091
36014
36040
35993
35856
35905
35952
35987
35941
35790
35951
35927
35877
35997
35950
35867
35837
36008
35926
36046
36010
36138
36052
36121
36068
36123
36194
35971
36225
36227
36162
36107
36055
36179
36218
36218
36148
36222
36348
36218
36166
36364
36248
36404
36265
36456
36305
36538
36334
36457
36446
36487
36494
36523
36642
36660
36723
36697
36751
36703
36776
36835
36759
36829
36840
36799
36904
36822
36903
36874
36829
36912
36869
36885
36909
36975
37005
36967
36981
37106
37037
37145
37022
37042
37069
36980
36982
37061
37003
36940
36812
36681
36882
36662
36704
36813
36720
36572
36576
36654
36614
36610
36553
36411
36594
36552
36445
36549
36502
36415
36405
36440
36321
36254
36357
36243
36332
36247
36252
36274
36356
36210
36316
36276
36257
36280
36462
36429
36278
36398
36541
36553
36621
36407
36411
36622
36544
36572
36523
36667
36629
36524
36698
36681
36727
36778
36731
36751
36698
36613
36688
36822
36858
36793
36722
36752
36866
36912
36921
36793
36822
36907
36890
36986
36921
37009
36829
36850
36950
36956
37013
37025
36962
37037
36937
36931
37034
36917
37001
37159
37080
37157
37040
37033
37170
37065
37198
37154
37077
37180
37123
37128
37250
37113
37147
37073
37088
37198
36965
37133
36898
37030
36953
36881
36807
36905
36911
36825
36814
36896
36736
36632
36612
36556
36575
36684
36622
36580
36625
36577
36587
36601
36569
36473
36586
36432
36554
36507
36401
36519
36494
36510
36463
36572
36477
36620
36521
36542
36545
36460
36682
36457
36520
36718
36655
36676
36791
36752
36655
36667
36854
36735
36669
36754
36730
36712
36737
36904
36917
36848
36829
37010
36965
36899
36849
36905
36969
37007
37045
37025
37001
36896
37036
36969
36950
37034
37074
37056
37159
37141
37281
37174
37156
37255
37116
37330
37274
37242
37295
37325
37373
37421
37403
37412
37333
37386
37384
37355
37401
37365
37374
37436
37543
37427
37527
37475
37381
37492
37359
37334
37260
37280
37229
37196
37198
37170
37244
37135
37075
37160
37106
37052
36986
37068
36962
36982
37027
36892
36920
36919
36883
36848
36967
36942
37006
36951
36924
36990
36779
36811
36974
36902
36913
36984
36848
36951
36998
36975
37067
37047
36896
36968
36912
36914
36992
36962
37004
37034
37132
36984
37099
37214
37165
37235
37229
37075
37064
37200
37135
37225
37218
37184
37171
37326
37192
37205
37231
37280
37297
37395
37324
37305
37308
37422
37430
37376
37347
37327
37351
37566
37427
37604
37500
37563
37475
37648
37547
37701
37643
37506
37611
37734
37535
37591
37711
37631
37766
37702
37676
37828
37800
37869
37883
37858
37866
37705
37723
37878
37745
37778
37710
37844
37667
37590
37684
37711
37665
37647
37476
37386
37380
37259
37408
37460
37281
37252
37312
37363
37238
37241
37208
37268
37147
37190
37163
37290
37151
37191
37242
37277
37200
37254
37124
37220
37214
37203
37085
37216
37100
37238
37285
37185
37292
37252
37191
37310
37217
37166
37379
37318
37386
37347
37357
37334
37474
37444
37475
37493
37400
37535
37437
37516
37521
37588
37480
37515
37525
37549
37618
37420
37478
37657
37672
37596
37580
37581
37518
37579
37612
37710
37596
37742
37722
37793
37714
37838
37898
37794
37716
37964
37919
37922
37864
37805
37912
37786
37901
38073
37931
38056
38078
38097
38080
38013
38106
37966
38001
37960
38163
38087
37980
38165
38022
38185
38043
38193
38069
38326
38098
38093
38279
38224
38150
38077
38025
38150
37967
37896
37989
38006
37912
38049
37863
37741
37761
37835
37786
37727
37905
37821
37842
37775
37717
37730
37590
37620
37733
37650
37606
37688
37732
37509
37623
37704
37531
37487
37547
37592
37585
37463
37649
37725
37551
37486
37708
37610
37745
37647
37806
37708
37677
37818
37640
37738
37828
37790
37893
37866
37882
37772
37984
38010
37860
37881
37957
37983
38012
37974
37959
37971
38033
38089
37991
37856
38062
38098
37993
38125
37923
37989
37955
38013
38011
38112
38023
38072
38000
38106
38045
38101
38094
38118
38055
38040
38197
38258
38201
38125
38235
38122
38088
38299
38241
38083
38115
38245
38302
38227
38337
38257
38217
38309
38350
38339
38357
38293
38409
38279
38240
38315
38369
38216
38282
38270
38356
38327
38233
38250
38119
38175
38013
38012
38113
37903
37985
37920
37839
37814
38004
37895
37853
37829
37906
37864
37732
37775
37800
37684
37797
37628
37580
37828
37742
37680
37610
37615
37781
37646
37738
37635
37751
37735
37775
37655
37697
37613
37838
37710
37867
37789
37731
37856
37805
37957
37886
37847
38002
37803
37865
37998
38025
37975
38072
38005
37840
38114
37943
37939
38039
38094
38044
38147
38064
38048
38050
38114
38097
38044
37993
37980
37957
38072
38097
38056
38077
38075
38016
38116
38132
38045
38022
38073
38098
38169
38041
38072
38227
38096
38190
38147
38249
38210
38226
38237
38186
38414
38380
38356
38389
38379
38283
38398
38310
38374
38444
38383
38386
38389
38432
38390
38426
38393
38482
38302
38294
38423
38426
38369
38311
38149
38209
38073
38193
38034
38063
37967
38034
37816
37843
37897
37924
37798
37931
37850
37909
37877
37931
37826
37790
37800
37660
37784
37545
37717
37508
37568
37466
37647
37484
37405
37437
37568
37437
37282
37400
37320
37362
37303
37426
37267
37357
37317
37472
37421
37358
37547
37587
37443
37559
37567
37544
37537
37520
37583
37425
37519
37465
37647
37661
37515
37442
37591
37470
37527
37530
37654
37560
37420
37550
37526
37539
37652
37438
37470
37496
37393
37505
37453
37452
37596
37526
37637
37533
37735
37729
37641
37566
37585
37742
37623
37724
37673
37741
37521
37716
37758
37578
37582
37586
37579
37554
37642
37521
37540
37436
37477
37466
37589
37658
37599
37604
37649
37714
37655
37591
37712
37784
37574
37813
37653
37635
37765
37689
37708
37776
37625
37648
37703
37684
37541
37598
37548
37494
37595
37482
37318
37379
37381
37391
37322
37382
37154
37255
37185
37245
37120
37172
37093
37045
37055
36921
36933
36923
36843
36937
36810
36913
36791
36896
36825
36835
36943
36803
36801
36801
36790
37019
36807
36883
36959
37064
36948
36986
36989
37111
37127
37101
37249
37089
37270
37341
37235
37401
37348
37355
37419
37309
37274
37443
37503
37474
37381
37477
37538
37427
37599
37572
37573
37481
37618
37535
37736
37654
37658
37776
37745
37714
37699
37809
37838
37968
37886
37885
37779
37913
37917
37966
38057
37975
37928
37956
37955
38027
37887
38080
38094
38024
37948
38100
37998
38130
37975
37873
38003
37940
37966
38004
38027
38080
37911
37939
37947
38122
37888
37950
37974
38137
38050
38061
38157
38065
38075
38018
37910
37890
37859
37867
37992
37768
37777
37788
37781
37810
37736
37859
37878
37771
37953
37884
37936
37985
38053
38019
38126
37930
37920
38156
38043
38020
38189
38024
38077
38018
37959
38045
38161
38101
38021
37911
38019
38045
38120
38063
37980
37985
38024
37941
38022
38114
38132
38271
38257
38147
38317
38154
38293
38222
38330
38285
38268
38461
38350
38355
38376
38510
38424
38651
38396
38538
38426
38520
38586
38507
38681
38694
38736
38669
38620
38664
38707
38613
38746
38822
38807
38677
38740
38842
38789
38759
38922
38817
38806
38764
38859
38943
38789
38882
39016
38829
38919
38913
38817
38986
38926
38925
38832
38962
38791
38987
38846
38817
38978
38813
38942
38947
38851
38740
38954
38911
38893
38800
38813
38818
38827
38651
38612
38519
38586
38411
38575
38515
38316
38237
38190
38347
38290
38205
38235
38102
38152
38095
38103
37986
38142
37959
38081
38063
38115
37975
38049
37946
37941
38052
38055
38037
38092
38031
37894
38057
38029
37944
38020
37952
38063
38083
37987
37964
38061
37930
38060
38112
38074
38205
38083
38002
38151
38151
38232
38137
38236
38259
38128
38036
38190
38103
38256
38265
38105
38273
38169
38200
38179
38177
38178
38154
38155
38158
38116
38117
38195
38166
38321
38156
38237
38246
38251
38242
38289
38285
38262
38289
38317
38329
38370
38381
38301
38348
38449
38342
38393
38389
38323
38313
38402
38448
38424
38431
38439
38286
38323
38284
38503
38331
38402
38490
38391
38528
38387
38458
38287
38423
38413
38294
38193
38153
38098
38212
38023
38045
38030
37976
37945
38033
38042
37930
37791
37929
37862
37904
37861
37677
37784
37811
37726
37761
37645
37629
37605
37634
37561
37739
37684
37481
37496
37688
37567
37498
37640
37629
37722
37539
37637
37727
37770
37711
37587
37641
37725
37783
37886
37870
37773
37869
37863
37893
37839
37763
37845
37871
37813
37914
37889
37943
37999
38002
37954
38062
37884
37983
37968
37986
38082
37975
38138
38039
37996
38003
37979
38180
38042
38157
38174
38141
38146
38150
38168
38193
38184
38170
38231
38425
38340
38254
38436
38373
38425
38312
38398
38338
38602
38417
38401
38449
38404
38548
38544
38603
38504
38571
38435
38682
38603
38547
38733
38564
38713
38849
38724
38636
38695
38822
38657
38632
38681
38457
38496
38485
38424
38425
38406
38369
38366
38334
38194
38264
38294
38148
38175
38129
38259
38220
38201
38221
38185
38089
38054
38170
38084
38179
38064
38179
38057
38033
38018
37999
38026
38113
38100
38013
38115
38044
38008
38108
38014
38135
38083
38300
38372
38248
38217
38407
38342
38252
38231
38228
38303
38472
38335
38442
38475
38387
38360
38319
38558
38514
38424
38519
38635
38604
38556
38663
38622
38617
38660
38714
38738
38776
38619
38659
38813
38646
38831
38826
38878
38849
38703
38781
38853
38860
38736
38855
38876
38882
38820
38813
38812
38858
38905
38877
38936
38901
38887
38943
39036
39011
39009
38929
38927
39015
38947
38948
38843
39054
39085
39085
39105
39096
38899
39001
38967
38825
38803
38941
38813
38878
38669
38742
38675
38580
38550
38543
38536
38514
38439
38474
38493
38430
38493
38383
38473
38313
38273
38370
38429
38180
38318
38143
38260
38153
38280
38133
38251
38145
38120
38321
38116
38253
38132
38338
38227
38103
38277
38218
38291
38179
38201
38267
38084
38278
38195
38245
38210
38354
38305
38325
38363
38323
38363
38425
38375
38527
38423
38462
38425
38554
38436
38502
38490
38479
38427
38502
38391
38482
38444
38444
38333
38333
38385
38345
38378
38386
38317
38460
38350
38577
38590
38397
38576
38579
38489
38560
38644
38525
38557
38488
38549
38651
38679
38729
38606
38545
38709
38781
38601
38684
38839
38669
38738
38710
38867
38745
38874
38761
38703
38741
38781
38611
38606
38632
38562
38450
38537
38548
38351
38311
38277
38414
38210
38164
38154
38314
38131
38223
38223
38197
38202
38011
38152
37961
38126
37975
38017
37979
37896
37936
38039
37909
37909
37971
38035
37906
37932
37978
37947
37909
37951
37878
37988
38019
38044
38106
38084
38039
38230
38055
38178
38297
38203
38154
38149
38268
38147
38125
38295
38246
38103
38185
38298
38218
38112
38120
38265
38276
38224
38120
38352
38377
38348
38201
38313
38424
38408
38368
38391
38245
38456
38493
38453
38341
38526
38329
38412
38428
38333
38412
38446
38485
38308
38326
38264
38439
38346
38540
38548
38521
38521
38539
38466
38465
38496
38572
38634
38647
38468
38658
38645
38483
38529
38655
38538
38456
38579
38501
38544
38425
38328
38337
38293
38203
38214
38178
38208
38062
38065
38104
38034
38067
37920
38003
38033
37900
37917
37903
37949
37945
37784
37926
37914
37672
37871
37820
37638
37713
37594
37688
37779
37749
37681
37719
37644
37700
37850
37778
37673
37869
37834
37764
37821
37758
37860
37906
37907
37860
37835
37921
37937
37969
37993
37883
37978
37985
38047
37964
38061
37960
37978
38015
37990
38095
37904
38118
38118
38106
38181
38151
38029
38169
38166
38179
38174
38100
38159
38141
38193
38269
38296
38104
38302
38113
38162
38330
38215
38327
38329
38426
38203
38329
38470
38411
38308
38381
38258
38414
38401
38365
38299
38485
38358
38289
38481
38508
38388
38509
38446
38367
38356
38520
38274
38278
38363
38227
38172
38224
38253
38212
38013
38153
38138
38032
38042
37880
37849
37950
37880
37757
37702
37710
37781
37666
37699
37747
37658
37749
37647
37553
37587
37740
37532
37487
37683
37577
37539
37609
37477
37635
37515
37664
37516
37727
37724
37770
37738
37861
37819
37855
37815
37877
37823
37957
37875
37932
37875
38118
38057
37877
38034
37916
38013
37959
37997
38035
38124
37943
38097
38141
37964
38127
38170
38112
37996
38184
38189
38043
38147
38214
38191
38089
38164
38296
38142
38151
38225
38125
38211
38310
38207
38354
38279
38126
38224
38233
38352
38316
38243
38306
38439
38372
38295
38447
38280
38325
38315
38483
38483
38541
38377
38409
38618
38573
38381
38497
38500
38468
38344
38422
38374
38307
38319
38238
38159
38107
38223
38111
38014
38123
38080
37845
38035
37952
37852
37999
37897
37827
37691
37871
37707
37864
37637
37636
37587
37668
37751
37602
37663
37656
37646
37565
37708
37667
37622
37638
37640
37568
37770
37609
37794
37753
37727
37643
37828
37781
37750
37768
37722
37923
37888
37923
37923
37994
38031
37849
37995
38076
37904
38015
38044
37903
37983
37979
38075
38021
37989
37933
38150
37988
38171
37963
37997
38010
38105
38014
38198
38180
38183
38166
38123
38172
38094
38264
38081
38153
38166
38300
38327
38230
38289
38379
38232
38311
38278
38156
38262
38320
38288
38395
38190
38384
38356
38235
38254
38245
38305
38265
38329
38199
38206
38147
38231
38209
38173
38004
37885
37854
38032
37867
37707
37668
37730
37764
37705
37726
37582
37651
37454
37522
37382
37377
37396
37346
37401
37416
37332
37255
37192
37262
37165
37257
37142
37317
37291
37123
37104
37337
37087
37311
37142
37123
37161
37208
37241
37340
37300
37369
37371
37246
37435
37252
37470
37358
37478
37411
37337
37453
37377
37457
37564
37423
37503
37531
37376
37425
37393
37470
37487
37529
37579
37575
37505
37501
37694
37762
37578
37559
37741
37736
37662
37696
37833
37718
37786
37856
37694
37917
37745
37919
37915
37821
37740
37903
37878
37944
38011
38025
37967
38018
37992
37982
38071
37935
38067
38165
38059
38192
38106
38204
38037
37985
38165
37949
38143
37895
38078
38033
37809
37845
37954
37813
37671
37723
37641
37710
37532
37597
37669
37540
37458
37499
37503
37360
37320
37431
37280
37187
37356
37222
37251
37162
37269
37339
37112
37106
37112
37093
37169
37162
37141
37195
37135
37117
37179
37246
37242
37195
37356
37206
37382
37308
37175
37225
37401
37343
37476
37356
37378
37511
37414
37335
37472
37439
37460
37507
37489
37557
37448
37571
37511
37531
37494
37532
37562
37580
37601
37705
37732
37692
37732
37739
37596
37753
37596
37821
37702
37660
37890
37918
37886
37722
37912
37982
37879
37798
37956
37845
37877
37948
38011
38085
38066
37969
37978
38088
38042
37968
37982
38049
38128
38172
38076
38222
38033
38229
38062
38107
38162
38301
38204
38077
38195
38233
38106
38177
38084
38106
38031
37911
37836
37779
37833
37837
37721
37735
37583
37714
37606
37650
37646
37591
37715
37480
37647
37463
37547
37442
37354
37606
37421
37351
37417
37345
37380
37359
37434
37262
37266
37345
37494
37357
37294
37311
37493
37428
37496
37596
37423
37564
37570
37489
37637
37670
37460
37490
37670
37565
37516
37561
37630
37761
37690
37620
37681
37788
37698
37752
37713
37747
37782
37743
37845
37830
37744
37885
37785
37923
37775
37821
37880
37945
37917
37959
37866
37956
37862
37883
37951
38048
38032
38145
38044
37968
38133
38028
38088
38068
38170
38274
38232
38228
38134
38255
38284
38181
38263
38326
38317
38294
38297
38244
38349
38329
38209
38361
38258
38363
38321
38370
38438
38365
38325
38446
38381
38402
38383
38406
38215
38281
38137
38130
38014
38103
38161
37914
38063
37994
38035
37950
37958
37882
37774
37836
37909
37856
37853
37794
37670
37738
37710
37747
37695
37691
37606
37521
37661
37589
37622
37504
37524
37508
37617
37660
37781
37762
37752
37589
37708
37639
37716
37756
37783
37737
37804
37769
37901
37912
37763
37934
37936
37810
37842
38041
37878
37999
37961
38061
37955
37962
38012
37939
38023
37984
38032
38107
38030
38088
38063
38115
38139
38162
38092
38211
38288
38229
38211
38247
38367
38229
38262
38360
38425
38346
38496
38469
38278
38451
38563
38413
38600
38458
38427
38427
38573
38411
38490
38460
38619
38463
38531
38394
38605
38626
38634
38650
38671
38569
38728
38607
38821
38569
38767
38732
38821
38518
38621
38513
38551
38473
38451
38426
38352
38340
38303
38218
38293
38190
38167
38204
38128
38057
38019
38131
37956
37924
37903
38032
37881
37915
37902
37878
37860
37956
37850
37667
37811
37604
37755
37602
37718
37699
37643
37599
37773
37641
37727
37867
37825
37731
37795
37799
37681
37871
37772
37749
37784
37820
37737
37783
37909
37772
37924
37874
37718
37736
37922
37940
37772
37765
37752
37962
37886
37792
37891
37964
37791
37870
37895
37817
37820
37967
37834
37896
37941
37895
38068
37914
37892
37968
38125
37956
38038
37912
38033
37871
37958
38048
38011
37951
37974
37910
38024
37879
38077
38117
38026
38046
38093
37968
37964
38004
37943
38135
38161
38086
38132
38108
38030
38170
38025
38024
38113
38087
37927
38119
37936
38015
37864
37923
37791
37849
37723
37740
37720
37698
37648
37531
37625
37697
37533
37456
37462
37482
37426
37351
37236
37267
37359
37252
37310
37182
37057
37092
37035
37044
37186
37091
37109
37135
37121
36991
37017
37138
36991
36909
37038
36906
36966
37014
36949
36970
37056
36984
36947
36995
36908
37085
37114
36929
37148
36985
37030
36986
37101
37184
37223
37076
37045
37081
37286
37275
37217
37104
37225
37162
37217
37215
37184
37333
37272
37230
37189
37075
37119
37187
37198
37218
37279
37272
37207
37314
37398
37302
37493
37329
37340
37404
37493
37451
37417
37511
37457
37533
37481
37441
37539
37603
37583
37452
37490
37572
37560
37641
37483
37508
37704
37581
37589
37622
37600
37634
37614
37580
37741
37694
37750
37825
37782
37695
37547
37584
37695
37557
37554
37589
37573
37394
37459
37492
37461
37394
37465
37377
37322
37369
37300
37131
37283
37244
37097
37144
37186
37049
37115
37044
36968
36919
36921
36962
36807
37035
36917
36930
36953
37045
36840
36884
36993
36906
37055
36926
36895
36880
37129
37103
37054
37196
37122
37165
37202
37079
36998
37183
37228
37048
37007
37178
37258
37168
37081
37233
37049
37249
37198
37175
37250
37204
37200
37199
37354
37369
37309
37448
37300
37424
37338
37369
37339
37331
37382
37380
37402
37541
37398
37470
37508
37512
37500
37577
37714
37603
37696
37607
37715
37700
37765
37680
37769
37658
37842
37811
37871
37749
37900
37739
37805
37971
37808
37940
37968
37832
37973
38005
38118
38038
38087
37969
38103
38030
38192
38054
38137
38216
38142
38172
37963
37954
38023
37963
37961
37974
37858
37849
37881
37704
37855
37656
37789
37847
37777
37770
37794
37780
37598
37608
37585
37644
37735
37716
37745
37788
37776
37681
37670
37718
37760
37577
37614
37609
37705
37537
37732
37825
37819
37740
37750
37919
37810
37988
37950
37875
37851
38036
38020
38107
37977
37996
38121
38125
38185
38185
38248
38161
38186
38113
38312
38278
38265
38268
38186
38219
38286
38257
38317
38268
38344
38466
38376
38261
38464
38497
38466
38420
38492
38558
38506
38474
38632
38476
38621
38616
38687
38569
38651
38770
38769
38573
38746
38604
38723
38632
38745
38836
38801
38708
38786
38833
38832
38943
38828
38914
38868
38950
38937
38962
38853
38981
38879
39090
38912
38939
38984
39112
38959
39062
38901
39019
38837
38935
38884
38751
38661
38613
38629
38702
38586
38689
38508
38487
38601
38483
38505
38549
38448
38437
38358
38369
38442
38300
38365
38360
38323
38317
38190
38305
38357
38356
38359
38336
38422
38224
38390
38308
38375
38404
38330
38309
38326
38478
38370
38517
38454
38494
38370
38554
38338
38470
38384
38464
38465
38339
38416
38584
38504
38520
38442
38598
38529
38554
38425
38515
38560
38599
38514
38639
38566
38604
38569
38599
38602
38539
38618
38570
38640
38616
38666
38625
38667
38656
38570
38632
38748
38709
38543
38643
38701
38793
38818
38793
38704
38823
38616
38871
38776
38819
38837
38769
38689
38856
38676
38750
38813
38918
38739
38879
38793
38857
38959
38895
38782
38824
38827
38736
38826
38767
38798
38683
38560
38568
38480
38614
38420
38474
38413
38409
38460
38406
38240
38243
38185
38202
38228
38272
38151
38250
38149
38100
38124
38112
38044
38086
37989
38094
38145
38017
37972
38027
37968
37974
38066
38131
38133
38021
38158
38081
38025
38110
38110
38090
38168
38053
38169
38111
38125
38261
38110
38111
38107
38126
38270
38333
38345
38351
38316
38185
38320
38210
38332
38332
38305
38260
38269
38388
38489
38365
38272
38393
38371
38461
38338
38388
38426
38401
38450
38345
38435
38487
38457
38437
38482
38460
38585
38595
38511
38430
38485
38578
38598
38639
38541
38575
38606
38516
38597
38701
38713
38491
38646
38639
38696
38555
38674
38718
38665
38721
38657
38620
38708
38792
38731
38716
38722
38632
38709
38652
38567
38523
38390
38436
38504
38405
38425
38254
38224
38232
38312
38175
38222
38143
38205
38147
38012
38115
38079
37986
38030
37874
37903
37931
37862
37921
38017
38012
37916
37921
37962
37824
37960
37893
37841
37902
37766
37836
37802
37842
37932
37909
38027
37879
38027
37968
37899
38061
38069
37861
37995
37893
37994
37905
37919
37903
37971
37879
38106
37998
37947
38091
37985
38122
38192
38086
38051
38141
38204
38230
38226
38222
38111
38201
38115
38131
38219
38287
38263
38263
38241
38345
38261
38276
38300
38413
38432
38401
38428
38386
38301
38319
38468
38594
38491
38423
38573
38502
38501
38583
38553
38477
38611
38610
38537
38488
38556
38563
38471
38700
38582
38691
38610
38535
38544
38722
38703
38570
38647
38620
38529
38687
38515
38431
38557
38590
38389
38393
38402
38350
38144
38298
38398
38216
38305
38266
38120
38069
38083
38065
38037
38187
38045
38089
38098
38113
37933
37959
37915
38072
38024
38010
37907
38062
37924
38057
37964
37864
38068
37927
37885
37932
37938
38094
37974
37988
37970
38044
38024
38169
38068
38026
38110
38102
38154
38242
38192
38257
38136
38142
38161
38283
38298
38207
38180
38195
38377
38228
38378
38371
38228
38344
38251
38307
38218
38374
38506
38502
38321
38471
38441
38577
38343
38592
38577
38421
38534
38523
38553
38658
38603
38657
38620
38649
38693
38611
38642
38714
38788
38739
38634
38690
38863
38783
38770
38719
38762
38779
38858
38808
38859
38843
38747
38846
38782
38909
38932
38910
38848
38904
38808
39001
38992
38775
38941
38783
38717
38786
38721
38690
38583
38622
38591
38573
38562
38542
38467
38516
38468
38369
38374
38429
38409
38449
38328
38458
38369
38361
38269
38254
38271
38364
38339
38275
38379
38265
38388
38180
38306
38171
38219
38383
38394
38248
38362
38334
38488
38386
38420
38362
38524
38414
38434
38387
38462
38514
38466
38469
38526
38529
38599
38481
38595
38577
38553
38559
38530
38548
38557
38708
38743
38598
38634
38755
38816
38690
38844
38864
38863
38703
38716
38824
38893
38774
38925
38760
38914
38977
38963
38848
39031
39041
38995
38835
39039
38972
39051
38970
38946
38971
38947
38930
39020
39063
39113
39017
39067
39057
39061
39012
39145
39021
