61342
61268
61181
61083
60974
60857
60736
60611
60478
60341
60202
60060
59912
59758
59600
59437
59268
59096
58927
58764
58607
58455
58314
58180
58052
57929
57813
57703
57603
57512
57425
57336
57242
57144
57046
56947
56849
56754
56662
56571
56478
56390
56309
56226
56140
56051
55964
55882
55808
55734
55658
55576
55487
55393
55294
55191
55087
54986
54889
54793
54700
54616
54548
54505
54494
54525
54609
54754
54961
55228
55550
55915
56315
56735
57162
57586
58000
58398
58778
59137
59471
59775
60045
60277
60469
60616
60719
60779
60803
60794
60751
60677
60574
60444
60287
60109
59912
59695
59462
59217
58966
58708
58443
58172
57897
57620
57342
57067
56799
56539
56299
56088
55904
55747
55616
55518
55458
55437
55449
55494
55570
55673
55795
55930
56067
56200
56327
56448
56565
56673
56771
56857
56930
56987
57025
57046
57055
57050
57028
56991
56942
56875
56788
56687
56575
56452
56320
56182
56040
55891
55735
55577
55417
55258
55102
54954
54811
54671
54536
54408
54286
54168
54056
53949
53843
53740
53640
53540
53443
53350
53261
53171
53077
52980
52886
52798
52713
52635
52565
52499
52431
52363
52296
52229
52163
52100
52042
51985
51928
51870
51809
51746
51684
51629
51580
51533
51485
51446
51424
51426
51460
51536
51659
51833
52063
52350
52688
53070
53485
53920
54366
54810
55245
55665
56066
56441
56785
57094
57364
57592
57780
57923
58021
58076
58094
58082
58037
57961
57857
57727
57574
57402
57213
57009
56792
56564
56325
56077
55817
55544
55262
54978
54693
54408
54130
53865
53622
53409
53233
53096
52999
52945
52932
52956
53009
53087
53185
53303
53436
53579
53730
53889
54048
54201
54349
54492
54624
54740
54834
54906
54954
54981
54989
54977
54945
54896
54828
54748
54656
54552
54438
54314
54183
54051
53921
53793
53660
53521
53381
53237
53090
52945
52808
52679
52554
52431
52308
52185
52065
51951
51841
51736
51637
51547
51464
51381
51294
51209
51127
51044
50964
50888
50815
50744
50676
50610
50546
50483
50420
50356
50291
50227
50166
50107
50050
49998
49953
49919
49906
49925
49985
50093
50256
50479
50772
51127
51531
51974
52447
52939
53439
53938
54427
54901
55354
55776
56160
56503
56806
57065
57277
57443
57566
57644
57679
57672
57629
57553
57446
57310
57148
56967
56770
56563
56348
56129
55905
55677
55445
55210
54972
54730
54485
54241
54006
53782
53570
53373
53197
53046
52925
52838
52787
52772
52789
52836
52907
53000
53114
53246
53391
53542
53698
53851
53999
54139
54267
54379
54473
54549
54606
54650
54681
54697
54695
54675
54640
54591
54530
54453
54361
54254
54139
54021
53897
53768
53636
53500
53360
53221
53084
52948
52815
52683
52552
52421
52291
52159
52029
51908
51795
51685
51578
51475
51378
51285
51194
51107
51023
50940
50856
50767
50675
50582
50489
50400
50317
50243
50176
50110
50046
49986
49931
49876
49824
49776
49736
49706
49692
49698
49731
49798
49912
50087
50329
50637
51008
51435
51907
52410
52933
53465
53997
54516
55016
55491
55939
56353
56728
57061
57350
57591
57782
57925
58017
58062
58068
58039
57977
57883
57763
57618
57449
57263
57071
56873
56668
56459
56249
56036
55820
55602
55381
55156
54924
54690
54462
54245
54043
53865
53715
53596
53508
53453
53428
53433
53465
53520
53593
53682
53787
53906
54036
54169
54303
54435
54562
54684
54795
54891
54971
55037
55088
55129
55157
55170
55168
55148
55110
55057
54990
54910
54816
54707
54584
54456
54327
54197
54063
53928
53795
53660
53528
53398
53269
53140
53010
52883
52759
52636
52516
52401
52291
52181
52072
51970
51873
51775
51678
51588
51503
51419
51339
51266
51196
51126
51056
50987
50920
50854
50792
50733
50675
50614
50552
50487
50422
50361
50304
50248
50192
50137
50089
50048
50019
50010
50028
50080
50180
50340
50566
50861
51216
51624
52079
52571
53087
53614
54139
54652
55147
55618
56058
56464
56833
57160
57445
57683
57871
58009
58097
58138
58135
58098
58033
57941
57824
57682
57517
57337
57148
56954
56754
56546
56334
56119
55901
55680
55453
55223
54994
54768
54549
54339
54141
53966
53819
53704
53620
53567
53546
53555
53592
53650
53729
53830
53947
54075
54211
54352
54493
54633
54768
54892
54999
55089
55170
55245
55306
55348
55373
55380
55368
55335
55285
55219
55140
55044
54935
54817
54691
54560
54425
54286
54145
54004
53865
53727
53587
53445
53302
53160
53022
52890
52763
52638
52517
52405
52299
52193
52090
51988
51888
51792
51701
51613
51526
51441
51359
51281
51211
51147
51084
51021
50956
50890
50823
50760
50698
50634
50566
50497
50432
50371
50313
50257
50207
50160
50114
50069
50029
49996
49976
49971
49986
50033
50119
50257
50454
50716
51043
51432
51871
52344
52840
53349
53859
54360
54845
55308
55741
56140
56502
56825
57103
57335
57521
57657
57745
57787
57787
57750
57679
57577
57449
57293
57113
56915
56702
56477
56244
56003
55758
55512
55264
55014
54761
54510
54263
54022
53791
53574
53375
53198
53046
52922
52829
52771
52748
52760
52805
52878
52972
53081
53206
53345
53491
53642
53795
53948
54098
54241
54374
54495
54601
54684
54743
54779
54796
54796
54780
54747
54697
54632
54551
54455
54350
54236
54116
53994
53864
53728
53585
53436
53283
53127
52970
52815
52663
52512
52363
52219
52082
51950
51820
51694
51572
51458
51350
51247
51148
51052
50961
50875
50790
50708
50629
50558
50495
50440
50389
50341
50296
50253
50205
50152
50095
50032
49967
49905
49848
49794
49740
49688
49639
49591
49545
49499
49450
49401
49352
49305
49265
49232
49210
49205
49229
49297
49422
49612
49869
50195
50582
51026
51513
52029
52561
53094
53619
54130
54616
55069
55484
55857
56184
56468
56711
56911
57068
57179
57246
57269
57246
57183
57083
56952
56796
56617
56419
56205
55977
55738
55495
55246
54993
54734
54473
54213
53951
53684
53414
53147
52889
52650
52431
52236
52074
51950
51866
51821
51813
51841
51902
51996
52122
52275
52445
52625
52808
52988
53161
53327
53486
53634
53765
53877
53970
54045
54101
54135
54146
54137
54107
54054
53982
53898
53806
53704
53595
53482
53361
53231
53093
52948
52798
52644
52487
52331
52172
52007
51844
51686
51532
51378
51230
51094
50968
50847
50729
50617
50511
50414
50329
50253
50179
50103
50027
49950
49878
49810
49740
49668
49600
49536
49472
49408
49344
49278
49216
49158
49103
49050
49000
48953
48909
48869
48828
48779
48727
48675
48626
48579
48536
48499
48475
48474
48508
48585
48718
48917
49189
49536
49952
50423
50935
51472
52021
52571
53108
53622
54101
54539
54934
55281
55582
55837
56048
56216
56343
56429
56475
56482
56451
56385
56285
56155
55998
55817
55613
55392
55154
54899
54632
54358
54080
53798
53514
53225
52931
52632
52330
52034
51750
51482
51241
51033
50866
50741
50660
50625
50634
50684
50772
50890
51031
51193
51376
51575
51780
51987
52191
52387
52565
52726
52869
52993
53097
53178
53230
53256
53261
53246
53211
53158
53088
53002
52897
52775
52638
52490
52337
52180
52017
51848
51675
51499
51321
51142
50963
50785
50611
50441
50276
50116
49962
49812
49666
49524
49386
49254
49132
49018
48912
48818
48731
48647
48565
48483
48405
48327
48249
48171
48092
48016
47942
47870
47801
47734
47669
47604
47544
47485
47426
47370
47318
47270
47223
47174
47124
47075
47028
46993
46981
47001
47071
47204
47411
47698
48065
48504
49002
49549
50126
50712
51292
51850
52378
52873
53333
53752
54127
54461
54754
55004
55207
55362
55467
55524
55534
55502
55433
55328
55191
55023
54826
54604
54361
54101
53827
53543
53254
52959
52656
52347
52034
51717
51396
51074
50753
50442
50149
49886
49659
49475
49336
49246
49204
49212
49273
49387
49545
49738
49961
50211
50479
50753
51025
51289
51541
51771
51974
52153
52306
52432
52528
52597
52640
52661
52661
52640
52601
52548
52478
52390
52286
52167
52038
51901
51753
51594
51426
51251
51072
50893
50716
50540
50366
50200
50043
49896
49760
49629
49502
49378
49259
49144
49036
48938
48843
48748
48653
48558
48463
48371
48283
48197
48109
48026
47950
47881
47820
47767
47719
47668
47614
47558
47499
47439
47380
47325
47277
47236
47204
47185
47192
47236
47330
47489
47725
48046
48450
48925
49454
50020
50609
51208
51803
52380
52932
53450
53924
54350
54728
55062
55353
55599
55800
55956
56067
56135
56162
56149
56097
56009
55887
55733
55548
55337
55109
54866
54613
54349
54080
53808
53528
53238
52938
52632
52322
52012
51707
51416
51147
50903
50686
50501
50356
50257
50207
50208
50260
50359
50502
50680
50886
51112
51350
51588
51822
52050
52270
52479
52672
52847
53002
53133
53238
53316
53370
53399
53403
53382
53340
53279
53204
53114
53013
52906
52790
52665
52527
52378
52218
52048
51870
51685
51498
51313
51131
50953
50782
50619
50466
50321
50184
50055
49935
49821
49712
49606
49502
49402
49309
49220
49132
49042
48955
48873
48795
48718
48638
48559
48485
48419
48360
48301
48241
48179
48119
48064
48016
47975
47944
47928
47934
47968
48043
48172
48365
48636
48993
49429
49930
50482
51071
51682
52297
52907
53502
54074
54615
55115
55571
55979
56337
56648
56912
57132
57303
57424
57497
57525
57512
57460
57377
57267
57130
56973
56798
56604
56393
56169
55937
55698
55457
55215
54970
54721
54470
54220
53972
53724
53478
53242
53023
52829
52668
52547
52470
52433
52436
52483
52566
52680
52819
52975
53144
53320
53503
53694
53889
54079
54263
54440
54603
54744
54864
54962
55036
55083
55106
55107
55085
55040
54977
54903
54821
54726
54618
54502
54381
54254
54122
53988
53846
53695
53537
53379
53219
53059
52902
52750
52603
52463
52329
52200
52077
51965
51862
51764
51671
51581
51488
51389
51293
51207
51125
51046
50970
50896
50822
50751
50684
50623
50565
50508
50453
50400
50351
50301
50253
50206
50163
50125
50091
50069
50063
50086
50152
50275
50469
50742
51097
51528
52017
52544
53098
53668
54240
54802
55344
55862
56350
56802
57214
57582
57906
58187
58425
58620
58769
58876
58943
58970
58958
58907
58824
58714
58578
58417
58234
58034
57822
57604
57380
57152
56926
56699
56472
56244
56015
55788
55564
55346
55134
54937
54760
54607
54480
54385
54323
54298
54310
54355
54433
54541
54677
54834
55009
55194
55381
55565
55744
55914
56071
56211
56331
56431
56507
56565
56610
56641
56651
56640
56610
56568
56513
56441
56350
56245
56129
56005
55872
55729
55580
55428
55270
55107
54950
54800
54657
54517
54381
54252
54128
54008
53891
53779
53667
53554
53441
53327
53218
53117
53028
52947
52872
52800
52732
52667
52604
52545
52487
52429
52365
52298
52232
52170
52112
52055
51999
51943
51888
51836
51789
51749
51714
51689
51683
51704
51758
51856
52011
52232
52518
52866
53270
53721
54204
54707
55220
55732
56239
56738
57222
57680
58104
58492
58839
59142
59402
59620
59791
59911
59985
60017
60011
59970
59897
59796
59672
59524
59358
59179
58989
58790
58579
58359
58137
57914
57687
57452
57212
56970
56732
56503
56287
56087
55908
55757
55637
55554
55508
55499
55526
55586
55675
55789
55924
56072
56229
56392
56560
56726
56887
57037
57174
57294
57399
57487
57554
57599
57630
57648
57652
57638
57609
57566
57508
57437
57352
57252
57139
57016
56884
56745
56600
56450
56296
56136
55972
55806
55641
55478
55320
55167
55016
54868
54723
54583
54448
54319
54197
54080
53969
53864
53762
53667
53581
53503
53433
53371
53317
53268
53223
53180
53134
53083
53029
52978
52927
52874
52818
52759
52703
52649
52597
52540
52479
52422
52372
52327
52283
52244
52221
52227
52277
52388
52567
52816
53133
53513
53948
54426
54933
55455
55981
56502
57011
57498
57956
58372
58738
59055
59330
59567
59766
59922
60037
60113
60149
60147
60108
60036
59937
59814
59667
59500
59316
59117
58904
58678
58442
58201
57957
57712
57465
57218
56968
56717
56474
56241
56024
55827
55657
55519
55417
55354
55330
55345
55397
55483
55595
55727
55873
56029
56191
56357
56524
56686
56839
56980
57105
57213
57300
57368
57414
57440
57445
57432
57398
57343
57270
57182
57079
56961
56829
56682
56524
56360
56198
56037
55871
55702
55529
55354
55178
55001
54824
54652
54486
54326
54170
54018
53872
53730
53595
53467
53347
53236
53131
53032
52938
52849
52766
52689
52615
52541
52465
52390
52319
52253
52190
52128
52063
51998
51929
51856
51784
51710
51635
51556
51476
51398
51322
51248
51177
51112
51051
50995
50944
50906
50885
50887
50922
51006
51147
51351
51626
51972
52386
52858
53370
53906
54453
55002
55542
56059
56544
56991
57396
57758
58072
58335
58548
58710
58823
58891
58916
58899
58843
58754
58634
58487
58315
58122
57912
57686
57448
57198
56937
56663
56379
56086
55785
55478
55170
54863
54564
54278
54013
53773
53566
53397
53273
53192
53158
53174
53239
53344
53482
53647
53834
54036
54246
54456
54659
54852
55035
55206
55362
55500
55617
55713
55783
55828
55849
55845
55817
55764
55688
55591
55478
55352
55210
55052
54881
54703
54520
54333
54147
53961
53775
53591
53410
53229
53052
52883
52722
52564
52408
52256
52108
51971
51846
51731
51625
51527
51436
51351
51268
51188
51112
51038
50964
50891
50816
50740
50666
50597
50534
50477
50428
50386
50349
50310
50268
50223
50176
50127
50078
50034
49999
49980
49988
50038
50138
50301
50536
50849
51236
51690
52203
52758
53335
53916
54487
55036
55553
56030
56466
56857
57199
57489
57726
57912
58051
58147
58205
58227
58215
58171
58093
57981
57841
57677
57488
57275
57046
56807
56555
56288
56006
55715
55420
55122
54817
54507
54197
53895
53610
53352
53125
52935
52790
52694
52647
52650
52703
52801
52940
53114
53316
53538
53773
54014
54255
54492
54720
54934
55128
55301
55452
55575
55673
55747
55795
55816
55813
55790
55746
55679
55590
55483
55358
55216
55063
54905
54744
54581
54414
54241
54066
53894
53722
53551
53382
53219
53066
52921
52782
52648
52522
52407
52298
52198
52105
52017
51932
51851
51778
51707
51640
51578
51518
51457
51397
51337
51282
51231
51182
51133
51082
51029
50976
50926
50880
50837
50798
50761
50732
50720
50733
50777
50858
50991
51192
51472
51833
52270
52772
53325
53914
54515
55117
55708
56274
56809
57306
57763
58177
58545
58869
59147
59378
59564
59707
59807
59866
59886
59864
59801
59703
59577
59427
59256
59065
58859
58642
58417
58185
57949
57711
57472
57233
56997
56767
56541
56321
56110
55915
55739
55586
55459
55364
55302
55274
55281
55325
55406
55519
55658
55817
55993
56179
56370
56559
56742
56918
57081
57230
57362
57475
57569
57641
57689
57712
57712
57691
57650
57591
57518
57433
57337
57230
57117
57000
56877
56748
56614
56472
56323
56167
56011
55856
55705
55558
55420
55290
55168
55052
54940
54832
54728
54625
54523
54421
54323
54231
54145
54065
53987
53912
53843
53778
53716
53659
53606
53552
53496
53443
53391
53337
53280
53221
53165
53118
53080
53049
53026
53011
53010
53031
53085
53184
53340
53562
53857
54224
54653
55133
55653
56202
56770
57345
57916
58473
59007
59514
59984
60415
60806
61153
61457
61715
61927
62094
62217
62299
62340
62339
62297
62220
62111
61971
61804
61616
61414
61204
60989
60773
60558
60348
60143
59942
59740
59539
59337
59138
58946
58764
58595
58444
58319
58221
58152
58118
58117
58144
58196
58274
58373
58488
58619
58762
58912
59061
59208
59350
59484
59609
59721
59819
59898
59956
59990
60004
60001
59983
59950
59905
59851
59784
59705
59615
59514
59400
59277
59145
59009
58871
58730
58588
58447
58303
58153
58002
57852
57705
57564
57433
57310
57194
57088
56993
56906
56824
56748
56680
56618
56559
56500
56437
56372
56303
56234
56162
56085
56007
55932
55866
55810
55762
55718
55674
55630
55587
55544
55500
55454
55406
55358
55311
55265
55220
55181
55157
55154
55176
55234
55339
55503
55733
56028
56388
56805
57270
57770
58296
58835
59375
59906
60417
60900
61355
61775
62156
62496
62795
63050
63263
63435
63567
63655
63701
63713
63691
63635
63544
63425
63283
63117
62932
62735
62536
62337
62141
61951
61768
61587
61406
61224
61039
60852
60666
60489
60326
60179
60052
59949
59869
59817
59799
59812
59854
59922
60013
60121
60240
60362
60487
60613
60733
60844
60948
61044
61133
61210
61274
61325
61363
61387
61396
61388
61358
61305
61233
61146
61043
60929
60811
60691
60572
60450
60324
60196
60065
59930
59792
59651
59508
59363
59219
59073
58928
58787
58653
58533
58428
58337
58255
58179
58110
58042
57975
57913
57850
57783
57716
57649
57580
57511
57448
57392
57337
57280
57225
57174
57123
57076
57033
56991
56947
56903
56860
56816
56769
56718
56659
56595
56527
56458
56387
56319
56256
56198
56149
56108
56073
56048
56035
56047
56101
56212
56388
56632
56942
57311
57729
58182
58662
59159
59659
60154
60638
61103
61545
61960
62345
62694
63001
63263
63478
63649
63775
63856
63895
63896
63864
63803
63717
63609
63478
63327
63158
62977
62789
62599
62407
62214
62023
61831
61639
61448
61255
61061
60873
60695
60532
60391
60276
60189
60131
60102
60099
60122
60169
60236
60318
60414
60522
60638
60759
60882
61001
61116
61223
61320
61406
61479
61537
61581
61612
61631
61637
61627
61602
61562
61509
61442
61357
61259
61148
61026
60896
60763
60625
60483
60336
60183
60025
59866
59712
59564
59424
59291
59160
59032
58911
58795
58687
58590
58502
58421
58345
58273
58204
58136
58069
58003
57940
57883
57826
57766
57706
57648
57597
57553
57514
57477
57437
57398
57363
57333
57303
57272
57234
57192
57148
57106
57061
57012
56959
56901
56839
56775
56710
56639
56561
56479
56395
56311
56225
56143
56068
56001
55945
55903
55885
55897
55954
56065
56240
56486
56802
57176
57595
58050
58531
59028
59529
60027
60510
60969
61400
61799
62163
62486
62766
63004
63201
63356
63468
63537
63571
63575
63542
63472
63368
63231
63069
62887
62691
62488
62282
62080
61887
61702
61521
61341
61154
60960
60765
60573
60381
60191
60013
59851
59708
59587
59493
59427
59395
59402
59444
59517
59616
59736
59868
60006
60151
60299
60443
60579
60703
60814
60910
60987
61045
61084
61104
61108
61097
61071
61028
60968
60891
60805
60710
60604
60488
60364
60234
60099
59958
59807
59647
59486
59332
59185
59039
58892
58744
58598
58454
58311
58169
58029
57894
57766
57644
57529
57425
57329
57238
57149
57065
56988
56922
56863
56808
56757
56709
56661
56615
56573
56533
56493
56448
56403
56358
56311
56261
56202
56139
56074
56009
55945
55879
55810
55736
55658
55578
55500
55421
55340
55259
55178
55102
55031
54963
54897
54836
54784
54746
54734
54764
54851
55005
55229
55523
55878
56284
56733
57211
57705
58204
58697
59176
59632
60057
60448
60801
61113
61381
61608
61793
61938
62046
62120
62160
62165
62136
62072
61971
61836
61673
61490
61293
61084
60863
60634
60400
60161
59920
59677
59432
59184
58933
58683
58440
58209
57997
57806
57641
57508
57413
57361
57353
57382
57446
57542
57667
57819
57985
58159
58335
58509
58679
58844
58998
59135
59255
59358
59444
59512
59561
59592
59604
59598
59577
59542
59491
59426
59342
59239
59116
58977
58825
58665
58502
58343
58189
58034
57877
57721
57569
57421
57276
57137
57008
56891
56786
56691
56600
56513
56428
56347
56270
56196
56125
56056
55989
55923
55860
55798
55736
55673
55609
55549
55495
55448
55406
55369
55332
55290
55246
55200
55153
55101
55045
54987
54928
54868
54805
54740
54671
54603
54537
54480
54437
54409
54397
54413
54469
54579
54755
55002
55320
55700
56129
56594
57082
57584
58090
58587
59066
59519
59944
60339
60697
61016
61297
61540
61737
61888
61997
62068
62101
62096
62059
61989
61889
61764
61617
61447
61256
61047
60828
60600
60367
60126
59878
59623
59367
59111
58854
58595
58340
58097
57874
57675
57506
57373
57279
57226
57214
57242
57307
57405
57532
57683
57850
58026
58208
58394
58577
58747
58904
59046
59174
59290
59389
59470
59532
59574
59595
59595
59573
59534
59483
59417
59335
59241
59137
59023
58897
58760
58616
58472
58325
58174
58020
57865
57706
57546
57386
57228
57076
56930
56794
56665
56542
56423
56310
56204
56106
56012
55926
55844
55766
55693
55625
55560
55501
55449
55403
55358
55315
55272
55226
55180
55135
55090
55047
55005
54961
54914
54871
54830
54785
54736
54679
54614
54545
54475
54407
54345
54290
54242
54203
54174
54159
54168
54212
54304
54455
54679
54979
55353
55788
56272
56796
57349
57918
58490
59051
59591
60105
60589
61036
61439
61799
62119
62399
62634
62825
62969
63069
63126
63143
63121
63063
62974
62857
62719
62563
62392
62210
62020
61823
61624
61422
61220
61020
60822
60623
60418
60210
60003
59805
59618
59445
59289
59152
59041
58957
58905
58888
58903
58948
59020
59119
59242
59382
59535
59698
59860
60014
60160
60299
60430
60553
60656
60736
60793
60830
60850
60855
60843
60812
60768
60711
60642
60561
60469
60367
60251
60123
59985
59837
59684
59527
59362
59192
59021
58850
58684
58523
58362
58203
58052
57910
57775
57645
57521
57404
57293
57190
57092
56999
56914
56838
56768
56706
56648
56590
56533
56481
56436
56391
56341
56284
56224
56166
56110
56056
56003
55948
55891
55833
55773
55713
55655
55599
55542
55489
55440
55390
55344
55307
55283
55276
55297
55358
55476
55663
55925
56261
56664
57122
57618
58141
58680
59224
59764
60289
60789
61257
61693
62096
62462
62787
63069
63306
63498
63645
63751
63817
63839
63819
63767
63688
63584
63458
63308
63141
62960
62768
62568
62362
62154
61946
61742
61535
61321
61106
60889
60671
60455
60248
60054
59880
59729
59608
59525
59481
59471
59492
59541
59613
59705
59816
59943
60083
60231
60380
60526
60666
60796
60914
61017
61101
61170
61226
61264
61283
61286
61274
61247
61203
61142
61067
60980
60885
60781
60666
60538
60393
60238
60077
59911
59738
59563
59391
59218
59047
58885
58731
58583
58442
58307
58174
58039
57903
57773
57651
57535
57425
57320
57220
57124
57032
56944
56859
56778
56705
56640
56582
56528
56479
56437
56394
56349
56306
56267
56229
56186
56137
56083
56024
55956
55882
55804
55725
55646
55569
55496
55428
55362
55299
55234
55167
55101
55042
55000
54989
55023
55121
55294
55543
55867
56261
56713
57210
57739
58290
58853
59412
59953
60469
60955
61406
61814
62179
62499
62770
62990
63159
63283
63367
63410
63411
63371
63296
63191
63060
62902
62716
62507
62278
62033
61779
61519
61255
60992
60733
60474
60212
59950
59684
59416
59152
58897
58656
58433
58233
58064
57931
57837
57781
57760
57774
57822
57899
57999
58122
58263
58416
58570
58717
58852
58978
59093
59191
59272
59336
59379
59400
59402
59389
59362
59325
59275
59207
59115
59001
58869
58725
58569
58402
58225
58040
57848
57651
57448
57243
57041
56844
56650
56460
56275
56093
55917
55750
55589
55432
55281
55136
54995
54860
54734
54614
54501
54392
54289
54190
54097
54012
53932
53855
53783
53716
53651
53586
53520
53456
53390
53323
53254
53181
53103
53022
52940
52857
52774
52693
52613
52532
52448
52361
52274
52193
52118
52048
51980
51916
51867
51844
51860
51931
52075
52299
52606
52997
53466
53996
54569
55166
55768
56363
56940
57489
58001
58470
58892
59263
59575
59835
60049
60219
60340
60408
60427
60404
60344
60249
60119
59954
59754
59523
59266
58985
58685
58374
58059
57746
57438
57137
56838
56537
56233
55929
55622
55314
55013
54732
54482
54270
54100
53977
53906
53890
53928
54015
54143
54309
54509
54735
54977
55226
55477
55718
55939
56137
56312
56461
56582
56678
56747
56786
56796
56785
56754
56702
56630
56543
56442
56323
56187
56037
55874
55699
55514
55324
55131
54932
54725
54515
54310
54111
53916
53725
53541
53364
53193
53024
52862
52711
52571
52444
52329
52227
52136
52053
51975
51899
51824
51752
51684
51617
51553
51488
51422
51355
51288
51223
51158
51093
51027
50964
50904
50841
50779
50721
50668
50616
50570
50539
50528
50543
50594
50695
50862
51111
51448
51872
52371
52930
53531
54158
54793
55418
56021
56594
57123
57600
58024
58397
58717
58984
59199
59362
59475
59545
59576
59569
59519
59433
59317
59171
58990
58775
58534
58275
58000
57713
57417
57113
56798
56472
56137
55796
55456
55116
54780
54459
54158
53881
53637
53430
53266
53154
53095
53094
53152
53265
53424
53618
53843
54095
54363
54635
54901
55159
55407
55640
55851
56037
56192
56313
56402
56459
56482
56478
56450
56402
56332
56241
56131
56006
55869
55722
55563
55393
55214
55026
54831
54631
54425
54218
54008
53803
53604
53411
53226
53051
52887
52731
52583
52439
52302
52173
52054
51946
51845
51745
51649
51558
51474
51391
51309
51229
51152
51078
51009
50940
50869
50794
50718
50638
50557
50481
50411
50345
50280
50218
50170
50147
50159
50217
50344
50558
50868
51275
51772
52345
52975
53640
54322
55001
55664
56300
56900
57458
57968
58424
58825
59165
59445
59674
59858
59999
60096
60148
60156
60122
60051
59945
59807
59637
59442
59226
58996
58753
58499
58239
57973
57704
57432
57155
56876
56597
56320
56044
55769
55504
55259
55040
54845
54679
54552
54470
54433
54446
54507
54610
54746
54908
55088
55283
55486
55692
55897
56097
56283
56456
56614
56752
56864
56951
57012
57049
57061
57053
57026
56980
56914
56828
56730
56620
56495
56358
56210
56050
55881
55707
55531
55354
55177
55000
54824
54650
54478
54306
54137
53977
53825
53683
53547
53416
53289
53167
53045
52923
52802
52688
52580
52475
52375
52281
52189
52097
52005
51913
51822
51735
51656
51589
51530
51472
51412
51351
51293
51241
51196
51166
51152
51162
51210
51311
51478
51723
52056
52478
52980
53548
54166
54814
55473
56130
56765
57368
57934
58459
58943
59381
59768
60104
60388
60616
60792
60918
60997
61029
61021
60978
60901
60788
60642
60469
60275
60063
59837
59602
59362
59125
58896
58672
58452
58233
58010
57785
57561
57337
57114
56899
56697
56515
56358
56233
56140
56080
56055
56063
56102
56174
56271
56386
56519
56669
56831
56998
57161
57319
57469
57609
57736
57848
57941
58013
58063
58094
58108
58104
58077
58029
57961
57876
57775
57660
57532
57391
57240
57086
56926
56762
56593
56425
56260
56100
55943
55784
55626
55473
55326
55183
55043
54912
54788
54669
54558
54453
54357
54264
54173
54084
53992
53898
53808
53723
53641
53560
53480
53403
53327
53253
53184
53121
53064
53008
52950
52889
52826
52767
52715
52668
52625
52591
52576
52585
52632
52735
52904
53148
53474
53880
54356
54892
55477
56092
56718
57342
57953
58539
59091
59607
60087
60531
60929
61280
61585
61843
62051
62210
62325
62400
62436
62430
62381
62294
62179
62038
61873
61689
61490
61280
61064
60850
60639
60426
60218
60012
59804
59594
59383
59173
58967
58771
58590
58426
58286
58174
58094
58049
58035
58049
58090
58154
58238
58343
58466
58602
58744
58886
59028
59167
59302
59428
59541
59637
59716
59776
59815
59834
59835
59822
59791
59742
59676
59595
59503
59400
59289
59170
59044
58906
58757
58602
58442
58280
58115
57948
57782
57620
57461
57303
57149
56999
56855
56719
56589
56467
56354
56247
56144
56047
55956
55869
55789
55715
55649
55591
55537
55485
55439
55397
55356
55313
55269
55228
55185
55134
55079
55025
54972
54921
54870
54817
54761
54704
54648
54597
54551
54510
54472
54434
54397
54365
54346
54356
54412
54526
54705
54957
55284
55681
56140
56649
57194
57767
58355
58945
59524
60081
60605
61092
61540
61942
62298
62605
62863
63074
63238
63359
63440
63483
63493
63464
63397
63298
63168
63007
62819
62616
62401
62177
61948
61722
61502
61288
61076
60864
60651
60440
60227
60014
59809
59615
59436
59275
59141
59038
58968
58934
58936
58971
59041
59141
59261
59391
59527
59669
59813
59951
60080
60197
60302
60397
60480
60549
60602
60643
60669
60676
60659
60616
60551
60469
60369
60254
60126
59986
59841
59691
59535
59375
59210
59044
58880
58715
58549
58381
58215
58056
57902
57750
57598
57449
57308
57175
57048
56928
56814
56705
56606
56515
56429
56348
56270
56194
56119
56049
55988
55929
55869
55810
55751
55694
55642
55597
55554
55505
55450
55393
55337
55282
55223
55163
55100
55034
54969
54906
54843
54776
54709
54643
54575
54505
54437
54376
54328
54305
54322
54395
54537
54753
55047
55420
55859
56345
56868
57417
57978
58538
59091
59631
60146
60626
61068
61468
61820
62123
62376
62581
62739
62850
62914
62934
62910
62846
62750
62623
62463
62276
62068
61845
61608
61360
61104
60846
60589
60333
60078
59820
59565
59312
59062
58815
58577
58354
58155
57981
57836
57728
57661
57635
57651
57707
57797
57912
58048
58201
58368
58542
58715
58883
59039
59183
59315
59432
59530
59608
59669
59715
59741
59742
59721
59684
59632
59565
59484
59391
59286
59165
59032
58891
58741
58578
58406
58231
58053
57873
57695
57517
57341
57166
56990
56818
56653
56494
56343
56204
56074
55948
55825
55710
55606
55511
55422
55340
55262
55188
55117
55047
54977
54910
54848
54788
54725
54657
54588
54520
54454
54392
54334
54277
54219
54160
54101
54042
53982
53924
53868
53811
53751
53689
53622
53552
53480
53407
53335
53262
53191
53126
53078
53051
53059
53121
53256
53472
53775
54164
54628
55151
55716
56305
56901
57491
58060
58598
59099
59556
59967
60332
60652
60922
61140
61308
61428
61500
61527
61514
61461
61370
61247
61095
60914
60708
60478
60228
59962
59687
59407
59124
58834
58534
58225
57906
57580
57251
56924
56605
56299
56012
55751
55524
55338
55199
55108
55069
55079
55136
55233
55368
55537
55734
55949
56172
56391
56606
56811
57000
57169
57315
57434
57527
57592
57635
57654
57651
57629
57590
57533
57452
57348
57226
57082
56919
56740
56553
56356
56146
55926
55701
55478
55258
55042
54830
54620
54411
54207
54009
53816
53627
53444
53270
53103
52945
52799
52665
52536
52409
52289
52174
52066
51966
51873
51786
51705
51630
51557
51488
51421
51353
51283
51212
51144
51077
51010
50945
50879
50811
50742
50673
50602
50529
50458
50388
50319
50248
50175
50098
50013
49925
49842
49767
49704
49664
49663
49713
49826
50016
50295
50670
51138
51684
52288
52932
53599
54266
54916
55534
56108
56628
57089
57489
57832
58122
58360
58547
58682
58766
58807
58803
58754
58667
58546
58393
58207
57988
57743
57475
57187
56882
56564
56237
55899
55549
55191
54828
54467
54110
53756
53408
53071
52753
52464
52211
52001
51844
51745
51706
51726
51805
51938
52118
52339
52595
52877
53172
53470
53763
54044
54307
54552
54773
54963
55121
55246
55339
55398
55427
55434
55419
55378
55311
55217
55097
54954
54792
54611
54418
54221
54022
53820
53618
53413
53207
53002
52798
52594
52394
52205
52026
51857
51700
51552
51410
51275
51148
51025
50906
50794
50690
50598
50513
50434
50362
50293
50225
50158
50086
50009
49927
49844
49762
49686
49615
49547
49484
49422
49362
49305
49254
49203
49151
49096
49042
48991
48948
48922
48925
48977
49092
49289
49577
49960
50434
50992
51619
52291
52986
53683
54365
55018
55629
56188
56688
57128
57505
57822
58086
58296
58454
58563
58622
58635
58610
58550
58456
58328
58166
57970
57745
57496
57224
56931
56623
56299
55961
55614
55258
54898
54538
54177
53816
53457
53109
52782
52482
52213
51981
51792
51653
51571
51549
51587
51682
51830
52024
52258
52525
52810
53103
53397
53683
53957
54212
54441
54641
54814
54963
55085
55176
55239
55274
55278
55250
55196
55118
55020
54902
54765
54611
54443
54262
54071
53871
53663
53449
53234
53023
52817
52614
52415
52223
52041
51872
51714
51564
51416
51270
51131
51002
50877
50757
50641
50531
50423
50318
50223
50137
50057
49984
49921
49863
49806
49748
49689
49633
49577
49514
49442
49368
49295
49224
49158
49094
49033
48980
48941
48923
48936
48991
49104
49286
49552
49914
50375
50927
51556
52244
52967
53700
54424
55123
55782
56393
56954
57465
57921
58318
58663
58959
59201
59392
59537
59636
59688
59696
59662
59589
59483
59345
59175
58978
58756
58514
58261
58001
57737
57468
57196
56922
56648
56375
56106
55836
55564
55294
55033
54787
54561
54365
54209
54098
54037
54024
54056
54132
54251
54408
54590
54792
55008
55231
55457
55680
55892
56087
56266
56430
56574
56694
56786
56851
56891
56913
56916
56899
56862
56810
56745
56667
56578
56475
56358
56227
56081
55922
55754
55577
55394
55212
55034
54858
54683
54511
54341
54179
54027
53885
53748
53615
53492
53380
53277
53175
53073
52974
52876
52780
52691
52608
52526
52443
52363
52284
52206
52130
52059
51993
51926
51856
51785
51717
51655
51600
51554
51515
51485
51474
51496
51564
51689
51881
52153
52512
52954
53472
54047
54661
55296
55937
56570
57185
57769
58319
58833
59309
59742
60130
60469
60760
61007
61206
61359
61468
61531
61548
61519
61450
61345
61211
61053
60872
60671
60458
60237
60011
59781
59549
59314
59074
58831
58588
58343
58095
57848
57609
57382
57174
56989
56837
56721
56644
56606
56607
56644
56711
56803
56919
57052
57193
57340
57495
57654
57813
57970
58123
58267
58397
58510
58603
58673
58724
58754
58761
58746
58712
58662
58598
58516
58419
58311
58196
58072
57938
57798
57647
57488
57331
57176
57019
56860
56707
56565
56429
56295
56159
56024
55890
55760
55635
55515
55394
55272
55154
55046
54941
54838
54739
54648
54563
54485
54416
54349
54280
54211
54144
54075
54002
53927
53855
53785
53718
53654
53596
53547
53504
53465
53433
53411
53400
53405
53440
53524
53669
53882
54167
54527
54960
55456
56001
56580
57175
57774
58364
58933
59472
59976
60441
60867
61246
61577
61864
62107
62304
62456
62566
62632
62658
62648
62603
62523
62407
62262
62089
61894
61683
61462
61237
61011
60784
60559
60336
60111
59883
59654
59429
59207
58990
58782
58586
58412
58265
58148
58064
58011
57990
58001
58042
58111
58204
58316
58444
58583
58729
58879
59028
59173
59315
59448
59568
59671
59756
59822
59866
59890
59895
59877
59838
59783
59712
59626
59524
59410
59289
59162
59029
58891
58747
58595
58438
58278
58118
57958
57799
57640
57484
57333
57186
57043
56905
56771
56644
56525
56419
56319
56225
56134
56044
55957
55877
55802
55725
55648
55572
55501
55434
55370
55306
55241
55181
55125
55067
55003
54937
54872
54808
54747
54687
54626
54567
54510
54459
54413
54369
54327
54287
54250
54224
54226
54270
54373
54546
54793
55119
55518
55980
56489
57031
57593
58162
58726
59269
59781
60258
60698
61105
61475
61803
62088
62331
62534
62696
62817
62892
62922
62913
62866
62783
62664
62512
62331
62128
61910
61684
61456
61228
61003
60782
60559
60335
60110
59885
59657
59426
59198
58981
58782
58604
58452
58330
58244
58196
58186
58215
58276
58364
58474
58603
58749
58904
59063
59222
59381
59533
59673
59795
59899
59981
60045
60092
60122
60139
60143
60128
60092
60039
59976
59902
59814
59711
59596
59473
59343
59203
59054
58895
58732
58570
58409
58249
58090
57936
57789
57647
57509
57373
57240
57113
56993
56880
56773
56668
56566
56467
56371
56281
56198
56119
56041
55965
55892
55827
55765
55699
55629
55560
55497
55443
55394
55347
55300
55250
55196
55137
55074
55007
54939
54870
54799
54727
54658
54592
54528
54470
54418
54370
54328
54294
54277
54287
54338
54443
54613
54857
55175
55562
56009
56501
57021
57555
58096
58630
59144
59632
60087
60505
60883
61218
61507
61747
61943
62098
62213
62291
62332
62333
62291
62211
62102
61967
61803
61611
61396
61165
60923
60671
60411
60147
59879
59607
59327
59044
58764
58489
58220
57967
57735
57529
57358
57224
57124
57063
57044
57064
57119
57206
57322
57463
57619
57784
57952
58123
58294
58460
58615
58757
58886
59000
59092
59162
59207
59224
59214
59183
59134
59068
58990
58904
58807
58699
58580
58451
58308
58152
57986
57809
57624
57437
57251
57070
56895
56726
56564
56409
56260
56117
55980
55848
55723
55604
55490
55379
55270
55162
55059
54960
54867
54782
54702
54629
54559
54489
54421
54356
54294
54233
54173
54117
54060
53997
53927
53850
53768
53684
53602
53525
53458
53398
53342
53289
53237
53182
53127
53075
53027
52990
52977
52998
53065
53192
53389
53660
54005
54417
54884
55393
55929
56477
57025
57561
58077
58563
59011
59414
59771
60082
60347
60562
60727
60846
60924
60963
60964
60927
60857
60759
60632
60482
60313
60123
59914
59689
59451
59201
58943
58680
58412
58139
57861
57580
57298
57019
56753
56507
56288
56103
55957
55851
55792
55784
55822
55900
56009
56153
56326
56522
56731
56948
57164
57374
57572
57759
57935
58094
58232
58347
58435
58498
58539
58559
58555
58529
58480
58413
58326
58222
58099
57962
57817
57666
57507
57343
57177
57011
56850
56698
56553
56412
56278
56151
56028
55907
55788
55673
55559
55447
55336
55230
55124
55018
54913
54810
54710
54616
54530
54453
54381
54310
54242
54176
54114
54055
53999
53942
53885
53826
53767
53707
53645
53581
53518
53454
53391
53330
53272
53222
53183
53156
53142
53153
53200
53297
53457
53690
53993
54367
54808
55306
55842
56404
56977
57544
58094
58619
59113
59569
59980
60349
60675
60955
61188
61377
61525
61634
61704
61738
61732
61687
61606
61493
61354
61187
60995
60786
60566
60334
60092
59842
59586
59326
59064
58800
58534
58269
58012
57765
57531
57314
57122
56959
56829
56733
56674
56652
56667
56718
56805
56929
57084
57258
57443
57631
57816
57995
58167
58330
58480
58613
58730
58829
58904
58954
58980
58982
58960
58916
58849
58763
58661
58548
58431
58309
58181
58048
57910
57761
57603
57438
57269
57097
56928
56768
56616
56472
56333
56202
56077
55957
55844
55739
55640
55541
55444
55349
55256
55164
55077
54997
54925
54859
54800
54746
54691
54633
54575
54516
54458
54405
54353
54301
54250
54198
54145
54089
54028
53963
53896
53831
53769
53710
53655
53607
53569
53544
53535
53548
53598
53699
53864
54106
54426
54823
55286
55806
56369
56954
57545
58130
58700
59246
59759
60240
60684
61089
61452
61775
62056
62291
62475
62610
62697
62742
62747
62719
62658
62565
62441
62290
62111
61912
61703
61489
61271
61050
60829
60609
60390
60172
59950
59722
59491
59261
59039
58829
58636
58468
58330
58225
58153
58113
58106
58133
58191
58279
58394
58528
58675
58828
58983
59135
59284
59428
59565
59690
59803
59903
59987
60055
60103
60125
60119
60086
60034
59963
59882
59795
59701
59600
59493
59378
59255
59124
58985
58837
58685
58530
58374
58218
58064
57910
57760
57615
57473
57335
57200
57069
56944
56824
56703
56586
56479
56379
56286
56203
56127
56057
55989
55918
55842
55760
55677
55598
55524
55459
55401
55348
55298
55248
55195
55140
55083
55023
54960
54895
54829
54767
54711
54659
54612
54570
54536
54512
54503
54518
54570
54674
54839
55074
55383
55766
56218
56728
57277
57846
58420
58986
59534
60053
60540
60993
61414
61801
62149
62451
62701
62902
63056
63163
63229
63255
63247
63205
63130
63024
62893
62737
62560
62369
62167
61954
61734
61515
61297
61081
60866
60651
60431
60206
59980
59758
59545
59347
59170
59018
58893
58800
58744
58722
58731
58768
58832
58915
59015
59133
59264
59402
59543
59685
59828
59968
60100
60218
60320
60404
60468
60513
60537
60543
60533
60508
60469
60413
60343
60261
60165
60054
59927
59791
59651
59503
59349
59188
59023
58859
58697
58539
58383
58227
58071
57918
57769
57624
57483
57350
57226
57109
57001
56901
56805
56709
56615
56522
56434
56351
56278
56208
56139
56072
56007
55945
55884
55825
55766
55703
55637
55570
55505
55443
55387
55337
55291
55244
55191
55132
55072
55010
54948
54887
54827
54771
54722
54687
54673
54693
54756
54870
55044
55285
55601
55985
56428
56917
57442
57992
58550
59103
59636
60144
60622
61063
61464
61826
62146
62419
62647
62833
62979
63082
63143
63167
63154
63104
63018
62899
62753
62581
62389
62183
61966
61744
61517
61289
61060
60827
60590
60346
60099
59851
59607
59373
59153
58952
58775
58625
58504
58413
58355
58333
58343
58385
58457
58558
58682
58823
58980
59148
59323
59496
59663
59818
59958
60083
60190
60274
60336
60376
60392
60383
60350
60300
60234
60156
60068
59968
59858
59739
59610
59469
59318
59160
58998
58834
58668
58501
58335
58170
58009
57848
57687
57527
57372
57222
57076
56935
56799
56669
56545
56429
56322
56221
56130
56045
55964
55883
55802
55723
55649
55579
55515
55456
55401
55346
55289
55231
55174
55120
55064
55005
54944
54883
54820
54756
54695
54636
54576
54515
54451
54388
54325
54258
54184
54107
54030
53962
53912
53889
53902
53961
54080
54272
54542
54889
55309
55789
56313
56864
57428
57992
58545
59081
59588
60058
60488
60874
61213
61502
61741
61932
62073
62168
62221
62232
62209
62154
62069
61957
61817
61647
61450
61231
60993
60742
60484
60222
59957
59691
59422
59152
58881
58610
58341
58074
57811
57559
57325
57122
56958
56836
56758
56726
56740
56798
56892
57014
57160
57327
57509
57698
57889
58078
58259
58428
58583
58723
58845
58944
59021
59073
59101
59107
59093
59059
59006
58933
58847
58751
58641
58515
58375
58222
58057
57886
57712
57536
57357
57177
56998
56824
56653
56487
56324
56163
56010
55864
55723
55587
55456
55333
55220
55118
55024
54934
54846
54760
54678
54600
54529
54465
54400
54333
54269
54206
54144
54084
54025
53965
53906
53849
53795
53744
53691
53637
53584
53533
53484
53437
53388
53335
53281
53231
53187
53155
53146
53170
53236
53357
53547
53816
54163
54581
55057
55580
56134
56701
57268
57822
58351
58848
59308
59726
60099
60424
60700
60930
61112
61247
61341
61396
61410
61387
61326
61230
61104
60953
60779
60584
60369
60137
59888
59624
59353
59075
58790
58495
58189
57875
57561
57250
56945
56654
56386
56146
55943
55787
55686
55636
55635
55680
55770
55898
56052
56229
56424
56631
56845
57063
57279
57487
57682
57860
58017
58151
58260
58346
58405
58437
58442
58422
58379
58318
58239
58143
58031
57906
57768
57619
57461
57298
57129
56955
56778
56603
56432
56263
56093
55923
55756
55594
55437
55284
55138
55001
54872
54749
54637
54532
54431
54334
54244
54160
54082
54005
53927
53852
53780
53709
53638
53570
53510
53458
53413
53373
53335
53293
53246
53195
53138
53078
53015
52948
52876
52801
52727
52655
52585
52524
52476
52439
52415
52409
52433
52497
52618
52810
53083
53440
53875
54376
54932
55529
56151
56780
57400
57995
58556
59079
59563
60003
60396
60740
61038
61285
61480
61628
61730
61787
61802
61786
61739
61660
61548
61404
61229
61025
60798
60557
60313
60069
59825
59579
59332
59082
58830
58577
58322
58066
57812
57564
57329
57112
56922
56768
56656
56587
56561
56579
56638
56735
56863
57013
57180
57357
57540
57729
57919
58105
58279
58441
58588
58714
58817
58901
58968
59015
59037
59032
59003
58954
58889
58810
58717
58608
58486
58349
58199
58039
57874
57705
57535
57369
57207
57047
56882
56711
56539
56370
56205
56050
55904
55769
55642
55521
55410
55304
55201
55100
55005
54913
54824
54737
54653
54567
54484
54412
54348
54284
54220
54157
54097
54040
53987
53936
53885
53830
53776
53723
53672
53622
53569
53513
53455
53395
53334
53274
53217
53164
53116
53080
53061
53063
53102
53193
53348
53579
53895
54296
54772
55307
55882
56483
57093
57702
58300
58878
59426
59936
60398
60807
61163
61474
61746
61976
62157
62291
62378
62423
62427
62394
62331
62241
62125
61983
61819
61639
61449
61251
61046
60831
60608
60383
60160
59938
59714
59490
59265
59039
58816
58603
58410
58240
58096
57985
57913
57878
57877
57908
57968
58053
58161
58286
58425
58576
58737
58902
59064
59218
59361
59492
59606
59703
59780
59840
59886
59917
59931
59928
59905
59861
59799
59722
59630
59523
59408
59285
59151
59008
58863
58714
58556
58387
58214
58043
57878
57719
57565
57417
57271
57129
56993
56863
56738
56616
56496
56380
56269
56165
56067
55975
55889
55809
55734
55658
55580
55505
55435
55368
55301
55238
55180
55129
55080
55030
54981
54931
54879
54826
54771
54716
54661
54609
54559
54506
54451
54396
54341
54283
54222
54169
54134
54127
54153
54224
54351
54546
54813
55155
55567
56042
56565
57123
57700
58286
58869
59433
59965
60462
60920
61333
61699
62015
62285
62511
62694
62838
62946
63020
63057
63057
63022
62954
62853
62723
62570
62396
62205
62004
61795
61582
61366
61151
60938
60724
60508
60293
60078
59866
59659
59458
59274
59112
58977
58872
58797
58751
58734
58745
58788
58860
58955
59069
59197
59334
59478
59627
59779
59927
60068
60200
60321
60424
60502
60557
60594
60612
60614
60602
60578
60539
60481
60405
60312
60205
60085
59954
59815
59674
59527
59374
59218
59059
58903
58747
58593
58443
58297
58154
58012
57871
57731
57592
57457
57330
57215
57113
57021
56937
56856
56777
56697
56621
56548
56474
56399
56327
56264
56208
56156
56106
56060
56018
55976
55930
55882
55833
55787
55740
55688
55630
55571
55513
55459
55408
55359
55312
55266
55214
55159
55099
55041
54995
54972
54971
55004
55088
55232
55446
55733
56088
56499
56959
57457
57975
58497
59016
59527
60021
60491
60930
61334
61698
62022
62306
62548
62747
62902
63014
63084
63113
63104
63059
62980
62872
62742
62593
62429
62252
62064
61867
61664
61457
61248
61037
60820
60598
60373
60149
59929
59713
59509
59323
59160
59020
58909
58831
58786
58774
58790
58831
58895
58982
59090
59214
59343
59475
59610
59746
59878
60004
60119
60219
60300
60366
60421
60464
60489
60498
60490
60458
60406
60337
60254
60160
60060
59956
59847
59728
59603
59471
59333
59189
59041
58892
58740
58584
58427
58273
58125
57983
57847
57720
57599
57481
57368
57260
57158
57061
56970
56884
56803
56726
56652
56583
56516
56454
56398
56348
56299
56251
56202
56156
56113
56074
56039
56001
55956
55907
55854
55801
55748
55689
55626
55561
55497
55438
55380
55323
55266
55209
55149
55089
55034
54990
54961
54952
54976
55049
55179
55370
55626
55943
56319
56744
57208
57694
58189
58676
59149
59605
60041
60448
60821
61158
61455
61707
61914
62078
62199
62278
62315
62315
62285
62230
62150
62045
61915
61762
61593
61409
61211
60998
60775
60548
60321
60095
59868
59639
59405
59168
58934
58710
58499
58304
58127
57973
57843
57743
57680
57655
57669
57722
57809
57928
58069
58222
58381
58543
58700
58849
58989
59122
59244
59352
59446
59524
59583
59624
59643
59642
59621
59579
59517
59437
59342
59235
59118
58997
58873
58740
58597
58447
58294
58138
57980
57823
57669
57514
57355
57195
57037
56885
56738
56597
56467
56351
56245
56148
56060
55976
55893
55809
55728
55651
55574
55497
55423
55353
55288
55226
55167
55109
55051
54992
54932
54873
54815
54757
54699
54640
54584
54530
54473
54411
54345
54277
54211
54151
54096
54044
53995
53952
53917
53892
53884
53907
53967
54076
54250
54498
54817
55207
55656
56148
56660
57175
57684
58178
58651
59091
59498
59871
60204
60490
60733
60937
61100
61218
61293
61332
61333
61300
61238
61148
61031
60892
60732
60553
60358
60151
59932
59704
59467
59222
58973
58721
58465
58207
57955
57711
57474
57250
57048
56872
56727
56619
56553
56528
56545
56605
56703
56839
57002
57182
57374
57575
57778
57976
58165
58341
58498
58635
58753
58850
58924
58979
59015
59031
59025
59004
58969
58917
58846
58760
58666
58564
58447
58320
58186
58043
57895
57746
57595
57442
57290
57144
57004
56867
56731
56597
56468
56347
56235
56135
56043
55960
55883
55813
55750
55690
55634
55579
55524
55471
55420
55370
55323
55278
55235
55193
55149
55103
55057
55008
54955
54899
54842
54789
54739
54694
54657
54624
54593
54562
54534
54515
54514
54541
54604
54718
54892
55129
55428
55785
56193
56641
57116
57608
58106
58604
59095
59567
60010
60419
60787
61107
61382
61616
61812
61971
62093
62178
62228
62244
62226
62175
62093
61981
61840
61678
61500
61310
61113
60909
60698
60479
60255
60025
59787
59544
59297
59047
58799
58558
58333
58129
57951
57806
57698
57632
57605
57613
57656
57734
57841
57970
58117
58278
58453
58634
58813
58986
59148
59292
59419
59528
59617
59684
59730
59755
59759
59749
59725
59689
59640
59573
59489
59391
59280
59159
59031
58896
58752
58603
58452
58298
58143
57995
57853
57714
57581
57453
57326
57199
57072
56950
56831
56714
56600
56494
56398
56308
56229
56156
56086
56017
55951
55888
55827
55766
55707
55650
55591
55529
55469
55412
55357
55301
55248
55195
55143
55095
55049
55006
54960
54912
54863
54812
54762
54714
54667
54621
54582
54559
54564
54612
54710
54869
55096
55394
55759
56180
56646
57143
57658
58178
58691
59189
59666
60115
60530
60906
61242
61542
61808
62039
62234
62391
62509
62588
62628
62631
62600
62542
62459
62352
62224
62080
61921
61752
61573
61385
61192
61003
60818
60636
60454
60270
60082
59894
59706
59526
59358
59205
59071
58961
58878
58820
58790
58789
58815
58866
58939
59030
59139
59260
59388
59524
59660
59790
59910
60015
60103
60177
60238
60288
60330
60360
60377
60381
60374
60354
60319
60268
60205
60132
60047
59950
59841
59721
59590
59451
59307
59164
59022
58879
58737
58597
58461
58331
58205
58084
57970
57863
57759
57660
57569
57483
57396
57307
57217
57127
57039
56957
56881
56810
56744
56687
56636
56587
56541
56498
56456
56414
56374
56335
56296
56254
56208
56161
56111
56060
56009
55958
55909
55859
55809
55761
55714
55667
55626
55595
55574
55565
55570
55599
55664
55777
55945
56174
56461
56805
57199
57631
58085
58550
59012
59460
59888
60290
60660
60999
61306
61579
61821
62036
62222
62377
62499
62590
62653
62684
62681
62644
62579
62486
62373
62242
62096
61941
61777
61608
61437
61265
61095
60925
60752
60579
60412
60243
60073
59904
59741
59590
59454
59340
59250
59185
59144
59128
59135
59164
59214
59284
59370
59468
59575
59689
59812
59938
60062
60179
60286
60379
60454
60512
60555
60586
60604
60605
60590
60560
60514
60450
60371
60282
60184
60084
59984
59882
59775
59663
59549
59433
59319
59203
59083
58958
58831
58706
58582
58462
58343
58226
58108
57992
57882
57780
57686
57598
57512
57432
57360
57296
57239
57189
57143
57099
57054
57008
56965
56924
56885
56843
56798
56751
56705
56662
56622
56578
56529
56480
56432
56380
56326
56271
56217
56167
56118
56066
56013
55962
55916
55874
55836
55803
55777
55763
55772
55813
55898
56037
56231
56476
56772
57114
57494
57900
58319
58742
59162
59569
59957
60319
60655
60963
61239
61484
61697
61878
62021
62127
62198
62240
62250
62228
62180
62112
62027
61925
61812
61688
61551
61404
61248
61086
60919
60751
60579
60403
60223
60038
59853
59668
59488
59319
59163
59025
58906
58810
58743
58704
58694
58714
58760
58823
58900
58988
59089
59195
59300
59404
59503
59600
59696
59786
59863
59928
59981
60017
60038
60045
60041
60026
60000
59961
59911
59852
59784
59704
59613
59513
59405
59293
59178
59059
58940
58822
58702
58574
58445
58312
58176
58040
57909
57785
57667
57554
57446
57342
57242
57146
57055
56970
56890
56815
56746
56683
56624
56567
56516
56467
56419
56372
56330
56291
56256
56223
56189
56151
56106
56058
56007
55955
55903
55852
55803
55754
55704
55654
55602
55547
55494
55448
55406
55364
55321
55271
55215
55158
55111
55074
55051
55048
55075
55146
55264
55429
55646
55914
56227
56575
56952
57346
57748
58148
58537
58911
59263
59587
59880
60142
60372
60570
60738
60872
60968
61031
61063
61067
61042
60995
60926
60833
60721
60600
60468
60322
60160
59987
59806
59620
59429
59232
59027
58813
58597
58384
58174
57971
57781
57610
57462
57341
57251
57194
57165
57164
57193
57251
57333
57435
57554
57685
57820
57953
58081
58203
58314
58415
58507
58591
58667
58732
58782
58816
58836
58842
58834
58810
58772
58719
58655
58581
58497
58404
58303
58199
58092
57980
57863
57739
57606
57468
57333
57201
57070
56947
56837
56738
56643
56548
56454
56366
56286
56210
56135
56061
55987
55914
55844
55778
55718
55664
55614
55564
55516
55469
55423
55383
55348
55314
55280
55244
55203
55160
55117
55075
55035
54998
54957
54910
54858
54805
54755
54703
54653
54611
54582
54566
54563
54578
54619
54692
54807
54970
55180
55433
55724
56046
56393
56759
57138
57520
57894
58253
58593
58911
59201
59460
59692
59897
60071
60211
60319
60397
60443
60460
60447
60408
60343
60255
60147
60025
59886
59733
59573
59407
59234
59052
58863
58669
58469
58258
58037
57812
57592
57387
57199
57031
56884
56764
56678
56628
56613
56631
56682
56760
56864
56990
57132
57281
57435
57589
57738
57879
58010
58134
58252
58362
58458
58536
58596
58637
58663
58679
58681
58664
58631
58581
58513
58434
58347
58254
58157
58053
57943
57828
57708
57587
57468
57351
57235
57120
57004
56888
56774
56660
56551
56450
56358
56271
56191
56119
56051
55983
55918
55854
55793
55736
55676
55615
55555
55502
55454
55413
55378
55346
55317
55286
55250
55207
55162
55121
55083
55046
55012
54981
54951
54921
54889
54856
54822
54789
54755
54720
54689
54662
54640
54626
54627
54654
54718
54829
54990
55204
55467
55777
56129
56515
56925
57345
57767
58183
58590
58983
59357
59707
60034
60335
60607
60846
61050
61218
61352
61454
61524
61560
61562
61532
61474
61393
61292
61174
61040
60892
60739
60582
60424
60266
60106
59942
59776
59613
59451
59289
59125
58962
58809
58667
58540
58435
58358
58310
58289
58294
58323
58375
58446
58531
58624
58720
58821
58930
59048
59170
59294
59414
59525
59625
59712
59784
59842
59884
59910
59923
59920
59900
59867
59826
59776
59715
59644
59562
59469
59369
59263
59150
59030
58907
58782
58655
58532
58410
58288
58167
58048
57933
57823
57719
57619
57523
57429
57337
57250
57166
57084
57006
56934
56863
56794
56731
56671
56617
56569
56524
56480
56438
56396
56354
56312
56264
56214
56167
56124
56084
56049
56015
55977
55938
55901
55865
55826
55783
55738
55692
55647
55607
55573
55548
55532
55532
55560
55630
55745
55907
56118
56376
56670
56996
57354
57737
58135
58545
58956
59357
59741
60105
60446
60759
61038
61283
61494
61671
61817
61932
62016
62066
62084
62074
62040
61986
61912
61820
61708
61576
61425
61267
61107
60946
60782
60617
60453
60297
60145
59994
59845
59698
59552
59410
59280
59165
59068
58991
58938
58912
58913
58938
58984
59048
59126
59216
59314
59416
59521
59624
59722
59816
59903
59984
60060
60128
60186
60232
60265
60286
60292
60284
60262
60227
60179
60121
60049
59965
59873
59777
59681
59584
59485
59384
59277
59162
59041
58918
58795
58673
58553
58438
58326
58216
58109
58006
57906
57808
57715
57626
57544
57464
57381
57299
57219
57146
57080
57019
56967
56918
56871
56826
56786
56748
56710
56670
56626
56578
56533
56490
56446
56402
56356
56311
56265
56218
56173
56131
56090
56048
56001
55946
55884
55815
55744
55676
55617
55569
55532
55506
55496
55510
55560
55655
55800
55995
56239
56528
56855
57211
57591
57990
58398
58808
59212
59608
59986
60338
60659
60953
61218
61445
61632
61781
61893
61967
62007
62018
62001
61957
61887
61793
61681
61556
61420
61273
61119
60964
60806
60647
60485
60321
60161
60006
59853
59704
59563
59430
59301
59177
59062
58964
58882
58820
58784
58776
58790
58824
58876
58944
59028
59125
59230
59338
59446
59553
59660
59763
59855
59931
59997
60052
60093
60118
60132
60137
60129
60105
60064
60008
59938
59853
59758
59658
59553
59442
59328
59214
59101
58988
58878
58766
58650
58533
58413
58293
58173
58051
57929
57811
57696
57585
57480
57381
57286
57192
57102
57017
56938
56869
56812
56761
56710
56655
56598
56541
56485
56435
56390
56347
56307
56270
56233
56196
56157
56115
56070
56023
55976
55928
55879
55824
55764
55700
55632
55558
55482
55409
55337
55266
55199
55137
55079
55025
54975
54935
54911
54906
54925
54979
55082
55242
55452
55708
56006
56340
56703
57086
57480
57881
58280
58668
59042
59396
59724
60020
60281
60503
60689
60839
60956
61039
61088
61106
61094
61053
60985
60896
60784
60651
60503
60341
60171
59997
59819
59634
59444
59251
59058
58863
58667
58475
58291
58113
57944
57790
57658
57549
57462
57398
57360
57350
57366
57406
57468
57549
57646
57756
57877
58006
58135
58258
58373
58481
58576
58658
58727
58782
58821
58847
58858
58855
58838
58808
58762
58703
58633
58551
58457
58355
58244
58124
57998
57868
57732
57594
57457
57319
57182
57049
56919
56792
56672
56556
56439
56324
56211
56101
55996
55893
55793
55699
55615
55540
55474
55414
55357
55300
55246
55191
55134
55077
55025
54977
54929
54881
54832
54784
54738
54695
54655
54614
54570
54523
54476
54429
54380
54331
54280
54228
54173
54118
54064
54010
53954
53892
53824
53754
53682
53607
53534
53466
53405
53361
53344
53362
53423
53534
53698
53913
54178
54489
54842
55226
55632
56053
56478
56899
57308
57698
58063
58399
58700
58964
59190
59376
59526
59636
59708
59747
59756
59736
59689
59614
59512
59387
59241
59076
58898
58710
58514
58312
58106
57899
57693
57488
57284
57082
56882
56681
56483
56295
56122
55972
55850
55761
55707
55689
55701
55739
55803
55891
56000
56127
56271
56427
56587
56744
56889
57022
57143
57251
57341
57413
57470
57515
57548
57570
57578
57569
57545
57504
57448
57377
57292
57196
57091
56982
56869
56749
56624
56494
56364
56233
56099
55963
55827
55694
55564
55436
55312
55191
55076
54967
54865
54768
54675
54589
54510
54437
54367
54299
54230
54164
54100
54039
53983
53933
53886
53841
53800
53760
53718
53675
53632
53589
53546
53502
53458
53412
53360
53307
53257
53212
53168
53124
53081
53038
52993
52947
52901
52851
52797
52743
52692
52648
52614
52601
52621
52682
52794
52962
53186
53464
53794
54170
54581
55013
55456
55902
56342
56764
57161
57532
57878
58195
58475
58717
58921
59085
59210
59296
59346
59360
59341
59291
59208
59094
58956
58802
58638
58462
58280
58094
57906
57713
57516
57317
57115
56907
56695
56479
56264
56052
55852
55670
55511
55376
55269
55193
55147
55132
55149
55201
55278
55371
55475
55591
55716
55844
55973
56097
56220
56340
56455
56564
56660
56742
56810
56860
56890
56901
56895
56873
56836
56782
56712
56628
56533
56431
56322
56208
56090
55967
55839
55706
55567
55421
55269
55118
54973
54831
54690
54551
54414
54284
54163
54050
53946
53848
53756
53668
53581
53494
53407
53322
53239
53161
53089
53023
52960
52904
52856
52816
52779
52742
52703
52662
52617
52569
52521
52474
52430
52387
52341
52291
52241
52195
52149
52103
52056
52009
51959
51907
51850
51786
51721
51659
51600
51547
51502
51468
51453
51465
51522
51634
51807
52045
52345
52702
53106
53546
54008
54482
54958
55433
55897
56345
56768
57161
57518
57834
58104
58332
58520
58669
58779
58849
58879
58872
58829
58759
58665
58553
58425
58282
58124
57954
57773
57582
57385
57183
56974
56761
56548
56341
56139
55939
55739
55543
55358
55189
55043
54922
54831
54769
54736
54735
54763
54815
54891
54988
55102
55227
55358
55493
55628
55767
55907
56041
56168
56286
56392
56483
56554
56602
56629
56640
56632
56605
56560
56502
56430
56347
56256
56162
56064
55964
55858
55745
55625
55495
55354
55209
55063
54918
54779
54648
54523
54401
54282
54163
54043
53925
53813
53705
53602
53508
53422
53344
53271
53205
53139
53071
53003
52935
52873
52816
52761
52705
52650
52599
52553
52512
52474
52435
52394
52348
52299
52249
52199
52152
52107
52059
52010
51960
51911
51858
51806
51757
51712
51670
51628
51590
51563
51562
51597
51678
51811
51998
52241
52541
52891
53283
53706
54150
54606
55068
55529
55979
56406
56807
57177
57512
57811
58071
58290
58467
58606
58708
58773
58805
58806
58774
58716
58630
58513
58364
58193
58005
57805
57597
57383
57163
56942
56725
56510
56298
56087
55876
55666
55459
55257
55064
54886
54732
54608
54516
54456
54431
54439
54478
54545
54634
54740
54860
54991
55131
55273
55415
55558
55700
55837
55965
56080
56176
56252
56308
56345
56364
56365
56349
56315
56264
56196
56112
56016
55909
55794
55675
55551
55422
55288
55150
55007
54856
54701
54545
54390
54236
54084
53938
53800
53672
53556
53448
53348
53249
53149
53051
52953
52855
52757
52661
52567
52476
52392
52314
52242
52178
52124
52080
52037
51988
51936
51883
51831
51782
51735
51690
51644
51592
51534
51471
51406
51342
51281
51218
51153
51090
51029
50969
50911
50853
50792
50734
50686
50656
50652
50690
50779
50927
51138
51414
51751
52136
52559
53007
53464
53922
54375
54816
55240
55642
56014
56346
56640
56898
57120
57301
57438
57529
57578
57590
57571
57527
57460
57369
57248
57097
56917
56718
56505
56282
56050
55812
55572
55332
55095
54859
54619
54373
54127
53887
53657
53439
53235
53050
52892
52770
52693
52661
52675
52728
52812
52926
53065
53220
53384
53557
53733
53907
54075
54238
54394
54535
54657
54759
54843
54909
54956
54982
54985
54963
54920
54859
54785
54703
54612
54515
54408
54291
54167
54035
53897
53754
53605
53450
53293
53135
52979
52826
52681
52542
52409
52283
52161
52041
51923
51811
51703
51599
51499
51401
51305
51212
51124
51037
50952
50870
50792
50718
50646
50575
50508
50443
50381
50322
50265
50210
50156
50101
50044
49983
49919
49855
49792
49730
49670
49610
49550
49496
49453
49425
49415
49432
49488
49593
49759
49988
50283
50637
51037
51470
51929
52403
52880
53355
53817
54255
54663
55035
55369
55664
55923
56143
56327
56477
56588
56659
56691
56685
56641
56560
56444
56301
56137
55952
55745
55521
55285
55041
54791
54538
54279
54011
53731
53445
53158
52876
52605
52348
52109
51895
51712
51565
51459
51398
51387
51426
51512
51639
51804
51997
52209
52430
52656
52883
53106
53317
53508
53679
53827
53952
54052
54133
54193
54229
54244
54243
54223
54186
54134
54065
53978
53877
53762
53636
53497
53343
53181
53015
52846
52679
52515
52358
52208
52064
51926
51792
51661
51534
51413
51294
51180
51076
50980
50888
50800
50715
50632
50551
50472
50394
50321
50253
50189
50128
50065
50000
49936
49879
49833
49792
49748
49703
49660
49621
49584
49545
49503
49456
49408
49360
49315
49278
49256
49254
49280
49340
49445
49608
49840
50145
50521
50961
51446
51959
52489
53024
53553
54065
54555
55019
55449
55841
56194
56508
56781
57011
57195
57337
57439
57501
57519
57496
57439
57353
57241
57107
56955
56788
56607
56411
56203
55984
55758
55526
55291
55054
54815
54574
54331
54096
53873
53665
53477
53311
53167
53049
52959
52904
52883
52896
52946
53034
53155
53298
53455
53623
53802
53984
54165
54340
54503
54649
54781
54905
55017
55109
55179
55227
55261
55278
55276
55256
55218
55160
55084
54994
54892
54776
54647
54510
54368
54222
54072
53922
53775
53624
53468
53307
53143
52978
52819
52674
52541
52419
52310
52208
52108
52014
51923
51832
51742
51657
51583
51511
51439
51370
51304
51245
51192
51142
51096
51050
51000
50947
50893
50838
50785
50737
50693
50653
50617
50581
50542
50502
50460
50419
50382
50348
50315
50289
50282
50304
50371
50497
50696
50973
51320
51727
52182
52677
53202
53744
54289
54824
55340
55832
56297
56728
57125
57485
57803
58074
58301
58486
58628
58730
58792
58815
58801
58749
58665
58552
58413
58253
58077
57886
57686
57482
57280
57086
56897
56710
56521
56329
56129
55923
55713
55506
55311
55134
54979
54847
54741
54662
54619
54617
54649
54704
54777
54870
54981
55111
55255
55406
55560
55710
55854
55991
56118
56236
56345
56440
56520
56583
56630
56661
56672
56661
56632
56587
56522
56438
56343
56239
56127
56012
55891
55760
55619
55473
55323
55166
55005
54847
54694
54543
54394
54253
54121
53996
53874
53755
53641
53534
53430
53329
53231
53136
53046
52964
52891
52826
52766
52710
52659
52609
52558
52510
52464
52417
52366
52306
52240
52171
52107
52052
52000
51951
51904
51857
51812
51767
51726
51691
51661
51632
51604
51586
51587
51618
51697
51833
52030
52292
52621
53014
53460
53939
54440
54955
55475
55986
56481
56952
57391
57798
58172
58506
58801
59055
59269
59442
59576
59667
59715
59720
59686
59615
59512
59381
59231
59065
58886
58694
58492
58290
58091
57889
57687
57485
57279
57072
56867
56667
56469
56273
56082
55906
55753
55629
55539
55482
55457
55462
55496
55556
55636
55736
55855
55992
56139
56290
56441
56593
56742
56882
57009
57122
57215
57293
57359
57410
57447
57468
57469
57450
57408
57346
57268
57178
57075
56961
56842
56716
56585
56453
56322
56191
56057
55918
55770
55615
55458
55302
55154
55010
54870
54734
54604
54479
54359
54248
54148
54056
53969
53888
53808
53730
53657
53591
53530
53474
53422
53373
53330
53289
53246
53198
53147
53095
53044
52994
52944
52890
52833
52778
52730
52685
52641
52594
52544
52489
52432
52376
52323
52272
52226
52190
52165
52158
52181
52251
52379
52571
52834
53165
53554
53990
54458
54947
55449
55956
56459
56951
57419
57857
58263
58634
58967
59256
59497
59695
59851
59965
60034
60060
60045
59993
59912
59810
59686
59538
59369
59186
58994
58795
58587
58371
58153
57932
57707
57482
57258
57032
56807
56586
56373
56173
55996
55844
55720
55627
55567
55537
55538
55568
55625
55709
55815
55944
56092
56253
56417
56580
56738
56884
57017
57133
57233
57315
57376
57415
57439
57445
57435
57410
57370
57315
57245
57158
57052
56932
56802
56665
56518
56361
56195
56025
55855
55685
55519
55361
55204
55049
54896
54749
54602
54455
54311
54171
54037
53908
53788
53678
53575
53477
53388
53307
53232
53162
53096
53035
52975
52912
52847
52784
52728
52677
52629
52582
52534
52485
52436
52388
52338
52285
52228
52165
52097
52026
51957
51889
51818
51747
51681
51623
51570
51522
51478
51436
51399
51371
51363
51389
51460
51590
51789
52060
52397
52796
53245
53727
54226
54733
55238
55729
56196
56637
57048
57422
57756
58049
58303
58516
58682
58801
58875
58905
58897
58852
58770
58653
58507
58339
58150
57941
57716
57479
57233
56980
56722
56459
56190
55919
55654
55393
55134
54878
54634
54409
54205
54023
53866
53739
53651
53611
53622
53677
53773
53907
54072
54258
54458
54670
54887
55099
55302
55493
55672
55835
55976
56095
56187
56255
56303
56332
56338
56318
56273
56205
56117
56010
55888
55752
55611
55465
55316
55165
55012
54856
54702
54550
54396
54240
54086
53936
53790
53651
53519
53393
53276
53167
53068
52979
52899
52827
52761
52696
52632
52572
52518
52467
52419
52372
52329
52288
52247
52204
52165
52128
52091
52050
52001
51946
51889
51836
51787
51742
51696
51649
51601
51555
51513
51474
51438
51408
51384
51372
51382
51428
51515
51654
51855
52122
52452
52842
53280
53751
54241
54742
55241
55726
56189
56624
57028
57401
57738
58035
58290
58501
58666
58785
58861
58899
58901
58871
58809
58709
58571
58404
58219
58020
57808
57581
57342
57095
56840
56579
56314
56043
55762
55479
55202
54931
54672
54434
54224
54049
53914
53824
53778
53776
53820
53911
54043
54207
54399
54612
54836
55061
55281
55491
55686
55867
56033
56183
56313
56420
56504
56563
56593
56598
56581
56544
56488
56415
56329
56230
56117
55992
55856
55712
55558
55395
55224
55050
54874
54700
54530
54362
54199
54041
53889
53744
53606
53476
53357
53246
53139
53035
52939
52857
52787
52724
52668
52613
52557
52502
52447
52392
52336
52285
52241
52201
52162
52124
52085
52046
52011
51981
51950
51914
51874
51830
51784
51739
51696
51657
51621
51584
51544
51508
51481
51468
51479
51524
51610
51751
51958
52242
52600
53023
53499
54019
54568
55128
55691
56245
56777
57279
57746
58176
58565
58912
59217
59478
59695
59869
60001
60093
60148
60164
60142
60082
59985
59851
59690
59510
59317
59115
58909
58702
58494
58284
58075
57868
57663
57454
57244
57035
56827
56626
56439
56270
56125
56013
55935
55891
55882
55909
55967
56053
56163
56291
56433
56583
56742
56907
57072
57229
57378
57524
57668
57802
57921
58023
58102
58152
58172
58170
58152
58121
58074
58015
57943
57856
57755
57643
57521
57394
57260
57121
56977
56827
56674
56522
56368
56211
56055
55904
55760
55621
55490
55372
55264
55163
55073
54993
54916
54843
54772
54698
54620
54541
54467
54394
54323
54259
54205
54160
54120
54083
54048
54013
53976
53934
53887
53836
53784
53733
53689
53650
53609
53569
53534
53504
53473
53441
53413
53395
53394
53422
53493
53615
53793
54032
54334
54693
55106
55566
56062
56580
57107
57637
58160
58665
59147
59603
60033
60425
60771
61070
61323
61531
61694
61815
61893
61930
61931
61899
61835
61742
61620
61473
61308
61130
60941
60749
60558
60366
60172
59979
59790
59603
59418
59232
59042
58855
58678
58513
58366
58241
58144
58076
58035
58019
58027
58056
58104
58175
58269
58384
58515
58655
58795
58932
59065
59193
59316
59428
59525
59606
59670
59718
59749
59763
59760
59742
59708
59661
59601
59522
59426
59316
59194
59067
58935
58800
58663
58523
58379
58235
58091
57945
57800
57658
57518
57381
57242
57108
56984
56870
56766
56671
56580
56491
56404
56319
56241
56171
56103
56041
55982
55928
55880
55838
55799
55761
55723
55686
55648
55608
55566
55524
55484
55447
55411
55370
55324
55273
55215
55155
55096
55041
54989
54934
54877
54820
54764
54712
54667
54632
54611
54606
54627
54685
54796
54971
55211
55515
55885
56312
56781
57282
57804
58334
58859
59370
59861
60329
60769
61175
61543
61873
62166
62424
62645
62823
62955
63043
63091
63100
63070
63004
62907
62779
62624
62453
62276
62091
61897
61697
61495
61295
61095
60897
60696
60493
60291
60096
59914
59748
59601
59472
59362
59273
59211
59181
59185
59217
59275
59357
59455
59560
59673
59791
59915
60037
60155
60268
60377
60481
60581
60673
60750
60811
60851
60870
60870
60848
60811
60761
60701
60631
60549
60459
60356
60241
60117
59983
59840
59692
59540
59382
59225
59073
58927
58781
58634
58492
58360
58233
58104
57975
57851
57734
57622
57516
57419
57330
57245
57165
57091
57021
56951
56884
56821
56763
56709
56660
56613
56566
56523
56481
56441
56400
56356
56313
56272
56231
56191
56151
56109
56064
56014
55959
55902
55842
55779
55717
55655
55588
55512
55434
55357
55275
55190
55106
55025
54949
54879
54822
54783
54775
54810
54900
55054
55278
55573
55936
56358
56826
57329
57856
58398
58940
59472
59982
60458
60898
61299
61661
61982
62262
62504
62706
62867
62982
63049
63070
63050
62990
62893
62771
62627
62463
62282
62086
61881
61674
61462
61244
61020
60793
60568
60343
60119
59895
59677
59469
59272
59087
58924
58784
58672
58595
58555
58549
58571
58622
58700
58804
58925
59057
59193
59329
59466
59605
59744
59877
60005
60120
60214
60288
60344
60380
60392
60381
60355
60314
60258
60191
60114
60025
59919
59797
59659
59511
59354
59191
59030
58871
58712
58548
58380
58213
58046
57881
57720
57564
57412
57266
57128
56997
56865
56732
56603
56482
56367
56259
56160
56070
55982
55897
55822
55755
55689
55621
55560
55508
55464
55423
55382
55340
55298
55254
55206
55155
55104
55051
54997
54941
54883
54826
54772
54720
54667
54612
54553
54484
54408
54329
54248
54168
54089
54013
53940
53865
53791
53720
53656
53608
53587
53604
53671
53801
54003
54286
54648
55075
55555
56079
56632
57193
57746
58275
58772
59231
59650
60028
60364
60655
60901
61103
61263
61384
61469
61517
61528
61501
61436
61335
61202
61035
60835
60607
60361
60103
59841
59578
59312
59050
58795
58542
58285
58024
57762
57500
57243
57001
56783
56592
56433
56314
56239
56206
56216
56269
56360
56482
56629
56796
56974
57159
57349
57539
57726
57904
58072
58228
58368
58486
58584
58656
58700
58721
58721
58702
58665
58610
58535
58441
58333
58211
58075
57928
57771
57605
57434
57261
57085
56902
56713
56523
56339
56160
55988
55823
55667
55518
55382
55261
55155
55061
54974
54894
54821
54752
54686
54624
54564
54504
54445
54389
54334
54281
54228
54175
54125
54078
54032
53983
53929
53873
53816
53755
53690
53623
53558
53495
53434
53374
53315
53254
53186
53113
53040
52970
52903
52843
52797
52771
52773
52812
52899
53043
53251
53532
53888
54314
54796
55322
55875
56437
56992
57531
58047
58531
58978
59386
59752
60070
60335
60549
60716
60841
60927
60975
60987
60963
60904
60812
60688
60534
60355
60157
59941
59708
59462
59205
58940
58667
58389
58106
57818
57529
57239
56949
56660
56379
56118
55887
55692
55534
55418
55351
55337
55376
55468
55607
55780
55982
56207
56445
56684
56916
57137
57347
57543
57720
57879
58017
58132
58226
58293
58334
58348
58337
58305
58254
58186
58102
57998
57876
57740
57593
57442
57284
57117
56947
56776
56599
56415
56229
56047
55873
55703
55535
55375
55225
55088
54959
54833
54711
54591
54478
54372
54272
54179
54096
54024
53957
53891
53822
53752
53688
53632
53575
53514
53453
53397
53345
53294
53244
53201
53170
53140
53105
53062
53015
52967
52919
52870
52818
52765
52710
52655
52601
52545
52492
52453
52437
52455
52521
52648
52849
53133
53504
53958
54482
55056
55665
56297
56931
57549
58145
58712
59239
59720
60157
60550
60899
61199
61453
61661
61826
61947
62028
62069
62073
62038
61966
61863
61731
61571
61386
61181
60958
60722
60478
60234
59987
59738
59488
59242
58997
58750
58501
58251
58002
57762
57540
57343
57177
57045
56950
56893
56872
56887
56941
57030
57152
57303
57474
57657
57844
58033
58221
58405
58578
58734
58873
58994
59094
59170
59222
59252
59261
59246
59210
59154
59083
58999
58905
58798
58678
58545
58401
58245
58078
57903
57726
57550
57375
57201
57030
56862
56694
56527
56361
56197
56039
55889
55749
55618
55496
55385
55277
55170
55068
54975
54888
54804
54725
54652
54583
54512
54437
54361
54288
54218
54151
54086
54020
53957
53901
53851
53800
53748
53696
53644
53589
53528
53466
53406
53351
53305
53270
53248
53246
53269
53332
53447
53626
53880
54216
54636
55128
55675
56262
56872
57490
58103
58697
59257
59774
60248
60681
61072
61421
61729
61994
62211
62385
62517
62610
62663
62676
62649
62582
62476
62334
62166
61980
61779
61567
61345
61114
60874
60631
60386
60139
59890
59633
59371
59107
58846
58596
58362
58146
57950
57782
57648
57549
57485
57458
57469
57516
57595
57703
57833
57983
58151
58330
58514
58696
58871
59038
59193
59327
59438
59530
59603
59655
59686
59698
59693
59671
59631
59573
59499
59406
59292
59162
59020
58867
58707
58541
58372
58201
58027
57853
57680
57507
57331
57154
56980
56806
56637
56475
56320
56171
56029
55892
55757
55625
55499
55383
55274
55169
55076
54993
54913
54835
54758
54682
54612
54547
54484
54419
54352
54286
54224
54167
54109
54049
53991
53934
53875
53814
53753
53689
53622
53557
53498
53442
53396
53366
53355
53367
53415
53511
53670
53904
54221
54627
55108
55647
56225
56830
57445
58054
58646
59214
59745
60230
60668
61061
61412
61718
61979
62198
62373
62505
62597
62650
62665
62641
62577
62476
62340
62170
61976
61761
61531
61294
61056
60817
60570
60313
60048
59779
59512
59246
58984
58729
58486
58257
58042
57848
57682
57546
57441
57373
57343
57350
57392
57471
57583
57726
57892
58071
58255
58437
58616
58787
58946
59090
59221
59336
59432
59505
59556
59586
59595
59581
59547
59498
59434
59355
59259
59145
59015
58872
58717
58553
58383
58208
58027
57843
57659
57475
57291
57110
56933
56761
56591
56425
56263
56106
55953
55807
55667
55531
55403
55283
55169
55060
54954
54851
54753
54656
54557
54461
54367
54277
54189
54099
54007
53922
53845
53772
53704
53641
53577
53510
53436
53358
53282
53209
53138
53071
53010
52958
52922
52906
52919
52974
53082
53254
53501
53831
54246
54734
55278
55858
56457
57058
57647
58213
58749
59246
59702
60113
60480
60808
61092
61331
61526
61679
61787
61851
61877
61863
61811
61724
61601
61443
61251
61034
60799
60550
60289
60019
59742
59458
59167
58866
58558
58245
57928
57611
57299
56999
56716
56455
56228
56038
55890
55790
55744
55755
55818
55926
56072
56249
56450
56668
56894
57125
57353
57570
57772
57956
58118
58261
58383
58484
58562
58617
58650
58661
58649
58613
58553
58474
58379
58273
58152
58017
57867
57707
57538
57364
57187
57007
56823
56640
56462
56292
56131
55976
55825
55677
55531
55387
55244
55105
54971
54839
54708
54580
54452
54328
54215
54110
54010
53918
53836
53759
53680
53599
53518
53436
53355
53275
53196
53118
53042
52971
52905
52846
52795
52758
52735
52729
52746
52803
52918
53102
53360
53698
54115
54598
55132
55703
56295
56889
57474
58042
58585
59095
59561
59974
60336
60649
60915
61136
61312
61443
61530
61576
61577
61534
61450
61331
61182
61010
60816
60601
60365
60110
59839
59553
59256
58951
58636
58313
57983
57652
57327
57010
56700
56404
56131
55890
55689
