32802
32755
32709
32664
32613
32553
32495
32443
32397
32360
32328
32292
32248
32201
32154
32107
32058
32006
31960
31925
31886
31838
31787
31736
31683
31625
31559
31485
31405
31323
31248
31178
31109
31046
30991
30936
30874
30812
30757
30705
30647
30585
30523
30459
30396
30337
30282
30229
30173
30120
30072
30022
29972
29925
29879
29831
29783
29732
29681
29624
29553
29481
29423
29375
29325
29277
29236
29215
29235
29310
29446
29648
29917
30242
30611
31025
31478
31952
32436
32916
33378
33816
34233
34624
34985
35314
35600
35838
36032
36174
36270
36332
36361
36350
36308
36245
36163
36064
35958
35855
35761
35677
35595
35514
35447
35401
35368
35343
35322
35299
35276
35260
35247
35234
35225
35222
35219
35219
35217
35207
35187
35157
35115
35067
35016
34961
34907
34860
34824
34799
34785
34779
34781
34788
34795
34802
34817
34847
34886
34925
34964
34995
35016
35033
35041
35037
35030
35019
34998
34966
34922
34867
34800
34728
34663
34602
34536
34450
34338
34228
34132
34040
33954
33870
33786
33711
33645
33579
33501
33409
33312
33212
33115
33032
32962
32890
32819
32754
32696
32642
32593
32559
32534
32505
32467
32424
32378
32327
32277
32240
32214
32184
32150
32113
32072
32030
31988
31945
31903
31863
31828
31797
31770
31749
31725
31693
31657
31621
31573
31515
31458
31401
31339
31277
31217
31161
31113
31061
31003
30940
30869
30798
30730
30660
30589
30522
30460
30398
30330
30256
30178
30100
30019
29938
29862
29792
29732
29680
29624
29556
29474
29387
29302
29220
29146
29086
29032
28984
28940
28895
28847
28796
28737
28666
28596
28543
28499
28451
28402
28357
28320
28291
28255
28213
28178
28145
28098
28040
27975
27905
27837
27772
27705
27636
27575
27532
27523
27562
27660
27839
28111
28461
28864
29313
29798
30306
30828
31358
31899
32439
32954
33428
33858
34241
34572
34849
35088
35299
35475
35618
35735
35818
35852
35841
35807
35751
35673
35585
35489
35386
35282
35186
35108
35058
35029
35014
35008
35006
35010
35027
35049
35071
35101
35147
35200
35244
35270
35276
35267
35250
35221
35182
35138
35092
35048
35002
34959
34924
34897
34870
34834
34796
34767
34747
34729
34711
34694
34686
34693
34710
34722
34727
34732
34736
34737
34733
34727
34717
34700
34673
34638
34598
34568
34541
34498
34436
34359
34277
34195
34114
34027
33931
33828
33728
33629
33529
33434
33345
33264
33188
33109
33030
32951
32867
32783
32708
32638
32566
32502
32445
32388
32334
32295
32258
32211
32159
32113
32073
32037
32004
31971
31932
31888
31850
31825
31801
31764
31711
31654
31598
31545
31485
31416
31353
31301
31258
31225
31205
31193
31180
31157
31121
31077
31028
30970
30899
30821
30749
30677
30598
30518
30443
30374
30303
30228
30153
30082
30022
29963
29891
29818
29757
29698
29642
29592
29540
29476
29402
29322
29243
29164
29088
29024
28965
28897
28825
28757
28692
28626
28563
28497
28424
28347
28267
28198
28147
28108
28071
28027
27975
27919
27858
27797
27753
27720
27679
27637
27603
27563
27512
27461
27405
27340
27278
27214
27153
27107
27066
27020
26967
26903
26833
26764
26691
26617
26546
26479
26426
26401
26422
26507
26668
26915
27258
27690
28191
28744
29318
29890
30447
30990
31525
32046
32548
33026
33464
33854
34192
34481
34730
34936
35094
35212
35293
35331
35335
35316
35279
35232
35174
35114
35056
34994
34937
34891
34850
34809
34776
34756
34756
34775
34803
34825
34845
34873
34909
34960
35023
35083
35135
35181
35211
35217
35208
35184
35138
35071
34993
34917
34851
34797
34750
34711
34680
34650
34617
34584
34561
34547
34534
34531
34530
34523
34514
34509
34509
34509
34511
34518
34522
34518
34506
34487
34456
34411
34354
34289
34224
34163
34105
34047
33980
33908
33836
33757
33670
33584
33497
33404
33314
33226
33136
33048
32960
32871
32788
32719
32666
32615
32555
32482
32408
32347
32293
32235
32177
32132
32091
32041
31983
31935
31906
31892
31883
31868
31845
31817
31789
31755
31709
31652
31598
31555
31515
31470
31432
31404
31374
31340
31301
31249
31185
31123
31069
31017
30961
30903
30844
30788
30738
30692
30642
30595
30548
30490
30427
30364
30288
30211
30141
30065
29986
29913
29843
29767
29687
29607
29526
29461
29409
29352
29296
29244
29188
29132
29085
29040
28990
28932
28868
28801
28731
28661
28593
28527
28471
28429
28393
28355
28318
28285
28253
28210
28153
28085
28009
27937
27871
27808
27744
27689
27653
27625
27591
27547
27503
27466
27433
27402
27369
27334
27296
27251
27199
27143
27084
27028
26974
26923
26874
26822
26763
26712
26679
26674
26714
26811
26975
27215
27531
27914
28353
28835
29343
29872
30416
30953
31476
31993
32494
32965
33397
33783
34118
34407
34650
34849
35005
35124
35200
35229
35214
35172
35116
35048
34977
34909
34837
34760
34692
34642
34608
34586
34568
34549
34533
34528
34534
34549
34576
34620
34677
34732
34767
34783
34795
34805
34803
34792
34765
34725
34678
34623
34569
34520
34465
34407
34354
34310
34276
34251
34233
34223
34228
34247
34277
34316
34352
34368
34366
34361
34359
34353
34328
34297
34274
34247
34212
34169
34118
34065
34013
33957
33898
33833
33759
33685
33616
33546
33476
33409
33335
33253
33165
33068
32963
32862
32767
32680
32604
32535
32466
32387
32301
32220
32150
32087
32014
31934
31865
31809
31765
31734
31711
31695
31675
31644
31600
31542
31478
31419
31365
31319
31283
31247
31203
31160
31123
31090
31063
31044
31019
30984
30939
30881
30814
30750
30689
30625
30565
30514
30472
30431
30395
30366
30336
30296
30236
30161
30091
30022
29949
29876
29800
29721
29643
29575
29510
29431
29338
29250
29182
29129
29081
29033
28978
28912
28844
28781
28726
28677
28628
28571
28501
28429
28355
28267
28178
28103
28034
27968
27904
27841
27782
27720
27664
27613
27564
27527
27498
27462
27419
27367
27303
27240
27180
27107
27022
26940
26870
26815
26771
26735
26706
26673
26628
26580
26542
26508
26469
26425
26375
26319
26262
26197
26120
26041
25964
25886
25816
25755
25719
25740
25844
26034
26313
26687
27150
27677
28241
28814
29383
29949
30502
31033
31540
32018
32459
32854
33194
33483
33726
33928
34095
34222
34307
34351
34353
34316
34249
34154
34040
33919
33799
33682
33563
33449
33353
33278
33212
33158
33120
33093
33076
33073
33081
33096
33113
33132
33157
33182
33198
33199
33182
33154
33120
33082
33037
32990
32950
32923
32899
32883
32883
32894
32903
32911
32926
32956
32997
33038
33076
33110
33134
33147
33153
33160
33167
33167
33159
33149
33136
33118
33099
33072
33031
32981
32925
32854
32765
32668
32572
32470
32357
32248
32152
32064
31970
31869
31778
31703
31631
31554
31481
31410
31338
31272
31206
31142
31086
31026
30954
30881
30817
30763
30716
30671
30625
30586
30552
30516
30485
30451
30409
30373
30349
30332
30311
30284
30250
30205
30153
30104
30054
30001
29948
29892
29837
29796
29762
29717
29663
29608
29551
29489
29424
29362
29300
29241
29185
29132
29077
29018
28956
28895
28840
28796
28759
28717
28663
28603
28537
28473
28412
28348
28276
28193
28104
28020
27948
27888
27833
27775
27720
27665
27602
27532
27461
27399
27357
27319
27270
27215
27157
27097
27037
26974
26903
26833
26771
26713
26653
26594
26534
26472
26413
26359
26302
26251
26213
26187
26196
26270
26420
26650
26958
27342
27794
28295
28830
29382
29928
30456
30951
31402
31818
32208
32567
32879
33141
33369
33555
33694
33796
33869
33920
33944
33927
33867
33779
33680
33580
33479
33369
33250
33134
33030
32933
32841
32760
32694
32640
32600
32565
32532
32508
32492
32481
32466
32444
32414
32380
32345
32306
32266
32236
32224
32221
32211
32194
32185
32195
32222
32255
32287
32313
32341
32372
32399
32426
32453
32478
32494
32505
32519
32542
32560
32560
32552
32541
32528
32502
32455
32400
32340
32272
32204
32131
32048
31956
31856
31742
31622
31505
31396
31297
31202
31102
31001
30904
30814
30720
30628
30551
30480
30405
30328
30246
30158
30075
29998
29928
29864
29808
29765
29737
29717
29699
29676
29644
29602
29554
29510
29476
29445
29409
29368
29330
29304
29288
29275
29255
29220
29173
29124
29086
29059
29026
28984
28935
28880
28824
28773
28722
28668
28614
28565
28523
28480
28436
28393
28343
28277
28198
28109
28016
27928
27842
27752
27666
27593
27527
27459
27387
27312
27235
27161
27094
27026
26958
26896
26829
26752
26677
26611
26549
26487
26425
26366
26319
26276
26235
26191
26128
26043
25959
25899
25852
25805
25766
25736
25699
25651
25603
25552
25493
25430
25365
25295
25222
25158
25108
25073
25053
25060
25113
25218
25396
25671
26045
26505
27043
27638
28253
28859
29450
30017
30547
31044
31518
31973
32405
32796
33126
33402
33635
33834
33997
34112
34167
34176
34169
34143
34087
34008
33921
33841
33779
33731
33691
33656
33623
33592
33565
33536
33513
33501
33503
33534
33585
33637
33688
33740
33783
33815
33843
33862
33857
33838
33818
33793
33761
33722
33677
33636
33599
33562
33527
33488
33440
33397
33372
33366
33371
33376
33386
33406
33431
33451
33458
33453
33443
33437
33440
33439
33419
33388
33354
33315
33274
33229
33183
33134
33081
33020
32952
32875
32795
32719
32645
32568
32493
32415
32327
32229
32132
32047
31975
31903
31820
31732
31649
31571
31496
31422
31353
31285
31218
31154
31099
31057
31026
30998
30964
30921
30875
30832
30791
30752
30709
30657
30601
30548
30500
30456
30416
30375
30336
30301
30264
30223
30175
30118
30061
30008
29955
29903
29854
29805
29756
29709
29656
29592
29537
29497
29454
29401
29347
29287
29211
29131
29063
29005
28947
28888
28829
28765
28696
28623
28553
28485
28407
28322
28241
28161
28078
27994
27911
27825
27739
27656
27580
27514
27453
27386
27310
27238
27171
27114
27070
27032
26996
26963
26926
26883
26841
26798
26752
26706
26654
26595
26531
26467
26410
26358
26308
26259
26210
26163
26112
26059
26008
25962
25925
25889
25843
25784
25718
25654
25600
25553
25498
25434
25374
25318
25263
25218
25200
25228
25319
25487
25745
26105
26554
27067
27633
28234
28849
29464
30069
30660
31223
31744
32223
32672
33086
33454
33776
34048
34267
34439
34570
34658
34710
34728
34713
34683
34643
34597
34549
34493
34430
34367
34303
34244
34201
34181
34182
34201
34230
34264
34310
34369
34429
34494
34565
34628
34681
34717
34732
34731
34713
34678
34633
34578
34516
34459
34412
34366
34318
34277
34238
34196
34153
34115
34088
34077
34081
34094
34114
34127
34130
34132
34138
34143
34142
34141
34139
34130
34113
34094
34067
34026
33965
33884
33795
33726
33679
33640
33605
33570
33517
33443
33356
33262
33169
33079
32984
32881
32777
32681
32594
32518
32449
32378
32311
32250
32185
32110
32037
31974
31916
31862
31811
31759
31709
31658
31605
31548
31488
31436
31396
31360
31325
31287
31249
31222
31197
31161
31120
31074
31025
30979
30937
30897
30853
30800
30738
30678
30624
30574
30524
30467
30404
30340
30274
30209
30146
30084
30019
29947
29874
29811
29758
29709
29654
29585
29509
29427
29340
29255
29179
29119
29067
29010
28941
28864
28779
28685
28594
28515
28443
28378
28323
28275
28225
28172
28117
28056
27987
27910
27831
27755
27682
27604
27523
27448
27379
27312
27247
27183
27123
27062
27004
26956
26915
26879
26850
26819
26778
26731
26686
26640
26586
26527
26470
26410
26348
26291
26244
26201
26158
26115
26070
26023
25973
25918
25857
25790
25726
25659
25585
25508
25436
25369
25304
25247
25212
25207
25250
25360
25550
25831
26215
26685
27222
27803
28407
29027
29653
30272
30866
31423
31934
32403
32832
33214
33551
33845
34092
34287
34427
34520
34585
34621
34626
34608
34569
34512
34444
34371
34304
34250
34210
34181
34159
34143
34136
34142
34158
34188
34236
34292
34348
34402
34453
34506
34561
34605
34627
34626
34614
34594
34560
34509
34447
34379
34310
34240
34161
34081
34015
33963
33920
33891
33881
33887
33902
33923
33946
33966
33981
34002
34027
34054
34078
34084
34069
34051
34038
34023
33989
33932
33871
33822
33777
33733
33691
33644
33583
33514
33441
33357
33268
33179
33084
32979
32873
32776
32683
32598
32524
32445
32355
32266
32181
32104
32035
31974
31921
31875
31823
31767
31712
31655
31597
31541
31486
31426
31363
31297
31237
31195
31162
31127
31089
31053
31015
30966
30911
30861
30812
30765
30722
30678
30626
30564
30509
30461
30415
30372
30322
30259
30198
30145
30098
30052
30005
29953
29896
29836
29767
29694
29629
29568
29503
29425
29333
29238
29143
29050
28968
28891
28815
28750
28695
28643
28591
28535
28474
28411
28346
28275
28200
28122
28043
27965
27890
27814
27744
27692
27653
27621
27585
27535
27476
27415
27351
27284
27211
27136
27066
27004
26945
26887
26821
26749
26687
26641
26602
26567
26531
26489
26443
26400
26349
26283
26210
26134
26052
25970
25898
25833
25770
25710
25660
25622
25601
25611
25680
25832
26073
26400
26806
27279
27803
28369
28963
29560
30140
30700
31232
31740
32235
32708
33141
33518
33839
34107
34329
34497
34614
34689
34730
34731
34697
34657
34618
34568
34503
34436
34378
34331
34291
34249
34207
34178
34163
34150
34143
34141
34140
34151
34183
34227
34281
34339
34389
34421
34425
34401
34360
34314
34265
34210
34143
34066
33989
33926
33884
33860
33834
33804
33794
33802
33802
33804
33822
33849
33883
33922
33953
33965
33964
33954
33935
33920
33918
33921
33923
33914
33892
33858
33804
33729
33639
33542
33455
33376
33295
33206
33099
32983
32874
32769
32669
32582
32501
32412
32307
32197
32106
32041
31985
31918
31836
31751
31681
31621
31555
31488
31425
31377
31347
31321
31287
31250
31218
31191
31169
31140
31100
31064
31035
30999
30955
30898
30835
30778
30731
30687
30646
30604
30546
30469
30381
30294
30224
30173
30127
30092
30076
30072
30059
30025
29983
29935
29873
29807
29746
29681
29607
29532
29467
29414
29364
29309
29242
29155
29060
28971
28891
28818
28746
28673
28603
28534
28467
28403
28328
28248
28176
28112
28043
27965
27884
27806
27737
27676
27613
27548
27487
27433
27381
27325
27270
27218
27160
27088
27008
26930
26858
26799
26756
26718
26673
26624
26575
26525
26475
26426
26371
26309
26245
26182
26123
26060
25995
25938
25888
25831
25767
25698
25619
25534
25454
25378
25310
25267
25270
25337
25476
25694
26015
26439
26943
27509
28116
28741
29363
29970
30557
31121
31650
32135
32575
32970
33317
33614
33854
34036
34182
34300
34375
34406
34406
34381
34341
34286
34207
34110
34013
33924
33842
33770
33709
33655
33612
33586
33572
33571
33583
33602
33622
33642
33663
33688
33714
33737
33755
33767
33764
33753
33737
33703
33656
33612
33573
33539
33508
33476
33446
33425
33408
33403
33411
33418
33429
33445
33467
33490
33508
33527
33549
33565
33566
33552
33529
33504
33473
33439
33409
33375
33331
33287
33239
33185
33128
33059
32975
32881
32776
32661
32550
32447
32347
32249
32154
32061
31971
31881
31789
31696
31598
31503
31422
31352
31295
31250
31202
31147
31089
31035
30983
30931
30876
30817
30767
30734
30709
30682
30637
30576
30514
30463
30427
30403
30379
30361
30349
30328
30294
30254
30205
30150
30096
30043
29993
29940
29882
29822
29757
29697
29648
29602
29551
29488
29411
29329
29255
29180
29101
29033
28978
28927
28876
28823
28769
28718
28669
28619
28566
28504
28433
28356
28269
28179
28099
28026
27954
27882
27815
27747
27671
27583
27489
27403
27327
27264
27208
27147
27074
26989
26908
26841
26782
26736
26696
26658
26622
26580
26532
26480
26418
26352
26289
26226
26164
26107
26049
25989
25928
25867
25805
25745
25690
25636
25585
25547
25507
25455
25399
25343
25279
25209
25147
25107
25100
25127
25215
25383
25639
25990
26432
26942
27498
28082
28674
29264
29853
30423
30951
31432
31869
32263
32605
32895
33135
33321
33468
33578
33648
33683
33690
33672
33627
33560
33476
33369
33240
33107
32988
32889
32796
32710
32639
32583
32537
32503
32481
32465
32457
32459
32463
32459
32448
32432
32409
32380
32347
32308
32275
32253
32245
32256
32271
32281
32295
32308
32321
32345
32385
32438
32500
32566
32628
32674
32703
32717
32733
32752
32760
32762
32762
32754
32732
32699
32663
32631
32597
32544
32474
32406
32349
32297
32245
32179
32097
32012
31919
31820
31733
31658
31581
31499
31419
31344
31271
31188
31087
30982
30890
30796
30694
30595
30513
30450
30404
30360
30313
30268
30223
30186
30156
30117
30070
30024
29969
29907
29857
29829
29816
29810
29807
29783
29725
29654
29599
29574
29577
29588
29584
29563
29524
29472
29418
29367
29320
29271
29216
29168
29120
29074
29032
28997
28965
28927
28882
28836
28791
28739
28682
28624
28560
28484
28408
28335
28262
28193
28118
28043
27976
27907
27835
27773
27721
27666
27611
27556
27493
27428
27364
27300
27236
27171
27113
27058
26998
26934
26872
26817
26768
26722
26669
26606
26547
26499
26465
26434
26394
26352
26310
26263
26218
26174
26127
26083
26041
26000
25963
25915
25850
25794
25745
25694
25653
25621
25598
25619
25700
25845
26076
26409
26844
27367
27942
28531
29117
29700
30263
30784
31272
31738
32182
32590
32951
33267
33544
33774
33942
34057
34142
34202
34229
34223
34190
34130
34049
33954
33854
33761
33679
33598
33513
33434
33369
33314
33263
33209
33164
33142
33136
33133
33128
33117
33108
33105
33099
33076
33030
32971
32912
32860
32815
32774
32737
32717
32717
32732
32753
32778
32819
32878
32947
33016
33083
33140
33179
33202
33213
33218
33224
33232
33239
33237
33220
33201
33180
33146
33105
33061
33016
32976
32928
32866
32796
32720
32642
32574
32504
32429
32344
32252
32166
32093
32020
31936
31839
31732
31612
31489
31384
31298
31228
31167
31111
31055
30995
30936
30885
30838
30790
30742
30691
30642
30597
30553
30515
30483
30451
30423
30403
30385
30366
30340
30315
30293
30263
30227
30189
30147
30106
30075
30049
30020
29989
29954
29912
29863
29811
29765
29725
29680
29631
29587
29541
29491
29434
29368
29302
29240
29180
29124
29065
29005
28955
28901
28835
28763
28683
28607
28535
28457
28383
28319
28256
28183
28107
28038
27979
27927
27872
27813
27755
27698
27642
27586
27532
27475
27419
27377
27335
27283
27222
27154
27091
27036
26980
26927
26890
26869
26853
26828
26782
26720
26657
26588
26502
26406
26318
26261
26236
26233
26239
26237
26217
26184
26146
26106
26065
26036
26030
26061
26154
26339
26632
27026
27494
28019
28591
29194
29808
30417
31014
31582
32108
32592
33037
33443
33808
34124
34394
34622
34809
34955
35062
35135
35180
35199
35196
35176
35148
35121
35085
35026
34949
34873
34813
34766
34722
34691
34689
34716
34762
34810
34852
34888
34925
34964
35012
35068
35124
35169
35202
35220
35209
35174
35143
35125
35099
35054
35009
34973
34938
34901
34861
34829
34809
34792
34776
34763
34747
34724
34704
34693
34701
34715
34728
34741
34749
34759
34771
34777
34779
34779
34777
34775
34775
34770
34757
34737
34703
34655
34596
34530
34451
34352
34245
34147
34058
33974
33890
33803
33712
33614
33514
33411
33313
33224
33149
33084
33017
32951
32898
32860
32820
32768
32715
32672
32639
32609
32566
32508
32457
32423
32387
32345
32301
32258
32228
32217
32215
32212
32204
32181
32145
32112
32076
32020
31945
31865
31783
31702
31636
31583
31535
31496
31463
31429
31399
31360
31294
31211
31122
31046
30991
30957
30925
30883
30838
30796
30742
30672
30604
30551
30496
30416
30315
30220
30150
30102
30067
30033
29996
29956
29907
29856
29795
29716
29636
29570
29517
29469
29418
29361
29294
29217
29126
29033
28959
28899
28850
28809
28774
28739
28698
28644
28583
28523
28463
28410
28367
28331
28299
28265
28223
28176
28130
28080
28031
27993
27958
27917
27866
27803
27732
27672
27638
27636
27683
27795
27977
28241
28585
29002
29479
29992
30519
31057
31608
32162
32714
33261
33786
34270
34715
35127
35500
35830
36112
36339
36512
36635
36722
36785
36822
36833
36825
36798
36749
36679
36588
36494
36415
36350
36304
36277
36265
36267
36288
36322
36360
36400
36442
36475
36494
36508
36524
36553
36591
36621
36631
36620
36594
36556
36508
36453
36404
36364
36326
36285
36239
36196
36156
36115
36079
36052
36032
36026
36033
36041
36054
36078
36108
36140
36160
36163
36159
36154
36143
36121
36094
36066
36036
36013
35986
35942
35890
35843
35790
35721
35640
35559
35480
35406
35332
35253
35169
35080
34987
34893
34805
34731
34674
34625
34569
34504
34432
34351
34264
34182
34105
34035
33986
33951
33919
33892
33863
33822
33770
33714
33656
33602
33556
33518
33487
33457
33426
33400
33379
33357
33329
33297
33255
33200
33143
33093
33042
32990
32946
32905
32857
32805
32758
32711
32655
32593
32534
32480
32435
32392
32346
32301
32265
32226
32172
32114
32062
32010
31959
31907
31844
31769
31682
31594
31517
31452
31392
31331
31270
31206
31137
31071
31006
30942
30879
30817
30761
30712
30666
30613
30551
30492
30436
30382
30328
30274
30217
30160
30106
30054
30000
29939
29877
29819
29766
29719
29675
29636
29601
29566
29533
29502
29467
29430
29389
29343
29296
29239
29175
29118
29067
29017
28966
28906
28832
28769
28738
28743
28789
28896
29083
29353
29699
30104
30564
31075
31621
32178
32735
33290
33840
34372
34874
35339
35757
36133
36474
36774
37032
37245
37412
37529
37605
37653
37673
37662
37618
37552
37483
37422
37358
37283
37211
37155
37113
37081
37056
37043
37049
37081
37126
37161
37187
37213
37241
37275
37316
37349
37368
37380
37383
37378
37370
37359
37341
37318
37282
37228
37166
37107
37048
36991
36944
36916
36908
36911
36915
36921
36936
36960
36985
37005
37020
37034
37047
37052
37033
36996
36957
36920
36881
36835
36780
36722
36664
36606
36554
36506
36465
36426
36388
36348
36303
36249
36179
36090
35992
35894
35796
35700
35605
35516
35427
35337
35260
35203
35156
35101
35042
34994
34946
34889
34832
34792
34767
34732
34686
34643
34612
34590
34566
34535
34494
34450
34411
34374
34340
34308
34274
34239
34210
34181
34143
34098
34050
34006
33969
33929
33888
33848
33799
33740
33677
33612
33552
33507
33461
33406
33354
33308
33261
33216
33163
33101
33041
32983
32924
32866
32810
32749
32686
32630
32583
32540
32498
32450
32394
32330
32263
32201
32140
32079
32029
31979
31919
31852
31792
31747
31716
31689
31653
31614
31570
31516
31456
31388
31315
31255
31199
31141
31093
31051
31008
30961
30911
30869
30841
30821
30793
30754
30713
30671
30629
30590
30551
30501
30436
30361
30284
30213
30141
30064
29984
29907
29843
29799
29777
29774
29805
29905
30077
30317
30641
31038
31485
31969
32476
33004
33550
34098
34629
35131
35597
36026
36412
36766
37096
37385
37633
37848
38017
38134
38202
38216
38185
38128
38056
37978
37895
37814
37738
37661
37584
37520
37477
37452
37436
37429
37441
37469
37501
37531
37562
37590
37610
37624
37633
37629
37614
37591
37560
37527
37497
37471
37440
37398
37349
37305
37269
37241
37224
37217
37211
37200
37196
37206
37221
37221
37214
37217
37233
37251
37263
37270
37283
37294
37288
37266
37234
37200
37176
37165
37159
37148
37126
37096
37057
37004
36933
36842
36731
36611
36501
36405
36310
36221
36148
36083
36021
35959
35897
35828
35756
35694
35644
35604
35568
35528
35483
35436
35390
35347
35311
35277
35235
35187
35147
35120
35101
35086
35064
35028
34982
34936
34902
34881
34866
34842
34791
34726
34674
34630
34591
34563
34543
34526
34516
34500
34466
34419
34361
34294
34217
34135
34054
33988
33942
33907
33875
33842
33802
33746
33678
33614
33559
33508
33457
33403
33345
33278
33199
33121
33037
32936
32832
32741
32669
32613
32573
32546
32521
32495
32473
32452
32425
32383
32334
32286
32244
32205
32158
32093
32008
31911
31821
31747
31685
31645
31625
31613
31605
31596
31572
31522
31454
31391
31341
31293
31236
31177
31110
31027
30944
30877
30816
30744
30673
30630
30627
30670
30765
30921
31142
31429
31778
32176
32622
33107
33611
34110
34611
35120
35632
36130
36588
36986
37330
37633
37890
38100
38266
38387
38473
38529
38559
38568
38547
38489
38405
38290
38157
38034
37934
37852
37782
37725
37669
37602
37535
37493
37472
37453
37444
37445
37447
37445
37437
37435
37443
37450
37443
37420
37388
37353
37324
37296
37249
37187
37136
37110
37101
37103
37106
37103
37107
37126
37153
37193
37238
37268
37285
37302
37309
37306
37299
37290
37285
37286
37283
37272
37242
37194
37129
37042
36948
36866
36792
36718
36648
36584
36521
36449
36353
36241
36131
36023
35913
35808
35715
35629
35554
35497
35454
35413
35358
35289
35224
35163
35102
35056
35018
34968
34911
34855
34812
34780
34741
34697
34662
34633
34598
34556
34512
34467
34432
34409
34376
34326
34276
34239
34215
34204
34193
34180
34172
34155
34109
34048
33987
33931
33881
33827
33757
33681
33612
33541
33458
33367
33274
33184
33102
33026
32959
32917
32903
32896
32883
32864
32837
32797
32738
32661
32580
32509
32441
32364
32284
32207
32137
32070
31999
31925
31850
31781
31728
31672
31612
31555
31500
31447
31408
31375
31335
31275
31195
31110
31041
30983
30923
30872
30827
30778
30743
30723
30693
30649
30611
30581
30548
30506
30456
30408
30357
30304
30245
30174
30111
30063
30022
29983
29948
29922
29921
29957
30039
30187
30406
30693
31052
31471
31925
32404
32920
33469
34032
34580
35104
35617
36115
36580
36998
37354
37657
37916
38126
38277
38381
38436
38446
38439
38425
38390
38340
38288
38236
38183
38128
38070
38013
37966
37932
37913
37896
37877
37858
37838
37825
37834
37866
37914
37967
38013
38043
38067
38091
38106
38116
38115
38088
38032
37954
37859
37769
37693
37631
37575
37516
37463
37436
37431
37434
37438
37453
37490
37543
37599
37644
37673
37689
37685
37660
37627
37593
37563
37535
37512
37488
37461
37424
37374
37327
37285
37222
37145
37070
36993
36918
36853
36784
36703
36615
36529
36441
36354
36268
36177
36082
35992
35917
35850
35772
35694
35626
35557
35491
35440
35403
35381
35366
35347
35310
35257
35207
35167
35132
35099
35069
35047
35028
35005
34978
34934
34872
34808
34746
34689
34644
34612
34588
34564
34525
34465
34391
34319
34260
34210
34171
34140
34100
34044
33983
33927
33876
33828
33778
33722
33659
33596
33537
33476
33405
33326
33247
33181
33126
33076
33033
32992
32945
32893
32838
32783
32730
32674
32609
32525
32433
32352
32289
32239
32196
32162
32135
32100
32052
31995
31936
31882
31831
31774
31704
31639
31579
31515
31454
31391
31325
31262
31204
31152
31107
31060
31003
30946
30898
30855
30814
30771
30726
30677
30627
30581
30538
30493
30439
30371
30303
30245
30196
30154
30131
30140
30190
30305
30503
30783
31135
31544
32000
32497
33021
33570
34133
34691
35234
35757
36256
36724
37150
37527
37848
38120
38349
38537
38677
38765
38808
38820
38802
38757
38698
38630
38552
38473
38400
38329
38261
38212
38187
38186
38210
38253
38299
38341
38382
38419
38455
38498
38536
38564
38585
38597
38591
38569
38538
38500
38457
38411
38356
38302
38257
38206
38143
38080
38022
37967
37919
37880
37846
37818
37803
37800
37808
37827
37857
37890
37918
37930
37932
37940
37948
37949
37940
37921
37898
37871
37836
37782
37710
37634
37552
37457
37360
37268
37184
37107
37032
36951
36869
36784
36687
36579
36470
36372
36293
36233
36173
36108
36046
35988
35932
35883
35841
35796
35743
35689
35633
35564
35482
35399
35324
35271
35239
35219
35195
35167
35143
35118
35085
35043
34987
34913
34841
34782
34733
34685
34630
34573
34519
34470
34430
34392
34357
34329
34301
34275
34252
34222
34187
34147
34102
34046
33987
33925
33860
33793
33718
33631
33542
33460
33385
33314
33242
33165
33089
33020
32958
32905
32851
32784
32711
32645
32584
32520
32453
32376
32295
32217
32142
32068
32000
31939
31877
31810
31742
31673
31606
31544
31489
31446
31412
31378
31340
31294
31232
31158
31083
31010
30937
30864
30793
30734
30680
30634
30594
30553
30512
30474
30438
30394
30341
30282
30218
30150
30083
30019
29960
29905
29852
29800
29750
29714
29708
29757
29881
30077
30349
30702
31125
31610
32148
32717
33293
33876
34464
35035
35570
36075
36556
37001
37390
37726
38018
38262
38440
38552
38624
38668
38684
38681
38655
38596
38515
38430
38343
38263
38194
38127
38069
38026
37999
37983
37977
37983
38001
38036
38074
38109
38149
38200
38251
38292
38320
38336
38334
38310
38268
38218
38164
38113
38066
38007
37926
37837
37765
37708
37653
37602
37562
37541
37539
37557
37592
37627
37638
37631
37625
37623
37627
37639
37647
37644
37628
37603
37566
37515
37456
37398
37347
37301
37254
37194
37122
37042
36962
36882
36798
36713
36624
36525
36417
36309
36203
36096
35992
35887
35789
35717
35669
35622
35563
35500
35448
35403
35353
35300
35251
35202
35152
35095
35034
34976
34924
34869
34807
34748
34687
34615
34532
34449
34382
34327
34274
34224
34182
34147
34120
34099
34073
34043
34009
33971
33930
33889
33845
33806
33767
33722
33676
33629
33572
33507
33435
33356
33278
33205
33125
33038
32953
32877
32817
32770
32731
32686
32637
32591
32534
32455
32373
32297
32211
32111
31999
31893
31804
31718
31631
31553
31477
31409
31349
31290
31231
31179
31134
31086
31034
30986
30938
30891
30846
30788
30716
30642
30572
30503
30433
30375
30327
30275
30225
30180
30140
30100
30051
29993
29936
29876
29805
29732
29658
29584
29514
29453
29391
29325
29253
29173
29094
29017
28945
28884
28836
28802
28791
28822
28914
29080
29329
29663
30076
30548
31060
31604
32171
32753
33350
33951
34535
35085
35594
36058
36481
36858
37176
37435
37639
37782
37867
37912
37923
37898
37854
37809
37753
37674
37577
37473
37366
37258
37165
37094
37034
36972
36911
36864
36833
36817
36822
36852
36895
36935
36961
36976
36988
36997
36998
36994
36981
36948
36894
36828
36765
36713
36665
36617
36580
36558
36541
36526
36514
36504
36498
36501
36511
36524
36542
36561
36574
36579
36586
36602
36622
36636
36633
36604
36553
36486
36421
36365
36307
36243
36178
36109
36028
35934
35838
35739
35636
35540
35455
35372
35290
35210
35125
35033
34943
34851
34751
34656
34570
34490
34416
34343
34269
34195
34125
34061
34008
33963
33925
33892
33855
33811
33764
33715
33666
33617
33573
33533
33492
33458
33433
33407
33378
33352
33323
33280
33229
33172
33113
33059
33005
32946
32886
32826
32765
32709
32658
32607
32559
32505
32441
32369
32294
32226
32172
32117
32057
31994
31926
31853
31780
31712
31643
31572
31511
31456
31388
31312
31242
31178
31122
31068
31009
30947
30887
30834
30785
30727
30657
30583
30505
30417
30333
30256
30178
30104
30035
29967
29909
29856
29812
29773
29728
29680
29629
29581
29543
29504
29462
29418
29373
29324
29268
29208
29149
29091
29034
28981
28932
28882
28824
28753
28675
28600
28532
28472
28436
28444
28506
28636
28852
29154
29530
29977
30481
31021
31579
32144
32701
33241
33756
34238
34684
35097
35466
35783
36051
36267
36437
36574
36681
36750
36779
36775
36742
36678
36582
36458
36324
36198
36081
35964
35845
35731
35622
35523
35441
35375
35320
35279
35245
35210
35177
35141
35093
35045
35001
34954
34904
34862
34834
34818
34810
34807
34809
34817
34835
34863
34896
34937
34976
35006
35029
35050
35074
35110
35159
35206
35245
35276
35301
35321
35338
35348
35343
35322
35285
35236
35177
35113
35058
35012
34967
34917
34861
34796
34721
34638
34556
34484
34415
34337
34242
34131
34018
33919
33828
33736
33647
33566
33491
33424
33359
33291
33231
33180
33136
33099
33055
32999
32938
32876
32821
32777
32735
32695
32669
32653
32635
32617
32591
32559
32538
32533
32530
32518
32502
32485
32457
32421
32377
32326
32284
32254
32224
32187
32136
32069
32006
31961
31926
31895
31864
31825
31782
31737
31684
31631
31579
31525
31468
31412
31353
31288
31220
31150
31080
31021
30972
30923
30869
30808
30737
30665
30596
30525
30456
30391
30331
30277
30221
30163
30102
30038
29980
29921
29857
29798
29750
29716
29690
29661
29624
29585
29539
29479
29420
29373
29331
29288
29239
29186
29145
29115
29082
29047
29016
28987
28956
28919
28875
28828
28783
28740
28702
28671
28643
28609
28573
28546
28535
28558
28642
28805
29056
29397
29813
30275
30769
31287
31816
32348
32881
33400
33888
34335
34742
35116
35460
35772
36049
36294
36507
36679
36807
36891
36934
36943
36923
36882
36822
36744
36656
36563
36474
36390
36307
36234
36173
36123
36086
36059
36045
36046
36064
36088
36115
36143
36167
36193
36223
36244
36252
36254
36247
36228
36204
36171
36126
36076
36027
35982
35945
35922
35912
35910
35913
35921
35931
35942
35955
35977
36012
36046
36071
36091
36109
36125
36136
36140
36138
36129
36112
36089
36065
36043
36019
35986
35940
35891
35851
35808
35748
35673
35586
35487
35389
35303
35221
35138
35060
34993
34929
34853
34770
34688
34607
34529
34458
34396
34344
34290
34229
34172
34122
34077
34038
34003
33965
33926
33894
33872
33850
33818
33783
33751
33719
33688
33666
33651
33634
33618
33605
33586
33559
33530
33503
33477
33453
33424
33383
33333
33282
33225
33163
33108
33065
33024
32987
32948
32896
32837
32781
32726
32676
32626
32575
32531
32495
32456
32413
32365
32311
32250
32182
32112
32040
31963
31891
31826
31763
31705
31655
31601
31548
31507
31471
31426
31369
31314
31263
31213
31160
31105
31059
31012
30957
30902
30845
30783
30722
30673
30637
30606
30577
30542
30498
30458
30419
30381
30347
30314
30286
30269
30263
30252
30224
30177
30126
30078
30024
29965
29905
29833
29756
29685
29639
29632
29667
29755
29909
30137
30441
30811
31237
31702
32192
32705
33228
33754
34275
34781
35262
35714
36136
36522
36874
37185
37440
37636
37788
37916
38017
38082
38109
38101
38077
38043
37992
37917
37828
37738
37655
37586
37525
37464
37408
37365
37345
37354
37383
37420
37463
37516
37574
37631
37691
37739
37771
37790
37790
37776
37753
37716
37673
37638
37609
37576
37532
37477
37415
37355
37304
37268
37244
37226
37221
37234
37253
37272
37288
37297
37305
37312
37313
37317
37335
37360
37373
37375
37367
37344
37310
37268
37214
37149
37078
37012
36954
36897
36836
36773
36709
36641
36565
36487
36415
36343
36274
36211
36143
36064
35980
35900
35831
35767
35703
35644
35580
35507
35432
35372
35327
35284
35238
35195
35157
35120
35078
35032
34990
34952
34912
34865
34822
34793
34771
34747
34718
34677
34635
34610
34597
34590
34583
34566
34534
34489
34443
34406
34373
34328
34266
34201
34142
34095
34058
34023
33990
33954
33908
33857
33808
33764
33726
33685
33640
33594
33541
33483
33428
33374
33318
33257
33184
33103
33029
32967
32908
32847
32788
32731
32673
32622
32573
32519
32455
32392
32337
32289
32238
32180
32123
32069
32017
31961
31903
31845
31788
31734
31688
31647
31601
31553
31509
31469
31430
31393
31361
31327
31276
31220
31174
31133
31099
31066
31021
30975
30926
30868
30808
30749
30690
30633
30577
30525
30485
30472
30499
30576
30712
30924
31210
31554
31953
32409
32904
33421
33955
34498
35037
35570
36094
36593
37050
37470
37863
38222
38534
38790
38986
39125
39214
39258
39266
39249
39209
39149
39070
38968
38846
38720
38600
38491
38403
38341
38306
38291
38286
38288
38297
38314
38341
38374
38411
38456
38500
38538
38575
38612
38635
38633
38607
38566
38516
38459
38405
38355
38297
38233
38171
38115
38066
38029
38000
37972
37954
37955
37976
38006
38037
38072
38112
38148
38176
38194
38198
38187
38163
38140
38122
38101
38058
37995
37931
37873
37815
37753
37691
37633
37570
37497
37417
37342
37276
37207
37134
37057
36964
36859
36751
36639
36527
36438
36372
36311
36254
36198
36140
36086
36032
35970
35907
35861
35832
35802
35757
35705
35660
35625
35595
35564
35530
35496
35463
35431
35404
35379
35347
35308
35265
35212
35154
35096
35035
34978
34930
34878
34822
34772
34733
34698
34664
34642
34628
34614
34592
34556
34509
34454
34390
34317
34237
34149
34068
34001
33935
33867
33798
33722
33643
33571
33506
33441
33378
33316
33259
33201
33135
33066
32994
32920
32850
32790
32741
32700
32652
32595
32539
32482
32416
32357
32310
32258
32198
32147
32102
32054
32006
31958
31896
31821
31746
31673
31597
31523
31457
31402
31355
31306
31260
31226
31197
31164
31135
31109
31076
31036
30994
30950
30894
30823
30741
30649
30562
30481
30402
30331
30268
30221
30213
30261
30378
30577
30869
31250
31699
32191
32708
33249
33810
34377
34950
35523
36074
36588
37058
37482
37857
38180
38455
38676
38844
38964
39039
39066
39049
39002
38939
38871
38798
38714
38611
38489
38359
38231
38113
38006
37908
37826
37778
37760
37760
37774
37812
37868
37932
37997
38055
38102
38137
38158
38155
38128
38085
38035
37982
37924
37864
37808
37759
37712
37665
37626
37600
37581
37569
37562
37558
37565
37586
37620
37658
37688
37714
37737
37753
37763
37771
37773
37760
37735
37701
37654
37600
37543
37482
37410
37319
37221
37141
37079
37015
36942
36853
36756
36665
36576
36474
36357
36230
36109
36013
35937
35874
35822
35777
35726
35671
35624
35579
35533
35494
35453
35403
35350
35293
35231
35173
35116
35055
34997
34947
34903
34859
34814
34772
34738
34703
34665
34632
34605
34578
34545
34499
34448
34399
34349
34298
34249
34205
34167
34135
34100
34059
34016
33973
33925
33876
33836
33798
33754
33709
33664
33607
33538
33471
33404
33329
33252
33187
33133
33079
33025
32964
32892
32814
32733
32650
32569
32483
32392
32309
32238
32170
32095
32018
31948
31888
31841
31794
31734
31668
31610
31562
31513
31452
31384
31323
31271
31224
31185
31152
31115
31066
31010
30950
30883
30812
30748
30693
30640
30588
30538
30485
30428
30372
30321
30272
30220
30169
30120
30065
30000
29929
29854
29785
29743
29744
29794
29905
30097
30381
30755
31209
31713
32248
32815
33400
33972
34520
35040
35525
35970
36373
36732
37050
37329
37565
37749
37882
37968
38009
38019
38003
37954
37873
37766
37631
37479
37321
37163
37011
36865
36728
36597
36478
36375
36288
36212
36150
36103
36065
36032
36000
35962
35923
35896
35874
35840
35797
35758
35724
35694
35682
35687
35695
35701
35714
35741
35776
35812
35849
35888
35922
35950
35984
36025
36072
36134
36203
36258
36303
36334
36341
36327
36296
36248
36188
36125
36061
35999
35940
35875
35799
35723
35644
35555
35461
35362
35259
35156
35046
34925
34806
34694
34589
34495
34410
34331
34254
34179
34102
34022
33940
33863
33794
33730
33670
33611
33554
33507
33465
33422
33387
33354
33316
33281
33252
33223
33200
33180
33155
33126
33096
33063
33030
33001
32977
32951
32915
32874
32840
32821
32802
32773
32734
32697
32663
32625
32580
32534
32487
32440
32395
32349
32300
32245
32186
32129
32073
32014
31956
31891
31820
31745
31670
31601
31538
31475
31415
31356
31291
31226
31161
31089
31011
30924
30829
30739
30659
30588
30521
30456
30390
30327
30269
30222
30183
30148
30102
30038
29972
29915
29859
29798
29738
29675
29611
29549
29488
29430
29378
29331
29291
29256
29219
29182
29146
29107
29065
29027
28996
28965
28924
28874
28816
28755
28694
28639
28599
28577
28573
28600
28685
28851
29109
29463
29910
30431
31000
31587
32172
32753
33330
33898
34445
34958
35431
35859
36229
36536
36791
37002
37168
37291
37376
37432
37459
37451
37413
37356
37281
37201
37126
37059
36992
36918
36836
36748
36665
36592
36519
36440
36366
36315
36298
36303
36314
36329
36352
36390
36433
36461
36469
36461
36433
36396
36369
36356
36349
36334
36309
36279
36244
36208
36192
36200
36220
36245
36276
36312
36350
36386
36406
36406
36403
36413
36429
36448
36468
36473
36456
36433
36409
36388
36365
36336
36300
36253
36183
36093
36000
35918
35848
35788
35735
35687
35628
35538
35425
35301
35181
35074
34974
34882
34807
34739
34660
34582
34520
34460
34403
34364
34333
34296
34258
34226
34192
34144
34089
34038
34002
33972
33932
33890
33864
33854
33850
33842
33824
33803
33784
33760
33722
33675
33623
33574
33536
33503
33462
33415
33361
33304
33259
33224
33183
33133
33083
33034
32978
32913
32852
32806
32768
32726
32679
32634
32589
32538
32476
32406
32338
32276
32226
32183
32135
32078
32008
31931
31858
31786
31717
31656
31594
31523
31446
31373
31308
31244
31174
31104
31039
30987
30939
30880
30810
30742
30680
30618
30565
30527
30495
30458
30407
30352
30307
30270
30228
30175
30121
30073
30028
29982
29930
29871
29816
29777
29744
29706
29664
29612
29557
29515
29481
29444
29402
29358
29308
29250
29182
29113
29054
29005
28978
28990
29065
29222
29471
29809
30228
30710
31232
31779
32340
32907
33467
34005
34515
35001
35467
35905
36304
36657
36954
37195
37392
37550
37664
37737
37770
37771
37741
37683
37609
37525
37441
37358
37268
37174
37095
37034
36981
36927
36875
36829
36794
36775
36776
36790
36815
36845
36874
36901
36927
36956
36988
37018
37036
37039
37024
37000
36972
36939
36908
36876
36833
36785
36745
36714
36695
36692
36704
36730
36761
36782
36787
36782
36777
36778
36776
36768
36759
36747
36727
36712
36708
36697
36682
36667
36647
36620
36584
36539
36487
36423
36341
36235
36117
36010
35919
35837
35760
35687
35616
35549
35484
35415
35341
35265
35191
35123
35067
35017
34967
34918
34869
34817
34765
34708
34655
34607
34558
34507
34457
34411
34376
34351
34330
34304
34272
34236
34193
34148
34102
34061
34028
34000
33969
33936
33902
33860
33812
33769
33729
33688
33650
33624
33607
33583
33544
33494
33437
33369
33293
33223
33163
33112
33066
33022
32986
32960
32932
32897
32857
32798
32721
32635
32550
32466
32386
32315
32250
32192
32133
32070
32007
31944
31882
31818
31745
31671
31599
31525
31459
31403
31351
31309
31271
31224
31170
31120
31071
31016
30957
30900
30844
30794
30755
30716
30665
30615
30573
30526
30470
30417
30366
30310
30249
30197
30151
30099
30040
29987
29949
29922
29895
29867
29839
29808
29776
29730
29661
29581
29499
29408
29313
29224
29151
29106
29102
29159
29291
29507
29815
30210
30674
31185
31727
32286
32858
33440
34022
34591
35125
35598
36018
36408
36768
37080
37328
37509
37642
37750
37838
37899
37934
37936
37897
37821
37716
37597
37484
37388
37310
37242
37180
37125
37072
37024
36992
36973
36964
36967
36978
36995
37026
37064
37099
37130
37159
37180
37178
37154
37119
37081
37038
36987
36934
36887
36849
36819
36795
36769
36737
36702
36672
36647
36628
36621
36625
36631
36628
36620
36614
36615
36622
36629
36630
36627
36618
36605
36594
36578
36547
36504
36452
36390
36325
36263
36200
36131
36058
35979
35900
35821
35742
35669
35601
35526
35434
35327
35215
35109
35011
34924
34847
34771
34698
34626
34555
34493
34444
34400
34355
34314
34274
34229
34181
34137
34093
34049
34009
33961
33908
33864
33825
33782
33734
33683
33634
33595
33567
33543
33519
33491
33456
33415
33367
33314
33263
33218
33174
33119
33048
32973
32907
32854
32808
32761
32703
32641
32580
32524
32471
32417
32364
32312
32260
32205
32146
32080
32001
31912
31823
31741
31658
31572
31489
31404
31315
31235
31165
31092
31012
30925
30842
30761
30678
30597
30517
30433
30349
30276
30213
30157
30109
30065
30018
29960
29884
29800
29717
29630
29542
29465
29400
29340
29286
29237
29189
29146
29106
29058
29008
28958
28902
28849
28794
28727
28656
28594
28538
28472
28396
28325
28260
28186
28108
28037
27969
27896
27826
27762
27700
27653
27636
27662
27749
27929
28220
28622
29124
29701
30316
30946
31579
32203
32809
33386
33920
34404
34849
35261
35631
35956
36244
36497
36710
36874
36985
37047
37069
37055
37012
36944
36851
36742
36627
36508
36384
36270
36178
36098
36020
35948
35889
35845
35807
35772
35743
35723
35716
35717
35716
35710
35708
35709
35698
35669
35632
35599
35574
35542
35495
35439
35386
35348
35324
35312
35311
35317
35325
35334
35343
35355
35374
35405
35438
35467
35492
35512
35522
35520
35513
35506
35494
35467
35425
35375
35318
35261
35204
35140
35071
35008
34943
34873
34797
34719
34641
34555
34463
34370
34278
34188
34093
33992
33898
33814
33726
33635
33552
33472
33391
33315
33242
33170
33099
33029
32968
32919
32876
32829
32777
32721
32660
32605
32566
32535
32502
32466
32430
32393
32354
32310
32260
32212
32169
32134
32106
32071
32024
31973
31923
31879
31841
31809
31780
31742
31699
31656
31613
31565
31523
31491
31459
31416
31366
31314
31258
31198
31137
31069
30998
30926
30857
30792
30720
30640
30562
30491
30421
30347
30263
30174
30093
30018
29943
29861
29771
29674
29576
29484
29400
29324
29257
29197
29137
29077
29021
28960
28891
28816
28743
28669
28599
28535
28466
28389
28313
28242
28174
28113
28057
28005
27958
27906
27847
27795
27748
27694
27636
27588
27547
27497
27433
27365
27306
27259
27216
27170
27128
27087
27045
27005
26973
26967
27008
27117
27318
27627
28047
28557
29128
29735
30356
30977
31585
32173
32730
33234
33681
34083
34449
34770
35032
35237
35388
35495
35571
35623
35646
35633
35584
35503
35391
35257
35109
34950
34783
34603
34418
34250
34114
34000
33894
33797
33717
33649
33572
33480
33383
33290
33196
33095
32991
32888
32798
32735
32700
32686
32693
32731
32795
32871
32949
33032
33118
33207
33304
33407
33504
33588
33663
33732
33790
33837
33869
33891
33917
33940
33958
33981
34003
34004
33978
33927
33867
33812
33758
33697
33622
33543
33464
33379
33284
33174
33049
32930
32833
32750
32677
32612
32541
32461
32375
32287
32211
32136
32051
31965
31886
31808
31725
31645
31570
31503
31442
31381
31326
31279
31237
31209
31185
31151
31124
31112
31104
31096
31087
31065
31027
30986
30939
30877
30817
30776
30743
30704
30671
30651
30632
30608
30588
30571
30552
30537
30533
30533
30536
30530
30509
30475
30425
30358
30288
30220
30150
30070
29986
29915
29863
29815
29747
29654
29550
29455
29383
29325
29278
29242
29209
29169
29109
29030
28947
28875
28812
28751
28691
28621
28540
28452
28372
28315
28277
28242
28203
28154
28103
28057
28013
27965
27913
27864
27825
27788
27743
27698
27665
27645
27624
27586
27536
27486
27441
27402
27362
27312
27250
27188
27134
27083
27029
26976
26930
26882
26828
26775
26730
26695
26682
26725
26861
27107
27455
27889
28398
28965
29566
30181
30787
31368
31914
32431
32923
33378
33790
34165
34502
34804
35071
35289
35456
35582
35671
35728
35754
35749
35719
35671
35620
35570
35522
35470
35407
35335
35259
35186
35119
35053
34998
34967
34954
34948
34949
34958
34974
34998
35026
35049
35064
35080
35097
35116
35129
35119
35088
35055
35030
35007
34983
34966
34964
34970
34981
35001
35023
35049
35081
35109
35136
35174
35216
35251
35273
35288
35295
35293
35282
35268
35257
35243
35221
35188
35149
35110
35073
35033
34990
34939
34890
34846
34797
34741
34681
34618
34562
34509
34446
34374
34300
34228
34159
34100
34048
33985
33910
33836
33767
33701
33639
33578
33526
33478
33434
33408
33404
33399
33373
33326
33268
33213
33168
33132
33101
33075
33053
33036
33028
33025
33024
33018
33003
32983
32958
32930
32903
32878
32848
32813
32784
32759
32733
32705
32674
32634
32587
32542
32497
32443
32387
32335
32292
32254
32213
32175
32139
32101
32063
32022
31976
31927
31870
31797
31721
31656
31604
31553
31500
31449
31395
31336
31278
31222
31160
31090
31026
30970
30918
30867
30814
30759
30707
30654
30598
30543
30499
30469
30440
30404
30363
30318
30268
30218
30174
30137
30097
30052
30012
29976
29933
29887
29845
29810
29777
29741
29702
29666
29633
29594
29547
29496
29441
29389
29335
29279
29234
29206
29197
29225
29310
29465
29697
30005
30383
30816
31283
31767
32265
32767
33272
33782
34291
34792
35266
35704
36103
36457
36763
37027
37245
37414
37538
37618
37662
37682
37684
37676
37657
37624
37574
37505
37430
37363
37312
37266
37222
37184
37154
37132
37125
37135
37160
37198
37253
37315
37378
37441
37500
37543
37559
37559
37554
37536
37503
37466
37430
37395
37355
37315
37284
37258
37237
37224
37217
37209
37200
37196
37207
37230
37261
37293
37321
37340
37350
37354
37357
37358
37362
37368
37375
37380
37384
37380
37364
37342
37317
37282
37229
37160
37087
37007
36917
36823
36728
36641
36567
36498
36422
36336
36249
36174
36103
36029
35954
35882
35816
35755
35701
35657
35617
35579
35547
35513
35475
35437
35401
35367
35332
35297
35264
35237
35212
35184
35153
35113
35076
35056
35043
35027
35017
35011
34989
34940
34886
34837
34784
34729
34683
34646
34609
34570
34538
34516
34497
34485
34474
34447
34402
34348
34286
34219
34160
34113
34077
34039
33991
33937
33877
33811
33744
33682
33619
33558
33506
33458
33403
33341
33281
33224
33174
33128
33071
32997
32917
32849
32795
32751
32709
32662
32615
32578
32544
32508
32471
32431
32384
32333
32280
32218
32147
32076
32015
31965
31918
31867
31813
31764
31731
31717
31712
31699
31670
31624
31550
31453
31361
31282
31210
31147
31096
31058
31030
31008
31008
31055
31163
31338
31587
31905
32284
32709
33164
33649
34166
34699
35225
35736
36238
36729
37198
37631
38011
38321
38571
38779
38939
39059
39160
39246
39299
39307
39288
39261
39215
39142
39063
38982
38894
38824
38782
38745
38696
38656
38643
38643
38643
38649
38659
38676
38712
38764
38819
38867
38893
38893
38879
38862
38851
38831
38787
38724
38653
38593
38554
38522
38495
38478
38479
38490
38501
38522
38566
38618
38652
38665
38677
38704
38744
38783
38807
38814
38808
38806
38807
38793
38757
38711
38677
38653
38625
38593
38556
38515
38470
38415
38350
38285
38216
38134
38038
37933
37826
37728
37645
37575
37506
37434
37363
37292
37220
37152
37094
37048
37006
36957
36907
36865
36829
36794
36748
36690
36627
36564
36511
36468
36428
36387
36346
36317
36299
36277
36253
36234
36223
36220
36226
36228
36213
36185
36156
36129
36101
36069
36032
35991
35950
35907
35851
35790
35743
35710
35684
35650
35601
35545
35492
35441
35390
35341
35286
35221
35151
35085
35026
34968
34909
34845
34772
34699
34627
34553
34474
34390
34308
34235
34172
34109
34051
34004
33963
33920
33870
33822
33778
33735
33692
33644
33591
33537
33487
33445
33408
33373
33338
33297
33246
33194
33147
33107
33063
33007
32946
32888
32822
32755
32698
32642
32577
32515
32461
32411
32376
32364
32386
32457
32595
32810
33094
33430
33809
34230
34683
35154
35638
36127
36617
37094
37546
37965
38347
38693
39006
39275
39489
39647
39750
39809
39833
39824
39792
39748
39688
39602
39489
39360
39222
39076
38929
38795
38686
38595
38518
38461
38430
38420
38424
38430
38428
38421
38410
38393
38367
38338
38315
38299
38287
38276
38269
38262
38251
38244
38248
38266
38294
38321
38344
38369
38399
38437
38488
38547
38607
38663
38713
38765
38817
38860
38889
38896
38868
38817
38766
38724
38695
38670
38637
38601
38561
38503
38427
38352
38285
38226
38168
38104
38028
37946
37867
37793
37711
37619
37524
37428
37335
37257
37197
37148
37103
37058
37016
36972
36921
36875
36846
36827
36799
36758
36704
36644
36598
36571
36546
36514
36476
36441
36417
36398
36379
36358
36334
36310
36291
36279
36270
36258
36234
36191
36131
36069
36025
36003
35984
35946
35900
35867
35844
35822
35789
35745
35693
35632
35572
35521
35478
35438
35398
35350
35284
35208
35134
35068
35012
34957
34902
34847
34788
34733
34687
34639
34592
34552
34502
34431
34352
34280
34218
34158
34097
34039
33980
33918
33858
33800
33739
33678
33619
33561
33505
33456
33429
33438
33494
33609
33799
34071
34409
34795
35221
35674
36148
36642
37153
37672
38176
38653
39104
39529
39919
40266
40559
40791
40967
41089
41169
41220
41240
41232
41201
41160
41109
41042
40956
40859
40759
40663
40586
40534
40503
40484
40474
40480
40500
40524
40542
40550
40554
40563
40570
40561
40539
40513
40480
40436
40384
40332
40294
40263
40219
40162
40106
40062
40040
40037
40041
40049
40058
40064
40076
40107
40153
40197
40228
40246
40261
40277
40290
40299
40293
40266
40225
40174
40119
40057
39994
39939
39884
39826
39760
39690
39621
39556
39485
39403
39316
39229
39142
39059
38982
38908
38826
38737
38651
38572
38497
38426
38364
38311
38266
38227
38188
38142
38078
37999
37920
37852
37800
37757
37722
37689
37648
37599
37544
37492
37449
37417
37397
37386
37378
37367
37345
37310
37267
37225
37188
37159
37136
37109
37069
37017
36960
36911
36868
36822
36771
36725
36685
36642
36587
36514
36426
36334
36247
36163
36083
36009
35944
35889
35837
35786
35726
35655
35580
35507
35437
35369
35293
35214
35134
35053
34975
34907
34846
34788
34730
34668
34597
34526
34469
34429
34403
34382
34358
34332
34293
34221
34125
34024
33913
33797
33700
33641
33608
33580
33555
33539
33526
33510
33487
33457
33417
33373
33326
33272
33220
33174
33124
33065
32993
32921
32861
32827
32827
32884
33023
33249
33556
33927
34350
34823
35342
35888
36449
37025
37611
38192
38751
39278
39762
40187
40542
40829
41055
41227
41359
41463
41538
41584
41596
41577
41531
41464
41384
41293
41199
41108
41025
40959
40915
40887
40868
40862
40870
40901
40949
41008
41083
41170
41251
41317
41366
41396
41414
41432
41446
41448
41431
41395
41343
41272
41187
41094
40991
40886
40792
40715
40652
40607
40580
40563
40550
40549
40557
40574
40598
40627
40656
40676
40680
40670
40651
40622
40582
40544
40516
40495
40470
40438
40403
40364
40319
40270
40207
40126
40041
39957
39863
39759
39665
39581
39491
39393
39287
39178
39072
38979
38902
38839
38780
38718
38649
38568
38479
38401
38338
38276
38212
38154
38101
38043
37982
37935
37912
37902
37884
37850
37803
37744
37682
37622
37565
37520
37481
37433
37382
37334
37295
37261
37225
37183
37140
37101
37067
37023
36966
36910
36859
36806
36750
36696
36640
36582
36520
36449
36375
36311
36260
36222
36186
36133
36061
35983
35902
35824
35756
35691
35616
35536
35465
35402
35340
35273
35200
35122
35040
34970
34913
34851
34786
34720
34646
34580
34523
34467
34412
34359
34306
34252
34194
34130
34073
34029
33993
33961
33928
33878
33810
33732
33659
33601
33555
33508
33449
33376
33294
33210
33138
33080
33028
32980
32922
32852
32793
32757
32728
32680
32612
32546
32488
32432
32366
32298
32241
32193
32149
32099
32037
31969
31903
31837
31777
31720
31658
31592
31524
31466
31429
31428
31488
31625
31855
32186
32611
33115
33679
34282
34900
35516
36123
36708
37266
37801
38310
38777
39198
39577
39907
40179
40391
40552
40665
40737
40779
40794
40777
40730
40667
40590
40497
40391
40287
40198
40129
40074
40025
39995
39985
39983
39994
40035
40095
40162
40240
40318
40383
40450
40521
40571
40587
40578
40546
40500
40447
40388
40321
40242
40167
40110
40062
40004
39936
39878
39844
39824
39806
39796
39798
39813
39833
39848
39855
39851
39850
39856
39859
39855
39853
39855
39855
39847
39825
39798
39768
39724
39658
39573
39470
39358
39249
39147
39051
38961
38871
38772
38667
38557
38445
38338
38238
38144
38053
37958
37863
37763
37665
37583
37523
37474
37422
37361
37292
37219
37150
37088
37036
36992
36943
36897
36863
36827
36779
36724
36666
36609
36562
36527
36497
36462
36427
36398
36375
36352
36323
36279
36227
36173
36111
36045
35986
35930
35870
35803
35730
35659
35597
35534
35465
35400
35344
35295
35241
35181
35116
35046
34971
34879
34780
34698
34623
34535
34447
34376
34312
34244
34177
34117
34057
33987
33914
33841
33773
33715
33660
33597
33524
33447
33373
33301
33224
33138
33043
32949
32853
32760
32685
32624
32568
32524
32488
32443
32389
32335
32287
32243
32198
32149
32098
32052
32008
31962
31919
31878
31835
31784
31720
31644
31567
31501
31442
31378
31308
31241
31178
31120
31072
31027
30974
30913
30845
30775
30697
30614
30539
30477
30436
30432
30481
30607
30826
31136
31539
32030
32586
33184
33798
34411
35008
35586
36150
36692
37199
37664
38086
38464
38797
39080
39306
39477
39608
39703
39752
39758
39737
39701
39650
39581
39498
39407
39317
39234
39150
39070
39005
38950
38897
38858
38845
38853
38871
38894
38922
38954
38987
39023
39057
39084
39098
39095
39076
39042
38997
38945
38887
38831
38780
38726
38665
38604
38555
38521
38494
38474
38470
38481
38498
38509
38511
38512
38515
38513
38506
38494
38486
38482
38474
38467
38448
38410
38370
38324
38266
38202
38138
38068
37996
37921
37838
37751
37662
37572
37491
37416
37332
37233
37123
37014
36910
36809
36717
36640
36561
36474
36391
36312
36227
36140
36062
35992
35921
35847
35782
35729
35686
35644
35592
35527
35463
35411
35367
35332
35306
35276
35236
35185
35128
35078
35029
34976
34919
34853
34783
34716
34655
34606
34565
34525
34484
34444
34409
34368
34321
34270
34211
34150
34094
34041
33987
33928
33860
33789
33716
33631
33535
33439
33352
33275
33201
33117
33023
32937
32855
32769
32683
32592
32492
32389
32284
32178
32082
31997
31917
31841
31758
31670
31586
31505
31427
31353
31275
31194
31115
31033
30945
30860
30782
30711
30648
30586
30526
30474
30426
30378
30321
30257
30185
30112
30045
29964
29875
29800
29738
29673
29604
29532
29464
29403
29348
29300
29249
29186
29118
29045
28967
28889
28815
28742
28674
28613
28574
28587
28675
28853
29136
29532
30020
30587
31215
31879
32555
33234
33901
34534
35113
35641
36121
36555
36943
37285
37585
37840
38047
38205
38306
38355
38356
38314
38240
38152
38057
37952
37834
37711
37596
37496
37405
37323
37248
37179
37117
37070
37041
37024
37014
37010
37019
37043
37072
37097
37114
37118
37110
37090
37057
37023
36988
36944
36898
36852
36800
36751
36712
36683
36666
36655
36645
36643
36644
36649
36662
36674
36686
36701
36716
36736
36760
36774
36776
36773
36764
36749
36734
36717
36689
36643
36582
36516
36447
36376
36304
36220
36119
36012
35903
35786
35664
35535
35401
35267
35146
35037
34930
34830
34731
34624
34520
34424
34332
34246
34162
34073
33985
33900
33825
33759
33691
33623
33564
33513
33462
33411
33357
33297
33243
33200
33165
33123
33072
33017
32965
32921
32878
32840
32806
32775
32749
32724
32691
32643
32594
32550
32500
32448
32402
32348
32283
32211
32140
32077
32018
31961
31903
31838
31768
31701
31634
31566
31495
31410
31307
31200
31104
31028
30961
30887
30809
30731
30650
30565
30478
30386
30286
30184
30079
29972
29874
29785
29700
29619
29533
29445
29367
29300
29239
29172
29104
29043
28980
28915
28843
28765
28697
28637
28564
28482
28405
28324
28247
28186
28134
28083
28033
27980
27929
27882
27841
27802
27759
27700
27615
27508
27397
27298
27212
27143
27091
27052
27027
27026
27061
27157
27340
27626
28026
28545
29163
29842
30544
31249
31947
32617
33242
33825
34360
34842
35269
35624
35910
36139
36321
36455
36535
36564
36563
36550
36519
36455
36363
36249
36118
35983
35845
35685
35506
35333
35172
35022
34889
34768
34652
34543
34445
34365
34292
34218
34154
34101
34046
33978
33903
33837
33784
33745
33722
33708
33701
33712
33746
33802
33870
33931
33984
34038
34092
34150
34219
34292
34366
34441
34519
34583
34626
34659
34672
34660
34644
34635
34625
34608
34583
34539
34478
34413
34338
34247
34157
34070
33980
33879
33756
33615
33473
33347
33230
33104
32962
32815
32674
32542
32419
32300
32188
32087
31990
31892
31794
31695
31592
31496
31412
31333
31254
31178
31108
31045
31000
30971
30942
30904
30865
30833
30807
30790
30778
30749
30703
30658
30623
30592
30562
30527
30492
30464
30440
30407
30364
30315
30261
30205
30145
30083
30026
29971
29914
29866
29829
29784
29728
29667
29605
29547
29491
29426
29353
29285
29227
29167
29099
29021
28939
28857
28774
28688
28604
28521
28434
28353
28278
28202
28124
28042
27958
27861
27755
27658
27569
27481
27392
27306
27223
27145
27070
27001
26939
26864
26775
26691
26621
26563
26509
26455
26398
26342
26288
26239
26195
26155
26113
26061
26004
25947
25899
25852
25802
25754
25715
25668
25604
25537
25468
25395
25336
25291
25261
25271
25346
25504
25768
26154
26658
27257
27925
28641
29380
30116
30832
31522
32183
32792
33335
33822
34259
34641
34964
35238
35467
35640
35762
35833
35858
35845
35799
35731
35659
35578
35484
35387
35282
35172
35069
34973
34875
34768
34649
34527
34427
34360
34317
34286
34270
34271
34286
34310
34326
34308
34260
34206
34161
34123
34080
34034
33983
33930
33898
33894
33917
33957
33991
34007
34015
34023
34042
34073
34111
34154
34199
34241
34280
34315
34348
34376
34398
34418
34428
34418
34391
34352
34305
34251
34193
34130
34052
33956
33854
33755
33654
33551
33446
33342
33244
33151
33056
32955
32844
32728
32614
32495
32369
32245
32119
31999
31886
31773
31664
31570
31487
31406
31320
31235
31159
31092
31040
30995
30938
30872
30808
30753
30714
30684
30649
30613
30579
30544
30511
30473
30427
30385
30345
30302
30262
30224
30191
30162
30125
30077
30028
29984
29951
29917
29878
29838
29797
29752
29703
29643
29565
29483
29408
29345
29299
29255
29203
29138
29059
28980
28907
28826
28734
28634
28533
28442
28362
28284
28196
28104
28016
27933
27850
27768
27690
27616
27543
27465
27378
27289
27206
27132
27064
27002
26937
26871
26810
26750
26689
26628
26571
26512
26450
26391
26336
26278
26221
26171
26127
26081
26034
25990
25943
25889
25836
25787
25740
25687
25630
25570
25506
25446
25391
25339
25296
25277
25309
25420
25629
25948
26387
26944
27600
28327
29105
29901
30677
31416
32113
32759
33347
33869
34324
34721
35063
35348
35579
35762
35902
36002
36073
36121
36142
36135
36104
36050
35979
35894
35795
35680
35559
35444
35345
35264
35191
35123
35076
35054
35048
35057
35083
35114
35142
35160
35167
35173
35181
35190
35188
35172
35150
35122
35091
35064
35041
35014
34988
34971
34953
34931
34914
34899
34889
34894
34907
34920
34939
34976
35021
35063
35106
35147
35176
35182
35175
35165
35142
35098
35047
34998
34946
34888
34823
34754
34686
34619
34549
34473
34389
34294
34192
34087
33990
33897
33799
33694
33590
33488
33387
33286
33189
33093
33003
32925
32855
32777
32687
32599
32522
32443
32358
32284
32227
32174
32119
32068
32026
31990
31954
31913
31862
31801
31743
31705
31680
31657
31630
31605
31583
31558
31532
31516
31505
31492
31476
31446
31393
31328
31267
31216
31166
31115
31065
31012
30957
30902
30854
30811
30766
30717
30667
30609
30544
30471
30386
30295
30207
30128
30055
29978
29891
29801
29717
29636
29561
29495
29422
29337
29253
29168
29083
29002
28932
28872
28813
28751
28691
28631
28569
28506
28436
28368
28305
28237
28165
28100
28041
27982
27916
27844
27775
27708
27644
27584
27530
27477
27426
27381
27339
27291
27236
27176
27114
27054
26998
26949
26910
26870
26824
26782
26748
26708
26663
26616
26563
26510
26459
26415
26393
26414
26504
26685
26965
27348
27830
28405
29060
29771
30508
31247
31965
32649
33291
33877
34406
34885
35312
35678
35990
36253
36466
36638
36775
36882
36964
37022
37049
37039
36999
36936
36854
36759
36662
36558
36441
36328
36229
36145
36078
36020
35974
35950
35947
35952
35959
35973
35991
36008
36024
36046
36069
36082
36086
36087
36082
36071
36062
36047
36026
36015
36013
36008
36002
35998
35991
35987
35989
35992
35997
36005
36014
36021
36033
36057
36083
36102
36117
36129
36132
36129
36116
36090
36060
36030
35999
35958
35905
35850
35789
35722
35652
35577
35494
35401
35304
35199
35092
34994
34902
34807
34713
34624
34534
34438
34343
34254
34162
34063
33970
33890
33812
33731
33649
33568
33498
33439
33389
33343
33297
33256
33218
33179
33143
33109
33077
33047
33015
32980
32948
32925
32903
32875
32847
32816
32777
32733
32691
32656
32626
32598
32574
32552
32515
32459
32395
32335
32278
32224
32175
32133
32090
32034
31967
31897
31826
31751
31681
31621
31557
31486
31415
31349
31290
31232
31177
31126
31068
30993
30910
30829
30753
30678
30600
30525
30447
30370
30307
30254
30200
30139
30073
30003
29934
29871
29809
29739
29661
29579
29499
29421
29342
29269
29209
29163
29129
29098
29058
29009
28951
28888
28831
28777
28718
28664
28622
28583
28538
28494
28453
28406
28352
28299
28245
28187
28131
28078
28018
27946
27868
27804
27779
27813
27935
28163
28504
28941
29457
30042
30679
31340
32006
32672
33331
33965
34561
35112
35610
36057
36453
36807
37119
37381
37588
37738
37837
37896
37924
37931
37920
37889
37834
37754
37653
37542
37432
37324
37224
37133
37045
36967
36897
36839
36802
36784
36781
36786
36799
36820
36839
36854
36869
36883
36883
36867
36842
36812
36780
36757
36742
36728
36709
36690
36683
36690
36704
36718
36726
36741
36771
36799
36819
36843
36873
36905
36937
36959
36968
36970
36970
36966
36958
36949
36934
36902
36866
36831
36786
36729
36660
36579
36496
36413
36326
36236
36152
36068
35973
35877
35781
35685
35588
35486
35381
35283
35197
35117
35049
34997
34943
34874
34799
34725
34655
34594
34542
34495
34452
34416
34387
34360
34330
34294
34242
34174
34104
34042
33986
33932
33886
33854
33832
33819
33800
33770
33738
33715
33701
33678
33642
33605
33567
33521
33477
33439
33398
33350
33291
33224
33160
33096
33031
32974
32923
32865
32801
32737
32676
32611
32542
32480
32421
32359
32291
32211
32122
32040
31973
31924
31876
31812
31741
31668
31588
31502
31415
31335
31260
31186
31118
31058
30996
30928
30857
30787
30713
30635
30564
30501
30438
30372
30313
30263
30221
30178
30126
30072
30018
29956
29891
29831
29774
29717
29661
29611
29567
29523
29483
29448
29410
29366
29322
29274
29224
29174
29117
29054
29001
28973
28988
29061
29207
29446
29789
30228
30747
31330
31951
32584
33213
33825
34417
34985
35518
36010
36449
36825
37134
37385
37596
37771
37904
37998
38055
38071
38046
37992
37925
37848
37753
37636
37505
37367
37222
37075
36930
36783
36642
36517
36402
36299
36216
36154
36108
36074
36048
36019
35985
35949
35911
35873
35841
35814
35787
35774
35772
35771
35782
35814
35863
35915
35971
36042
36127
36211
36297
36384
36466
36542
36606
36654
36695
36739
36782
36808
36813
36799
36769
36728
36689
36654
36617
36573
36515
36444
36368
36280
36178
36073
35971
35871
35773
35672
35573
35488
35402
35304
35200
35093
34984
34893
34814
34726
34638
34558
34475
34390
34312
34241
34173
34102
34037
33985
33944
33913
33889
33865
33838
33815
33799
33787
33772
33749
33724
33697
33664
33628
33596
33569
33544
33521
33507
33493
33476
33463
33451
33433
33404
33358
33298
33238
33181
33128
33081
33036
32990
32940
32885
32829
32775
32723
32662
32593
32524
32461
32402
32347
32292
32223
32142
32061
31985
31913
31849
31788
31733
31681
31625
31560
31484
31393
31299
31213
31135
31063
30994
30926
30857
30787
30724
30665
30601
30542
30485
30421
30354
30283
30210
30144
30087
30041
29999
29959
29925
29895
29862
29821
29771
29713
29655
29604
29558
29511
29459
29399
29341
29294
29263
29258
29305
29427
29638
29946
30348
30834
31386
31988
32623
33269
33912
34544
35150
35720
36250
36732
37166
37558
37905
38203
38452
38646
38786
38880
38937
38955
38937
38891
38820
38725
38607
38478
38347
38223
38119
38039
37976
37914
37848
37782
37722
37667
37623
37598
37585
37581
37589
37602
37613
37618
37622
37625
37614
37586
37558
37539
37527
37515
37500
37485
37471
37459
37450
37448
37457
37469
37478
37486
37500
37526
37568
37626
37684
37731
37768
37797
37814
37819
37810
37783
37737
37679
37627
37590
37561
37530
37485
37429
37369
37300
37221
37140
37066
36997
36921
36822
36705
36589
36484
36385
36284
36183
36085
35986
35882
35774
35673
35581
35499
35433
35381
35335
35287
35237
35191
35157
35122
35077
35023
34968
34917
34872
34835
34808
34785
34762
34745
34733
34714
34684
34650
34618
34590
34557
34517
34472
34422
34365
34303
34247
34204
34166
34123
34075
34027
33984
33945
33903
33851
33790
33726
33660
33590
33518
33444
33374
33310
33246
33182
33127
33075
33019
32959
32900
32844
32785
32709
32619
32528
32446
32374
32304
32230
32153
32076
31996
31918
31846
31780
31718
31651
31575
31496
31425
31369
31321
31266
31208
31156
31105
31050
30987
30935
30890
30833
30772
30721
30674
30625
30582
30546
30497
30428
30361
30299
30233
30171
30121
30081
30047
30009
29979
29976
30016
30113
30278
30532
30887
31334
31864
32460
33097
33752
34404
35031
35624
36184
36719
37220
37674
38085
38454
38777
39046
39255
39413
39533
39620
39673
39689
39674
39635
39579
39515
39442
39357
39272
39192
39110
39028
38960
38916
38889
38868
38854
38859
38886
38920
38952
38989
39024
39045
39051
39047
39047
39049
39033
38995
38940
38877
38816
38764
38719
38682
38652
38625
38609
38602
38596
38591
38589
38593
38613
38646
38670
38680
38685
38694
38704
38707
38703
38698
38696
38694
38689
38676
38647
38606
38562
38528
38500
38461
38409
38349
38277
38193
38105
38016
37924
37827
37734
37640
37537
37428
37317
37202
37092
36987
36888
36793
36704
36631
36575
36522
36466
36414
36369
36324
36279
36229
36170
36113
36064
36021
35975
35921
35861
35802
35749
35708
35677
35644
35611
35583
35563
35544
35513
35476
35447
35425
35403
35379
35348
35310
35273
35233
35182
35122
35057
34998
34954
34917
34874
34811
34733
34655
34586
34524
34460
34391
34315
34234
34155
34080
34004
33935
33869
33799
33732
33666
33593
33514
33435
33360
33285
33204
33123
33048
32976
32897
32808
32713
32622
32545
32483
32434
32388
32335
32272
32213
32163
32115
32062
32007
31955
31910
31864
31815
31765
31701
31627
31556
31494
31432
31368
31315
31271
31224
31173
31132
31107
31088
31065
31028
30973
30908
30843
30776
30708
30645
30589
30535
30473
30398
30313
30238
30186
30166
30202
30312
30505
30797
31192
31673
32225
32835
33487
34155
34815
35456
36070
36646
37190
37707
38182
38596
38946
39249
39509
39721
39879
39985
40054
40091
40094
40073
40036
39979
39910
39838
39760
39667
39574
39495
39417
39341
39281
39237
39201
39181
39184
39196
39215
39248
39292
39344
39405
39462
39506
39534
39542
39525
39496
39466
39429
39382
39344
39316
39294
39278
39262
39243
39223
39201
39169
39138
39125
39133
39154
39177
39190
39201
39215
39224
39232
39244
39249
39247
39244
39238
39215
39180
39141
39101
39052
38982
38887
38775
38674
38589
38508
38428
38350
38277
38210
38144
38077
38000
37901
37786
37673
37573
37479
37379
37273
37167
37070
36994
36941
36898
36858
36821
36775
36718
36659
36600
36542
36486
36436
36384
36328
36281
36249
36229
36207
36165
36104
36039
35989
35954
35926
35899
35873
35842
35805
35767
35734
35708
35684
35655
35621
35584
35532
35465
35395
35323
35250
35187
35133
35079
35030
34981
34926
34874
34825
34767
34697
34613
34521
34439
34362
34289
34217
34146
34077
34003
33926
33860
33799
33730
33664
33610
33557
33491
33420
33357
33295
33234
33182
33128
33067
33007
32948
32883
32816
32754
32688
32615
32535
32455
32380
32320
32271
32228
32185
32137
32081
32024
31975
31932
31896
31859
31823
31787
31739
31682
31630
31580
31522
31466
31415
31357
31288
31219
31160
31121
31101
31114
31182
31306
31495
31776
32149
32597
33114
33682
34281
34908
35556
36193
36797
37365
37892
38383
38835
39231
39567
39855
40099
40295
40436
40525
40570
40574
40551
40513
40468
40416
40353
40279
40202
40129
40061
39994
39928
39869
39821
39784
39768
39778
39810
39854
39895
39932
39975
40020
40060
40091
40105
40103
40086
40057
40026
39998
39969
39933
39898
39867
39829
39785
39749
39727
39721
39733
39766
39805
39842
39874
39902
39925
39946
39967
39983
39985
39979
39976
39985
39999
40010
40017
40020
40006
39972
39933
39897
39855
39804
39738
39647
39540
39434
39330
39226
39117
39007
38899
38794
38693
38595
38508
38430
38361
38304
38252
38192
38122
38047
37978
37916
37852
37785
37721
37657
37590
37527
37474
37421
37366
37310
37250
37196
37151
37108
37063
37010
36947
36884
36823
36766
36724
36692
36656
36618
36584
36554
36526
36498
36458
36408
36350
36282
36207
36134
36066
36002
35943
35882
35816
35750
35688
35625
35563
35503
35435
35361
35287
35208
35129
35048
34958
34865
34785
34710
34632
34550
34457
34354
34258
34180
34114
34058
33997
33917
33837
33773
33716
33651
33577
33497
33420
33347
33275
33197
33115
33033
32958
32895
32838
32790
32748
32697
32633
32568
32504
32443
32387
32336
32287
32237
32183
32129
32086
32052
32017
31976
31924
31868
31817
31770
31713
31640
31559
31485
31424
31364
31306
31251
31213
31217
31280
31415
31635
31944
32339
32821
33374
33972
34594
35221
35840
36446
37033
37588
38104
38578
39003
39373
39690
39957
40176
40340
40458
40539
40580
40592
40582
40542
40474
40391
40303
40207
40106
40011
39924
39851
39791
39734
39685
39654
39636
39624
39616
39618
39636
39668
39706
39742
39766
39773
39762
39734
39694
39648
39597
39539
39481
39434
39396
39367
39349
39338
39342
39358
39373
39386
39404
39434
39472
39506
39532
39557
39580
39605
39628
39636
39629
39613
39586
39552
39525
39501
39470
39428
39376
39316
39247
39170
39083
38988
38886
38782
38673
38563
38459
38362
38267
38175
38092
38013
37929
37847
37774
37706
37642
37580
37524
37475
37419
37349
37278
37219
37173
37137
37104
37072
37052
37046
37044
37036
37015
36984
36953
36924
36884
36837
36793
36754
36712
36662
36615
36578
36539
36488
36434
36386
36340
36293
36244
36191
36138
36088
36036
35981
35921
35858
35796
35729
35658
35587
35519
35455
35390
35329
35270
35211
35153
35082
34998
34905
34806
34708
34618
34537
34464
34395
34324
34253
34190
34133
34075
34009
33928
33844
33765
33692
33626
33568
33514
33463
33413
33364
33318
33277
33237
33195
33150
33096
33035
32980
32930
32880
32829
32774
32724
32675
32616
32552
32488
32422
32359
32297
32235
32166
32089
32004
31917
31840
31783
31744
31724
31748
31847
32037
32322
32703
33170
33699
34267
34851
35430
35994
36543
37071
37573
38044
38473
38844
39159
39424
39645
39821
39944
40018
40056
40059
40026
39955
39855
39741
39618
39491
39359
39227
39105
38992
38886
38789
38701
38617
38538
38471
38415
38363
38320
38296
38284
38280
38278
38275
38265
38242
38196
38137
38080
38033
38000
37989
38010
38054
38105
38158
38215
38274
38332
38389
38441
38480
38512
38549
38584
38613
38639
38667
38698
38729
38754
38759
38730
38687
38649
38612
38563
38494
38409
38318
38227
38141
38071
38011
37940
37854
37759
37669
37592
37515
37419
37315
37208
37088
36972
36884
36816
36767
36733
36698
36660
36627
36602
36585
36577
36560
36527
36486
36441
36393
36346
36305
36275
36239
36199
36162
36125
36096
36074
36056
36042
36024
36002
35974
35945
35921
35904
35886
35858
35829
35801
35770
35740
35710
35680
35655
35628
35598
35566
35529
35485
35438
35380
35321
35268
35209
35144
35091
35039
34972
34898
34831
34778
34730
34682
34634
34573
34505
34449
34402
34359
34323
34296
34268
34234
34193
34148
34100
34047
33986
33926
33876
33830
33781
33736
33693
33648
33605
33563
33525
33502
33508
33561
33677
33860
34109
34413
34769
35173
35605
36051
36506
36970
37438
37900
38336
38735
39098
39429
39717
39959
40156
40313
40436
40533
40607
40655
40677
40673
40647
40610
40568
40518
40454
40383
40321
40270
40229
40199
40177
40158
40146
40139
40136
40135
40143
40164
40184
40193
40196
40188
40171
40156
40153
40161
40166
40156
40130
40105
40090
40072
40044
40010
39979
39961
39963
39987
40024
40059
40087
40108
40132
40156
40179
40208
40245
40286
40322
40343
40344
40330
40308
40283
40256
40227
40188
40134
40077
40026
39974
39912
39843
39772
39703
39631
39561
39497
39431
39359
39284
39207
39129
39047
38964
38889
38825
38778
38748
38723
38692
38658
38626
38593
38559
38519
38471
38422
38374
38327
38289
38257
38226
38211
38208
38200
38192
38184
38166
38139
38110
38078
38052
38035
38014
37986
37955
37921
37884
37845
37810
37783
37756
37724
37687
37643
37594
37542
37486
37430
37379
37329
37280
37246
37221
37186
37141
37094
37053
37022
36992
36952
36899
36839
36773
36703
36635
36567
36501
36441
36389
36352
36326
36298
36269
36238
36200
36154
36103
36045
35983
35929
35888
35854
35817
35779
35742
35706
35665
35616
35564
35518
35477
35436
35390
35343
35296
35246
35194
35151
35120
35100
35089
35099
35146
35246
35401
35611
35878
