28932
29205
29414
29365
29290
29557
29569
29441
29582
29736
29739
29836
29848
29912
29861
29685
29867
29712
29857
30146
29984
29996
30186
29900
30035
30053
30368
30243
30256
30446
30269
30543
30608
30480
30308
30405
30396
30537
30787
30648
30464
30601
30698
30778
30747
30796
30738
30821
30755
30903
30783
30816
30765
30958
30895
30706
30951
30822
30835
31028
30783
31102
30884
30919
30918
30882
31023
31105
31262
31161
30936
31079
31239
31304
31223
31201
31231
31359
31289
31451
31294
31407
31438
31327
31256
31377
31501
31413
31244
31394
31255
31315
31277
31400
31308
31309
31476
31428
31360
31221
31250
30942
30705
30961
30715
30788
30610
30672
30570
30292
30197
30335
30171
30003
30195
30324
30236
30223
29920
29925
30116
30036
29768
29971
29967
29893
29621
29722
29680
29669
29585
29628
29548
29557
29627
29595
29604
29427
29596
29552
29635
29527
29609
29905
29691
29767
29862
29729
29817
29938
30064
30051
30094
30171
30258
30424
30169
30332
30558
30290
30531
30547
30381
30579
30389
30620
30486
30768
30715
30745
30747
30509
30616
30869
30605
30855
30894
30626
30829
30621
30666
30805
31044
30825
30884
30908
30742
30963
30933
30940
31147
31053
31084
30884
31090
31180
30927
30862
31075
31220
31130
31000
31068
31283
31185
31015
31123
31108
31156
31184
31325
31185
31453
31363
31380
31426
31209
31343
31473
31347
31545
31515
31221
31259
31406
31381
31394
31560
31396
31647
31359
31457
31470
31528
31464
31440
31616
31706
31403
31560
31591
31394
31565
31565
31627
31541
31460
31370
31180
31414
31385
31035
31262
31031
30932
30699
30748
30786
30591
30646
30374
30392
30136
30279
30100
29873
29898
29906
30016
29738
29971
29703
29843
29731
29841
29586
29465
29479
29513
29412
29578
29594
29638
29397
29516
29354
29508
29314
29369
29520
29473
29491
29396
29709
29627
29527
29712
29604
29876
29887
29855
29968
29926
30074
30185
30118
30180
30334
30469
30280
30239
30426
30432
30478
30473
30463
30474
30555
30452
30721
30497
30742
30639
30515
30544
30543
30562
30535
30780
30669
30771
30743
30688
30698
30699
30637
30894
30779
30768
30931
30894
31017
31031
31086
31127
31022
30892
30986
31131
30990
31034
31130
31256
30975
31137
31305
31093
31020
31262
31205
31317
31052
31392
31267
31317
31246
31238
31276
31596
31384
31218
31312
31628
31586
31643
31591
31347
31639
31577
31598
31541
31534
31654
31508
31720
31504
31464
31836
31590
31430
31678
31562
31576
31784
31618
31603
31543
31698
31502
31467
31397
31554
31243
31323
31333
31195
31178
31063
30791
30605
30724
30423
30574
30460
30395
30256
30146
30331
30260
29962
30186
30062
29810
29838
29856
29923
29920
29765
29753
29657
29442
29521
29375
29585
29376
29666
29543
29330
29616
29617
29634
29598
29635
29732
29535
29561
29783
29820
29840
29978
29882
29837
29871
29942
30088
30009
30284
30158
30292
30257
30268
30507
30474
30459
30678
30472
30626
30614
30431
30650
30546
30510
30604
30656
30657
30455
30706
30558
30764
30542
30750
30601
30673
30633
30736
31014
30742
30995
30953
30918
30924
30951
30924
30796
30822
30966
30985
30913
30923
30953
31167
30940
31131
30913
31209
30927
31190
31056
30998
31269
31037
31074
31199
31124
31221
31162
31228
31168
31052
31210
31215
31161
31343
31154
31169
31280
31342
31113
31333
31263
31221
31225
31262
31240
31283
31264
31170
31311
31169
31348
31268
31486
31401
31388
31378
31385
31406
31336
31251
31241
31158
31032
30941
30847
30577
30640
30682
30423
30459
30379
30296
30032
29962
29933
29971
29731
29716
29595
29773
29481
29618
29514
29604
29552
29585
29421
29417
29497
29335
29470
29552
29361
29188
29329
29336
29234
29393
29334
29390
29264
29449
29381
29605
29271
29513
29382
29388
29735
29513
29718
29879
29897
29785
30112
30057
30218
30022
30360
30248
30222
30429
30421
30539
30358
30569
30334
30314
30584
30448
30444
30405
30446
30371
30652
30639
30591
30545
30709
30657
30572
30657
30586
30739
30596
30668
30925
30799
30851
31000
30791
31002
30826
31064
31083
30805
30947
30985
31074
30909
31031
31192
31027
31247
31027
31262
30973
31322
31307
31309
30987
31206
31331
31213
31281
31217
31072
31204
31114
31258
31302
31147
31358
31211
31128
31254
31197
31356
31435
31337
31263
31161
31291
31413
31205
31288
31295
31237
31246
31335
31539
31345
31263
31406
31269
31413
31460
31384
31195
31409
31146
31243
31186
30733
30740
30616
30493
30471
30436
30134
30120
30089
29746
29823
29735
29417
29435
29383
29329
29269
29062
29040
29114
29088
28914
29081
28866
28962
28995
28915
28972
28938
29051
28875
28852
28826
28913
28725
28884
28691
28644
28917
28900
28961
28640
28834
28901
28688
28750
28852
28806
28939
28823
29016
28924
29139
29296
29347
29480
29472
29515
29440
29769
29724
29785
29778
29794
29847
29886
30057
29990
30132
29834
29798
30129
29859
30063
30075
30195
29993
30266
30025
30245
30137
30000
30363
30027
30225
30392
30331
30170
30398
30150
30353
30377
30267
30545
30421
30457
30599
30382
30706
30475
30645
30512
30636
30565
30595
30684
30568
30783
30768
30429
30617
30757
30701
30520
30561
30551
30610
30841
30874
30608
30822
30934
30845
30831
30777
30738
31035
30970
31012
30877
30971
31139
31206
31012
31125
31229
31137
31142
31267
31261
31245
31230
31327
31281
31291
31477
31375
31526
31417
31329
31356
31233
31278
30923
30809
30819
30884
30580
30706
30610
30322
30291
30498
30179
30361
30011
30195
30030
29856
29751
29787
29820
29686
29432
29495
29632
29441
29542
29466
29244
29301
29297
29030
29108
29196
29043
29066
28936
28783
28808
28925
28826
28746
28808
29080
28852
28897
28983
29084
28991
29359
29094
29223
29416
29491
29518
29801
29550
29743
30020
29917
30029
29963
30032
30017
30218
30001
30297
30047
30144
30368
30194
30272
30265
30467
30363
30338
30281
30343
30524
30479
30526
30330
30450
30514
30576
30669
30712
30633
30581
30490
30771
30752
30616
30577
30605
30738
30637
30583
30767
30936
30883
30640
30887
30770
30904
30887
30900
30811
30860
30939
30935
30940
31073
30990
30876
30996
31053
30900
31129
31214
31023
31143
31004
31165
31028
31098
31213
31130
31083
31210
31300
31366
31263
31167
31378
31425
31378
31332
31177
31348
31151
31370
31391
31293
31173
31273
31226
31434
31266
31342
31342
31330
31194
31229
31233
31059
31283
31012
31001
30763
30762
30771
30496
30375
30435
30523
30067
30267
30186
29871
29906
29863
29654
29709
29764
29767
29544
29487
29493
29350
29419
29515
29327
29213
29130
29350
29161
29401
29189
29316
29145
29114
29128
29124
29126
28973
29182
29083
29048
29203
29229
29218
29350
29354
29388
29420
29340
29587
29514
29720
29907
29687
29705
29991
29902
30021
29816
30043
30224
30198
30056
30077
30070
30085
30363
30202
30390
30480
30447
30487
30461
30294
30310
30475
30373
30335
30368
30395
30495
30415
30345
30442
30486
30594
30562
30650
30635
30520
30745
30678
30710
30903
30746
30779
30782
30927
30741
30895
30891
30732
30739
30962
30719
30966
30748
30817
30901
30813
30996
30943
30886
30915
30919
31102
31060
30925
31144
31024
30849
31000
31069
31037
31047
31096
31026
31075
30977
30933
30934
31244
31071
31148
31066
31094
31299
31097
31163
31083
31136
31107
30986
31138
31037
31085
31124
31095
31220
31012
31029
30969
30899
30909
30661
30633
30421
30116
30042
30086
29962
29962
29837
29770
29581
29625
29621
29523
29402
29404
29177
29387
29124
29376
29104
29238
29087
29246
29205
29061
29016
29196
28959
29032
28991
28942
29018
29063
28819
28722
28807
28916
28932
28977
28995
28919
29086
29049
29273
29169
29078
29337
29389
29525
29579
29627
29645
29730
29856
29847
30037
29778
29756
29888
29885
30101
29946
29975
30111
30226
30145
30271
30010
30391
30160
30166
30318
30388
30295
30246
30297
30219
30152
30314
30292
30408
30322
30474
30670
30411
30784
30537
30481
30510
30669
30613
30674
30800
30695
30575
30595
30660
30618
30930
30758
30645
30698
30663
31053
30964
30767
30959
30823
31021
30987
30840
30744
30823
30816
30908
31084
31055
30838
31067
31022
30939
31189
31006
31201
31344
31304
31134
31348
31415
31240
31344
31462
31336
31418
31500
31266
31431
31523
31490
31388
31504
31583
31518
31364
31500
31466
31466
31435
31357
31293
31436
31141
31099
31138
31074
30873
30852
30863
30480
30671
30453
30419
30521
30439
30321
30185
30111
30279
30019
30252
29939
30122
29873
29728
29699
29630
29611
29710
29715
29712
29431
29559
29386
29379
29442
29493
29426
29375
29592
29521
29481
29302
29518
29420
29457
29534
29501
29394
29569
29596
29788
29619
29871
29999
29848
30185
29948
30020
30131
30198
30304
30054
30038
30229
30173
30232
30066
30365
30443
30267
30347
30323
30440
30236
30449
30325
30197
30283
30581
30499
30551
30691
30608
30728
30556
30474
30743
30796
30583
30775
30682
30711
30807
30856
30679
30739
30778
30840
30855
30765
30927
30756
31080
30953
30930
30848
30924
30861
31087
31063
30867
30927
30991
30806
31116
31003
31074
30888
30960
31068
30865
31026
31151
30958
31042
31031
31134
30967
30912
31119
30955
31183
31272
31051
30968
31143
31065
31197
31141
31147
31038
30958
30983
31188
30975
31151
30967
30998
30943
31158
31119
30828
30972
30828
30527
30599
30339
30416
30402
30225
30164
29854
29709
29627
29702
29518
29665
29622
29219
29152
29275
29307
29264
29307
29186
28929
29060
28885
28945
29029
28888
28864
28924
28951
28790
28798
28881
28847
28769
28881
28663
28911
28998
28902
28872
28886
28739
28894
28991
29141
29024
29004
29058
29066
29381
29173
29533
29337
29725
29904
29904
29617
29917
29934
29811
30088
29814
29939
29955
29968
30213
29972
30031
30276
30263
30286
30391
30192
30413
30307
30202
30272
30370
30560
30339
30243
30479
30386
30552
30522
30547
30410
30546
30647
30767
30564
30807
30698
30486
30686
30516
30738
30824
30689
30947
30863
30955
30719
30771
30929
30977
30926
30839
31067
30983
30758
30906
31116
31101
30814
31081
30769
31090
30871
31103
30836
30794
31023
31080
31076
30890
31118
30817
31158
31103
30857
30852
31069
31044
31101
31094
31190
31067
30953
31032
31208
31065
31121
31229
31134
31210
31270
31053
31156
31095
30905
31030
30629
30596
30703
30475
30287
30194
30241
30195
30023
29621
29715
29821
29576
29471
29361
29378
29482
29303
29448
29286
29303
29383
29395
29369
29326
29353
29226
29337
29231
29078
29205
29407
29237
29443
29169
29078
29164
29204
29178
29096
29313
29216
29281
29425
29456
29542
29824
29835
29886
29924
30061
30081
30134
30264
30274
30164
30374
30500
30362
30539
30414
30695
30559
30427
30602
30719
30737
30716
30740
30745
30807
30914
30869
31068
30880
31032
30927
31054
31031
30987
31039
31030
31122
31045
30929
31076
31287
31317
31141
31174
31127
31402
31179
31491
31413
31459
31265
31202
31415
31135
31195
31350
31384
31156
31360
31123
31256
31396
31469
31296
31382
31198
31063
31163
31254
31130
31211
31299
31218
31298
31190
31361
31268
31258
31114
31201
31279
31299
31179
31224
31193
31077
31170
31283
31413
31287
31217
31306
31300
31356
31182
31372
31333
31365
31331
31280
31296
31326
31126
30986
31088
30927
30854
30831
30629
30361
30544
30190
30366
30230
30204
29915
30024
29854
29967
30007
29664
29684
29800
29747
29599
29337
29516
29367
29315
29147
29114
29152
29245
29022
28904
29112
28809
28750
28821
28886
28838
29023
28834
28852
28720
28794
28894
28842
28860
29036
28900
28955
28889
29078
29023
29201
29429
29364
29536
29439
29498
29636
29683
29778
29578
29610
29975
29744
29734
29836
29891
30038
30009
30075
29953
30199
29947
30040
30249
30176
30274
30351
30336
30304
30239
30299
30365
30232
30357
30331
30591
30541
30293
30453
30526
30520
30647
30363
30472
30423
30456
30744
30637
30807
30686
30584
30577
30796
30829
30673
30920
30698
30827
30727
30668
30918
31104
30954
30789
30869
31163
30984
30865
31061
31052
31053
30944
31057
31185
31064
31095
31025
31173
31302
31191
31026
31073
31035
31317
31034
31217
31329
31442
31229
31182
31338
31155
31491
31475
31268
31355
31420
31353
31210
31300
30940
30893
30839
30749
30612
30500
30235
30329
30018
30100
30033
29759
29773
29649
29684
29448
29525
29268
29260
29294
29169
29328
28985
29014
29084
28851
28848
28702
28805
28793
28806
28928
28671
28859
28721
28898
28841
28672
28795
28868
28836
28805
28762
28790
29067
28870
28995
29052
29279
29349
29323
29425
29576
29414
29656
29543
29724
29767
29805
29777
29841
29854
29943
30093
29866
29930
29853
30048
29961
30028
30118
30005
29927
30149
30322
30179
30061
30252
30397
30090
30268
30246
30174
30204
30394
30317
30231
30290
30485
30379
30506
30228
30326
30271
30486
30470
30275
30404
30259
30408
30231
30407
30524
30401
30524
30485
30478
30310
30308
30323
30357
30277
30464
30506
30535
30452
30276
30258
30566
30667
30617
30607
30641
30675
30463
30751
30584
30567
30545
30784
30922
30945
30738
31000
31071
31034
30813
30972
30895
31015
30813
30856
30894
30995
30995
30858
30818
30861
30607
30653
30482
30447
30337
30330
30183
30208
30333
30180
30267
29985
30076
30011
29959
29920
29916
29925
29963
29594
29920
29612
29412
29458
29745
29658
29676
29378
29604
29544
29360
29241
29284
29303
29529
29552
29358
29291
29274
29412
29560
29400
29457
29497
29422
29405
29697
29633
29420
29758
29779
29834
30046
29962
30056
30088
30137
30100
30312
30335
30392
30321
30572
30407
30704
30712
30616
30562
30871
30566
30621
30644
30968
30670
30947
30737
30763
30865
30815
30999
30820
30896
30814
30878
30998
30928
31163
30970
30996
31353
31278
31127
31393
31421
31292
31481
31419
31485
31225
31439
31501
31380
31208
31472
31316
31406
31382
31465
31326
31455
31535
31380
31489
31502
31537
31395
31573
31428
31639
31743
31609
31729
31638
31453
31603
31842
31885
31536
31601
31822
31659
31729
31753
31661
31814
31793
31963
31922
31666
31930
31690
31875
31767
31928
31951
31999
31920
31995
31837
31973
31832
32032
31821
31798
31780
31725
31853
31727
31695
31554
31356
31279
31339
31175
31220
31045
31129
30875
30862
30843
30628
30572
30648
30620
30567
30355
30413
30336
30294
30449
30284
30337
30146
30158
30206
30227
30049
30222
30046
30055
30004
30108
29942
29911
30135
29973
30138
30089
29971
30014
29974
30274
30146
30258
30377
30192
30340
30481
30413
30560
30585
30746
30634
30900
30625
30758
30893
30881
30986
30879
30750
30905
31170
31060
30845
30950
31092
31137
31225
31092
31023
31145
30952
31304
31095
31127
31279
31325
31153
31088
31361
31223
31321
31255
31380
31313
31434
31507
31494
31424
31506
31389
31265
31533
31414
31538
31738
31518
31753
31576
31535
31555
31741
31653
31487
31730
31513
31636
31752
31788
31640
31558
31627
31537
31658
31670
31777
31738
31636
31790
31570
31535
31801
31743
31613
31730
31792
31826
31816
31815
31964
31782
31903
31850
31727
31933
31727
31751
31776
31921
31959
31989
31964
31745
31770
31901
31901
31593
31823
31814
31572
31688
31592
31346
31317
31147
31161
31001
30958
30821
30806
30678
30602
30624
30509
30540
30488
30497
30421
30479
30396
30213
30368
30275
30375
30379
30385
30327
30249
30109
30143
30246
30267
29933
30149
30017
30159
30220
30217
30051
30226
30154
30280
30275
30547
30430
30523
30640
30692
30459
30525
30918
30768
30944
30742
30914
30872
30836
30910
30910
31082
30980
31186
31126
31140
31111
31305
31136
31203
31227
31089
31271
31177
31394
31383
31382
31198
31164
31395
31220
31282
31251
31284
31354
31382
31245
31504
31494
31406
31496
31475
31403
31459
31420
31371
31376
31590
31685
31579
31694
31651
31560
31757
31704
31411
31546
31541
31575
31681
31679
31641
31693
31641
31745
31701
31686
31715
31716
31668
31704
31690
31730
31830
31769
31910
31680
31842
31862
31594
31899
31956
31923
31782
31789
31689
31892
31800
31742
31707
31811
31960
31846
31783
31810
31927
31757
31900
31785
31707
31965
31867
31584
31756
31680
31671
31419
31488
31237
31282
31046
31064
30928
30836
30715
30609
30551
30627
30647
30374
30234
30444
30144
30205
30029
30094
30337
30226
30166
30198
30105
30137
30191
29894
29837
30182
29925
30172
30052
30127
30019
30065
30086
29871
30093
29905
30022
30186
30134
30228
30318
30359
30260
30462
30410
30539
30792
30854
30903
30720
31022
31010
30719
30835
30803
30871
31085
31063
30998
30915
31047
30956
30982
31093
31118
30937
31169
31330
31192
30989
31050
31213
31254
31270
31246
31172
31227
31305
31454
31348
31179
31305
31452
31415
31339
31252
31539
31247
31431
31581
31547
31516
31547
31308
31367
31350
31393
31311
31433
31396
31684
31622
31722
31533
31455
31554
31642
31582
31518
31533
31685
31523
31485
31686
31679
31456
31561
31755
31714
31635
31665
31759
31682
31737
31586
31630
31654
31710
31805
31577
31759
31571
31838
31763
31766
31707
31885
31782
31897
31847
31832
31743
31495
31671
31677
31327
31488
31141
31212
30991
31139
31167
30994
30677
30895
30909
30716
30526
30488
30429
30407
30381
30670
30433
30507
30346
30181
30315
30167
30256
30313
30096
30223
30058
30281
30103
29936
29939
30102
30116
29971
29955
29947
30082
30156
30236
30007
29974
30204
29990
30131
30423
30312
30156
30312
30420
30590
30670
30385
30490
30514
30634
30871
30785
30775
30843
30751
30781
30822
30979
30852
31096
30887
31112
30946
30885
30972
31177
31119
31021
31171
30962
30960
31083
31246
31219
31082
31182
31276
31102
31036
31300
31011
31141
31138
31305
31432
31332
31285
31240
31181
31446
31250
31385
31462
31392
31542
31466
31523
31480
31368
31493
31497
31704
31526
31366
31675
31669
31423
31566
31794
31548
31633
31745
31725
31833
31584
31716
31720
31843
31727
31619
31773
31753
31774
31755
31814
31772
31734
32014
31929
31910
31729
31937
31967
31846
32004
31889
32043
31752
32058
31860
31954
31709
31730
31559
31661
31563
31495
31407
31119
31145
31019
31006
30715
30638
30536
30487
30698
30478
30350
30568
30474
30423
30181
30146
30371
30234
29994
30199
30160
30138
30193
30098
29967
30057
29964
29993
29908
29907
29949
30039
29876
29897
29920
29735
29773
29941
29883
29935
29760
29876
30046
30150
30209
30290
30118
30385
30374
30453
30438
30545
30319
30606
30716
30381
30624
30476
30784
30553
30597
30481
30595
30530
30666
30783
30669
30687
30872
30886
30819
30812
30698
30796
31005
30825
30700
30919
30888
30811
31046
30897
31045
31021
31098
30969
30772
30944
31032
31108
30844
30830
30938
30843
31108
31172
31127
30907
31024
30862
30979
30989
30951
30991
31199
31043
31285
31226
31245
31155
31101
31164
31216
31303
31400
31243
31215
31354
31341
31187
31213
31499
31325
31331
31340
31301
31454
31432
31549
31393
31353
31341
31583
31680
31577
31700
31526
31412
31598
31458
31580
31461
31342
31396
31593
31217
31248
31098
31157
30899
31011
30793
30707
30597
30592
30704
30474
30240
30428
30405
30238
30002
30217
30280
29996
30057
29834
29969
29905
29914
29655
29904
29583
29770
29847
29772
29720
29646
29792
29694
29654
29420
29316
29467
29350
29340
29535
29395
29572
29664
29485
29375
29547
29741
29657
29729
29898
29933
30024
29963
30175
30331
30259
30456
30286
30464
30492
30441
30462
30470
30386
30519
30504
30550
30702
30536
30644
30584
30759
30686
30827
30727
30811
30830
30771
30847
31037
30967
30742
30965
31118
30979
31154
30946
31195
30968
30919
31247
30996
31160
31056
31326
31255
31380
31289
31383
31422
31198
31352
31441
31445
31458
31551
31484
31393
31286
31441
31356
31378
31553
31515
31465
31700
31628
31413
31528
31678
31578
31638
31628
31609
31605
31580
31441
31558
31803
31556
31733
31710
31497
31690
31788
31707
31469
31693
31662
31699
31416
31393
31380
31405
31522
31305
31366
31659
31535
31245
31499
31125
31335
31186
30940
31104
31040
30762
30739
30687
30369
30281
30418
30274
30026
30162
30155
29958
29821
29801
29966
29742
29515
29736
29514
29561
29658
29559
29594
29667
29389
29511
29585
29406
29364
29367
29403
29392
29362
29317
29254
29284
29353
29367
29337
29343
29305
29447
29561
29571
29418
29638
29792
29801
29706
29810
29884
29835
29931
29940
30001
29966
30200
30228
30240
30112
30350
30180
30203
30237
30150
30306
30436
30389
30407
30443
30476
30483
30510
30599
30617
30625
30604
30675
30657
30742
30675
30816
30763
30862
30717
30719
30846
30933
30755
30844
30794
31045
30941
31086
30940
31157
31140
31067
31186
31214
31093
31219
31307
31201
31030
31120
31363
31084
31339
31122
31282
31200
31323
31466
31316
31487
31389
31382
31401
31461
31401
31470
31491
31531
31505
31540
31660
31555
31491
31615
31735
31581
31551
31567
31719
31844
31671
31700
31768
31574
31644
31617
31764
31492
31739
31656
31630
31509
31359
31181
31382
30996
30865
31077
31001
30850
30633
30658
30705
30560
30381
30416
30207
30335
30159
30072
30378
30140
30208
30192
30039
30191
29830
29996
30017
29816
29968
29793
29719
29809
29918
29846
29645
29841
29591
29840
29836
29874
29842
29739
29877
29809
29796
30081
30181
30027
30180
30378
30261
30182
30483
30251
30434
30516
30430
30645
30640
30521
30714
30748
30860
30900
30838
30790
31058
30863
30745
30900
30761
30960
30929
30942
30974
31115
31166
31143
31053
31250
31085
30875
31131
31146
31188
31056
31164
31116
31089
31046
31149
31326
31276
31458
31210
31477
31187
31431
31262
31507
31594
31394
31404
31547
31479
31578
31589
31625
31323
31548
31594
31364
31434
31286
31438
31408
31348
31530
31560
31438
31362
31467
31321
31474
31427
31420
31619
31484
31476
31608
31372
31466
31345
31409
31456
31525
31644
31476
31658
31677
31517
31327
31582
31631
31491
31444
31403
31634
31383
31579
31428
31462
31292
31058
31152
30949
30811
30792
30766
30632
30691
30335
30525
30175
30188
30169
29998
30140
30038
30192
29908
30188
29905
29931
30028
29880
29792
29923
29967
29897
29646
29625
29713
29834
29762
29637
29663
29592
29685
29594
29743
29590
29784
29622
29703
29640
29582
29606
29715
29952
29830
30048
30034
30162
30122
30119
30142
30203
30254
30165
30247
30423
30289
30302
30352
30643
30380
30611
30457
30591
30508
30523
30491
30575
30502
30475
30501
30572
30617
30564
30622
30614
30657
30649
30665
30563
30773
30870
30731
30851
30826
30827
30960
30711
30916
30970
31032
31069
31220
31046
30882
31213
31074
31157
31027
31092
31043
31319
31325
31387
31378
31374
31420
31441
31492
31275
31396
31318
31367
31311
31418
31317
31569
31699
31629
31618
31557
31621
31554
31563
31317
31462
31564
31562
31479
31536
31459
31460
31484
31455
31507
31500
31498
31357
31442
31616
31539
31708
31392
31665
31597
31592
31321
31517
31153
31060
31283
31095
30853
30779
30873
30664
30583
30631
30380
30285
30085
30341
30274
30256
29962
30154
29903
30007
29891
29949
29840
29782
29898
29596
29771
29545
29595
29833
29766
29798
29688
29523
29818
29686
29557
29555
29733
29671
29697
29786
29964
29866
29714
29959
30029
30122
30142
30466
30303
30259
30463
30482
30519
30683
30680
30526
30574
30714
30788
30794
30750
30773
30673
30735
30883
30901
30839
30959
31059
30867
31045
31026
31049
30994
30836
30997
30890
30984
31217
31070
31229
31091
31238
31290
31081
31030
31382
31064
31278
31518
31149
31275
31460
31337
31494
31321
31372
31308
31393
31427
31438
31548
31405
31403
31484
31320
31492
31334
31532
31471
31507
31631
31527
31756
31564
31601
31505
31448
31668
31785
31508
31590
31764
31712
31804
31725
31673
31789
31618
31599
31632
31762
31787
31863
31779
31824
31711
31942
31773
31971
31850
31929
31767
31670
31771
31649
31724
31716
31563
31503
31646
31622
31338
31276
31252
31152
31072
30960
30838
30831
30728
30697
30638
30643
30571
30462
30438
30450
30534
30373
30339
30272
30147
30070
30203
30186
30109
30106
30074
30031
30060
30033
29976
30045
29937
29978
30018
29950
29916
29926
29955
29892
29978
29992
30001
30004
29946
30017
30263
30196
30271
30340
30353
30419
30430
30515
30567
30634
30666
30701
30720
30745
30770
30686
30821
30849
30834
30828
30776
30996
31109
31010
30788
30816
31055
30911
30844
31067
30972
30815
31016
31183
31051
30841
31131
30968
31122
31056
31172
31238
31311
31223
31330
31276
31354
31278
31215
31338
31440
31402
31542
31245
31288
31471
31489
31384
31420
31358
31468
31503
31449
31320
31369
31505
31312
31366
31238
31281
31362
31233
31427
31514
31194
31236
31321
31321
31348
31329
31274
31304
31371
31226
31088
31132
31355
31143
31092
31330
31244
31025
31080
31388
31182
31238
31164
31200
31020
30908
30852
30717
30647
30486
30641
30530
30362
30264
30326
30081
30086
30133
30100
29898
29819
30057
29805
29820
29840
29707
29797
29689
29680
29650
29690
29558
29624
29289
29457
29322
29468
29393
29350
29175
29342
29302
29112
29166
29378
29177
29202
29198
29155
29241
29301
29254
29461
29345
29431
29399
29436
29465
29630
29689
29770
29905
29833
29973
29915
30035
29939
29984
30165
30285
30065
30003
30067
30161
30294
30121
30091
30146
30223
30442
30514
30452
30535
30468
30170
30488
30277
30493
30295
30294
30381
30473
30506
30296
30517
30668
30631
30698
30476
30528
30581
30632
30569
30736
30673
30733
30777
30885
30700
30795
30926
30757
30847
30736
30809
30819
30960
30943
30888
30964
31010
30868
31019
31074
31055
31003
30817
30919
30907
30827
30911
31112
31145
31072
30864
31043
31114
31056
31058
31081
31025
31081
31026
31129
31134
31155
31110
31111
31033
31174
31107
31269
31109
31139
31060
30972
31087
31141
30854
30687
30579
30697
30489
30271
30232
30171
30335
30017
30149
30023
29934
29971
29868
29715
29709
29771
29502
29485
29501
29512
29486
29273
29504
29202
29443
29271
29297
29349
29365
29265
29182
29209
29356
29321
29381
29307
29266
29114
29115
29245
29092
29270
29401
29291
29271
29555
29321
29596
29520
29829
29697
30020
29825
30035
30025
30028
30118
30394
30401
30115
30388
30384
30329
30262
30278
30462
30467
30467
30389
30609
30676
30543
30610
30634
30514
30752
30724
30747
30643
30712
30684
30546
30762
30715
30847
30581
30750
30734
30978
31075
31018
30949
31091
30830
31012
30972
31128
30977
30957
31020
31122
31088
30889
30955
31220
31151
31126
30987
31203
31100
31187
31297
31177
31175
31152
31006
31071
31039
31300
31052
31277
31141
31312
31065
31218
31309
31156
31172
31292
31325
31098
31316
31244
31354
31081
31100
31169
31167
31391
31105
31174
31061
31171
31124
31223
31394
31296
31236
31306
31282
31335
31326
31162
31153
31208
30997
30796
30829
30686
30630
30547
30487
30260
30053
29899
30035
29900
29849
29696
29661
29737
29527
29338
29352
29288
29324
29157
29171
29145
29076
29115
29041
28997
29044
28947
28967
28809
28859
29005
28868
28969
29020
28958
28888
29038
29006
28860
28841
29119
29170
28971
29197
29130
29370
29401
29587
29511
29605
29730
29949
30061
29948
29976
30250
30218
30163
30109
30426
30264
30253
30266
30457
30215
30484
30250
30405
30479
30299
30491
30392
30415
30412
30380
30384
30441
30322
30434
30593
30574
30645
30501
30428
30600
30435
30621
30608
30507
30664
30512
30718
30525
30686
30693
30454
30738
30448
30570
30638
30554
30443
30559
30485
30681
30687
30569
30494
30433
30654
30535
30637
30588
30686
30735
30572
30760
30620
30725
30656
30670
30741
30918
30806
30746
30796
30797
30822
30819
30850
30821
30883
30915
30943
30863
30929
30867
31044
30820
31056
30761
31022
30726
30953
30601
30809
30471
30549
30450
30362
30026
30046
29800
29632
29582
29507
29468
29217
29104
29176
29113
28967
29060
28959
28872
28838
28716
28774
28626
28755
28459
28420
28464
28381
28447
28414
28427
28408
28373
28257
28411
28315
28284
28409
28450
28245
28362
28303
28372
28203
28359
28507
28386
28455
28543
28434
28569
28578
28784
28972
29066
28894
29059
29369
29173
29485
29506
29610
29603
29531
29753
29701
29589
29619
29478
29663
29535
29686
29681
29820
29875
29951
29912
29868
29811
29871
30040
29911
29918
30067
30084
29912
30094
29986
30227
30112
30282
30351
30120
30273
30237
30103
30260
30278
30341
30351
30330
30282
30382
30251
30278
30218
30240
30428
30416
30514
30403
30431
30477
30286
30490
30428
30569
30421
30584
30600
30586
30654
30616
30672
30570
30714
30883
30670
30871
30824
30716
30864
30909
30842
30617
30801
30798
30879
30923
30847
30765
30910
30766
30871
30889
30866
30796
30730
30970
30979
30946
30992
30734
30634
30604
30501
30435
30321
30208
30123
29954
29902
29839
29720
29462
29516
29265
29159
29269
29020
29094
29105
28996
28847
28789
28969
28918
28833
28755
28602
28596
28772
28574
28576
28614
28478
28596
28399
28318
28514
28326
28514
28525
28381
28408
28306
28559
28302
28321
28363
28493
28683
28519
28560
28633
28698
28794
28922
28897
29027
29042
29128
29197
29325
29349
29435
29472
29440
29532
29574
29531
29642
29704
29682
29720
29649
29714
29670
29645
29634
29915
29643
29945
29926
29859
29902
29970
29970
29973
29924
29996
29959
29971
29981
30033
29979
30025
29934
30084
30190
30134
30125
30084
30290
30296
30305
30342
30296
30292
30259
30302
30331
30274
30387
30295
30341
30338
30303
30369
30393
30376
30375
30392
30438
30482
30383
30469
30495
30475
30601
30253
30357
30455
30427
30485
30530
30389
30597
30492
30659
30692
30521
30699
30715
30733
30516
30575
30578
30555
30516
30633
30792
30529
30437
30651
30733
30382
30357
30304
30408
30263
30032
29849
29796
29566
29592
29503
29319
29070
29034
28980
28830
28814
28641
28691
28781
28562
28628
28492
28232
28456
28345
28253
28112
28180
28283
28248
28068
28361
28035
27988
28066
27979
28160
28102
27966
28320
27965
28025
28027
28316
28159
27963
28347
28109
28264
28298
28287
28464
28332
28635
28513
28677
28659
28819
28871
28884
28957
29077
29002
29105
29114
29262
29170
29208
29274
29178
29326
29487
29435
29311
29474
29539
29523
29406
29553
29687
29590
29701
29828
29788
29710
29847
29701
29859
29970
29778
30121
30157
29887
29934
30004
30170
30264
30329
30134
30424
30166
30328
30275
30366
30509
30392
30345
30399
30613
30399
30573
30401
30303
30376
30392
30555
30286
30543
30563
30502
30345
30332
30204
30224
30417
30432
30355
30215
30372
30439
30477
30394
30458
30239
30204
30210
30454
30236
30473
30326
30400
30472
30425
30382
30645
30430
30661
30610
30491
30402
30355
30307
30387
30430
30265
30280
30017
29887
29823
29611
29607
29390
29380
29303
29204
29148
28939
28940
28800
28900
28838
28740
28840
28616
28790
28496
28367
28616
28569
28618
28572
28554
28296
28461
28344
28564
28288
28327
28395
28177
28444
28397
28365
28457
28479
28284
28215
28442
28277
28445
28429
28404
28423
28592
28536
28771
28870
28749
28785
28991
29168
29002
29085
29427
29446
29369
29445
29295
29473
29394
29561
29732
29593
29502
29559
29678
29768
29627
29881
29841
29831
29812
29702
29905
29797
29864
29796
29882
29956
30027
30023
29778
29783
30089
29829
29887
30083
29844
30010
30008
30016
29950
29972
29930
30209
29930
30212
30103
30216
30014
29988
30201
30352
30211
30032
30179
30281
30308
30369
30265
30209
30377
30213
30120
30207
30481
30308
30444
30271
30501
30296
30200
30224
30515
30261
30213
30511
30531
30380
30403
30442
30590
30677
30498
30558
30710
30743
30552
30557
30690
30851
30854
30569
30620
30585
30755
30604
30565
30590
30566
30231
30093
30130
29827
29853
29709
29848
29758
29485
29604
29674
29458
29506
29342
29199
29210
29120
29085
29170
29007
29031
28776
28735
28693
28716
28599
28513
28427
28532
28350
28366
28308
28223
28355
28265
28216
28286
28316
28155
28302
28270
28124
28370
28329
28159
28314
28528
28589
28480
28451
28772
28883
28756
28848
28915
29154
29292
29201
29341
29464
29398
29327
29576
29652
29600
29415
29643
29585
29464
29601
29476
29644
29446
29672
29842
29721
29528
29756
29553
29760
29952
29901
29657
29944
29890
29726
29850
29738
29973
30146
29911
30126
30046
30212
30041
30078
30044
30167
30188
30105
30293
30224
30182
30238
30167
30324
30210
30427
30555
30536
30313
30572
30609
30563
30697
30654
30456
30633
30665
30568
30656
30436
30610
30510
30555
30788
30532
30776
30501
30479
30497
30648
30613
30577
30876
30652
30886
30804
30975
30748
30701
30821
30988
30789
31008
30837
31025
30726
30768
30775
30640
30485
30599
30572
30411
30307
29982
29854
29883
29767
29532
29574
29305
29315
29315
29270
29251
29160
29353
29156
29218
28982
28827
28896
28806
29074
28755
28739
28943
28855
28794
28853
28747
28579
28566
28490
28619
28714
28440
28529
28620
28734
28568
28675
28473
28649
28451
28629
28720
28622
28858
28738
28902
29132
29098
29171
29375
29259
29449
29572
29603
29822
29691
29890
29816
29760
29980
30035
29961
30067
30145
30114
29932
30209
30202
30277
30076
30111
30379
30361
30121
30337
30139
30271
30601
30296
30519
30329
30551
30678
30597
30712
30610
30495
30701
30790
30715
30654
30875
30996
30687
30703
30920
31062
31012
30962
30955
30983
31116
30843
30922
30938
30723
30834
30911
30784
30889
30698
30824
30642
30811
30889
30820
30628
30839
30916
30774
30865
30859
30685
30934
30772
30935
30615
30651
30642
30919
30641
30898
30777
30817
30871
30878
30685
30618
30757
30803
30750
30993
30847
30988
30912
30953
30869
30831
30738
30855
30908
30726
30793
30811
30504
30469
30428
30158
30097
30082
29773
29579
29464
29585
29306
29464
29054
28950
29079
28871
28841
28705
28996
28921
28949
28759
28610
28687
28735
28612
28649
28510
28404
28556
28502
28515
28486
28600
28432
28240
28412
28525
28448
28282
28558
28458
28518
28520
28458
28768
28539
28688
28932
28858
28835
28993
28962
29137
29070
29361
29380
29295
29391
29371
29475
29436
29364
29664
29500
29519
29434
29660
29491
29531
29683
29611
29596
29589
29557
29639
29799
29665
29704
29720
29925
29771
29964
29760
29868
29777
29967
29995
29921
29898
29815
29978
29875
30041
29959
30027
29983
29965
30229
30254
30187
30311
30094
30359
30162
30119
30179
30226
30440
30401
30259
30435
30348
30391
30446
30431
30408
30416
30442
30554
30587
30570
30550
30613
30595
30541
30659
30757
30674
30533
30672
30868
30697
30800
30755
30645
30671
30934
30619
30855
30629
30689
30979
30940
30912
30896
30875
30898
30938
30927
30957
30683
30948
30626
30668
30634
30463
30317
30267
29978
30108
29938
29804
29543
29723
29680
29306
29514
29223
29180
29093
28982
29206
28934
28815
28851
28955
28936
28885
28716
28807
28587
28500
28795
28612
28780
28802
28822
28762
28656
28576
28633
28568
28394
28538
28672
28458
28439
28628
28457
28556
28793
28848
28808
28816
28973
29232
29092
29175
29356
29312
29473
29389
29499
29459
29619
29599
29707
29570
29585
29684
29524
29715
29861
29729
29869
29783
29901
29818
29701
29702
29715
29976
29757
29748
29731
30065
29936
30048
30036
29969
29834
30143
30065
29906
30103
29985
30074
30123
30105
30020
30216
30175
30188
30249
30297
30221
30266
30309
30041
30140
30059
30086
30169
30258
30162
30222
30314
30307
30247
30322
30197
30265
30358
30263
30423
30320
30432
30251
30130
30257
30203
30334
30324
30287
30301
30274
30278
30374
30315
30318
30324
30448
30402
30294
30440
30327
30493
30416
30468
30275
30068
30085
29989
29707
29723
29653
29598
29337
29142
29224
28942
28908
29010
28850
28881
28855
28569
28550
28531
28649
28375
28299
28425
28552
28310
28492
28313
28386
28200
28400
28284
28090
28158
28168
28070
28291
28343
28158
28246
28252
28114
28326
28259
28131
28171
28167
28114
28270
28516
28534
28503
28453
28547
28587
28642
28655
28823
28813
28853
28880
29091
29137
29109
29201
29195
29233
29343
29034
29252
29372
29347
29363
29223
29448
29519
29355
29333
29454
29757
29547
29803
29502
29629
29886
29727
29646
29788
29783
29814
29843
29787
29945
29816
29816
29970
29942
29850
29968
30068
29995
30066
30006
30042
30095
30185
30091
30079
30250
30035
30162
30344
30335
30229
30428
30213
30279
30322
30264
30293
30308
30478
30335
30345
30285
30396
30512
30428
30422
30425
30529
30618
30481
30500
30554
30694
30722
30559
30510
30737
30555
30591
30590
30604
30758
30723
30768
30663
30581
30671
30592
30785
30610
30635
30333
30323
30253
30174
29960
29945
29600
29594
29589
29361
29180
29172
29159
28939
28987
28810
28779
28842
28822
28693
28518
28564
28448
28585
28487
28559
28681
28422
28458
28384
28590
28419
28348
28251
28179
28384
28267
28310
28310
28113
28096
28060
28067
28061
28320
28168
28203
28444
28379
28336
28412
28563
28540
28536
28633
28670
28765
28749
28890
28963
28937
29061
29143
29210
29203
29172
29265
29522
29362
29291
29423
29548
29418
29238
29311
29336
29552
29292
29360
29473
29546
29431
29521
29450
29527
29600
29592
29472
29524
29690
29792
29767
29776
29718
29859
29668
29818
29988
29845
29924
29895
30090
29959
29836
29991
29811
29865
30025
29912
29953
29873
29922
29852
30003
29864
30100
29883
30067
29971
29959
29966
29971
30257
30026
29981
30286
30134
30083
30200
30267
30182
30204
30051
30177
30279
30219
30327
30330
30258
30118
30204
30165
30287
30343
30328
30404
30402
30134
30334
30061
30042
29851
29821
29707
29535
29322
29312
29192
29087
28906
28948
29131
28903
28908
29009
28908
28878
29012
28893
28751
28852
29088
28825
29015
28870
28821
28767
28809
28688
28832
28784
28667
28668
28707
28609
28719
28678
28878
28710
28673
28767
28679
28777
28708
28951
28741
28767
29087
28875
29243
29138
29069
29105
29418
29455
29461
29403
29532
29635
29506
29442
29597
29557
29578
29773
29668
29550
29506
29592
29757
29582
29636
29732
29522
29722
29561
29810
29615
29663
29923
29781
29879
29862
29918
29871
29993
30064
30091
30152
29938
30157
29929
30256
30130
29959
30131
29989
30180
30122
30311
30251
30087
30284
30345
30184
30240
30224
30445
30413
30305
30167
30161
30436
30183
30400
30243
30394
30442
30227
30410
30225
30457
30340
30470
30436
30244
30341
30416
30344
30288
30431
30230
30395
30307
30491
30370
30586
30578
30369
30403
30449
30414
30565
30423
30393
30325
30431
30361
30342
30365
30086
30073
30027
29841
29718
29585
29378
29301
29082
28891
28978
28831
28865
28715
28707
28833
28699
28686
28611
28668
28437
28556
28475
28530
28364
28382
28396
28457
28194
28298
28394
28249
28317
28278
28380
28246
28178
28285
28116
28045
28160
28116
28093
28284
28107
28060
28232
28361
28292
28325
28321
28683
28508
28773
28658
28853
28827
28834
28955
29135
28961
29100
28994
29112
29098
29195
29280
29492
29345
29603
29623
29543
29540
29496
29666
29598
29729
29596
29725
29795
29767
29846
29817
29726
29997
29776
30009
29896
29772
29921
29726
29829
30065
29889
30053
30047
29813
29934
29789
30011
29972
30172
30034
29976
30092
30198
30183
30230
30016
30266
30061
30288
30251
30139
29984
30232
30298
30207
30271
30308
30303
30133
30356
30237
30342
30290
30065
30207
30040
30241
30152
30248
30193
30141
30147
30217
30321
30298
30156
30112
30340
30325
30345
30327
30425
30287
30153
30283
30277
30078
29870
29928
29914
29727
29587
29426
29141
29069
28996
29001
28695
28649
28797
28479
28498
28379
28502
28519
28299
28212
28172
28113
28088
27977
28180
27985
28143
28113
27962
27859
27979
27740
27833
27681
27733
27591
27563
27806
27568
27768
27585
27731
27671
27545
27647
27596
27622
27585
27739
27861
27760
27659
27878
27882
28043
28001
28115
28062
28062
28319
28501
28346
28442
28338
28334
28576
28424
28604
28614
28762
28543
28475
28532
28829
28639
28849
28854
28856
28909
28907
28850
28998
29076
29223
28943
29002
29279
29087
29312
29150
29293
29219
29232
29222
29167
29313
29391
29314
29409
29507
29555
29493
29353
29384
29575
29400
29593
29641
29488
29729
29555
29508
29639
29785
29535
29591
29829
29706
29755
29539
29592
29842
29648
29616
29803
29829
29920
29878
29995
29916
29949
30019
29911
29804
29954
30001
30008
29980
29906
30098
29980
30140
30109
29927
30141
30205
30058
30148
30074
30232
30216
30198
30216
30139
30151
29936
29753
29807
29594
29536
29319
29166
29300
29081
29048
28889
28963
28841
28821
29049
29022
28734
28916
28753
28751
28967
28890
29008
28717
28763
28797
28671
28783
28779
28766
28836
28561
28701
28753
28865
28675
28924
28798
28934
28806
28795
28867
29008
29004
28992
29070
29098
29288
29500
29425
29452
29722
29670
29880
29872
29810
29884
30164
30137
30296
30031
30199
30085
30248
30352
30193
30119
30390
30155
30447
30273
30365
30269
30501
30401
30516
30518
30279
30244
30305
30536
30350
30514
30399
30440
30396
30556
30344
30523
30408
30554
30479
30470
30646
30560
30639
30587
30584
30807
30644
30616
30698
30551
30761
30694
30679
30705
30733
30861
30714
30736
30765
30715
30718
30766
30733
30832
30809
30921
30744
31006
30931
30756
30747
30894
31050
30811
30969
30786
30991
30737
30896
30840
30839
30888
30825
30971
30950
31045
30869
30904
30948
30984
30992
30908
30878
30880
30954
30739
30493
30599
30483
30195
30181
29975
30045
29887
29862
29707
29497
29297
29275
29254
28911
28743
28889
28909
28792
28539
28518
28499
28620
28534
28456
28525
28381
28378
28429
28353
28386
28242
28308
28126
28324
28362
28264
28289
28078
28065
28293
28351
28181
28100
28159
28100
28228
28129
28423
28476
28464
28453
28500
28579
28706
28711
28752
28683
28842
28832
29005
29035
29064
29069
29171
29285
29353
29198
29226
29235
29455
29337
29263
29499
29550
29553
29441
29517
29494
29649
29595
29797
29773
29817
29737
29918
30013
29903
29997
29854
30047
29990
30025
29941
29934
30070
29928
30003
30198
30195
30277
30272
30220
30311
30226
30130
30293
30367
30438
30173
30294
30177
30442
30539
30298
30384
30283
30322
30387
30332
30590
30453
30440
30486
30492
30481
30751
30506
30594
30518
30570
30830
30717
30608
30786
30582
30704
30597
30719
30595
30723
30725
30718
30677
30699
30635
30722
30719
30661
30726
30662
30561
30496
30443
30330
30239
30140
29976
30065
29935
29791
29690
29492
29470
29361
29375
29347
29140
29241
29142
29147
29141
28947
28968
29015
28937
28993
28933
28910
29041
28929
28994
28882
28815
28791
28995
28824
28941
28755
28955
28775
28811
28762
28915
28874
28760
28823
28935
28910
28811
28997
28917
29000
29035
29093
29146
29386
29362
29366
29554
29628
29718
29510
29599
29791
29853
29730
29895
29992
29709
29736
29786
29743
29976
30020
29722
29998
30065
30004
29981
29998
29948
29833
30102
29965
30047
29947
29954
30170
29990
30291
30191
30265
30214
30220
30174
30056
30339
30146
30231
30200
30192
30316
30152
30285
30314
30428
30256
30370
30575
30585
30497
30375
30313
30384
30704
30680
30471
30418
30681
30764
30739
30744
30663
30688
30693
30879
30571
30840
30592
30850
30699
30850
30707
30850
30902
30840
30664
30868
30800
30831
30710
30670
30630
30742
30725
30721
30777
30872
30837
31018
30851
30908
30765
30820
30736
30794
30690
30617
30290
30071
30191
29949
29956
29697
29745
29707
29684
29534
29328
29554
29381
29458
29510
29391
29329
29100
29123
29253
29057
29079
28882
29058
29050
28895
28809
28914
28838
28733
28952
28894
28822
29011
28801
28766
28993
28843
28989
28865
28906
28874
28949
28957
28957
29024
29158
29161
29176
29212
29278
29492
29436
29372
29499
29569
29607
29513
29606
29757
29822
29854
29861
29734
29847
29791
29775
29798
29977
29857
29962
30014
29868
30109
29922
30170
30228
30107
29928
30062
30182
30275
30069
30116
30089
30269
30291
30115
30326
30410
30331
30319
30374
30356
30382
30363
30304
30393
30361
30471
30523
30466
30688
30548
30463
30668
30458
30483
30407
30685
30589
30635
30683
30493
30660
30590
30573
30745
30650
30681
30839
30798
30850
30645
30659
30577
30842
30782
30848
30720
30832
30711
30771
30733
30941
30899
30704
30988
30963
30882
30846
30768
30865
30737
30850
30951
30703
30763
30501
30533
30239
30053
30285
30115
29828
29725
29840
29848
29459
29519
29669
29417
29473
29410
29265
29251
29255
29169
29319
29219
28960
28932
28951
28835
28969
28945
28933
28960
28854
29045
28784
28944
28772
28967
28902
28770
28811
28992
28860
28785
28714
28836
28772
28936
28896
28953
29127
29155
29043
29291
29245
29315
29517
29496
29596
29735
29675
29473
29637
29769
29743
29652
29675
29764
29895
29758
29854
29807
30056
29923
29919
30066
30083
29993
30108
30031
29954
30190
30092
30020
30012
30061
30173
30096
30400
30383
30216
30128
30329
30511
30431
30175
30285
30439
30341
30476
30417
30572
30349
30546
30541
30473
30548
30663
30366
30618
30383
30633
30779
30677
30819
30771
30544
30794
30668
30669
30755
30624
30815
30952
30790
30955
30823
30903
30846
30936
30826
30813
30782
30992
31003
30877
30870
30963
31172
30964
31004
30917
30936
31194
30979
31054
30913
30981
30968
30856
30867
30580
30708
30420
30453
30390
30137
30237
29961
29816
29879
29692
29789
29620
29436
29607
29317
29448
29450
29296
29188
29137
29140
29247
28946
29190
29155
28940
29059
29069
28914
28834
28864
28705
28836
28923
28905
28949
28921
28884
28908
28823
28927
28879
28796
28995
28968
28856
28912
29145
29134
29164
29445
29274
29479
29475
29666
29635
29503
29569
29826
29607
29759
29732
29879
29708
29728
29823
29772
29981
29771
30004
29928
29970
30048
29955
30039
29979
29847
30015
29855
30029
29951
30169
29988
30024
30108
30015
30079
30043
30312
30160
30189
30167
30332
30458
30334
30408
30443
30214
30273
30448
30346
30528
30554
30516
30281
30491
30532
30526
30422
30526
30366
30497
30675
30553
30393
30753
30520
30612
30724
30444
30488
30481
30702
30602
30759
30717
30778
30853
30846
30882
30692
30929
30893
30904
30786
30881
30983
30818
30994
30780
31041
30772
30924
30980
30838
31031
30984
30787
30684
30581
30809
30757
30435
30201
30361
30201
30090
29854
29832
29692
29723
29629
29536
29585
29572
29403
29331
29250
29294
29124
28940
29206
28955
29105
29072
28986
29021
28827
28866
28955
28778
28568
28726
28721
28719
28669
28612
28481
28752
28665
28487
28707
28668
28794
28521
28711
28733
28707
28751
28855
29105
29130
29009
29193
29099
29396
29540
29371
29605
29416
29561
29576
29702
29726
29718
29742
29788
29887
29820
30022
29865
30041
29837
30001
29833
30104
30101
30028
29955
30029
30158
30104
29964
30245
30336
30107
30323
30367
30414
30305
30456
30555
30527
30434
30375
30562
30612
30486
30524
30483
30522
30678
30646
30522
30779
30780
30730
30666
30617
30766
30642
30762
30758
30788
30709
30754
30814
30827
30870
30959
30874
30907
30919
31072
31020
31139
31106
31180
31088
30966
30943
31128
31177
31062
30954
31169
31100
31043
31268
31086
31112
31195
31057
31326
31237
31129
31375
31145
31138
31093
31262
31236
30887
30871
30941
30726
30717
30523
30507
30363
30513
30143
30322
30331
30240
30296
30367
30200
29982
30101
29904
29977
29870
29908
29997
30011
29944
30005
29905
29725
29848
29834
29880
29979
29756
29622
29794
29671
29809
29612
29892
29891
29926
29973
29926
29749
30114
29879
29960
30088
30242
30120
30181
30089
30309
30154
30186
30329
30154
30506
30236
30548
30391
30558
30448
30355
30423
30660
30435
30664
30526
30663
30671
30662
30540
30616
30714
30654
30565
30644
30842
30761
30807
30728
30697
30818
30652
30797
30801
30922
30982
30913
30988
30909
31013
31109
31123
30985
30960
31006
31240
31177
31089
31340
31112
31338
31199
31245
31213
31113
31335
31322
31404
31204
31435
31223
31463
31409
31288
31321
31408
31430
31307
31272
31325
31275
31373
31199
31353
31370
31259
31432
31348
31485
31446
31191
31457
31421
31232
31319
31466
31365
31489
31236
31446
31400
31365
31370
31363
31296
31278
31093
30985
30932
30922
30708
30491
30648
30543
30287
30293
30030
30277
30204
30134
29891
30048
29814
29990
29764
29702
29723
29778
29646
29526
29515
29368
29434
29437
29398
29338
29366
29348
29270
29382
29363
29356
29512
29433
29232
29496
29417
29626
29502
29519
29549
29810
29641
29878
30128
30007
29963
30219
30225
30296
30227
30318
30281
30410
30396
30629
30439
30614
30659
30414
30586
30510
30422
30604
30741
30563
30541
30652
30636
30617
30620
30632
30604
30669
30732
30698
30750
30748
30790
30966
30790
30827
30839
31088
31028
30960
30972
30844
30981
31128
30939
30878
31057
30979
31125
30920
31004
30875
30957
30994
30875
30915
31247
30929
31204
30857
30886
31148
31084
31228
31094
31036
31174
30932
31137
31232
31074
30995
31208
31110
30976
31139
31089
31236
30994
31203
31140
31084
31087
31282
31363
31147
31096
31162
31086
31117
31215
31053
31271
31054
31230
31366
31294
31144
31056
31212
31042
30925
30996
30697
30838
30594
30718
30588
30426
30211
30135
30220
30209
30120
29815
29836
29787
29915
29751
29751
29608
29818
29659
29552
29495
29377
29483
29643
29327
29382
29374
29346
29401
29413
29294
29385
29350
29470
29267
29389
29449
29353
29625
29338
29419
29620
29680
29679
29781
29688
29679
29641
29724
29746
30008
30149
29920
30244
30092
29921
30078
30347
30143
30103
30413
30290
30461
30286
30320
30269
30391
30381
30297
30375
30317
30376
30438
30392
30413
30535
30530
30285
30431
30580
30485
30623
30514
30758
30502
30649
30641
30840
30740
30853
30718
30925
30819
30694
30706
30764
30794
30777
30700
30744
30825
30849
30736
30810
31077
30894
31144
31032
31173
30931
31149
30929
31104
31128
30955
31071
31040
30949
31116
31200
30980
31072
31232
30976
31158
31066
31108
31199
31231
31129
30948
31100
31183
30981
31003
31208
31169
31145
31085
31282
31159
31253
31149
30971
31068
31160
30859
30821
30937
30624
30635
30362
30423
30381
30243
30231
30136
29994
29951
29879
29844
29915
29811
29630
29771
29474
29391
29432
29622
29441
29427
29561
29405
29431
29305
29291
29342
29276
29329
29410
29264
29299
29444
29357
29271
29417
29266
29472
29562
29446
29377
29582
29775
29589
29609
29694
29824
29827
30040
30154
30035
29963
30210
30025
30163
30083
30146
30365
30446
30368
30383
30342
30423
30266
30442
30284
30429
30360
30359
30563
30326
30375
30480
30461
30594
30553
30355
30397
30498
30664
30531
30409
30518
30576
30704
30602
30697
30498
30816
30547
30869
30699
30660
30803
30796
30906
30970
30849
30819
30909
30979
30794
30907
30784
30714
30919
30803
30797
30845
31037
30918
30743
30887
30694
31006
30809
30875
31092
31071
31034
31115
31232
30960
31024
31172
31038
30972
31187
31186
31140
31328
31147
31236
31077
31310
31250
31245
31206
31227
31147
31139
31303
31096
31193
30980
30784
30799
30908
30767
30547
30423
30587
30489
30363
30232
30004
30007
30048
30096
30061
29865
29855
29762
29781
29632
29820
29580
29787
29569
29505
29572
29576
29537
29664
29490
29477
29388
29201
29419
29360
29359
29406
29202
29095
29261
29237
29387
29246
29406
29415
29369
29387
29319
29370
29631
29575
29852
29675
29889
29861
29925
29951
29896
29840
30076
30005
30177
30128
30157
30298
30146
30157
30288
30211
30182
30355
30178
30391
30208
30292
30548
30384
30453
30400
30552
30501
30532
30478
30560
30762
30688
30506
30737
30552
30781
30774
30859
30924
30805
30917
30892
30604
30702
30795
30704
30895
30747
30835
30626
30838
30986
30822
30797
30773
31000
30860
30862
30740
31011
30996
31038
31073
30867
30770
30948
31067
30980
31121
31039
30924
31067
31090
31070
30920
31008
31166
31150
31001
30895
30890
31025
31033
31164
31051
30835
31154
31115
31136
31065
31183
31082
31187
31047
30927
30934
30870
30887
31008
30678
30816
30684
30303
30274
30395
30381
30094
29961
29946
29857
30014
29842
29957
29644
29838
29887
29623
29556
29700
29770
29668
29815
29783
29624
29781
29565
29756
29661
29454
29733
29786
29776
29832
29730
29715
29581
29473
29539
29583
29831
29737
29831
29670
29851
29769
29984
29905
29884
29857
29958
30045
30101
30321
30255
30231
30443
30320
30418
30547
30376
30576
30570
30607
30422
30296
30598
30346
30375
30511
30536
30403
30583
30622
30633
30446
30492
30472
30627
30658
30480
30530
30494
30701
30659
30510
30634
30821
30670
30714
30741
30628
30707
30744
30640
30718
30737
30660
30673
30694
30582
30671
30569
30707
30670
30630
30873
30751
30753
30873
30697
30737
30639
30933
30987
30706
30805
30972
30904
30719
30880
30959
30801
30745
30766
30996
30780
30849
30939
30857
30859
31054
30975
30850
30970
31048
30881
30895
30790
30956
30796
30959
31154
30985
30996
30912
30922
31004
30923
30796
30832
30904
30687
30729
30440
30306
30228
30003
29942
30075
29840
29920
29805
29586
29436
29574
29485
29410
29168
29145
29105
29177
29328
29137
29101
28983
29162
29087
28989
29031
28900
28964
29011
28838
28976
28876
28959
28737
28747
28720
28885
28844
28722
28921
29029
28975
28945
29021
29177
29148
29028
29268
29227
29432
29530
29572
29543
29817
29709
29891
29832
29935
29864
29698
29941
29761
29863
30096
29946
30016
29932
30218
29912
30187
30133
30199
30052
30092
30030
30307
30323
30235
30300
30071
30046
30214
30358
30177
30255
30375
30422
30478
30365
30464
30382
30289
30356
30528
30461
30395
30421
30504
30614
30492
30386
30426
30627
30679
30732
30493
30691
30500
30400
30600
30476
30515
30718
30490
30534
30456
30618
30597
30663
30479
30733
30661
30623
30560
30595
30538
30770
30907
30714
30935
30852
30674
30599
30692
30570
30776
30568
30736
30805
30776
30679
30754
30754
30649
30632
30441
30526
30548
30420
30175
30243
29943
30092
29709
29713
29539
29477
29535
29165
29093
28894
28877
28813
28705
28859
28692
28665
28505
28501
28319
28208
28427
28367
28184
28141
28060
27972
28044
28118
28217
27986
28008
27926
27787
27850
28060
27969
28031
28040
27922
27780
27875
27771
28008
28062
28050
28176
28117
28214
28312
28340
28306
28497
28525
28443
28691
28554
28456
28612
28821
28689
28475
28780
28804
28724
28841
28807
28622
28745
28922
29006
28844
29114
29054
29158
29057
29271
29265
29197
29268
29267
29389
29544
29444
29563
29379
29658
29657
29560
29783
29594
29707
29585
29556
29624
29654
29689
29671
29815
29857
29712
29773
29754
29801
29805
29924
29985
29952
30111
30065
29868
29957
30108
29945
30087
30025
30059
30079
30079
30046
30312
30093
30236
30428
30201
30144
30207
30353
30196
30342
30254
30353
30457
30470
30470
30456
30356
30704
30779
30623
30643
30740
30830
30583
30615
30498
30616
30280
30361
30366
30184
30297
29965
30090
29875
29716
29666
29747
29649
29614
29521
29537
29272
29082
29201
29168
29049
29128
29098
28816
28806
28988
28960
28684
28844
28721
28573
28684
28751
28845
28638
28590
28703
28722
28664
28569
28668
28523
28841
28721
28726
28811
29013
28967
29136
29106
29060
29281
29235
29301
29646
29597
29702
29782
29562
29719
29895
29708
29848
29759
29809
29761
29863
30124
29827
30055
29852
30163
30089
29998
30134
30177
30086
29898
30120
30191
30157
30105
29953
30200
30169
30293
30288
30186
30387
30236
30050
30116
30399
30074
30252
30092
30277
30216
30345
30074
30360
30487
30290
30499
30365
30373
30284
30336
30291
30412
30535
30403
30552
30521
30249
30454
30607
30588
30590
30414
30425
30517
30611
30572
30787
30572
30627
30613
30684
30722
30651
30541
30568
30508
30709
30672
30658
30653
30733
30684
30780
30643
30698
30672
30806
30718
30874
30659
30592
30539
30656
30598
30393
30220
30259
30269
30141
30181
29803
29885
29563
29567
29662
29557
29278
29188
29262
29012
29174
29057
29107
28962
29009
28801
28884
28765
28589
28771
28711
28713
28739
28534
28488
28433
28419
28597
28529
28277
28528
28568
28557
28516
28624
28546
28599
28730
28745
28678
28868
28739
28816
28952
28972
29069
29082
29328
29203
29341
29522
29481
29444
29635
29754
29553
29463
29688
29655
29761
29810
29655
29880
29578
29835
29747
29785
29839
29688
29988
29914
29891
29716
29945
30022
29986
29963
30077
30136
29967
29901
30034
30209
30071
30130
30072
30205
30355
30140
30058
30357
30135
30169
30223
30422
30211
30391
30342
30242
30426
30518
30467
30244
30466
30536
30420
30451
30441
30688
30484
30594
30453
30785
30454
30616
30644
30679
30711
30757
30761
30568
30461
30717
30874
30786
30804
30626
30628
30745
30788
30733
30650
30653
30681
30714
30741
30872
30792
30875
30778
30571
30583
30711
30737
30695
30418
30258
30216
30189
30146
30049
29977
29759
29541
29619
29398
29438
29421
29298
29151
29025
29049
28832
28966
28679
28862
28893
28722
28531
28798
28474
28619
28368
28400
28271
28312
28246
28514
28502
28510
28328
28312
28312
28143
28291
28197
28324
28509
28417
28605
28661
28754
28568
28641
28639
28901
28971
29061
29000
29251
29333
29312
29450
29541
29369
29497
29448
29571
29711
29790
29781
29597
29702
29863
29642
29905
29724
29877
29777
29974
29836
30036
29955
29749
30090
30068
29795
29826
29846
29842
29869
29959
29977
29887
29918
30118
30011
29917
30165
29893
29953
29904
30011
29906
30202
30219
30239
30275
30246
30100
30127
30299
30280
30113
30439
30312
30302
30335
30268
30400
30578
30471
30516
30442
30592
30609
30613
30549
30729
30602
30660
30468
30602
30765
30660
30425
30553
30760
30522
30569
30534
30771
30517
30465
30729
30511
30787
30512
30645
30764
30581
30493
30438
30322
30322
30166
30068
30015
30127
29948
29801
29654
29455
29480
29221
29397
29189
28875
28959
28942
28814
28849
28651
28627
28547
28516
28591
28492
28368
28388
28352
28390
28508
28439
28458
28402
28098
28370
28076
28038
28348
28195
28334
28023
28222
28104
28262
28261
28094
27990
28249
28253
28198
28355
28505
28578
28594
28629
28895
28748
28946
28952
28865
28870
29038
29088
29231
29048
29129
29227
29171
29182
29194
29429
29217
29461
29260
29157
29247
29452
29312
29546
29503
29505
29561
29395
29622
29529
29432
29586
29565
29590
29468
29685
29735
29633
29600
29794
29830
29732
29876
29783
29729
29955
29927
29750
29935
29942
30088
29930
30097
30065
30195
30020
30165
30269
30153
30364
30365
30124
30387
30264
30139
30398
30394
30412
30281
30442
30489
30593
30568
30550
30509
30663
30552
30655
30609
30465
30611
30750
30610
30592
30545
30577
30705
30768
30750
30818
30732
30769
30521
30532
30475
30431
30482
30317
30197
30233
30158
29930
29832
29909
29758
29607
29425
29398
29480
29348
29329
29301
29182
29088
28961
28966
28800
28656
28580
28646
28499
28584
28363
28523
28336
28446
28289
28344
28436
28399
28337
28237
28312
28319
28330
28256
28270
28342
28249
28316
28323
28337
28404
28382
28366
28690
28619
28866
28714
29026
29069
29142
29021
29198
29293
29428
29211
29478
29381
29473
29581
29444
29777
29492
29476
29784
29673
29571
29690
29765
29827
29844
29835
30000
29914
30072
30008
30076
29979
30059
29992
30147
30190
30139
30301
30256
30392
30340
30487
30256
30488
30230
30237
30294
30516
30433
30376
30549
30483
30343
30365
30412
30427
30670
30631
30569
30533
30618
30553
30598
30625
30695
30654
30501
30654
30580
30766
30620
30675
30878
30644
30842
30908
30844
30864
30784
30638
30816
30793
30977
30814
30749
30854
30781
30891
30849
30893
30801
30812
30903
30801
30972
30857
30750
30999
30769
30836
30758
30782
30882
30693
30671
30449
30353
30241
30178
30337
29954
29991
29858
29937
29711
29638
29681
29551
29424
29326
29226
29385
29233
29313
29128
29218
29072
28887
28933
29124
28954
29049
28863
28974
28824
29003
28796
28828
28935
28727
28712
28702
28702
28918
29004
28816
28756
29094
29137
28931
29022
29029
29215
29418
29518
29558
29434
29493
29798
29675
29694
29961
29885
29893
29950
29775
30102
30116
30082
30058
30142
30103
29996
30154
29938
30129
30063
30237
30290
30298
30035
30208
30413
30140
30232
30361
30325
30383
30181
30236
30274
30441
30445
30476
30369
30256
30444
30454
30540
30623
30427
30538
30390
30579
30522
30539
30458
30552
30472
30525
30657
30453
30636
30665
30387
30446
30412
30487
30711
30437
30656
30824
30644
30519
30792
30764
30713
30710
30727
30976
30819
30779
30954
30776
30826
30945
31014
30959
30842
31006
30969
31069
31159
31081
31122
31122
30951
30935
30956
31030
30927
31132
30940
31128
30987
31080
30675
30905
30691
30402
30418
30401
30402
30230
30003
30024
30065
29881
29663
29805
29773
29691
29709
29592
29352
29463
29239
29155
29142
29102
29185
29157
29043
28862
28897
28990
29002
28701
29020
28717
28791
28861
28964
28844
29016
28820
28792
28942
28725
28920
28756
28957
28984
29181
29095
29081
29114
29445
29526
29509
29473
29536
29702
29771
29808
29814
29868
29812
29812
29835
29874
29929
29971
30003
29986
30036
30025
29872
30069
30118
30092
30139
30248
30138
30195
30158
30179
30275
30227
30278
30338
30315
30317
30338
30340
30391
30411
30220
30427
30473
30599
30456
30510
30409
30525
30538
30605
30657
30616
30613
30630
30757
30689
30594
30542
30658
30594
30637
30750
30864
30753
30676
30775
30840
30738
30702
30711
30747
30761
30752
30750
30843
30826
30849
30877
30814
30693
30853
30902
30862
31032
30754
31024
31028
30833
30976
30826
30855
30794
30832
31012
30911
30663
30914
30781
30796
30754
30645
30623
30323
30260
30113
30159
30162
29889
29893
29775
29736
29555
29516
29595
29421
29239
29311
29061
29135
28903
29096
29121
29037
28940
28870
29006
28746
28901
28708
28893
28761
28749
28704
28765
28743
28785
28823
28995
28988
29008
29150
29152
29057
29031
29149
29337
29288
29616
29630
29756
29752
29806
29873
29925
29987
30069
29940
30178
30314
30299
30158
30365
30510
30477
30323
30538
30406
30625
30502
30488
30620
30574
30609
30789
30570
30773
30587
30760
30592
30844
30844
30923
30737
30549
30720
30758
30725
30630
30945
30702
30906
30900
30945
30754
30681
30858
30772
30718
30884
30898
30792
30862
30685
30829
30690
30757
30803
30933
30779
30610
30669
30915
30638
30675
30778
30799
30945
30663
30928
30901
30743
30929
30940
30969
30700
30725
30683
30992
30804
31016
30922
30786
30836
30808
30979
30909
30899
30805
31056
31134
30984
30830
30864
30816
30897
30968
30882
30778
31054
31026
30802
30896
30968
30633
30626
30472
30233
30189
30294
30177
29932
30005
29774
29987
29755
29793
29563
29454
29534
29352
29439
29403
29212
29133
29090
29070
29151
28948
28910
28955
29034
28945
28868
28934
28753
28859
28780
28682
28615
28737
28824
28632
28663
28718
28959
28738
28971
29004
29002
28908
29105
28993
29264
29363
29372
29583
29607
29628
29493
29720
29549
29736
29839
29864
29911
30032
30057
29943
30049
29946
30179
30167
30014
30101
30111
30058
30129
30223
30307
30137
30404
30466
30315
30524
30256
30561
30300
30556
30300
30561
30492
30450
30379
30406
30491
30626
30693
30586
30650
30539
30668
30514
30578
30623
30691
30632
30677
30705
30713
30779
30722
30701
30745
30610
30852
30857
30916
30934
30762
30906
31069
30807
30787
30963
30813
30900
31058
31094
30988
31037
31108
31121
30937
30931
31141
31050
30937
31007
31095
30967
31082
31074
31160
31157
31059
31029
31048
30928
31047
31053
31221
31188
31169
31087
31148
30877
31032
31020
30657
30820
30802
30602
30349
30470
30055
30087
30181
29858
29914
29645
29685
29693
29383
29237
29252
29239
28943
28843
28843
28797
28680
28864
28731
28644
28802
28630
28461
28589
28441
28495
28513
28407
28445
28447
28493
28455
28408
28267
28401
28266
28394
28355
28395
28287
28388
28520
28512
28837
28655
28752
28908
29055
29066
29238
29302
29424
29299
29439
29284
29493
29332
29558
29392
29354
29619
29363
29419
29680
29527
29500
29514
29430
29728
29644
29788
29478
29797
29623
29665
29824
29666
29779
29661
29854
29824
29875
30020
29957
30097
30015
29711
30082
29771
29856
30067
29932
30025
30155
30112
30038
29982
29964
30040
29957
29969
29931
30197
30217
30028
30239
30199
30177
30179
30118
30047
30231
30071
30304
30108
30212
30360
30390
30457
30338
30481
30452
30543
30302
30259
30317
30283
30284
30307
30476
30378
30604
30357
30316
30461
30306
30354
30398
30410
30529
30665
30499
30482
30562
30712
30585
30437
30505
30503
30458
30439
30208
30162
30026
29977
29731
29749
29671
29586
29378
29156
29239
29150
29257
28909
28872
29003
28958
28860
28821
28848
28786
28843
28737
28742
28545
28839
28810
28475
28687
28706
28729
28474
28593
28567
28627
28553
28691
28546
28587
28477
28450
28708
28645
28776
28717
28737
28938
28854
28763
28963
29078
28962
29304
29138
29296
29218
29405
29414
29457
29523
29539
29542
29522
29611
29558
29635
29657
29602
29804
29607
29497
29774
29544
29836
29539
29844
29736
29785
29784
29891
29972
29760
29929
29887
29941
30068
29939
30214
29956
30086
30236
30231
30052
30212
30051
30133
30164
30241
30185
30314
30399
30278
30334
30227
30482
30402
30319
30434
30219
30360
30398
30534
30382
30392
30349
30534
30377
30275
30457
30639
30559
30667
30410
30713
30509
30386
30444
30429
30521
30663
30585
30511
30717
30548
30682
30566
30485
30512
30661
30605
30616
30667
30624
30484
30686
30515
30636
30578
30625
30591
30709
30598
30577
30701
30595
30641
30628
30569
30343
30561
30461
30203
30142
30087
29924
29792
29858
29721
29887
29829
29743
29599
29633
29337
29293
29290
29321
29426
29381
29181
29104
29296
29220
29153
29193
29008
28925
29047
29053
29058
28894
29068
29139
29071
28939
29003
28948
29172
29098
28983
29298
29279
29424
29473
29322
29297
29425
29444
29512
29904
29807
29631
29913
29878
29969
29903
29873
30095
30196
30125
30107
30306
30039
30207
30262
30409
30315
30276
30422
30477
30365
30402
30477
30601
30535
30364
30611
30803
30632
30498
30777
30570
30869
30923
30900
30667
30919
30768
30847
30912
31018
30909
31117
30914
31019
31231
31122
31238
31276
31266
31022
31265
31028
31057
31183
31305
31214
31000
31228
31021
31250
31192
31080
31052
31050
31322
31276
31084
30942
31090
31107
31243
31343
31148
31003
31025
30972
31252
31133
31054
31001
31081
31152
31330
31102
31114
31143
31338
31203
31028
31093
31060
31237
31044
31251
31365
31279
31410
31336
31267
31364
31312
31066
31070
31267
30944
31129
30853
30779
30752
30735
30745
30597
30455
30464
30307
30246
30137
30150
29884
29968
30086
30006
29757
29705
29618
29730
29716
29451
29563
29738
29571
29510
29399
29217
29317
29453
29361
29244
29176
29175
29229
29149
29309
29257
29144
29328
29440
29343
29270
29501
29513
29411
29749
29659
29674
29649
29623
29952
29939
29788
29829
29856
30019
29911
30131
30049
30123
30064
30054
30248
30049
30065
30075
30179
30209
30306
30332
30304
30480
30304
30423
30241
30284
30303
30223
30541
30433
30366
30278
30574
30473
30575
30562
30644
30551
30550
30678
30726
30668
30663
30564
30705
30692
30701
30598
30822
30774
30796
30611
30709
30583
30822
30945
30756
30853
30863
30667
30773
30816
30883
30854
30856
30759
30944
30703
30905
30899
30651
30713
30765
30851
30813
30797
30846
30870
30767
30780
30844
30830
30794
30633
30837
30939
30659
30834
30824
30979
30712
30905
30985
30752
30878
30749
30703
30819
30783
30795
30894
30779
30799
30792
30632
30484
30649
30598
30495
30124
30246
30212
29916
29769
29944
29752
29660
29682
29347
29556
29416
29196
29073
29150
28951
29065
28960
28977
29009
28884
28930
28924
28785
28895
28677
28669
28785
28631
28707
28721
28699
28754
28693
28720
28765
28775
28836
28686
28925
29013
28989
29285
29219
29141
29242
29554
29406
29474
29668
29729
29637
29843
29874
30037
30069
29882
29899
30110
29921
30087
30000
30325
30373
30227
30394
30358
30328
30153
30208
30351
30342
30554
30487
30243
30408
30596
30373
30415
30379
30509
30736
30516
30675
30562
30589
30642
30760
30720
30689
30753
30699
30713
30764
30905
30816
30882
30755
30795
30969
31013
30857
30770
30901
31044
30831
31065
31149
30896
30894
31051
30907
31064
31223
31096
31156
31101
31313
31122
31023
31282
31261
31288
31172
30995
31229
31303
31276
31319
31282
31164
31147
31270
31233
31294
31228
31334
31358
31402
31310
31281
31149
31222
31120
31407
31303
31317
31088
31188
31453
31219
31369
31162
31127
31187
31195
31089
31039
30989
30933
30706
30789
30666
30729
30558
30465
30400
30365
30390
30318
30166
30309
30245
30272
30141
29885
30064
29789
30069
29896
29767
29676
29886
29808
29905
29868
29768
29631
29817
29677
29762
29697
29858
29788
29603
29847
29832
29742
29876
29778
29882
29836
30042
29965
30097
30024
30269
30245
30215
30245
30417
30605
30544
30455
30691
30599
30462
30630
30855
30667
30666
30620
30624
30906
30954
30937
30658
30742
30909
30991
30824
30897
30821
30806
30808
30785
30848
31089
31046
30817
31010
30848
30895
31135
31048
30969
31116
31101
31105
31227
31113
31263
31268
31159
31262
31132
31166
31272
31122
31064
31196
31135
31274
31027
31066
31188
31043
30901
30911
30944
31112
30817
31040
30870
31027
31122
31016
31068
30992
31080
31313
31215
31228
31093
30975
31079
31060
31097
31011
31215
31255
31192
31174
31182
31152
31330
31121
31238
31104
31113
31192
31058
31120
30942
31084
30836
30805
30861
30810
30752
30492
30679
30418
30313
30303
30410
30306
30031
30235
30096
29881
29897
29978
29942
29687
29619
29794
29797
29538
29579
29718
29434
29630
29544
29364
29310
29290
29286
29221
29370
29029
29152
29170
29244
29018
29054
29202
29285
29006
29297
29057
29236
29195
29322
29403
29401
29472
29741
29691
29498
29881
29682
29856
30068
29919
29969
30035
30083
30067
30262
30200
30266
30184
30301
30116
30240
30339
30325
30454
30206
30392
30431
30463
30293
30378
30344
30445
30290
30520
30690
30552
30500
30593
30603
30815
30718
30806
30655
30820
30851
30754
30733
30852
30830
30852
30886
30970
30778
30749
31070
30926
30904
30821
30899
31099
31040
31160
31060
31014
30948
31135
31006
31137
30960
31024
31045
31135
31116
31191
31175
31291
31125
31276
31262
31152
31108
31171
31099
31326
31235
30995
31268
31260
31209
31046
31251
31263
31101
31268
31416
31284
31099
31258
31393
31332
31321
31361
31256
31408
31255
31382
31327
31282
31202
31114
31010
31148
30838
30786
30719
30693
30787
30426
30380
30368
30195
30264
30282
30131
30032
30104
30243
30031
29909
30083
29828
29929
29974
30015
29853
29927
29730
29633
29718
29664
29685
29820
29643
29805
29570
29528
29470
29481
29566
29527
29568
29731
29648
29710
29515
29721
29635
29816
29876
29822
30092
30142
30266
30225
30280
30297
30127
30383
30446
30383
30469
30452
30360
30524
30518
30339
30642
30569
30435
30581
30502
30691
30693
30607
30719
30596
30478
30639
30544
30650
30753
30737
30638
30788
30891
30846
30789
30658
30773
30924
30854
30798
30843
30726
30847
30823
30948
30984
30716
30679
30774
30743
30878
30905
30883
30837
30850
30918
30924
30894
30921
30912
30924
31116
30776
30969
30957
30968
30983
31123
30891
30971
31139
30989
31096
31142
30979
30937
31028
31025
31021
31004
30938
30946
30998
30962
30955
30999
30923
30994
30971
30954
30991
31020
31065
31090
30935
30951
31053
31153
31053
30804
30990
30789
30715
30551
30674
30628
30658
30610
30456
30363
30272
30348
30052
29957
30027
29887
30049
30021
29841
29752
29860
29732
29891
29768
29840
29762
29458
29733
29508
29640
29420
29375
29331
29173
29301
29317
29363
29239
29310
29153
29247
29192
29132
29240
29349
29421
29401
29398
29738
29579
29611
29751
30047
30000
30151
30006
30222
30214
30188
30100
30224
30154
30360
30244
30269
30217
30348
30471
30356
30395
30409
30403
30475
30443
30414
30497
30692
30487
30407
30623
30611
30567
30508
30603
30734
30799
30608
30654
30568
30568
30558
30730
30621
30574
30603
30832
30862
30572
30865
30910
30843
30814
30634
30726
30741
30739
30880
30783
30927
30843
30718
30914
30712
30886
30901
30840
30951
30864
30980
30974
31059
30775
30854
30956
30944
30956
30959
30961
30949
30964
30985
30968
31016
30975
30981
31020
30973
31159
30993
30984
30993
31042
31051
31039
31011
31018
31020
31030
31034
31013
30936
30954
30902
30890
30862
30743
30677
30610
30517
30529
30436
30197
30316
30076
30151
30089
29929
29983
29762
29776
29704
29643
29623
29629
29604
29614
29496
29542
29578
29501
29356
29571
29667
29525
29531
29422
29295
29292
29299
29545
29426
29371
29350
29347
29322
29351
29385
29320
29349
29348
29436
29451
29498
29538
29631
29751
29617
29771
29972
29729
29958
29970
30161
30085
29924
30027
30025
30054
30144
30079
30078
30052
30050
29968
30169
30012
30073
30050
30240
30158
30244
30177
30363
30189
30154
30344
30333
30326
30198
30344
30494
30329
30503
30502
30502
30644
30456
30565
30634
30634
30531
30589
30722
30509
30748
30625
30759
30732
30611
30797
30754
30816
30941
30804
31021
30910
30817
30965
30959
30940
30984
30972
31012
31186
30975
30916
31040
30983
31077
31093
30940
30836
30943
30846
30929
30972
31074
30981
31045
31152
30797
30963
31121
30906
31131
31112
31010
30864
30849
30911
30856
30867
31073
31019
30889
30988
30983
30726
30926
30700
30705
30679
30468
30467
30372
30220
30157
30074
29990
30086
29999
29741
29857
29629
29515
29487
29486
29392
29430
29290
29259
29215
29157
29126
29056
29057
28978
28804
28989
28884
28888
29058
28799
28904
28718
28792
28807
28880
28783
28661
29005
28795
28781
28871
28806
28876
29102
28971
28982
29237
29086
29417
29569
29409
29412
29717
29559
29670
29747
29928
29795
29885
29909
29764
29832
29844
29968
29880
30059
29980
30076
29901
30139
30028
29918
30002
29928
30223
30150
30168
30140
30060
30044
30305
30158
30316
30346
30291
30153
30166
30235
30137
30282
30295
30454
30469
30333
30305
30393
30285
30540
30465
30404
30488
30325
30529
30656
30415
30510
30453
30369
30491
30618
30582
30509
30501
30625
30744
30649
30825
30701
30461
30550
30693
30642
30665
30799
30800
30751
30786
30866
30852
30721
30726
30760
30871
30908
30907
30899
30915
30869
30912
30908
30889
30880
30906
30875
30789
30987
30783
30718
30740
30678
30591
30518
30424
30333
30260
30159
30043
29964
29887
29819
29661
29647
29570
29401
29382
29511
29316
29363
29146
29099
29147
29136
28906
29013
28742
28689
28719
28808
28652
28713
28754
28775
28621
28695
28741
28720
28596
28680
28811
28892
29000
28863
28840
28995
29247
29257
29405
29506
29410
29450
29592
29655
29754
29733
29732
29811
29731
29822
29764
29921
29833
29941
29792
29986
30111
30035
29958
29988
29903
29953
29952
30238
30283
30032
30216
30147
30244
30304
30256
30102
30178
30159
30371
30171
30347
30208
30409
30384
30501
30265
30357
30440
30484
30374
30357
30556
30273
30391
30304
30301
30607
30403
30418
30398
30414
30429
30649
30495
30647
30592
30542
30709
30704
30795
30591
30581
30592
30746
30756
30688
30932
30676
30563
30761
30844
30708
30851
30784
30897
30832
30841
30884
30846
30891
30899
30788
30889
30812
30896
31047
30970
31001
31001
30734
31016
30989
30974
30812
30761
30761
30557
30560
30720
30588
30619
30462
30435
30355
30248
29908
29768
29874
29795
29680
29798
29648
29638
29465
29434
29147
29243
29061
29137
29169
29033
28960
28922
28881
28847
28787
28717
28762
28627
28693
28673
28620
28634
28619
28553
28640
28683
28638
28528
28541
28734
28623
28820
28782
28843
28891
28903
29070
29085
29290
29311
29309
29437
29473
29558
29605
29690
29852
29600
29696
29705
29680
30007
29938
29989
29987
29860
29988
29962
30009
30093
30011
30096
30170
30181
30003
30187
30111
30193
30118
30175
30114
30368
30170
30153
30468
30347
30229
30415
30375
30350
30475
30461
30307
30314
30406
30307
30416
30424
30610
30512
30568
30434
30629
30461
30755
30627
30778
30561
30852
30784
30854
30657
30567
30605
30840
30629
30856
30891
30776
30952
30815
30989
30845
30931
30875
31033
30878
30807
30841
30947
31075
31031
31078
30992
30965
30933
31115
30974
31081
31002
31124
30947
30859
31006
30989
30757
30983
30635
30803
30618
30672
30544
30483
30158
30184
30063
29889
30137
29745
29719
29818
29561
29472
