35638
35553
35501
35383
35258
35175
35040
34990
34937
34789
34703
34663
34621
34564
34447
34419
34431
34426
34449
34420
34422
34503
34511
34542
34589
34627
34710
34747
34784
34859
34870
34928
34970
34957
35018
35076
35111
35177
35199
35241
35276
35329
35414
35415
35451
35565
35572
35609
35679
35707
35767
35801
35825
35892
35938
36042
36100
36091
36146
36193
36253
36363
36410
36475
36510
36521
36607
36659
36679
36717
36707
36776
36849
36875
36966
37026
37043
37077
37076
37145
37203
37211
37264
37302
37372
37459
37438
37496
37585
37594
37635
37687
37749
37818
37812
37861
37908
37916
37971
37985
38015
38116
38157
38227
38292
38317
38368
38373
38417
38524
38523
38545
38593
38619
38674
38678
38696
38769
38765
38798
38828
38823
38880
38915
38956
39034
39039
39087
39110
39089
39170
39233
39240
39277
39276
39272
39218
39161
39156
39068
38991
38963
38805
38674
38578
38430
38308
38171
38043
37946
37808
37755
37668
37486
37402
37370
37301
37173
36983
36932
36902
36768
36654
36540
36446
36385
36258
36182
36116
36010
35928
35801
35701
35665
35544
35449
35361
35256
35227
35166
35080
35054
35024
35044
35027
34974
34999
35013
35046
35134
35151
35195
35239
35248
35289
35311
35371
35452
35417
35443
35516
35537
35573
35581
35597
35656
35651
35674
35698
35722
35801
35826
35854
35922
35919
35983
36052
36052
36101
36139
36161
36224
36253
36316
36366
36419
36524
36550
36573
36664
36674
36714
36788
36850
36928
36946
36984
37072
37077
37146
37231
37231
37237
37262
37355
37467
37451
37480
37529
37536
37603
37654
37683
37737
37744
37789
37809
37824
37932
37984
37986
38021
38030
38117
38172
38143
38185
38246
38304
38355
38322
38369
38434
38456
38523
38550
38559
38605
38600
38653
38679
38660
38735
38787
38789
38832
38840
38863
38860
38850
38860
38767
38691
38664
38501
38381
38306
38157
38011
37870
37765
37686
37528
37433
37342
37204
37131
37035
36910
36810
36667
36576
36479
36357
36295
36187
36061
35972
35817
35722
35660
35562
35474
35322
35192
35159
35065
34956
34843
34745
34682
34557
34471
34453
34326
34240
34213
34163
34150
34152
34205
34277
34237
34240
34283
34314
34385
34418
34443
34496
34494
34557
34611
34600
34634
34652
34660
34706
34709
34755
34798
34822
34875
34870
34890
34971
34976
35029
35082
35069
35113
35176
35235
35290
35268
35305
35382
35454
35534
35533
35562
35674
35685
35709
35789
35874
35936
35917
35963
36081
36076
36112
36196
36225
36259
36283
36332
36404
36406
36472
36529
36530
36605
36660
36676
36727
36756
36818
36846
36862
36938
36958
36990
37067
37042
37069
37131
37146
37186
37208
37259
37360
37385
37431
37460
37480
37596
37657
37654
37698
37727
37778
37779
37778
37875
37920
37930
37971
37964
38046
38141
38157
38197
38204
38214
38291
38317
38333
38302
38256
38272
38226
38165
38115
37946
37827
37758
37646
37540
37379
37227
37152
37040
36958
36852
36701
36581
36426
36328
36317
36210
36101
35998
35886
35825
35696
35539
35460
35356
35261
35128
34988
34933
34816
34665
34585
34475
34382
34282
34184
34124
33999
33894
33858
33757
33718
33683
33579
33555
33571
33578
33604
33612
33674
33699
33697
33775
33822
33858
33930
33935
33970
33992
33994
34085
34143
34139
34167
34190
34261
34300
34316
34391
34411
34428
34512
34537
34579
34609
34616
34681
34721
34768
34851
34860
34910
34963
34997
35104
35161
35164
35217
35262
35327
35345
35368
35485
35547
35572
35628
35616
35656
35715
35740
35793
35814
35855
35946
35959
36014
36087
36126
36183
36200
36245
36324
36315
36380
36472
36483
36496
36492
36530
36638
36682
36728
36735
36725
36804
36855
36896
36977
36967
36966
36991
37032
37089
37055
37070
37183
37200
37238
37295
37325
37415
37466
37474
37513
37533
37621
37685
37698
37743
37739
37770
37891
37915
37914
37924
37965
38043
38013
37965
37980
37897
37807
37721
37607
37503
37343
37219
37157
36992
36851
36731
36590
36508
36397
36271
36191
36067
35971
35849
35693
35598
35487
35402
35350
35179
35040
34952
34839
34716
34549
34442
34397
34249
34140
34051
33908
33805
33707
33623
33568
33454
33368
33263
33152
33146
33128
33090
33088
33031
33004
32999
33030
33130
33156
33166
33250
33288
33342
33381
33394
33454
33482
33523
33615
33641
33690
33724
33733
33817
33877
33897
33930
33906
33930
33989
34054
34129
34120
34145
34251
34284
34362
34427
34413
34472
34571
34646
34695
34683
34735
34787
34821
34910
34952
34995
35087
35091
35111
35165
35236
35331
35347
35380
35482
35485
35504
35571
35631
35673
35644
35679
35792
35804
35867
35972
36004
36021
36026
36088
36186
36179
36214
36285
36332
36401
36447
36522
36588
36536
36587
36693
36715
36764
36830
36888
36935
36922
36979
37014
37009
37096
37176
37227
37292
37288
37329
37378
37413
37491
37493
37490
37563
37551
37511
37468
37448
37455
37342
37207
37139
36992
36863
36733
36557
36434
36329
36259
36192
36003
35869
35781
35656
35564
35466
35391
35340
35212
35151
35104
34973
34835
34703
34629
34552
34353
34253
34197
34035
33906
33827
33753
33660
33506
33412
33318
33220
33210
33164
33091
33066
33019
33027
33018
32989
33067
33126
33135
33188
33236
33314
33348
33371
33473
33517
33540
33628
33666
33710
33736
33755
33842
33889
33931
34017
34019
34035
34086
34169
34280
34299
34329
34443
34486
34543
34603
34650
34769
34851
34896
34973
35011
35084
35146
35198
35300
35341
35389
35501
35532
35586
35657
35716
35814
35879
35965
36083
36099
36165
36273
36343
36411
36429
36481
36598
36649
36736
36803
36812
36879
36923
36945
37007
37026
37080
37112
37132
37227
37265
37298
37417
37465
37486
37506
37572
37688
37700
37719
37825
37842
37885
37953
37984
38034
38055
38105
38192
38180
38211
38271
38303
38356
38339
38306
38316
38241
38161
38058
37947
37899
37770
37590
37462
37308
37208
37086
36921
36828
36710
36578
36502
36382
36281
36146
35996
35943
35846
35705
35632
35527
35419
35295
35184
35102
34929
34800
34774
34645
34521
34426
34304
34206
34092
33999
33930
33778
33702
33673
33612
33581
33512
33447
33459
33460
33516
33572
33610
33694
33739
33800
33902
33915
33971
34047
34067
34095
34118
34184
34254
34228
34311
34448
34483
34490
34516
34612
34728
34752
34849
34962
34988
35032
35077
35146
35228
35227
35281
35354
35402
35494
35541
35581
35665
35689
35762
35861
35942
36032
36054
36111
36233
36259
36315
36384
36418
36507
36567
36610
36699
36749
36817
36838
36837
36917
36959
36990
37060
37054
37103
37188
37247
37315
37328
37384
37509
37545
37608
37658
37634
37649
37679
37750
37850
37861
37924
37996
38008
38042
38066
38134
38215
38183
38238
38334
38344
38372
38425
38507
38565
38512
38544
38574
38500
38467
38433
38355
38263
38113
38022
37927
37791
37657
37458
37322
37284
37138
37003
36897
36781
36718
36617
36498
36420
36306
36253
36183
36040
35922
35797
35703
35618
35447
35389
35345
35172
35043
34962
34866
34773
34658
34591
34493
34375
34310
34192
34094
34059
33958
33941
33960
33908
33884
33861
33849
33879
33873
33929
33989
34035
34128
34169
34211
34306
34327
34367
34403
34414
34478
34514
34555
34631
34642
34702
34766
34782
34821
34839
34896
34992
34998
35050
35111
35131
35211
35257
35268
35349
35420
35479
35493
35550
35685
35714
35728
35813
35830
35912
36026
36069
36117
36153
36215
36303
36311
36380
36475
36532
36607
36647
36712
36797
36775
36814
36898
36942
37005
37029
37060
37142
37164
37214
37238
37220
37261
37280
37306
37363
37341
37383
37440
37433
37446
37439
37474
37568
37568
37584
37606
37612
37654
37651
37681
37773
37766
37787
37824
37839
37907
37930
37935
37987
37994
38040
38058
38051
38138
38191
38206
38255
38262
38298
38291
38244
38269
38244
38166
38089
37933
37827
37734
37611
37524
37375
37204
37082
36920
36825
36726
36560
36422
36279
36173
36109
35965
35872
35773
35608
35506
35396
35250
35120
34974
34909
34829
34682
34559
34394
34244
34159
34015
33905
33796
33655
33566
33449
33330
33263
33142
33050
32967
32890
32874
32798
32722
32749
32770
32817
32823
32798
32852
32908
32968
33030
33013
33080
33173
33193
33235
33264
33290
33343
33368
33456
33511
33503
33565
33621
33662
33732
33752
33803
33866
33928
34007
34036
34129
34258
34243
34276
34343
34341
34416
34528
34583
34621
34650
34733
34785
34833
34931
34959
35015
35132
35154
35221
35293
35294
35362
35440
35471
35513
35551
35649
35712
35747
35832
35852
35886
36003
36035
36062
36095
36138
36246
36308
36349
36386
36345
36412
36505
36503
36541
36606
36664
36722
36739
36834
36904
36905
36960
36991
37026
37106
37107
37132
37184
37236
37295
37289
37355
37492
37470
37450
37494
37543
37631
37669
37695
37769
37800
37877
37927
37926
37979
38006
38032
38081
38041
38033
38012
37923
37843
37709
37569
37457
37273
37154
37043
36875
36758
36626
36475
36348
36180
36079
35984
35851
35756
35623
35502
35435
35291
35182
35081
34943
34842
34724
34625
34545
34376
34272
34179
34018
33917
33835
33728
33614
33453
33367
33303
33215
33146
33024
32939
32933
32863
32845
32846
32807
32817
32831
32864
32945
32978
33050
33118
33150
33203
33225
33294
33391
33361
33377
33448
33495
33571
33598
33600
33659
33695
33739
33770
33820
33894
33874
33909
34052
34074
34077
34128
34203
34300
34315
34330
34431
34492
34575
34651
34701
34767
34775
34818
34939
34981
35052
35140
35200
35282
35320
35369
35464
35489
35553
35610
35630
35718
35780
35808
35858
35870
35952
36045
36106
36179
36193
36237
36324
36300
36328
36405
36439
36480
36489
36531
36641
36683
36741
36784
36801
36865
36889
36931
37023
37025
37066
37126
37154
37220
37262
37321
37405
37403
37464
37529
37543
37631
37699
37712
37748
37767
37829
37856
37866
37930
37905
37849
37836
37738
37654
37548
37391
37296
37178
37036
36925
36775
36679
36565
36421
36371
36307
36211
36128
35998
35942
35874
35746
35693
35632
35525
35427
35287
35203
35112
34996
34933
34823
34709
34643
34516
34435
34346
34206
34142
34100
34059
34021
33899
33823
33768
33713
33726
33717
33714
33741
33707
33753
33821
33832
33885
33943
34011
34080
34051
34066
34112
34151
34221
34231
34243
34319
34339
34399
34471
34511
34566
34580
34635
34739
34750
34814
34908
34944
34991
35014
35061
35163
35199
35252
35309
35363
35449
35474
35524
35625
35624
35662
35729
35764
35850
35926
35988
36046
36044
36136
36237
36260
36307
36334
36371
36447
36483
36580
36626
36585
36632
36693
36726
36791
36836
36924
36984
37032
37132
37142
37144
37246
37284
37316
37350
37392
37468
37470
37500
37602
37604
37634
37697
37737
37810
37847
37892
37968
37965
38023
38097
38125
38188
38212
38231
38286
38303
38400
38467
38444
38491
38535
38537
38566
38568
38597
38558
38475
38458
38378
38257
38156
37977
37853
37741
37583
37473
37335
37192
37108
36970
36849
36717
36580
36492
36343
36216
36176
36073
35993
35896
35760
35708
35622
35471
35369
35262
35162
35023
34898
34829
34686
34574
34532
34373
34251
34190
34095
34022
33948
33896
33849
33734
33728
33752
33689
33653
33647
33684
33745
33744
33812
33879
33897
33977
34034
34065
34129
34153
34207
34237
34250
34317
34315
34306
34376
34401
34439
34467
34496
34596
34627
34623
34700
34743
34768
34772
34805
34878
34854
34864
34992
35048
35103
35154
35179
35262
35328
35379
35425
35394
35451
35556
35616
35670
35682
35729
35813
35808
35877
35969
35990
36040
36079
36118
36190
36200
36232
36255
36279
36358
36379
36424
36544
36570
36597
36629
36656
36747
36794
36825
36895
36901
36944
36987
37004
37060
37085
37126
37173
37119
37172
37266
37261
37279
37315
37363
37438
37463
37526
37557
37560
37624
37632
37637
37705
37714
37763
37807
37814
37874
37899
37917
37977
37989
38057
38086
38058
38144
38209
38175
38162
38171
38209
38142
38028
37995
37888
37741
37651
37492
37340
37186
37031
36931
36773
36618
36530
36383
36268
36133
35956
35879
35803
35678
35563
35403
35279
35160
35044
34963
34820
34714
34656
34458
34285
34184
34076
33989
33868
33743
33633
33480
33422
33350
33189
33110
33075
33011
32927
32824
32826
32806
32729
32761
32809
32822
32867
32893
32953
32994
33049
33158
33173
33182
33279
33307
33324
33353
33402
33491
33494
33490
33562
33578
33602
33623
33657
33766
33820
33825
33856
33875
33989
34074
34052
34068
34114
34189
34284
34309
34378
34419
34408
34478
34556
34617
34683
34694
34768
34819
34821
34910
34985
35024
35114
35169
35207
35233
35306
35397
35358
35371
35500
35522
35570
35652
35666
35707
35762
35826
35892
35894
35957
36007
35996
36038
36097
36188
36254
36196
36245
36359
36377
36379
36393
36463
36548
36535
36581
36644
36661
36732
36790
36844
36904
36894
36963
37035
37038
37080
37106
37139
37209
37197
37209
37240
37299
37421
37450
37449
37524
37561
37630
37676
37685
37750
37757
37730
37756
37728
37694
37628
37539
37467
37320
37198
37125
36933
36791
36694
36542
36420
36311
36221
36128
35944
35833
35756
35642
35574
35482
35387
35334
35206
35089
34966
34835
34752
34640
34564
34517
34358
34266
34202
34070
34007
33952
33830
33711
33616
33587
33485
33345
33330
33318
33281
33263
33186
33170
33201
33232
33290
33295
33333
33439
33454
33492
33564
33616
33679
33703
33765
33875
33874
33882
33913
33942
34012
34028
34041
34114
34138
34187
34220
34228
34292
34330
34380
34458
34460
34518
34576
34579
34652
34731
34778
34815
34809
34880
34946
34967
35032
35053
35064
35133
35184
35299
35379
35393
35481
35558
35600
35658
35683
35770
35831
35849
35930
35986
36031
36098
36094
36149
36212
36217
36247
36250
36280
36366
36370
36391
36424
36467
36566
36600
36624
36702
36721
36791
36867
36899
36967
36994
37017
37077
37085
37161
37228
37229
37283
37324
37362
37440
37463
37530
37608
37659
37704
37675
37711
37840
37836
37803
37779
37726
37679
37561
37438
37344
37170
37058
36949
36769
36633
36493
36358
36277
36150
36043
35921
35800
35731
35583
35442
35395
35281
35170
35067
34958
34883
34752
34640
34595
34464
34342
34239
34129
34057
33952
33869
33819
33672
33572
33516
33428
33369
33300
33276
33310
33267
33260
33301
33343
33391
33389
33442
33538
33521
33572
33677
33703
33733
33778
33843
33897
33851
33853
33876
33861
33860
33849
33906
33988
33937
33943
34003
34026
34091
34151
34186
34209
34193
34278
34353
34364
34449
34518
34543
34610
34661
34727
34767
34823
34926
34934
34961
35074
35104
35168
35253
35285
35343
35385
35445
35551
35592
35653
35697
35725
35814
35864
35916
35998
35982
36007
36071
36120
36176
36150
36131
36215
36262
36312
36331
36330
36382
36407
36465
36548
36512
36533
36601
36624
36669
36670
36659
36717
36752
36805
36827
36851
36937
36960
36986
37056
37014
37009
37055
37070
37074
37000
36931
36927
36826
36692
36543
36401
36288
36095
35929
35847
35678
35535
35420
35283
35185
35049
34918
34856
34742
34630
34504
34383
34315
34192
34077
34014
33863
33743
33629
33469
33365
33271
33170
33076
32933
32867
32799
32658
32551
32454
32399
32382
32278
32209
32156
32099
32114
32104
32071
32076
32068
32142
32225
32263
32332
32366
32420
32540
32579
32602
32638
32709
32814
32827
32857
32980
33027
33068
33128
33195
33277
33288
33312
33386
33397
33474
33547
33548
33621
33721
33775
33804
33805
33887
33955
33971
34014
34037
34115
34241
34259
34317
34397
34430
34508
34555
34572
34653
34720
34779
34804
34856
34941
34938
34986
35096
35068
35095
35195
35225
35256
35292
35342
35412
35430
35498
35545
35552
35617
35660
35714
35809
35827
35888
35955
35976
36027
36063
36139
36247
36253
36308
36381
36412
36500
36576
36634
36696
36689
36742
36812
36869
36973
37005
37012
37079
37090
37118
37142
37144
37154
37073
36991
36943
36768
36612
36492
36341
36206
36032
35882
35806
35653
35506
35406
35333
35238
35046
34940
34926
34772
34635
34530
34351
34216
34132
34051
33936
33748
33641
33536
33379
33284
33170
33025
32919
32792
32706
32605
32489
32430
32327
32232
32192
32094
32057
32051
31999
31968
31947
31989
32070
32045
32060
32125
32181
32258
32289
32335
32437
32476
32531
32569
32579
32640
32656
32659
32717
32738
32784
32806
32811
32885
32921
32930
32968
32965
33027
33081
33072
33101
33140
33218
33314
33305
33338
33409
33463
33543
33567
33593
33698
33763
33830
33875
33922
34020
34046
34070
34156
34158
34161
34181
34222
34322
34348
34344
34412
34450
34511
34567
34618
34699
34715
34756
34849
34843
34882
34959
34987
35026
35050
35102
35168
35148
35199
35271
35291
35362
35406
35416
35458
35482
35560
35601
35611
35694
35712
35696
35769
35816
35845
35846
35882
35974
35989
36038
36150
36132
36130
36165
36163
36186
36189
36181
36166
36058
35970
35844
35664
35554
35414
35233
35095
34950
34847
34698
34516
34421
34301
34164
34081
33944
33818
33679
33543
33482
33359
33197
33086
32950
32855
32722
32544
32458
32343
32165
32049
31958
31885
31771
31665
31605
31471
31371
31351
31231
31142
31108
31054
31034
31003
30986
31010
30983
30994
31017
31044
31122
31135
31151
31265
31342
31400
31442
31508
31615
31639
31678
31795
31820
31843
31914
32011
32110
32127
32161
32247
32268
32353
32438
32443
32504
32573
32603
32670
32744
32832
32861
32900
33008
33049
33109
33232
33249
33286
33360
33415
33509
33582
33649
33727
33742
33820
33918
33962
33997
34008
34081
34180
34174
34265
34394
34407
34428
34485
34565
34651
34662
34701
34749
34792
34848
34850
34924
35047
35035
35087
35186
35182
35187
35244
35338
35399
35364
35425
35510
35525
35574
35618
35677
35778
35819
35882
35913
35928
36021
36057
36052
36096
36119
36194
36237
36241
36327
36374
36391
36474
36524
36566
36585
36651
36804
36839
36807
36842
36831
36828
36798
36714
36628
36496
36397
36306
36078
35917
35799
35600
35455
35368
35272
35140
34946
34842
34762
34644
34551
34415
34294
34225
34078
33973
33893
33772
33653
33500
33388
33320
33163
33061
32991
32854
32721
32586
32499
32447
32308
32215
32143
32043
31994
31934
31884
31872
31806
31794
31816
31851
31936
31963
31990
32096
32165
32253
32332
32384
32452
32488
32577
32695
32679
32705
32795
32863
32959
33009
33019
33061
33094
33180
33242
33270
33332
33351
33403
33517
33554
33632
33718
33748
33809
33871
33949
34036
34041
34102
34175
34195
34250
34307
34400
34512
34514
34546
34603
34642
34719
34763
34808
34881
34901
35005
35096
35086
35113
35159
35219
35299
35314
35364
35407
35434
35505
35526
35565
35657
35666
35714
35771
35783
35846
35895
35950
36045
36072
36111
36124
36114
36167
36204
36270
36371
36362
36395
36468
36499
36529
36540
36624
36754
36749
36758
36788
36784
36827
36863
36909
36973
36968
37022
37051
37001
37014
37005
36933
36863
36734
36605
36445
36284
36164
35987
35856
35767
35551
35416
35342
35176
35030
34913
34813
34753
34639
34515
34365
34239
34163
34019
33918
33881
33711
33572
33491
33379
33307
33215
33092
32986
32850
32758
32647
32526
32474
32372
32259
32216
32131
32074
32047
32036
32048
31997
32002
32105
32119
32137
32181
32224
32320
32374
32413
32495
32522
32562
32601
32643
32712
32711
32733
32824
32834
32877
32947
32984
33043
33068
33108
33205
33239
33274
33284
33294
33384
33431
33456
33535
33569
33620
33660
33705
33817
33853
33854
33934
33990
34061
34118
34171
34264
34298
34354
34453
34457
34523
34613
34629
34672
34710
34743
34813
34855
34934
34978
34996
35071
35107
35155
35239
35252
35339
35431
35427
35469
35555
35654
35729
35704
35751
35839
35903
35983
36000
36037
36151
36194
36249
36307
36351
36427
36456
36513
36607
36601
36648
36708
36696
36722
36752
36776
36813
36767
36711
36605
36481
36433
36332
36192
36065
35862
35716
35598
35455
35358
35236
35117
35041
34901
34800
34711
34590
34490
34358
34260
34193
34032
33946
33871
33698
33573
33475
33354
33256
33151
33091
32983
32835
32730
32587
32491
32480
32382
32297
32241
32172
32126
32059
32044
32078
32039
32086
32166
32169
32202
32263
32338
32410
32412
32465
32522
32544
32597
32612
32645
32738
32765
32813
32845
32840
32896
32956
33028
33097
33069
33103
33171
33186
33203
33213
33276
33360
33336
33362
33415
33422
33479
33541
33603
33675
33695
33775
33839
33861
33957
34038
34090
34159
34190
34282
34354
34378
34462
34528
34582
34658
34673
34743
34818
34851
34905
34913
34944
35047
35101
35186
35240
35235
35288
35345
35413
35487
35481
35545
35612
35615
35680
35751
35797
35834
35820
35898
35972
35972
36025
36085
36157
36238
36220
36237
36290
36345
36419
36418
36432
36508
36481
36453
36424
36360
36314
36204
36082
36008
35869
35750
35607
35417
35268
35104
34974
34904
34745
34597
34476
34362
34272
34126
34010
33947
33793
33683
33572
33395
33293
33208
33083
32971
32848
32754
32593
32416
32349
32259
32134
32036
31884
31777
31700
31626
31594
31508
31429
31414
31351
31340
31353
31353
31404
31416
31422
31505
31571
31652
31709
31764
31868
31902
31933
32023
32046
32102
32176
32215
32262
32266
32309
32430
32474
32501
32523
32556
32625
32643
32692
32794
32817
32892
32963
32963
33029
33111
33147
33179
33201
33287
33331
33345
33433
33488
33536
33638
33686
33751
33793
33817
33923
34004
34058
34132
34164
34265
34359
34387
34433
34461
34515
34588
34581
34649
34728
34748
34835
34921
34958
35004
35042
35138
35167
35140
35211
35279
35331
35407
35428
35503
35575
35603
35669
35696
35738
35852
35905
35980
36061
36129
36215
36229
36252
36309
36278
36329
36424
36451
36487
36507
36545
36629
36668
36760
36839
36860
36901
36917
36963
37023
36957
36940
36938
36837
36723
36574
36409
36255
36047
35909
35781
35615
35481
35293
35115
35037
34932
34829
34685
34530
34458
34335
34187
34110
33987
33852
33693
33555
33493
33350
33179
33103
32977
32813
32646
32537
32475
32308
32151
32088
31947
31811
31704
31594
31523
31412
31311
31281
31206
31154
31120
31112
31172
31199
31247
31340
31343
31384
31466
31521
31577
31620
31722
31837
31811
31826
31907
31972
32054
32095
32128
32206
32249
32324
32380
32420
32520
32576
32618
32697
32727
32813
32898
32935
33005
33027
33041
33142
33217
33273
33300
33370
33498
33519
33544
33679
33757
33826
33879
33913
33996
34044
34076
34118
34111
34206
34304
34299
34329
34390
34458
34505
34478
34536
34611
34626
34658
34663
34695
34777
34788
34837
34893
34922
34994
35011
35012
35075
35099
35146
35197
35250
35323
35326
35376
35494
35504
35555
35622
35627
35682
35730
35748
35796
35834
35920
35949
35933
35987
36008
36031
36108
36103
36116
36172
36250
36328
36295
36282
36354
36329
36313
36335
36336
36317
36202
36087
36024
35864
35710
35571
35413
35273
35073
34898
34809
34644
34475
34338
34235
34162
33993
33818
33708
33535
33403
33295
33155
33052
32920
32769
32642
32490
32418
32310
32097
31942
31831
31726
31616
31438
31316
31215
31102
31044
30975
30932
30920
30827
30798
30798
30744
30727
30733
30780
30866
30894
30971
31057
31086
31110
31129
31248
31422
31465
31532
31640
31692
31729
31759
31848
31982
32030
32106
32195
32260
32352
32401
32451
32537
32567
32652
32744
32784
32841
32884
32969
33088
33096
33126
33203
33279
33359
33389
33468
33595
33616
33679
33771
33822
33917
33992
34034
34091
34117
34193
34230
34232
34313
34351
34359
34433
34474
34521
34554
34602
34686
34691
34734
34862
34885
34919
34991
35043
35114
35158
35233
35338
35346
35404
35462
35453
35491
35534
35579
35655
35675
35726
35772
35819
35915
35944
35978
36071
36082
36125
36192
36233
36306
36356
36412
36455
36381
36383
36438
36408
36338
36238
36177
36112
35910
35761
35656
35498
35366
35211
35055
34956
34820
34698
34560
34431
34361
34225
34096
34039
33906
33796
33686
33529
33417
33299
33185
33101
32939
32796
32677
32566
32474
32325
32215
32154
31981
31848
31768
31675
31650
31609
31517
31442
31390
31425
31398
31296
31307
31370
31435
31508
31513
31545
31581
31623
31710
31725
31727
31787
31795
31841
31900
31937
32001
32006
32010
32092
32140
32187
32211
32243
32330
32351
32368
32459
32503
32571
32635
32686
32795
32860
32908
32997
33040
33114
33171
33213
33323
33388
33434
33541
33604
33663
33689
33734
33876
33950
33977
34071
34140
34211
34229
34241
34352
34434
34487
34559
34563
34613
34666
34676
34718
34723
34734
34804
34827
34874
34888
34875
34947
34984
34976
35011
35019
35050
35057
35061
35124
35128
35137
35203
35195
35232
35295
35315
35355
35381
35435
35496
35448
35458
35497
35479
35479
35428
35339
35281
35177
35070
34918
34747
34620
34444
34288
34170
33935
33743
33629
33512
33400
33227
33055
32946
32789
32659
32528
32381
32282
32140
31987
31861
31682
31567
31441
31242
31110
31014
30915
30818
30665
30547
30423
30284
30203
30112
30053
30022
29899
29837
29813
29744
29719
29724
29759
29811
29808
29880
29969
30013
30089
30148
30220
30327
30358
30397
30442
30500
30612
30672
30723
30827
30871
30931
30996
31040
31092
31112
31193
31304
31291
31336
31436
31482
31541
31594
31653
31739
31783
31860
31919
31967
32077
32143
32191
32261
32268
32335
32434
32501
32581
32612
32649
32732
32766
32850
32905
32895
32963
33040
33093
33164
33200
33268
33313
33350
33439
33470
33508
33613
33658
33733
33816
33866
33941
33970
33997
34053
34054
34136
34239
34272
34317
34358
34427
34497
34472
34533
34631
34668
34727
34764
34793
34846
34855
34918
34965
34980
35061
35108
35136
35194
35192
35236
35290
35327
35414
35463
35505
35570
35551
35581
35628
35631
35661
35656
35642
35646
35543
35427
35305
35161
35026
34834
34678
34559
34329
34160
34038
33844
33665
33510
33395
33300
33119
32966
32828
32679
32567
32404
32253
32171
32031
31896
31730
31541
31447
31337
31176
31044
30899
30792
30660
30515
30431
30311
30207
30170
30074
30005
29961
29923
29933
29886
29827
29853
29881
29931
29939
29937
30026
30105
30165
30242
30281
30388
30468
30464
30527
30613
30666
30721
30754
30833
30885
30898
30937
30947
31009
31112
31105
31145
31229
31259
31300
31330
31373
31444
31461
31508
31537
31548
31633
31691
31742
31845
31884
31910
31935
31993
32094
32123
32180
32305
32326
32353
32409
32450
32528
32578
32639
32748
32788
32834
32873
32910
32990
33020
33063
33160
33189
33254
33306
33290
33317
33368
33436
33490
33468
33544
33630
33630
33678
33741
33786
33843
33865
33939
33995
34022
34088
34092
34108
34209
34253
34306
34346
34365
34431
34465
34503
34557
34526
34573
34662
34697
34749
34772
34793
34845
34859
34937
34985
34958
34991
35028
35073
35153
35164
35193
35226
35266
35350
35364
35384
35473
35481
35509
35553
35572
35609
35579
35533
35525
35435
35359
35283
35165
35040
34851
34699
34605
34410
34252
34152
34044
33954
33820
33688
33587
33428
33345
33276
33122
32971
32812
32693
32628
32475
32303
32130
31971
31863
31712
31582
31479
31269
31114
31006
30846
30706
30560
30422
30326
30195
30096
29990
29902
29901
29850
29771
29768
29770
29812
29814
29793
29877
29972
30034
30084
30090
30178
30270
30312
30408
30482
30522
30589
30645
30744
30793
30799
30887
30974
31040
31107
31127
31228
31324
31360
31461
31550
31590
31658
31726
31821
31852
31871
31983
32053
32097
32192
32258
32366
32441
32461
32544
32626
32687
32752
32785
32914
33029
33040
33073
33123
33201
33289
33300
33372
33442
33454
33520
33575
33613
33690
33725
33774
33808
33849
33931
33941
33977
34088
34105
34143
34220
34278
34338
34356
34422
34541
34553
34582
34627
34651
34722
34762
34803
34891
34916
34957
34995
35034
35127
35169
35210
35278
35257
35302
35407
35459
35477
35466
35536
35638
35609
35653
35747
35768
35822
35891
35932
35937
35907
36004
36082
36048
36074
36145
36227
36304
36294
36329
36375
36403
36464
36477
36494
36523
36459
36471
36478
36344
36202
36061
35910
35770
35578
35420
35234
35035
34913
34739
34547
34436
34292
34159
34026
33914
33857
33706
33527
33437
33316
33203
33071
32930
32859
32744
32600
32495
32364
32298
32199
32017
31897
31797
31691
31610
31479
31367
31246
31125
31061
30968
30911
30897
30790
30756
30791
30793
30821
30866
30938
30999
30977
31057
31185
31245
31307
31357
31415
31483
31492
31563
31636
31655
31713
31766
31818
31862
31833
31891
31979
32007
32059
32102
32156
32245
32280
32344
32393
32417
32494
32546
32612
32706
32718
32782
32860
32896
32976
33045
33101
33174
33210
33311
33383
33382
33433
33471
33500
33566
33611
33706
33743
33717
33791
33869
33906
33961
33997
34086
34141
34154
34219
34249
34295
34402
34435
34494
34572
34635
34715
34721
34743
34854
34906
34955
34989
35020
35109
35138
35161
35254
35292
35338
35374
35416
35531
35586
35609
35671
35686
35764
35848
35874
35915
35938
36011
36125
36139
36203
36287
36310
36356
36401
36473
36558
36558
36618
36677
36669
36703
36717
36698
36663
36524
36387
36245
36096
35975
35772
35588
35499
35339
35182
35024
34872
34812
34715
34574
34472
34345
34259
34143
33997
33921
33822
33719
33655
33512
33391
33300
33218
33164
33035
32914
32870
32763
32661
32540
32392
32314
32215
32106
32057
31983
31934
31870
31814
31840
31831
31821
31866
31859
31894
31949
31976
32012
32018
32069
32150
32135
32187
32255
32235
32263
32322
32358
32392
32387
32422
32443
32463
32525
32516
32533
32634
32657
32692
32745
32774
32824
32852
32919
33018
33016
33059
33136
33184
33273
33335
33387
33473
33510
33573
33623
33667
33760
33795
33829
33918
33943
34000
34043
34040
34095
34140
34171
34229
34241
34302
34355
34365
34402
34417
34473
34561
34536
34556
34610
34617
34653
34692
34752
34821
34809
34870
34951
34965
34984
34999
35076
35188
35178
35190
35237
35275
35352
35395
35449
35535
35531
35564
35619
35652
35710
35717
35738
35820
35809
35783
35762
35726
35662
35498
35382
35328
35147
34993
34872
34687
34529
34381
34243
34138
33984
33857
33714
33571
33502
33393
33272
33176
33019
32931
32838
32657
32531
32445
32353
32240
32067
31974
31899
31783
31701
31582
31452
31350
31201
31124
31071
30977
30903
30795
30715
30719
30690
30689
30692
30691
30746
30777
30836
30946
30973
31024
31095
31155
31261
31331
31380
31443
31462
31555
31639
31645
31685
31713
31735
31796
31818
31861
31894
31944
32052
32079
32089
32177
32220
32268
32314
32356
32427
32452
32514
32621
32626
32674
32758
32805
32877
32934
32993
33067
33081
33154
33236
33283
33365
33399
33424
33496
33509
33544
33601
33669
33756
33764
33805
33914
33925
33958
34005
34014
34066
34093
34104
34154
34183
34271
34336
34359
34439
34495
34559
34666
34688
34735
34813
34893
34994
35031
35089
35191
35191
35237
35331
35393
35464
35499
35560
35662
35681
35745
35832
35886
35952
35960
35986
36078
36087
36077
36036
35959
35898
35744
35565
35458
35283
35090
34911
34767
34646
34451
34309
34232
34041
33905
33796
33606
33481
33397
33270
33146
33020
32924
32770
32603
32507
32358
32220
32149
31994
31851
31730
31582
31457
31312
31194
31097
30906
30777
30710
30613
30513
30393
30328
30303
30188
30129
30111
30079
30122
30157
30158
30205
30260
30341
30373
30399
30488
30515
30536
30614
30636
30697
30759
30757
30768
30782
30840
30918
30903
30936
30993
31013
31065
31091
31116
31192
31237
31310
31364
31389
31447
31475
31537
31634
31642
31716
31817
31849
31909
31978
32048
32122
32136
32198
32290
32386
32490
32514
32567
32687
32732
32826
32912
32914
32968
33041
33092
33152
33195
33292
33343
33349
33428
33485
33541
33635
33642
33653
33694
33767
33871
33891
33909
33970
33943
33982
34074
34121
34175
34217
34276
34333
34305
34366
34450
34451
34472
34502
34548
34598
34548
34518
34496
34453
34408
34280
34155
34070
33900
33776
33665
33481
33322
33166
33029
32938
32780
32619
32457
32312
32208
32041
31913
31868
31724
31579
31479
31387
31311
31181
31070
31007
30870
30761
30645
30487
30399
30320
30220
30138
30029
29966
29893
29794
29736
29653
29601
29595
29516
29497
29518
29504
29527
29552
29586
29640
29640
29693
29764
29823
29925
29976
30019
30120
30185
30266
30324
30372
30474
30512
30524
30614
30688
30751
30764
30781
30876
30926
30955
31019
31027
31079
31126
31127
31178
31236
31315
31433
31479
31535
31601
31668
31749
31759
31807
31932
31990
32094
32212
32274
32373
32462
32528
32597
32628
32729
32827
32877
32954
32996
33044
33115
33116
33181
33244
33232
33264
33302
33341
33409
33433
33498
33560
33610
33705
33747
33802
33911
33941
34005
34079
34130
34240
34311
34343
34413
34477
34606
34694
34720
34804
34875
34955
35080
35152
35267
35374
35435
35521
35563
35608
35687
35689
35718
35714
35617
35524
35381
35218
35092
34911
34752
34588
34414
34284
34107
33953
33870
33721
33613
33508
33344
33218
33090
32972
32895
32762
32646
32504
32325
32192
32042
31908
31786
31568
31418
31309
31147
31016
30880
30750
30675
30564
30452
30325
30226
30190
30093
30014
30010
29936
29906
29935
29952
29967
29941
29967
30069
30089
30108
30157
30226
30317
30340
30368
30436
30433
30480
30543
30557
30609
30646
30664
30706
30715
30758
30790
30821
30913
30955
30991
31078
31089
31107
31153
31225
31321
31333
31346
31430
31459
31515
31572
31585
31622
31665
31750
31829
31797
31852
31958
31999
32073
32150
32202
32254
32271
32335
32380
32412
32506
32550
32589
32690
32728
32770
32802
32823
32893
32915
32934
32994
32984
33021
33094
33148
33209
33218
33258
33360
33378
33409
33440
33453
33529
33578
33617
33697
33725
33774
33808
33835
33916
33933
33946
34033
34064
34106
34150
34189
34253
34251
34284
34399
34422
34441
34484
34526
34582
34578
34609
34714
34726
34731
34736
34694
34617
34459
34328
34243
34061
33921
33811
33630
33443
33246
33088
32958
32737
32562
32439
32301
32158
31958
31801
31726
31587
31473
31359
31192
31063
30931
30804
30690
30496
30332
30204
30081
29976
29808
29658
29579
29441
29327
29219
29095
29040
28982
28912
28862
28781
28770
28768
28734
28760
28792
28849
28949
28998
29084
29173
29223
29281
29318
29415
29567
29609
29647
29709
29765
29849
29914
30006
30110
30121
30195
30311
30368
30423
30480
30587
30711
30751
30842
30929
30952
31038
31142
31224
31309
31363
31473
31573
31642
31734
31778
31847
31964
31991
32054
32155
32227
32308
32342
32384
32464
32475
32527
32601
32651
32719
32756
32828
32930
32945
33020
33098
33095
33150
33239
33318
33394
33413
33471
33524
33563
33637
33663
33728
33844
33846
33883
33966
34006
34032
34033
34090
34187
34186
34236
34300
34307
34364
34428
34478
34510
34486
34551
34613
34614
34679
34726
34743
34805
34846
34898
34905
34919
35018
35058
35064
35085
35008
34951
34893
34777
34668
34515
34356
34224
34036
33911
33781
33576
33406
33254
33152
33098
32945
32781
32642
32541
32495
32373
32241
32162
32007
31885
31802
31683
31542
31357
31238
31176
31016
30900
30817
30677
30554
30428
30311
30232
30125
30074
30013
29904
29833
29764
29746
29777
29726
29721
29765
29794
29835
29851
29918
30035
30061
30119
30231
30331
30418
30461
30556
30678
30673
30701
30780
30831
30900
30940
30973
31032
31051
31119
31174
31212
31317
31372
31392
31483
31570
31657
31682
31701
31800
31844
31879
31993
32073
32164
32225
32253
32321
32367
32444
32555
32568
32618
32685
32718
32805
32886
32951
33023
33034
33093
33170
33235
33321
33341
33382
33490
33518
33560
33612
33662
33777
33857
33911
33983
34000
34072
34138
34164
34243
34300
34352
34432
34450
34518
34583
34607
34682
34731
34782
34893
34952
35023
35078
35125
35216
35240
35264
35346
35361
35425
35500
35521
35567
35612
35706
35825
35818
35841
35924
36005
36073
36055
36059
36127
36105
36093
36057
35937
35825
35689
35549
35409
35169
34989
34866
34727
34580
34381
34244
34198
34057
33916
33789
33644
33529
33373
33239
33175
33052
32945
32819
32664
32576
32446
32290
32215
32120
31992
31821
31677
31587
31421
31285
31223
31075
30975
30902
30758
30652
30585
30534
30489
30402
30392
30400
30372
30381
30398
30472
30571
30563
30602
30673
30704
30758
30763
30741
30791
30861
30943
30943
30936
31049
31112
31093
31117
31130
31163
31194
31242
31306
31299
31356
31480
31466
31483
31590
31673
31729
31747
31799
31887
31906
31983
32066
32090
32151
32228
32327
32426
32422
32458
32534
32602
32691
32723
32768
32866
32883
32930
33014
33072
33107
33097
33165
33277
33249
33274
33379
33446
33499
33512
33547
33643
33699
33783
33846
33876
33939
33956
33996
34100
34120
34150
34207
34259
34316
34328
34394
34470
34395
34402
34503
34546
34590
34632
34673
34706
34682
34744
34825
34858
34908
34925
34953
34986
34902
34847
34809
34716
34624
34488
34347
34219
34017
33876
33744
33556
33407
33258
33117
32996
32808
32673
32567
32447
32365
32247
32131
32033
31867
31781
31719
31576
31450
31320
31197
31106
30974
30872
30734
30581
30531
30455
30325
30237
30164
30146
30088
30001
29999
29979
29953
29986
29996
30041
30070
30090
30197
30279
30328
30410
30455
30522
30568
30604
30695
30723
30736
30821
30874
30930
30966
30997
31071
31098
31137
31219
31220
31257
31309
31336
31428
31505
31536
31572
31602
31714
31795
31811
31899
32006
32119
32238
32277
32349
32427
32477
32552
32589
32652
32757
32785
32857
32927
32932
32986
33057
33130
33188
33172
33237
33333
33366
33385
33375
33443
33601
33655
33684
33726
33771
33842
33880
33966
34069
34028
34054
34166
34213
34217
34239
34365
34470
34403
34434
34557
34586
34598
34619
34671
34755
34782
34829
34864
34902
34987
35010
35047
35125
35103
35116
35152
35135
35138
35105
35028
34925
34761
34670
34544
34322
34164
34025
33854
33691
33503
33384
33274
33148
33048
32877
32720
32641
32506
32403
32285
32103
31966
31838
31727
31654
31515
31378
31215
31037
30921
30783
30652
30557
30392
30276
30200
30094
29985
29829
29700
29635
29520
29462
29435
29371
29325
29285
29316
29393
29379
29407
29464
29490
29561
29638
29722
29811
29828
29890
29964
30008
30068
30085
30117
30192
30191
30213
30251
30280
30352
30402
30464
30544
30536
30567
30647
30725
30814
30846
30882
30943
30950
31045
31141
31150
31217
31311
31375
31447
31497
31569
31600
31643
31768
31818
31842
31947
32021
32096
32145
32191
32299
32350
32368
32420
32431
32499
32563
32573
32621
32676
32759
32841
32828
32894
32994
33027
33077
33115
33155
33224
33247
33316
33366
33395
33495
33542
33555
33642
33716
33783
33792
33801
33890
33923
33947
34031
34060
34129
34182
34181
34241
34309
34369
34436
34450
34527
34593
34597
34643
34662
34655
34662
34618
34622
34591
34462
34331
34199
34104
33986
33744
33607
33517
33329
33193
33113
33006
32879
32718
32615
32509
32388
32288
32145
32067
32027
31840
31690
31596
31441
31317
31211
31090
30970
30824
30737
30612
30440
30332
30180
29995
29887
29779
29676
29552
29465
29455
29363
29262
29260
29225
29203
29200
29231
29329
29357
29359
29464
29566
29650
29694
29759
29876
29923
29975
30074
30088
30145
30234
30272
30313
30339
30393
30481
30522
30616
30690
30712
30807
30884
30900
30937
30976
31064
31131
31198
31311
31346
31385
31508
31565
31621
31693
31764
31856
31887
31943
32060
32084
32118
32189
32265
32349
32376
32443
32568
32587
32618
32695
32780
32881
32906
32924
32998
33031
33112
33163
33163
33260
33354
33378
33417
33466
33565
33618
33647
33723
33748
33802
33911
33912
33943
34009
34041
34091
34122
34187
34290
34300
34332
34368
34391
34482
34547
34591
34663
34681
34746
34814
34849
34908
34915
34949
35057
35099
35159
35204
35213
35281
35339
35406
35506
35522
35557
35590
35600
35656
35678
35701
35721
35611
35515
35420
35263
35132
34983
34823
34658
34429
34298
34189
34013
33887
33761
33614
33494
33360
33288
33192
33053
32968
32846
32724
32669
32562
32456
32325
32182
32104
31978
31835
31737
31582
31443
31296
31142
31054
30931
30791
30708
30589
30487
30378
30275
30238
30152
30055
30022
29954
29938
29973
30010
30040
30012
30051
30164
30158
30165
30241
30314
30371
30382
30441
30531
30508
30524
30595
30627
30646
30648
30703
30784
30769
30804
30868
30881
30911
30933
30974
31036
31032
31074
31120
31141
31221
31285
31330
31375
31379
31482
31585
31599
31638
31674
31700
31743
31751
31811
31844
31845
31923
31981
32011
32076
32099
32134
32144
32156
32236
32272
32307
32385
32398
32450
32495
32498
32567
32622
32645
32691
32720
32810
32885
32936
33045
33087
33082
33126
33142
33190
33236
33282
33369
33392
33429
33530
33538
33549
33593
33650
33726
33730
33743
33798
33781
33834
33906
33912
33960
33998
34011
34062
34095
34159
34193
34225
34310
34320
34326
34386
34392
34461
34519
34486
34495
34495
34438
34377
34278
34197
34070
33921
33811
33625
33435
33315
33139
32996
32854
32667
32533
32410
32297
32183
32003
31901
31791
31603
31495
31401
31249
31123
31026
30960
30802
30606
30504
30371
30220
30123
29973
29834
29703
29568
29463
29320
29211
29141
28994
28925
28899
28801
28726
28677
28664
28707
28718
28750
28788
28836
28889
28867
28902
29012
29022
29065
29149
29184
29235
29275
29308
29360
29383
29449
29472
29454
29513
29552
29563
29631
29675
29709
29723
29767
29845
29851
29903
30025
30039
30081
30156
30176
30223
30275
30318
30370
30405
30521
30629
30682
30759
30806
30865
30952
30966
31028
31105
31149
31234
31315
31402
31477
31466
31533
31631
31669
31726
31760
31798
31889
31955
32043
32073
32062
32143
32225
32296
32393
32434
32506
32566
32597
32674
32733
32813
32905
32904
32983
33098
33125
33143
33173
33252
33338
33316
33345
33407
33442
33515
33553
33581
33641
33648
33698
33766
33820
33887
33904
33959
34049
34034
34091
34188
34198
34210
34243
34301
34347
34289
34266
34233
34144
34071
33918
33711
33566
33421
33294
33117
32920
32790
32622
32458
32353
32186
32057
31947
31806
31692
31534
31374
31282
31150
31030
30896
30745
30615
30430
30272
30193
30050
29924
29801
29643
29510
29356
29209
29093
28933
28839
28759
28635
28555
28472
28397
28369
28316
28304
28276
28229
28264
28307
28350
28398
28381
28437
28541
28608
28666
28692
28756
28855
28868
28923
29008
29037
29053
29063
29146
29265
29263
29261
29292
29327
29396
29425
29459
29536
29554
29609
29699
29774
29830
29822
29877
30012
30039
30054
30109
30158
30199
30214
30301
30411
30406
30485
30606
30621
30649
30726
30816
30891
30899
30945
30995
31050
31153
31198
31242
31328
31355
31449
31548
31567
31622
31688
31755
31841
31871
31926
31990
32058
32138
32155
32223
32341
32331
32366
32474
32541
32589
32605
32645
32713
32719
32796
32889
32934
33008
33047
33082
33159
33190
33248
33290
33324
33431
33483
33496
33547
33560
33611
33648
33664
33754
33825
33879
33941
33925
33972
34057
34094
34121
34126
34189
34265
34201
34189
34229
34198
34144
34038
33905
33796
33653
33556
33432
33242
33063
32862
32723
32645
32465
32305
32170
32020
31928
31818
31691
31604
31471
31334
31155
30982
30911
30800
30653
30562
30439
30319
30186
30051
29948
29787
29651
29584
29439
29313
29215
29091
28986
28863
28776
28741
28644
28581
28533
28477
28485
28478
28464
28500
28526
28604
28670
28713
28817
28886
28931
29007
29039
29102
29177
29241
29312
29326
29382
29506
29529
29537
29563
29595
29665
29702
29747
29821
29840
29923
30006
30019
30063
30116
30173
30233
30242
30318
30408
30466
30563
30622
30666
30751
30822
30949
31024
31024
31104
31210
31292
31364
31398
31508
31617
31679
31777
31847
31922
32027
32069
32159
32251
32293
32368
32424
32486
32573
32601
32696
32807
32869
32941
32971
33023
33142
33199
33256
33284
33320
33464
33572
33618
33682
33730
33840
33912
33926
34008
34068
34111
34212
34278
34341
34364
34397
34511
34559
34589
34680
34701
34739
34803
34863
34918
34901
34946
35081
35104
35125
35172
35207
35275
35304
35338
35411
35431
35512
35569
35560
35627
35695
35722
35758
35755
35781
35772
35723
35694
35592
35478
35363
35111
34901
34732
34502
34291
34103
33952
33803
33575
33444
33356
33196
33066
32973
32902
32786
32570
32482
32442
32289
32150
32055
31983
31897
31741
31648
31544
31384
31283
31186
31089
31015
30877
30776
30700
30632
30596
30495
30407
30392
30326
30291
30254
30195
30219
30226
30183
30174
30183
30244
30248
30224
30318
30402
30426
30468
30484
30531
30574
30612
30664
30640
30649
30725
30713
30738
30807
30847
30915
30964
31004
31053
31042
31082
31135
31162
31208
31214
31249
31337
31346
31377
31417
31439
31517
31582
31636
31693
31683
31729
31786
31805
31869
31913
31955
32024
32043
32113
32188
32223
32279
32304
32345
32404
32381
32439
32538
32567
32596
32615
32666
32751
32775
32859
32931
32925
32950
32980
33037
33131
33131
33129
33160
33226
33300
33284
33323
33442
33421
33388
33415
33462
33545
33581
33613
33675
33674
33722
33784
33807
33857
33886
33948
34038
34021
34042
34107
34148
34200
34219
34277
34368
34355
34390
34484
34544
34567
34501
34444
34424
34309
34209
34090
33903
33743
33564
33387
33253
33064
32896
32744
32611
32513
32344
32197
32128
31998
31907
31816
31663
31559
31464
31354
31249
31088
30962
30835
30708
30650
30533
30383
30308
30230
30163
30034
29862
29766
29685
29619
29559
29412
29333
29299
29218
29156
29106
29107
29148
29112
29112
29156
29202
29266
29289
29342
29432
29425
29455
29527
29552
29551
29540
29601
29679
29637
29659
29729
29725
29735
29782
29859
29918
29905
29967
30031
30025
30062
30119
30186
30251
30255
30323
30388
30414
30504
30574
30606
30661
30693
30755
30784
30795
30870
30904
30940
31041
31079
31107
31130
31175
31272
31291
31303
31405
31477
31548
31576
31587
31669
31709
31709
31753
31788
31876
31942
31962
32022
32053
32087
32149
32151
32217
32290
32295
32325
32367
32443
32524
32476
32444
32488
32579
32668
32653
32671
32765
32764
32790
32847
32873
32938
32989
33030
33080
33085
33147
33183
33162
33204
33211
33150
33101
33021
32947
32821
32665
32546
32362
32174
32037
31850
31733
31617
31406
31229
31094
30985
30893
30737
30616
30494
30351
30251
30124
30007
29910
29724
29583
29482
29346
29227
29103
29014
28945
28782
28647
28540
28407
28289
28135
27991
27895
27756
27669
27607
27527
27482
27422
27383
27372
27305
27311
27369
27402
27452
27478
27525
27617
27662
27741
27827
27881
27945
27975
28033
28121
28127
28180
28266
28311
28362
28416
28508
28600
28603
28686
28804
28842
28883
28941
29038
29158
29207
29283
29384
29477
29556
29573
29655
29797
29844
29938
30042
30054
30102
30203
30303
30362
30360
30438
30518
30542
30601
30650
30713
30797
30816
30883
30942
30949
31011
31067
31107
31170
31205
31281
31303
31296
31420
31528
31534
31558
31614
31703
31715
31717
31820
31869
31883
31955
31982
32021
32060
32102
32184
32204
32219
32276
32275
32334
32414
32440
32489
32540
32612
32694
32702
32775
32857
32871
32912
32960
33019
33059
33011
33027
33024
32909
32816
32722
32590
32435
32245
32130
31981
31760
31615
31475
31312
31189
31048
30929
30781
30643
30592
30483
30328
30225
30100
30000
29871
29709
29612
29498
29365
29254
29093
28968
28842
28689
28594
28512
28439
28341
28132
27990
27915
27835
27803
27736
27615
27511
27425
27427
27412
27356
27361
27360
27361
27408
27455
27581
27678
27688
27747
27836
27917
27974
27979
28068
28162
28186
28234
28281
28333
28397
28415
28501
28582
28590
28614
28637
28701
28820
28876
28933
28985
29034
29115
29149
29214
29340
29369
29391
29464
29564
29654
29659
29714
29846
29881
29935
30037
30115
30173
30195
30267
30381
30411
30492
30598
30645
30694
30735
30807
30903
30932
31010
31081
31107
31194
31267
31300
31345
31380
31486
31554
31543
31574
31624
31714
31817
31816
31858
31924
31942
31980
32008
32068
32168
32201
32273
32353
32394
32453
32464
32496
32603
32645
32677
32708
32761
32860
32886
32911
32985
32991
33045
33103
33114
33187
33248
33273
33326
33371
33459
33508
33527
33600
33613
33609
33655
33639
33624
33557
33422
33316
33154
32948
32787
32595
32414
32203
32000
31888
31738
31565
31449
31305
31199
31083
30932
30836
30724
30602
30500
30349
30264
30183
30032
29909
29780
29646
29530
29380
29297
29200
29034
28919
28819
28722
28635
28482
28366
28278
28182
28097
27972
27900
27885
27781
27725
27717
27684
27682
27679
27697
27770
27812
27861
27887
27918
28012
28070
28123
28185
28174
28227
28301
28324
28401
28482
28519
28538
28541
28622
28688
28716
28816
28908
28973
29035
29042
29105
29182
29244
29353
29399
29398
29444
29493
29592
29683
29746
29817
29831
29888
30019
30053
30083
30143
30209
30294
30323
30360
30443
30465
30530
30617
30680
30764
30801
30840
30932
30972
31026
31065
31101
31208
31272
31298
31351
31359
31411
31483
31548
31632
31643
31661
31737
31756
31824
31905
31942
32019
32086
32160
32255
32283
32349
32437
32504
32569
32573
32618
32715
32717
32774
32881
32934
32974
32996
33063
33156
33175
33265
33357
33365
33411
33481
33552
33608
33599
33652
33684
33650
33660
33637
33563
33488
33348
33200
32987
32732
32556
32374
32191
32032
31807
31648
31537
31410
31304
31154
31020
30974
30875
30750
30606
30480
30406
30285
30184
30118
29949
29821
29733
29597
29483
29368
29264
29198
29085
28984
28866
28753
28709
28621
28519
28474
28388
28325
28278
28244
28258
28221
28201
28266
28301
28354
28399
28429
28503
28543
28583
28667
28713
28801
28867
28878
28937
28981
29003
29050
29078
29143
29171
29168
29244
29313
29366
29427
29426
29479
29557
29595
29626
29645
29736
29853
29844
29899
30038
30120
30151
30168
30259
30376
30389
30456
30548
30576
30625
30682
30757
30848
30874
30932
30985
31025
31116
31152
31165
31229
31266
31346
31421
31469
31553
31602
31656
31735
31735
31792
31877
31913
31960
31995
32069
32170
32171
32200
32256
32299
32365
32381
32414
32514
32532
32540
32581
32672
32791
32790
32780
32860
32893
32950
33016
33043
33073
33065
33097
33181
33170
33182
33225
33230
33220
33173
33161
33145
32989
32876
32785
32597
32409
32227
32056
31914
31720
31546
31379
31240
31154
30993
30832
30738
30596
30500
30399
30234
30124
30017
29883
29780
29645
29509
29361
29253
29191
29019
28838
28765
28649
28517
28380
28238
28130
28003
27913
27852
27703
27615
27553
27427
27345
27298
27253
27228
27175
27159
27144
27147
27213
27235
27265
27349
27365
27404
27474
27518
27544
27542
27609
27714
27703
27725
27800
27836
27865
27875
27916
28005
28050
28119
28170
28198
28286
28358
28426
28519
28549
28601
28677
28767
28875
28910
28966
29097
29159
29212
29255
29296
29408
29498
29568
29658
29705
29801
29895
29957
30050
30096
30143
30270
30372
30470
30525
30568
30676
30743
30801
30901
30947
31039
31140
31200
31291
31379
31499
31631
31670
31774
31913
32004
32118
32201
32270
32379
32446
32530
32611
32708
32841
32889
32951
33084
33130
33199
33311
33416
33528
33576
33634
33742
33808
33934
34033
34033
34072
34136
34206
34279
34295
34354
34348
34225
34123
33983
33790
33590
33330
33092
32832
32559
32371
32181
32013
31895
31705
31541
31410
31281
31183
31032
30882
30769
30602
30501
30414
30245
30092
29956
29849
29745
29561
29436
29339
29200
29078
28926
28780
28686
28547
28425
28300
28182
28129
28029
27914
27863
27793
27750
27687
27600
27584
27583
27621
27697
27691
27707
27770
27845
27917
27919
27953
28053
28094
28170
28230
28222
28273
28351
28410
28465
28497
28580
28623
28633
28732
28807
28836
28907
28973
29052
29105
29164
29267
29319
29403
29528
29553
29633
29757
29816
29886
29961
30050
30162
30233
30343
30443
30521
30634
30700
30764
30860
30897
31000
31122
31190
31276
31337
31393
31479
31532
31635
31707
31713
31772
31840
31930
32043
32092
32195
32303
32369
32477
32563
32647
32763
32819
32909
33000
33066
33163
33217
33281
33367
33371
33443
33536
33549
33577
33643
33762
33853
33828
33901
33995
33990
34045
34139
34192
34219
34232
34331
34391
34404
34502
34557
34561
34613
34657
34738
34786
34813
34902
34944
34977
35055
35064
35094
35105
35041
34961
34805
34617
34427
34141
33896
33662
33393
33196
33014
32846
32735
32590
32478
32365
32260
32216
32104
31957
31852
31709
31629
31547
31419
31363
31282
31128
30990
30875
30842
30784
30670
30576
30444
30357
30347
30250
30150
30071
29991
29945
29881
29855
29848
29753
29744
29791
29782
29801
29835
29883
29970
30033
30127
30179
30203
30292
30361
30421
30487
30491
30571
30655
30654
30677
30710
30745
30801
30831
30912
30945
30922
30984
31031
31029
31080
31136
31199
31208
31225
31317
31369
31438
31531
31514
31554
31639
31659
31686
31708
31739
31792
31788
31827
31888
31951
32040
32066
32106
32188
32200
32285
32387
32406
32454
32518
32589
32667
32675
32713
32751
32781
32844
32841
32855
32942
32966
33009
33034
33022
33085
33135
33155
33203
33215
33249
33267
33286
33353
33363
33384
33445
33419
33452
33509
33509
33554
33601
33628
33661
33650
33692
33732
33751
33806
33785
33757
33814
33831
33855
33880
33910
33973
33961
33959
34018
33998
34021
34077
34100
34140
34125
34090
34088
34013
33929
33799
33617
33441
33182
32921
32753
32561
32395
32221
32025
31873
31709
31589
31516
31340
31189
31077
30961
30888
30769
30622
30518
30382
30267
30129
29975
29884
29770
29664
29590
29429
29296
29206
29115
29035
28901
28794
28750
28640
28549
28476
28397
28363
28295
28230
28232
28212
28222
28220
28214
28283
28335
28385
28472
28504
28561
28633
28688
28745
28756
28812
28905
28889
28911
28975
29002
29057
29116
29183
29252
29259
29312
29371
29412
29503
29566
29625
29719
29763
29846
29934
30000
30094
30143
30205
30320
30372
30442
30516
30588
30715
30780
30817
30935
31022
31073
31107
31195
31315
31324
31357
31470
31484
31526
31598
31603
31619
31663
31757
31859
31852
31863
31889
31908
31981
32025
32064
32121
32115
32172
32252
32283
32318
32320
32358
32453
32470
32509
32548
32571
32649
32662
32640
32708
32766
32800
32808
32871
32966
32938
32946
33064
33090
33125
33180
33190
33233
33272
33305
33365
33379
33398
33346
33229
33157
33037
32864
32675
32426
32257
32085
31850
31693
31538
31331
31170
31049
30974
30834
30675
30602
30489
30362
30289
30156
30034
29910
29780
29713
29624
29520
29431
29278
29170
29073
28936
28825
28693
28584
28532
28425
28331
28229
28119
28065
27981
27896
27878
27831
27813
27807
27811
27850
27840
27855
27946
27995
28075
28123
28097
28122
28184
28253
28304
28281
28312
28365
28400
28467
28495
28522
28586
28587
28604
28637
28676
28739
28745
28781
28900
28955
28998
29037
29076
29162
29221
29297
29400
29417
29471
29556
29605
29653
29675
29741
29855
29889
29949
30027
30078
30139
30164
30212
30306
30333
30395
30475
30522
30583
30616
30671
30735
30719
30780
30850
30844
30904
31003
31078
31139
31157
31216
31277
31351
31466
31489
31507
31603
31635
31680
31751
31821
31901
31928
31997
32122
32163
32257
32384
32445
32497
32533
32603
32707
32735
32798
32877
32933
33012
33030
33034
33083
33064
33031
32936
32786
32674
32485
32228
32023
31817
31639
31449
31279
31181
31042
30918
30846
30681
30546
30465
30364
30252
30103
30002
29947
29788
29653
29574
29484
29385
29246
29143
29065
28905
28819
28770
28639
28519
28428
28362
28290
28142
28053
27998
27928
27890
27830
27789
27785
27732
27739
27761
27740
27764
27798
27844
27905
27925
28009
28073
28077
28148
28228
28271
28311
28329
28410
28482
28515
28567
28575
28607
28694
28714
28755
28811
28862
28947
28967
28966
29050
29130
29203
29246
29305
29406
29425
29457
29564
29607
29677
29763
29813
29892
29955
30023
30113
30149
30225
30290
30316
30387
30432
30469
30551
30599
30675
30730
30755
30822
30864
30915
30984
30980
31045
31133
31155
31197
31249
31318
31380
31371
31440
31518
31529
31587
31655
31715
31764
31741
31781
31853
31922
32036
32074
32078
32154
32200
32237
32257
32305
32399
32426
32485
32595
32590
32625
32726
32783
32817
32823
32864
32928
32913
32941
32935
32827
32757
32683
32534
32329
32076
31898
31706
31460
31263
31056
30876
30775
30638
30505
30341
30168
30085
29977
29835
29730
29601
29504
29373
29204
29103
28992
28867
28767
28607
28459
28308
28163
28082
27960
27815
27720
27598
27492
27356
27198
27120
27047
26967
26903
26803
26777
26759
26679
26632
26640
26715
26772
26706
26720
26816
26884
26970
27045
27110
27189
27241
27340
27407
27425
27491
27555
27625
27702
27719
27787
27844
27836
27885
27956
28020
28091
28115
28178
28259
28347
28445
28460
28493
28604
28659
28745
28858
28926
28969
28989
29087
29233
29256
29292
29381
29458
29533
29565
29622
29709
29730
29810
29895
29921
29998
30078
30128
30174
30188
30260
30321
30356
30437
30495
30571
30677
30687
30718
30789
30860
30949
30998
31072
31167
31160
31208
31295
31341
31413
31464
31505
31574
31607
31689
31775
31846
31933
31939
31945
32023
32059
32127
32188
32216
32288
32324
32355
32448
32508
32589
32653
32700
32778
32802
32848
32951
32968
33000
33041
33048
33079
33052
32972
32889
32740
32609
32423
32150
31908
31658
31429
31264
31058
30875
30697
30528
30422
30299
30195
30111
29938
29830
29746
29594
29483
29367
29217
29113
29011
28897
28736
28618
28566
28412
28229
28115
27980
27922
27863
27699
27559
27468
27383
27257
27087
27048
27042
26952
26894
26862
26838
26835
26811
26846
26881
26895
26955
27007
27096
27215
27254
27340
27434
27468
27534
27602
27657
27733
27797
27896
27946
27954
28023
28068
28096
28160
28203
28296
28360
28369
28433
28516
28607
28682
28675
28738
28846
28910
28971
29008
29083
29206
29252
29306
29366
29422
29521
29579
29632
29713
29730
29792
29894
29987
30090
30129
30169
30242
30260
30350
30459
30503
30559
30601
30656
30745
30785
30861
30934
30989
31092
31152
31207
31314
31361
31419
31480
31537
31620
31657
31726
31834
31846
31912
32004
32029
32081
32141
32209
32292
32325
32406
32476
32502
32558
32594
32666
32778
32809
32888
32961
32966
33028
33098
33137
33175
33186
33266
33327
33346
33428
33487
33522
33559
33547
33625
33709
33685
33642
33567
33488
33405
33201
32980
32762
32525
32282
31974
31724
31566
31329
31136
31008
30872
30757
30619
30494
30397
30237
30141
30071
29947
29828
29682
29561
29498
29368
29237
29111
28992
28907
28776
28671
28610
28462
28344
28256
28135
28042
27944
27859
27800
27698
27650
27602
27520
27498
27486
27483
27509
27520
27615
27691
27688
27736
27815
27901
27987
28008
28067
28135
28179
28234
28228
28243
28340
28376
28393
28420
28463
28514
28501
28548
28673
28702
28747
28835
28898
28956
28979
29025
29097
29118
29213
29310
29328
29384
29463
29543
29624
29656
29734
29796
29833
29935
30008
30055
30121
30156
30251
30323
30340
30413
30477
30523
30602
30651
30720
30745
30767
30893
30978
31004
31075
31125
31166
31157
31184
31335
31420
31425
31459
31487
31578
31650
31684
31772
31814
31836
31938
32022
32091
32114
32154
32259
32308
32372
32489
32498
32518
32559
32588
32681
32762
32833
32940
32998
33067
33125
33171
33230
33218
33236
33298
33241
33193
33146
33012
32860
32645
32378
32137
31895
31716
31521
31304
31153
30981
30826
30747
30634
30536
30408
30264
30220
30159
30038
29934
29821
29759
29658
29509
29427
29331
29214
29120
28989
28910
28838
28722
28626
28526
28468
28422
28275
28200
28196
28146
28093
28038
28037
28087
28070
28080
28113
28150
28232
28288
28359
28464
28496
28560
28624
28640
28690
28739
28792
28846
28835
28888
28955
28970
29007
29037
29097
29195
29215
29236
29252
29268
29349
29417
29493
29579
29579
29630
29718
29769
29829
29873
29942
30031
30053
30137
30215
30220
30278
30376
30478
30552
30548
30606
30685
30728
30788
30826
30894
30983
30988
31055
31135
31150
31211
31283
31333
31366
31350
31413
31484
31508
31559
31595
31654
31730
31722
31782
31869
31897
31949
31996
32061
32158
32181
32206
32225
32255
32341
32358
32370
32455
32498
32561
32595
32592
32649
32691
32721
32784
32813
32891
32936
32902
32883
32829
32767
32725
32580
32398
32186
31949
31720
31429
31187
31051
30854
30669
30506
30336
30209
30068
29933
29806
29605
29478
29379
29227
29117
29001
28861
28759
28654
28573
28432
28256
28161
28061
27949
27845
27669
27539
27438
27310
27197
27056
26944
26888
26769
26665
26581
26508
26486
26427
26367
26350
26295
26291
26317
26335
26378
26397
26449
26551
26594
26675
26760
26814
26916
26965
26944
26977
27041
27117
27149
27199
27286
27299
27355
27502
27542
27562
27638
27727
27789
27770
27797
27913
27968
28033
28101
28142
28220
28282
28351
28444
28474
28528
28583
28616
28677
28710
28774
28895
28945
28994
29034
29064
29145
29180
29202
29299
29370
29422
29441
29462
29512
29520
29592
29704
29690
29739
29862
29911
29932
29960
30037
30134
30139
30153
30180
30214
30287
30308
30337
30416
30440
30512
30584
30599
30640
30668
30707
30784
30809
30843
30845
30835
30911
30967
31002
31071
31100
31159
31203
31213
31257
31290
31362
31448
31399
31357
31339
31264
31152
30981
30813
30659
30416
30211
30028
29814
29635
29451
29280
29142
28969
28857
28737
28559
28432
28312
28180
28048
27878
27780
27661
27472
27359
27284
27185
27071
26899
26746
26595
26453
26354
26203
26060
25965
25817
25729
25675
25553
25417
25305
25269
25245
25104
25009
24988
24979
25014
25060
25128
25205
25231
25328
25428
25476
25595
25730
25820
25899
25948
26004
26027
26073
26190
26229
26233
26315
26381
26439
26468
26503
26595
26656
26719
26798
26809
26892
27016
27078
27130
27172
27245
27356
27411
27493
27587
27673
27771
27795
27830
27956
28043
28113
28161
28230
28361
28423
28438
28488
28524
28618
28694
28725
28826
28923
28982
29039
29075
29171
29247
29277
29342
29364
29374
29443
29486
29542
29568
29571
29613
29619
29647
29741
29771
29808
29822
29816
29894
29957
29982
30044
30093
30163
30202
30236
30307
30318
30360
30485
30526
30553
30590
30620
30664
30671
30713
30787
30772
30813
30888
30906
30948
30996
31052
31114
31131
31206
31245
31205
31217
31212
31145
31048
30878
30709
30502
30279
30122
29937
29750
29595
29379
29219
29096
28945
28817
28671
28535
28430
28265
28139
28034
27908
27801
27634
27452
27323
27169
27045
26918
26761
26627
26472
26345
26247
26066
25918
25807
25672
25565
25470
25400
25321
25145
25033
24999
24945
24853
24732
24700
24739
24710
24735
24784
24787
24856
24948
24997
25054
25109
25181
25236
25318
25420
25429
25459
25545
25550
25612
25709
25718
25718
25745
25793
25831
25843
25944
26021
26015
26069
26151
26208
26268
26316
26393
26418
26428
26532
26603
26629
26697
26761
26854
26926
26992
27092
27107
27096
27161
27212
27281
27346
27404
27482
27497
27524
27613
27656
27731
27810
27847
27907
27953
28019
28118
28161
28234
28293
28329
28443
28533
28566
28616
28664
28750
28789
28805
28899
28964
29005
29088
29133
29193
29235
29271
29368
29439
29508
29593
29610
29694
29813
29886
29978
30061
30154
30240
30246
30310
30390
30430
30527
30630
30706
30744
30727
30823
30954
31013
31090
31151
31223
31359
31450
31526
31581
31651
31734
31736
31791
31920
31932
31955
31999
31968
31934
31878
31781
31635
31392
31172
30929
30636
30397
30164
29948
29763
29527
29357
29239
29110
28999
28858
28739
28643
28469
28368
28318
28202
28066
27931
27844
27756
27573
27456
27361
27207
27116
27037
26901
26770
26647
26559
26452
26362
26309
26179
26075
26047
25948
25882
25857
25805
25779
25739
25709
25749
25784
25833
25862
25914
26033
26092
26140
26257
26325
26373
26410
26472
26586
26628
26647
26732
26795
26871
26927
26976
27074
27116
27127
27191
27248
27341
27418
27480
27586
27648
27701
27800
27847
27894
27946
28016
28123
28169
28219
28326
28379
28465
28563
28615
28672
28728
28842
28977
28990
29026
29117
29201
29291
29342
29421
29535
29559
29605
29685
29763
29856
29891
29938
30055
30099
30121
30160
30249
30381
30435
30494
30597
30627
30720
30825
30838
30879
30962
31065
31158
31164
31203
31264
31332
31427
31462
31515
31612
31631
31702
31791
31809
31848
31897
31977
32076
32096
32152
32226
32286
32375
32404
32427
32504
32522
32572
32668
32762
32813
32769
32778
32835
32744
32662
32606
32454
32255
32019
31768
31498
31177
30971
30812
30581
30355
30164
30057
29968
29760
29610
29528
29418
29325
29218
29127
29067
28933
28811
28710
28624
28573
28455
28335
28273
28164
28088
28004
27867
27763
27662
27571
27483
27333
27263
27250
27214
27186
27128
27100
27127
27119
27165
27197
27184
27254
27329
27356
27411
27468
27522
27528
27566
27664
27661
27637
27691
27711
27743
27757
27749
27819
27869
27867
27893
27924
27982
27991
27988
28057
28084
28087
28132
28143
28202
28276
28315
28349
28351
28404
28495
28503
28563
28627
28609
28639
28703
28757
28815
28858
28940
28966
28957
29034
29093
29117
29166
29182
29232
29258
29254
29310
29345
29385
29493
29552
29587
29592
29614
29707
29764
29830
29925
29926
29953
30002
30007
30018
30025
30080
30153
30144
30216
30315
30335
30369
30412
30465
30536
30564
30638
30697
30716
30775
30792
30801
30849
30857
30925
31004
31047
31116
31154
31195
31266
31277
31337
31406
31433
31481
31481
31469
31500
31463
31383
31231
31046
30921
30747
30532
30332
30097
29945
29821
29643
29475
29290
29129
29024
28880
28771
28657
28508
28398
28264
28131
28036
27895
27777
27624
27431
27330
27243
27113
26988
26837
26722
26606
26489
26401
26251
26112
26026
25880
25772
25685
25566
25499
25437
25372
25346
25296
25264
25234
25234
25281
25270
25277
25350
25364
25405
25475
25535
25620
25667
25696
25754
25801
25897
25939
25906
25945
26001
26025
26061
26096
26163
26188
26199
26281
26329
26358
26422
26449
26519
26609
26678
26745
26773
26839
26931
26933
26999
27118
27185
27252
27305
27348
27395
27414
27503
27586
27609
27652
27675
27706
27771
27784
27818
27849
27866
27927
27967
28018
28087
28077
28113
28179
28206
28239
28266
28346
28456
28474
28518
28566
28575
28629
28663
28679
28739
28793
28868
28884
28876
28951
28987
28982
29017
29037
29090
29128
29171
29291
29338
29316
29359
29415
29488
29531
29578
29663
29671
29694
29802
29857
29931
30000
30039
30132
30195
30210
30252
30293
30367
30375
30322
30311
30248
30149
30069
29911
29729
29540
29380
29268
29075
28858
28701
28533
28426
28294
28083
27943
27837
27708
27601
27483
27380
27241
27105
27018
26860
26697
26615
26496
26379
26234
26069
25979
25873
25716
25577
25444
25364
25246
25082
24983
24901
24826
24754
24627
24565
24529
24456
24426
24397
24374
24401
24420
24465
24495
24536
24643
24713
24768
24861
24913
24996
25069
25098
25151
25209
25294
25377
25374
25417
25484
25513
25585
25664
25724
25773
25790
25874
25968
26024
26092
26138
26206
26288
26305
26394
26500
26534
26599
26678
26745
26819
26877
26983
27067
27123
27219
27271
27329
27440
27500
27580
27673
27758
27857
27898
27954
28071
28115
28150
28195
28252
28340
28381
28435
28512
28503
28551
28644
28696
28754
28796
28855
28948
28990
29064
29135
29176
29238
29260
29305
29401
29424
29468
29520
29553
29621
29641
29662
29769
29852
29911
29934
29990
30120
30168
30184
30254
30277
30325
30378
30401
30437
30437
30458
30518
30514
30568
30635
30642
30679
30700
30707
30751
30777
30834
30859
30839
30827
30736
30635
30580
30434
30248
30026
29780
29581
29368
29173
29017
28814
28677
28548
28357
28219
28102
27974
27864
27729
27627
27490
27321
27217
27106
26995
26898
26740
26628
26499
26311
26209
26149
26041
25888
25702
25599
25523
25416
25306
25157
25063
25040
24942
24862
24804
24731
24702
24670
24646
24671
24676
24703
24728
24758
24835
24900
24996
25095
25095
25161
25265
25293
25337
25395
25428
25452
25466
25536
25580
25595
25672
25749
25828
25897
25880
25918
26008
26084
26178
26225
26252
26323
26376
26458
26521
26569
26653
26689
26730
26826
26869
26924
26984
27039
27120
27151
27190
27287
27336
27404
27486
27569
27671
27709
27755
27864
27926
28000
28056
28095
28194
28263
28302
28372
28416
28492
28553
28596
28669
28686
28712
28812
28859
28905
28958
29020
29103
29117
29153
29267
29320
29373
29415
29443
29531
29606
29686
29801
29844
29881
29908
29943
30031
30066
30091
30152
30157
30207
30268
30312
30421
30503
30523
30540
30547
30632
30707
30722
30747
30734
30732
30752
30667
30569
30449
30273
30096
29875
29659
29497
29293
29122
28955
28774
28654
28517
28371
28258
28101
27983
27874
27735
27615
27480
27390
27334
27176
27048
26982
26911
26836
26704
26580
26507
26389
26302
26212
26084
25991
25898
25824
25767
25661
25621
25587
25490
25436
25394
25351
25358
25353
25350
25341
25387
25486
25500
25520
25608
25637
25697
25778
25818
25878
25919
25954
26022
26083
26178
26218
26212
26283
26360
26413
26475
26516
26615
26686
26712
26811
26896
26936
27005
27074
27158
27183
27200
27300
27366
27394
27426
27419
27489
27574
27595
27648
27716
27784
27834
27831
27922
28022
28047
28119
28218
28306
28375
28404
28506
28587
28591
28637
28686
28740
28815
28847
28919
28968
28973
29032
29092
29157
29228
29233
29295
29370
29400
29465
29515
29559
29622
29623
29669
29751
29826
29884
29860
29889
30019
30060
30081
30129
30190
30262
30273
30315
30423
30440
30443
30452
30448
30453
30402
30344
30288
30129
29990
29858
29664
29483
29300
29148
29034
28854
28693
28546
28405
28314
28157
27976
27894
27815
27716
27574
27445
27361
27224
27123
27081
26942
26827
26753
26643
26548
26429
26296
26191
26059
25950
25837
25737
25690
25594
25497
25458
25382
25338
25293
25229
25235
25232
25196
25191
25195
25254
25299
25327
25404
25439
25466
25552
25596
25630
25657
25705
25800
25827
25838
25908
25936
25969
26020
26079
26145
26169
26241
26335
26315
26357
26461
26512
26568
26626
26680
26751
26806
26904
26979
27019
27082
27104
27156
27272
27315
27353
27412
27491
27604
27665
27727
27811
27821
27873
27943
27981
28063
28120
28144
28207
28270
28354
28381
28391
28476
28509
28515
28593
28650
28695
28705
28732
28832
28879
28909
28974
28985
29041
29119
29166
29238
29290
29350
29427
29437
29496
29569
29614
29696
29725
29715
29758
29815
29914
29954
29956
30046
30109
30121
30165
30189
30227
30229
30215
30237
30198
30126
30032
29818
29637
29488
29301
29153
28996
28814
28643
28451
28319
28194
28050
27937
27786
27651
27569
27431
27314
27189
27024
26911
26802
26685
26579
26423
26298
26170
26034
25955
25823
25644
25521
25412
25331
25205
25037
24916
24793
24706
24664
24538
24416
24345
24308
24288
24207
24153
24180
24161
24155
24173
24208
24288
24339
24391
24477
24508
24551
24598
24650
24742
24771
24765
24809
24847
24916
24973
25013
25082
25100
25123
25212
25254
25290
25337
25404
25486
25517
25588
25696
25708
25764
25861
25919
26016
26113
26165
26200
26234
26344
26429
26465
26544
26603
26656
26746
26800
26880
26952
26990
27034
27063
27150
27255
27248
27300
27415
27473
27519
27573
27653
27710
27673
27702
27777
27827
27901
27944
27971
28016
28027
28091
28146
28164
28227
28274
28320
28391
28405
28452
28508
28555
28638
28678
28708
28761
28770
28844
28913
28907
28942
28992
29035
29081
29077
29094
29088
29050
29026
28920
28780
28680
28531
28398
28258
28105
28000
27823
27595
27457
27354
27248
27094
26962
26896
26765
26630
26558
26431
26326
26215
26063
25967
25867
25726
25602
25466
25348
25206
25067
24973
24826
24684
24590
24449
24354
24284
24162
24045
23923
23836
23805
23751
23737
23713
23658
23658
23666
23690
23750
23761
23794
23862
23951
24042
24048
24072
24174
24223
24271
24324
24364
24428
24464
24501
24560
24568
24617
24689
24732
24773
24803
24882
24978
24987
25059
25167
25205
25245
25304
25386
25469
25498
25575
25641
25667
25742
25812
25878
25966
25999
26032
26065
26136
26259
26301
26315
26396
26456
26534
26601
26637
26685
26716
26793
26884
26876
26922
26998
27022
27096
27163
27172
27208
27276
27364
27382
27410
27528
27579
27596
27671
27718
27780
27820
27844
27942
28013
28039
28086
28110
28170
28214
28237
28298
28326
28368
28446
28453
28499
28575
28625
28684
28706
28726
28760
28749
28814
28874
28828
28775
28709
28620
28505
28325
28191
28049
27849
27673
27490
27322
27187
27008
26876
26752
26582
26442
26317
26213
26091
25892
25786
25710
25542
25389
25269
25147
25017
24850
24727
24584
24415
24303
24183
24048
23924
23757
23643
23535
23386
23270
23157
23056
22987
22893
22848
22809
22748
22739
22743
22767
22795
22769
22819
22914
22965
23022
23083
23175
23275
23313
23398
23500
23550
23603
23668
23782
23888
23889
23938
24043
24112
24165
24207
24296
24413
24455
24518
24577
24599
24662
24730
24806
24905
24980
25100
25166
25166
25251
25361
25442
25543
25632
25720
25775
25860
25999
26045
26070
26176
26257
26353
26444
26496
26556
26604
26697
26808
26816
26872
26991
27075
27128
27151
27224
27325
27319
27331
27386
27440
27516
27556
27611
27706
27729
27762
27831
27903
27943
27916
27979
28124
28152
28196
28277
28309
28354
28400
28451
28509
28515
28562
28613
28659
28749
28779
28795
28891
28949
28964
28958
29001
29093
29112
29163
29284
29293
29273
29246
29185
29154
29076
28930
28775
28575
28389
28198
28025
27895
27683
27461
27335
27195
27068
26950
26823
26699
26513
26350
26249
26091
25972
25881
25742
25599
25445
25319
25223
25074
24962
24840
24663
24528
24416
24314
24212
24045
23909
23790
23666
23579
23447
23305
23231
23158
23114
23061
23001
22994
23005
23065
23127
23099
23155
23275
23326
23362
23408
23475
23550
23583
23659
23741
23801
23886
23933
23978
24049
24070
24129
24210
24270
24333
24367
24436
24534
24570
24661
24765
24804
24859
24919
24981
25074
25137
25217
25292
25382
25502
25559
25630
25743
25779
25851
25958
26034
26120
26201
26293
26366
26357
26420
26531
26607
26699
26779
26865
26959
26995
27075
27150
27191
27282
27347
27390
27476
27542
27616
27667
27737
27865
27918
27950
28054
28124
28198
28247
28280
28363
28407
28433
28508
28548
28607
28663
28719
28808
28855
28924
29027
29045
29102
29186
29227
29295
29377
29469
29527
29496
29548
29623
29616
29600
29542
29437
29332
29175
29010
28797
28576
28420
28225
28033
27916
27765
27628
27488
27341
27253
27165
27087
27005
26831
26711
26631
26510
26404
26297
26209
26143
26020
25922
25816
25698
25657
25589
25462
25356
25250
25175
25086
25006
24970
24874
24782
24753
24699
24697
24701
24666
24698
24753
24802
24879
24958
25088
25189
25249
25340
25404
25474
25571
25605
25669
25740
25781
25849
25895
25937
25995
26002
26045
26094
26130
26216
26279
26336
26436
26498
26571
26623
26678
26813
26907
26953
27017
27044
27099
27173
27266
27378
27400
27435
27575
27673
27742
27797
27864
27956
27985
28033
28135
28167
28233
28320
28369
28446
28502
28542
28590
28602
28668
28709
28708
28787
28871
28920
28966
28987
29074
29162
29215
29289
29317
29352
29427
29445
29514
29583
29599
29660
29700
29717
29784
29843
29925
29979
30035
30133
30152
30169
30261
30297
30335
30378
30402
30430
30409
30411
30440
30361
30272
30147
29946
29780
29594
29352
29112
28860
28669
28504
28355
28229
28023
27845
27770
27636
27490
27352
27213
27113
26980
26852
26756
26591
26452
26340
26217
26111
25955
25799
25704
25567
25430
25300
25176
25067
24905
24778
24714
24581
24472
24384
24265
24183
24105
24032
23990
23923
23890
23862
23840
23875
23896
23937
24010
24018
24066
24144
24186
24227
24251
24293
24338
24314
24340
24377
24351
24350
24366
24399
24446
24439
24447
24461
24487
24548
24564
24586
24644
24656
24730
24832
24876
24902
24905
24933
24998
25033
25121
25183
25182
25243
25308
25333
25379
25421
25468
25480
25520
25612
25630
25644
25709
25732
25815
25887
25880
25945
26059
26124
26159
26187
26275
26355
26430
26528
26551
26593
26717
26759
26775
26832
26928
27012
27015
27072
27189
27183
27181
27242
27303
27370
27404
27450
27538
27589
27679
27762
27801
27864
27913
27977
28053
28044
28073
28139
28184
28231
28254
28312
28390
28373
28400
