25943
25807
25679
25564
25467
25388
25322
25264
25214
25171
25137
25106
25074
25038
24994
24944
24893
24839
24777
24705
24627
24541
24446
24345
24243
24148
24063
23987
23918
23854
23795
23740
23680
23612
23541
23467
23389
23307
23221
23131
23034
22932
22827
22720
22615
22525
22460
22429
22442
22515
22659
22880
23182
23569
24040
24586
25187
25824
26481
27143
27794
28414
28994
29525
30000
30408
30749
31025
31242
31407
31529
31611
31655
31666
31654
31626
31584
31531
31474
31415
31358
31304
31251
31202
31158
31114
31066
31014
30958
30891
30804
30703
30594
30479
30357
30234
30124
30031
29954
29891
29844
29817
29804
29800
29807
29822
29837
29853
29875
29904
29934
29960
29982
29995
30000
29996
29982
29963
29939
29907
29868
29818
29753
29674
29584
29483
29367
29234
29089
28938
28781
28621
28466
28320
28178
28045
27927
27822
27726
27637
27553
27474
27401
27328
27251
27176
27101
27020
26934
26841
26744
26647
26553
26459
26362
26270
26183
26103
26033
25973
25922
25878
25840
25804
25767
25727
25684
25642
25596
25538
25469
25398
25327
25253
25175
25100
25029
24959
24885
24813
24745
24674
24594
24505
24412
24323
24247
24189
24161
24179
24260
24417
24658
24989
25408
25911
26487
27118
27778
28450
29116
29758
30352
30884
31352
31758
32104
32391
32618
32792
32922
33015
33070
33094
33101
33098
33083
33056
33021
32983
32941
32891
32832
32765
32691
32601
32488
32354
32198
32028
31852
31673
31493
31318
31149
30990
30847
30730
30644
30587
30555
30544
30548
30561
30577
30595
30609
30619
30626
30631
30629
30622
30617
30611
30597
30576
30547
30510
30461
30397
30323
30241
30157
30074
29988
29895
29796
29697
29598
29499
29399
29295
29192
29094
29000
28910
28829
28755
28684
28615
28547
28478
28405
28326
28243
28153
28055
27951
27843
27733
27624
27521
27427
27335
27242
27157
27089
27032
26980
26934
26896
26866
26840
26812
26780
26748
26712
26669
26613
26547
26475
26399
26316
26226
26131
26032
25927
25817
25707
25601
25496
25391
25285
25179
25074
24975
24886
24811
24746
24694
24668
24679
24732
24836
25007
25260
25597
26018
26516
27080
27692
28328
28965
29587
30183
30749
31270
31731
32131
32467
32738
32949
33107
33220
33300
33356
33385
33386
33363
33322
33271
33214
33152
33081
33008
32937
32869
32799
32719
32625
32521
32413
32297
32173
32039
31898
31757
31619
31486
31361
31247
31148
31070
31010
30965
30939
30932
30937
30954
30975
30993
31010
31030
31048
31059
31063
31060
31055
31047
31035
31017
30990
30950
30900
30843
30775
30695
30607
30516
30418
30307
30184
30054
29918
29777
29629
29477
29327
29186
29055
28935
28826
28725
28632
28549
28475
28405
28338
28273
28211
28150
28098
28053
28010
27963
27913
27867
27822
27778
27733
27684
27630
27573
27515
27461
27413
27367
27316
27263
27213
27165
27116
27065
27020
26984
26953
26925
26898
26870
26837
26799
26753
26697
26633
26561
26474
26374
26268
26162
26051
25934
25816
25705
25606
25523
25460
25426
25432
25491
25613
25806
26081
26442
26881
27382
27926
28498
29085
29675
30245
30778
31263
31697
32074
32394
32658
32870
33041
33177
33283
33359
33406
33433
33443
33438
33416
33379
33329
33260
33168
33055
32920
32762
32585
32392
32182
31961
31741
31532
31342
31172
31023
30900
30802
30722
30655
30607
30580
30568
30562
30559
30564
30575
30594
30621
30652
30683
30715
30752
30788
30824
30867
30914
30962
31003
31033
31046
31043
31027
30999
30955
30891
30809
30714
30606
30485
30354
30215
30071
29926
29791
29668
29564
29479
29416
29373
29342
29322
29314
29311
29306
29292
29264
29221
29166
29099
29019
28930
28837
28742
28641
28538
28438
28347
28270
28209
28166
28142
28136
28141
28149
28156
28164
28169
28168
28162
28150
28132
28108
28078
28045
28012
27982
27953
27919
27879
27838
27798
27756
27706
27650
27594
27538
27478
27411
27344
27277
27206
27132
27062
26995
26927
26860
26790
26723
26671
26650
26674
26751
26894
27114
27418
27800
28248
28751
29298
29870
30451
31026
31582
32105
32587
33030
33431
33787
34095
34356
34567
34730
34851
34943
35009
35046
35051
35025
34971
34898
34814
34721
34621
34520
34422
34329
34243
34162
34077
33988
33895
33793
33674
33541
33398
33254
33120
33000
32895
32807
32741
32702
32693
32707
32740
32791
32857
32928
32996
33063
33127
33187
33236
33268
33277
33262
33224
33162
33073
32955
32820
32677
32523
32360
32197
32036
31873
31709
31553
31408
31269
31135
31002
30866
30732
30602
30474
30349
30227
30109
29998
29892
29789
29692
29600
29509
29416
29325
29236
29149
29062
28980
28902
28826
28750
28679
28614
28548
28480
28413
28348
28279
28204
28131
28059
27986
27914
27840
27761
27675
27585
27487
27381
27272
27161
27049
26934
26815
26695
26578
26460
26338
26218
26104
25991
25876
25756
25636
25516
25393
25266
25146
25040
24951
24891
24872
24905
25003
25177
25434
25779
26207
26703
27250
27842
28465
29098
29724
30328
30899
31425
31900
32323
32695
33018
33291
33514
33689
33821
33916
33976
34003
34005
33988
33955
33904
33837
33754
33651
33532
33402
33265
33121
32968
32809
32655
32504
32350
32192
32035
31881
31731
31585
31449
31328
31221
31131
31058
31003
30958
30914
30867
30818
30767
30711
30642
30561
30473
30380
30289
30207
30137
30083
30035
29994
29960
29933
29911
29887
29855
29813
29755
29677
29581
29472
29349
29210
29061
28911
28769
28634
28507
28393
28295
28214
28150
28104
28077
28065
28062
28062
28065
28065
28058
28044
28029
28017
28004
27985
27961
27932
27900
27864
27825
27787
27751
27713
27668
27618
27568
27519
27466
27411
27359
27310
27259
27205
27151
27101
27052
26999
26941
26879
26811
26733
26642
26546
26456
26373
26295
26226
26175
26152
26167
26237
26374
26587
26880
27257
27709
28217
28771
29360
29966
30569
31156
31719
32251
32739
33174
33558
33886
34151
34352
34499
34601
34662
34687
34678
34636
34571
34491
34404
34312
34219
34133
34056
33984
33909
33826
33736
33637
33523
33394
33252
33100
32942
32786
32636
32496
32370
32262
32177
32117
32083
32079
32103
32143
32192
32253
32326
32400
32468
32531
32591
32641
32673
32686
32681
32660
32623
32568
32495
32410
32324
32241
32163
32094
32036
31988
31947
31908
31869
31831
31788
31734
31668
31594
31516
31438
31360
31281
31204
31133
31068
31010
30952
30897
30846
30798
30755
30717
30682
30650
30618
30591
30579
30579
30582
30583
30585
30587
30582
30565
30538
30500
30448
30383
30309
30232
30155
30078
30003
29933
29869
29807
29745
29680
29612
29544
29472
29396
29322
29253
29185
29112
29035
28962
28898
28849
28820
28830
28895
29022
29222
29508
29885
30347
30883
31483
32132
32815
33512
34200
34861
35482
36056
36577
37039
37440
37784
38069
38298
38475
38606
38703
38773
38817
38844
38863
38874
38878
38878
38885
38901
38920
38935
38944
38942
38919
38866
38780
38664
38522
38359
38182
38001
37828
37671
37532
37411
37315
37250
37213
37195
37194
37207
37224
37240
37256
37275
37294
37310
37323
37329
37329
37324
37315
37298
37270
37225
37161
37077
36971
36848
36713
36571
36421
36263
36102
35948
35808
35687
35585
35498
35422
35350
35280
35214
35152
35089
35022
34948
34856
34746
34626
34499
34367
34235
34108
33985
33869
33762
33667
33584
33513
33456
33411
33372
33338
33309
33282
33251
33211
33168
33126
33080
33026
32966
32904
32845
32791
32742
32698
32659
32620
32575
32519
32460
32396
32321
32234
32136
32031
31921
31807
31688
31569
31456
31352
31264
31205
31191
31237
31354
31547
31825
32189
32638
33166
33759
34401
35073
35757
36436
37098
37728
38315
38850
39329
39748
40104
40403
40649
40846
40998
41110
41180
41216
41230
41232
41220
41192
41158
41120
41075
41026
40974
40916
40842
40752
40647
40529
40395
40243
40073
39886
39688
39487
39292
39105
38931
38775
38638
38519
38419
38341
38285
38247
38221
38204
38194
38188
38188
38190
38187
38180
38163
38132
38084
38020
37939
37841
37727
37601
37469
37336
37203
37070
36935
36799
36658
36511
36365
36219
36074
35926
35776
35632
35498
35366
35236
35114
34997
34880
34766
34658
34549
34441
34337
34234
34133
34039
33947
33858
33776
33703
33636
33569
33500
33431
33354
33261
33153
33041
32927
32814
32705
32603
32516
32442
32379
32328
32286
32242
32193
32139
32080
32019
31956
31886
31802
31704
31597
31490
31387
31286
31189
31103
31027
30957
30891
30837
30791
30744
30702
30675
30669
30688
30740
30847
31028
31286
31622
32038
32532
33091
33702
34345
34999
35645
36268
36856
37404
37909
38368
38777
39134
39439
39699
39916
40088
40215
40301
40347
40354
40321
40257
40175
40086
39992
39893
39792
39695
39600
39498
39384
39251
39099
38926
38736
38527
38301
38067
37836
37613
37407
37229
37082
36966
36877
36809
36759
36727
36710
36705
36704
36703
36706
36708
36699
36682
36662
36637
36602
36553
36493
36422
36342
36257
36169
36078
35986
35892
35794
35694
35591
35488
35381
35264
35134
34998
34859
34720
34581
34442
34305
34170
34036
33904
33777
33659
33552
33460
33381
33303
33225
33144
33057
32962
32855
32743
32629
32513
32393
32273
32155
32044
31946
31859
31781
31709
31642
31575
31505
31437
31374
31311
31243
31168
31090
31006
30918
30825
30725
30619
30509
30393
30273
30154
30037
29921
29811
29711
29624
29548
29480
29419
29363
29307
29248
29189
29126
29057
28984
28910
28845
28800
28782
28805
28887
29039
29268
29582
29981
30459
31005
31603
32234
32878
33520
34146
34738
35283
35775
36211
36586
36896
37143
37333
37472
37565
37614
37624
37599
37544
37463
37360
37243
37124
37006
36891
36777
36666
36560
36450
36332
36209
36079
35938
35787
35627
35456
35271
35078
34887
34703
34531
34377
34240
34116
34009
33926
33868
33836
33829
33849
33892
33946
34001
34059
34119
34174
34214
34236
34239
34216
34166
34094
34005
33899
33774
33638
33503
33368
33229
33088
32950
32820
32700
32580
32457
32333
32213
32094
31974
31852
31731
31611
31489
31362
31230
31096
30961
30826
30699
30583
30479
30388
30313
30253
30202
30159
30125
30096
30073
30054
30034
30010
29984
29960
29931
29893
29845
29788
29726
29667
29611
29560
29521
29493
29468
29438
29403
29360
29306
29242
29172
29096
29011
28919
28828
28743
28657
28571
28489
28410
28332
28259
28188
28114
28038
27966
27910
27879
27881
27928
28034
28203
28441
28757
29154
29624
30151
30725
31325
31929
32517
33076
33597
34073
34497
34863
35169
35420
35622
35772
35868
35914
35921
35894
35840
35761
35664
35560
35448
35325
35195
35063
34927
34782
34626
34466
34306
34141
33968
33790
33608
33425
33241
33059
32887
32733
32604
32505
32438
32404
32402
32432
32485
32553
32631
32715
32795
32862
32919
32961
32985
32988
32972
32940
32894
32835
32768
32695
32614
32528
32437
32346
32257
32169
32079
31981
31882
31785
31684
31575
31466
31363
31260
31148
31033
30916
30800
30683
30566
30455
30352
30252
30157
30072
30000
29932
29864
29803
29754
29706
29654
29599
29542
29480
29415
29347
29276
29202
29126
29045
28961
28877
28789
28700
28611
28525
28441
28357
28271
28184
28103
28026
27948
27865
27777
27681
27569
27439
27298
27150
26992
26829
26670
26519
26373
26237
26122
26044
26011
26039
26140
26325
26603
26975
27429
27956
28545
29184
29854
30531
31193
31828
32427
32980
33474
33900
34258
34548
34771
34934
35051
35129
35172
35178
35152
35106
35049
34984
34914
34846
34782
34717
34646
34567
34477
34379
34274
34155
34019
33876
33731
33583
33439
33305
33181
33068
32965
32874
32797
32730
32672
32624
32588
32569
32572
32596
32638
32692
32751
32809
32866
32923
32974
33015
33048
33070
33071
33048
33001
32930
32835
32719
32589
32453
32312
32167
32019
31872
31724
31577
31433
31295
31157
31021
30893
30779
30678
30584
30495
30412
30335
30257
30171
30077
29973
29861
29740
29614
29490
29367
29243
29121
29001
28882
28769
28668
28577
28490
28407
28327
28250
28180
28124
28077
28035
28002
27977
27954
27927
27892
27854
27809
27751
27683
27611
27536
27454
27368
27279
27188
27093
26992
26885
26781
26683
26595
26525
26484
26478
26513
26598
26748
26977
27289
27683
28155
28698
29299
29939
30598
31263
31925
32562
33158
33702
34187
34610
34970
35271
35512
35695
35823
35906
35953
35974
35976
35958
35919
35862
35793
35717
35633
35542
35446
35340
35222
35090
34945
34786
34613
34426
34233
34041
33856
33679
33513
33362
33232
33126
33041
32977
32934
32906
32886
32871
32863
32861
32857
32850
32839
32824
32799
32762
32716
32664
32607
32544
32473
32395
32312
32224
32130
32027
31918
31805
31687
31560
31425
31289
31158
31031
30907
30793
30685
30581
30485
30405
30341
30282
30226
30177
30135
30091
30041
29990
29940
29888
29829
29760
29677
29587
29500
29419
29347
29281
29220
29168
29125
29088
29056
29022
28983
28940
28902
28877
28863
28849
28834
28822
28811
28794
28770
28739
28697
28641
28569
28483
28387
28283
28172
28055
27939
27828
27716
27595
27467
27341
27216
27088
26966
26861
26781
26733
26722
26758
26856
27029
27284
27626
28054
28558
29128
29749
30406
31079
31756
32420
33053
33636
34162
34631
35040
35386
35672
35902
36079
36199
36271
36304
36306
36281
36233
36169
36093
36014
35937
35865
35793
35718
35639
35558
35471
35373
35263
35139
35002
34853
34697
34539
34380
34228
34089
33966
33861
33778
33714
33664
33627
33604
33593
33591
33592
33597
33607
33621
33636
33648
33662
33678
33688
33687
33678
33658
33625
33584
33538
33488
33433
33374
33308
33235
33155
33067
32969
32861
32744
32623
32498
32368
32230
32084
31933
31783
31636
31490
31349
31220
31104
30996
30900
30821
30755
30699
30648
30597
30544
30490
30433
30369
30299
30234
30172
30107
30036
29964
29888
29806
29713
29614
29516
29423
29336
29256
29179
29102
29024
28946
28869
28796
28725
28652
28573
28489
28399
28299
28188
28069
27948
27824
27697
27569
27445
27327
27211
27098
26995
26902
26811
26717
26622
26531
26437
26340
26251
26187
26159
26182
26274
26453
26723
27083
27530
28057
28653
29301
29978
30666
31349
32012
32639
33211
33721
34166
34545
34857
35097
35267
35375
35430
35439
35406
35341
35257
35160
35055
34947
34843
34748
34663
34580
34497
34413
34324
34227
34116
33988
33836
33663
33477
33287
33099
32917
32744
32583
32442
32327
32243
32185
32148
32126
32117
32118
32125
32132
32135
32135
32131
32123
32116
32113
32111
32104
32095
32089
32083
32068
32040
32001
31954
31892
31809
31706
31584
31445
31296
31144
30994
30839
30683
30533
30395
30272
30165
30072
29990
29915
29845
29777
29709
29641
29577
29516
29457
29401
29342
29277
29210
29145
29081
29018
28961
28909
28859
28810
28769
28735
28701
28663
28627
28597
28570
28540
28512
28493
28479
28463
28445
28426
28405
28376
28336
28288
28240
28190
28139
28086
28032
27977
27919
27858
27798
27734
27666
27594
27519
27437
27350
27265
27183
27095
27008
26939
26901
26902
26956
27087
27305
27604
27983
28443
28975
29563
30187
30833
31487
32126
32729
33285
33791
34241
34629
34948
35196
35376
35495
35560
35580
35564
35521
35457
35381
35304
35224
35143
35061
34974
34884
34793
34694
34585
34461
34319
34162
33988
33800
33599
33391
33187
32997
32824
32672
32550
32461
32406
32384
32393
32427
32480
32550
32634
32727
32819
32901
32967
33013
33040
33052
33055
33047
33028
32995
32955
32912
32860
32797
32725
32644
32554
32453
32343
32222
32093
31960
31823
31685
31552
31430
31317
31208
31102
31003
30909
30819
30734
30654
30573
30486
30393
30297
30202
30112
30023
29934
29850
29776
29709
29650
29597
29546
29496
29445
29396
29351
29306
29258
29211
29170
29137
29110
29085
29059
29033
29004
28975
28946
28908
28856
28792
28716
28627
28525
28412
28288
28151
28004
27852
27699
27552
27419
27306
27212
27141
27110
27130
27211
27358
27581
27885
28273
28736
29264
29842
30451
31076
31702
32312
32891
33427
33910
34336
34705
35022
35289
35507
35679
35812
35907
35961
35978
35971
35946
35901
35835
35754
35661
35557
35443
35318
35180
35025
34854
34667
34467
34255
34037
33822
33610
33410
33235
33092
32975
32880
32810
32763
32739
32733
32743
32767
32801
32840
32883
32929
32975
33015
33051
33082
33110
33129
33135
33124
33098
33064
33021
32965
32895
32817
32734
32642
32544
32447
32352
32256
32163
32074
31992
31915
31845
31781
31721
31658
31592
31525
31458
31387
31310
31234
31164
31095
31028
30965
30908
30855
30806
30761
30721
30682
30644
30609
30581
30560
30539
30517
30494
30471
30446
30413
30368
30307
30236
30158
30074
29983
29885
29780
29669
29552
29436
29325
29221
29123
29031
28942
28850
28754
28658
28566
28481
28401
28326
28262
28221
28211
28245
28336
28494
28729
29051
29458
29938
30480
31078
31720
32384
33049
33710
34351
34958
35520
36035
36502
36911
37261
37551
37784
37965
38097
38184
38227
38229
38196
38138
38068
37998
37932
37871
37815
37763
37715
37668
37617
37559
37494
37421
37330
37214
37079
36929
36764
36587
36406
36234
36073
35926
35795
35681
35589
35519
35471
35441
35422
35415
35419
35432
35451
35477
35503
35529
35548
35552
35544
35524
35492
35443
35374
35287
35183
35063
34927
34786
34642
34493
34340
34190
34044
33901
33766
33644
33535
33438
33350
33272
33198
33130
33067
32999
32925
32843
32756
32668
32582
32495
32407
32315
32221
32126
32030
31932
31832
31740
31660
31586
31510
31436
31368
31309
31256
31211
31167
31122
31072
31016
30956
30891
30817
30731
30632
30525
30411
30289
30160
30026
29887
29744
29602
29470
29352
29242
29141
29051
28978
28927
28910
28937
29015
29151
29356
29645
30019
30466
30979
31552
32172
32814
33458
34094
34708
35281
35802
36274
36695
37059
37363
37616
37825
37990
38116
38210
38276
38311
38316
38299
38266
38223
38178
38135
38089
38034
37970
37898
37813
37717
37616
37507
37386
37255
37117
36976
36833
36696
36571
36460
36363
36283
36221
36175
36142
36120
36112
36116
36128
36141
36156
36172
36186
36192
36187
36171
36142
36101
36048
35985
35910
35825
35731
35627
35515
35400
35288
35177
35064
34954
34846
34735
34615
34490
34361
34227
34087
33938
33786
33639
33497
33359
33225
33100
32982
32868
32759
32663
32582
32516
32463
32420
32382
32340
32289
32232
32171
32105
32031
31952
31874
31798
31720
31642
31567
31496
31422
31342
31257
31166
31072
30976
30883
30799
30721
30645
30573
30501
30425
30346
30275
30212
30146
30072
29992
29911
29822
29725
29626
29532
29454
29404
29395
29436
29532
29698
29946
30283
30706
31211
31787
32413
33070
33743
34415
35068
35684
36254
36767
37211
37583
37880
38114
38293
38420
38502
38546
38556
38536
38495
38446
38393
38337
38288
38245
38196
38139
38074
37997
37897
37769
37621
37457
37274
37077
36876
36677
36485
36305
36146
36011
35900
35814
35752
35713
35696
35697
35716
35750
35791
35836
35882
35925
35964
35994
36014
36023
36021
36003
35966
35912
35846
35769
35682
35590
35494
35390
35279
35168
35063
34960
34851
34741
34635
34531
34429
34329
34231
34135
34037
33941
33846
33752
33651
33542
33431
33324
33224
33134
33059
32999
32951
32908
32872
32845
32826
32812
32804
32805
32812
32817
32815
32805
32786
32758
32724
32686
32645
32599
32548
32489
32424
32357
32287
32214
32139
32064
31986
31903
31815
31722
31627
31528
31427
31324
31223
31124
31029
30940
30856
30775
30706
30656
30626
30611
30625
30690
30816
31007
31270
31605
32006
32464
32971
33518
34088
34665
35237
35798
36335
36826
37259
37635
37958
38226
38440
38605
38725
38803
38837
38835
38809
38767
38714
38656
38591
38514
38423
38322
38211
38085
37937
37767
37586
37399
37197
36983
36772
36571
36383
36213
36069
35955
35868
35808
35780
35779
35797
35823
35856
35891
35924
35955
35985
36012
36033
36047
36056
36063
36061
36043
36015
35982
35945
35903
35852
35795
35731
35657
35579
35497
35412
35322
35236
35159
35088
35017
34954
34900
34844
34781
34711
34638
34568
34495
34419
34346
34276
34200
34115
34033
33964
33901
33837
33774
33711
33645
33579
33519
33463
33408
33354
33300
33246
33193
33140
33090
33045
32999
32953
32909
32868
32827
32786
32745
32706
32663
32616
32567
32517
32459
32387
32305
32217
32129
32039
31949
31864
31795
31742
31707
31697
31721
31787
31901
32073
32311
32622
33006
33459
33973
34533
35126
35740
36359
36968
37555
38111
38627
39089
39491
39836
40126
40361
40540
40674
40775
40847
40889
40908
40916
40917
40907
40884
40852
40806
40740
40653
40544
40416
40264
40083
39878
39655
39413
39160
38910
38676
38464
38279
38130
38016
37933
37874
37834
37807
37796
37798
37805
37814
37826
37836
37837
37825
37801
37766
37721
37658
37580
37490
37390
37277
37155
37030
36908
36789
36674
36562
36451
36338
36225
36113
36004
35894
35779
35661
35541
35418
35300
35188
35080
34974
34874
34783
34696
34611
34535
34470
34416
34360
34298
34240
34186
34125
34056
33980
33900
33819
33739
33661
33583
33505
33431
33361
33286
33205
33129
33066
33016
32972
32935
32908
32887
32868
32849
32826
32793
32749
32701
32650
32592
32523
32444
32350
32244
32128
32006
31884
31763
31645
31532
31435
31361
31325
31343
31427
31591
31845
32195
32649
33196
33817
34492
35201
35923
36633
37313
37953
38542
39066
39514
39886
40190
40431
40611
40732
40804
40840
40849
40838
40818
40797
40778
40761
40749
40743
40743
40749
40754
40749
40730
40689
40617
40516
40388
40232
40050
39848
39633
39415
39201
38998
38818
38665
38537
38433
38360
38324
38320
38335
38361
38400
38451
38505
38548
38576
38589
38591
38581
38559
38525
38481
38433
38385
38336
38280
38217
38151
38080
37998
37908
37817
37724
37622
37517
37411
37299
37175
37044
36911
36779
36644
36507
36377
36257
36145
36045
35964
35906
35860
35821
35790
35761
35728
35690
35648
35599
35538
35466
35384
35292
35194
35094
34994
34894
34796
34703
34621
34550
34483
34419
34356
34297
34238
34177
34115
34056
33993
33921
33842
33760
33678
33587
33487
33383
33278
33171
33062
32955
32850
32742
32628
32510
32394
32285
32189
32109
32049
32019
32026
32083
32204
32402
32680
33043
33497
34034
34635
35274
35934
36602
37260
37891
38484
39030
39526
39965
40349
40680
40960
41188
41367
41505
41605
41669
41701
41707
41689
41659
41618
41564
41498
41425
41349
41268
41181
41088
40988
40876
40749
40606
40444
40260
40059
39849
39636
39425
39223
39041
38890
38773
38684
38621
38581
38554
38532
38515
38505
38492
38471
38445
38417
38382
38345
38305
38259
38209
38159
38109
38057
38003
37949
37895
37836
37769
37690
37598
37494
37378
37252
37122
36993
36867
36748
36640
36541
36447
36357
36274
36198
36118
36030
35946
35864
35782
35699
35617
35536
35458
35380
35301
35227
35160
35092
35018
34939
34861
34784
34703
34616
34529
34446
34364
34284
34213
34152
34098
34050
34009
33976
33947
33915
33882
33845
33799
33742
33671
33589
33497
33394
33281
33159
33028
32890
32747
32604
32462
32326
32194
32061
31926
31793
31664
31539
31413
31286
31167
31059
30959
30874
30820
30809
30849
30955
31142
31419
31789
32247
32784
33385
34031
34705
35385
36051
36688
37281
37817
38287
38690
39031
39309
39526
39690
39809
39887
39927
39932
39910
39863
39794
39710
39619
39523
39414
39296
39174
39049
38917
38776
38630
38480
38324
38160
37992
37821
37650
37482
37321
37172
37035
36914
36810
36720
36640
36573
36520
36481
36451
36430
36418
36417
36430
36454
36484
36517
36549
36571
36578
36568
36539
36488
36416
36319
36197
36055
35900
35736
35565
35398
35240
35089
34947
34818
34703
34595
34491
34391
34293
34196
34097
33996
33893
33790
33686
33578
33465
33352
33242
33126
33004
32886
32783
32692
32608
32529
32462
32409
32358
32306
32257
32208
32148
32071
31987
31901
31808
31706
31606
31510
31407
31292
31179
31077
30988
30910
30842
30786
30739
30698
30660
30626
30598
30571
30541
30503
30457
30403
30344
30282
30215
30141
30063
29983
29896
29800
29693
29583
29467
29346
29221
29105
29006
28925
28868
28854
28907
29036
29248
29549
29938
30407
30947
31547
32188
32853
33522
34173
34799
35386
35917
36382
36779
37108
37367
37556
37677
37740
37757
37734
37677
37597
37498
37382
37257
37135
37016
36897
36773
36645
36513
36373
36222
36052
35864
35658
35437
35205
34970
34735
34506
34289
34097
33938
33814
33725
33668
33642
33650
33684
33736
33800
33876
33959
34037
34100
34146
34175
34182
34162
34118
34053
33973
33884
33794
33712
33636
33561
33491
33427
33368
33312
33249
33174
33083
32982
32871
32746
32604
32452
32298
32144
31996
31862
31744
31642
31554
31479
31418
31370
31328
31286
31237
31182
31125
31060
30983
30896
30801
30696
30576
30447
30315
30187
30061
29941
29840
29763
29700
29647
29606
29575
29547
29517
29487
29448
29393
29319
29232
29136
29032
28919
28799
28675
28548
28418
28290
28167
28052
27939
27829
27723
27623
27528
27435
27342
27249
27167
27107
27073
27076
27129
27246
27444
27730
28100
28545
29058
29621
30215
30822
31426
32014
32572
33088
33558
33978
34343
34652
34906
35105
35252
35347
35393
35398
35372
35314
35227
35122
35007
34884
34748
34601
34448
34290
34121
33946
33765
33573
33369
33163
32957
32747
32535
32329
32136
31959
31805
31680
31583
31512
31467
31448
31449
31459
31471
31479
31482
31479
31469
31453
31432
31410
31382
31344
31294
31233
31165
31089
31003
30908
30812
30713
30606
30492
30374
30254
30126
29990
29853
29721
29588
29452
29319
29193
29067
28939
28813
28691
28564
28427
28288
28151
28010
27867
27726
27590
27459
27335
27224
27125
27042
26975
26916
26856
26795
26732
26664
26590
26509
26423
26331
26234
26138
26052
25971
25888
25801
25718
25638
25553
25460
25366
25276
25188
25101
25025
24960
24896
24829
24758
24678
24586
24482
24371
24254
24133
24009
23887
23769
23659
23565
23497
23462
23478
23566
23736
23994
24343
24786
25320
25926
26586
27281
27988
28687
29354
29977
30547
31056
31496
31868
32175
32421
32611
32751
32849
32912
32943
32946
32919
32863
32788
32698
32594
32478
32350
32213
32064
31909
31743
31566
31381
31190
30995
30798
30600
30403
30212
30033
29869
29719
29584
29472
29382
29305
29240
29188
29152
29128
29112
29100
29091
29084
29075
29067
29066
29071
29074
29071
29064
29053
29035
29009
28970
28923
28870
28806
28727
28634
28529
28415
28291
28162
28033
27905
27777
27650
27529
27419
27318
27227
27145
27071
26999
26926
26856
26781
26697
26604
26501
26388
26268
26144
26016
25881
25738
25603
25485
25381
25287
25209
25146
25096
25055
25020
24984
24945
24905
24863
24823
24779
24730
24676
24615
24551
24488
24428
24371
24315
24264
24222
24187
24150
24106
24057
23999
23928
23852
23771
23684
23595
23508
23419
23332
23255
23191
23143
23127
23158
23247
23402
23640
23972
24396
24910
25505
26166
26875
27604
28330
29034
29702
30316
30865
31351
31771
32122
32399
32605
32748
32832
32861
32844
32795
32715
32612
32493
32366
32233
32098
31966
31837
31711
31590
31469
31348
31223
31092
30955
30807
30648
30480
30306
30128
29955
29794
29651
29526
29423
29342
29282
29238
29205
29184
29178
29183
29192
29202
29214
29229
29238
29238
29231
29222
29210
29191
29165
29137
29106
29072
29029
28975
28913
28841
28759
28666
28560
28442
28315
28182
28048
27917
27787
27659
27535
27417
27303
27192
27086
26985
26888
26792
26698
26607
26513
26416
26321
26228
26139
26053
25970
25891
25811
25726
25643
25564
25487
25412
25342
25277
25213
25149
25092
25047
25006
24964
24924
24884
24841
24791
24736
24678
24613
24538
24454
24365
24272
24173
24075
23978
23879
23778
23675
23571
23464
23355
23245
23138
23037
22942
22858
22792
22752
22749
22792
22897
23080
23351
23713
24170
24717
25339
26021
26743
27479
28207
28911
29577
30194
30760
31271
31720
32104
32422
32674
32863
32995
33073
33103
33091
33045
32973
32883
32784
32681
32574
32460
32342
32220
32093
31956
31811
31663
31511
31353
31189
31028
30872
30719
30574
30445
30337
30244
30166
30112
30081
30066
30061
30067
30076
30080
30075
30067
30058
30042
30017
29987
29956
29921
29881
29832
29773
29707
29639
29564
29472
29369
29264
29159
29050
28934
28819
28707
28590
28467
28345
28227
28104
27977
27849
27719
27583
27440
27298
27156
27013
26873
26736
26603
26472
26344
26227
26124
26030
25942
25858
25780
25708
25638
25572
25510
25446
25375
25299
25217
25127
25027
24927
24832
24739
24644
24544
24444
24345
24246
24147
24055
23973
23897
23826
23762
23705
23652
23603
23554
23500
23436
23359
23267
23165
23060
22953
22840
22722
22599
22473
22348
22232
22132
22061
22028
22048
22134
22297
22550
22902
23351
23884
24494
25167
25881
26606
27320
28006
28647
29225
29730
30166
30531
30821
31042
31202
31307
31354
31349
31307
31234
31130
31003
30863
30715
30560
30402
30246
30093
29942
29789
29629
29463
29290
29112
28931
28745
28557
28374
28208
28064
27938
27829
27743
27685
27648
27629
27622
27629
27649
27684
27734
27792
27856
27930
28012
28090
28157
28213
28254
28278
28288
28282
28257
28213
28152
28076
27982
27872
27755
27638
27520
27399
27277
27161
27058
26968
26885
26806
26730
26660
26596
26531
26462
26387
26307
26221
26123
26012
25897
25785
25668
25547
25433
25329
25233
25149
25085
25037
24996
24959
24930
24905
24880
24853
24829
24806
24781
24755
24724
24684
24639
24590
24534
24465
24380
24283
24177
24061
23935
23803
23670
23533
23392
23252
23123
23008
22906
22817
22737
22671
22625
22603
22621
22697
22843
23063
23360
23733
24181
24696
25264
25871
26502
27138
27762
28360
28919
29430
29883
30268
30583
30835
31027
31164
31255
31304
31312
31282
31221
31132
31019
30885
30735
30574
30406
30226
30031
29824
29610
29390
29167
28942
28712
28481
28263
28066
27891
27743
27625
27533
27465
27423
27409
27416
27434
27458
27493
27533
27572
27605
27633
27660
27681
27695
27703
27701
27689
27673
27658
27642
27615
27575
27522
27460
27393
27315
27221
27119
27012
26903
26794
26677
26553
26429
26310
26186
26058
25935
25817
25707
25609
25526
25454
25388
25323
25257
25191
25125
25062
25002
24936
24859
24770
24675
24578
24482
24391
24304
24219
24142
24077
24024
23974
23926
23889
23862
23835
23804
23776
23752
23725
23691
23657
23625
23590
23548
23496
23435
23366
23293
23209
23116
23019
22924
22839
22771
22730
22731
22789
22918
23131
23443
23860
24375
24975
25645
26369
27125
27885
28624
29328
29989
30597
31138
31610
32016
32355
32628
32840
32999
33117
33198
33244
33260
33253
33225
33182
33127
33065
32994
32910
32814
32715
32614
32506
32387
32260
32132
32002
31867
31735
31608
31488
31371
31258
31155
31065
30993
30943
30916
30907
30917
30947
30994
31051
31113
31186
31268
31346
31416
31477
31528
31562
31581
31587
31576
31549
31506
31450
31381
31296
31205
31111
31015
30916
30813
30711
30612
30519
30438
30365
30292
30216
30141
30068
29991
29906
29821
29738
29653
29563
29474
29387
29299
29209
29122
29041
28963
28889
28819
28751
28689
28634
28578
28518
28463
28416
28374
28338
28307
28276
28243
28208
28172
28129
28080
28024
27959
27888
27815
27744
27674
27605
27537
27471
27400
27321
27235
27143
27047
26949
26855
26772
26711
26685
26713
26808
26983
27252
27622
28087
28638
29264
29945
30658
31383
32106
32809
33474
34092
34656
35158
35591
35953
36250
36489
36678
36825
36929
36992
37020
37022
37000
36959
36906
36849
36787
36716
36638
36556
36472
36388
36305
36218
36119
36007
35883
35749
35607
35458
35306
35162
35032
34910
34798
34700
34623
34566
34529
34513
34512
34521
34541
34572
34610
34649
34685
34719
34746
34764
34771
34762
34734
34686
34627
34558
34478
34383
34278
34168
34051
33927
33801
33672
33536
33392
33244
33095
32950
32816
32690
32570
32455
32349
32251
32158
32072
31993
31916
31838
31755
31665
31565
31455
31336
31210
31087
30971
30860
30751
30644
30546
30457
30376
30302
30239
30188
30148
30107
30059
30007
29953
29896
29827
29748
29665
29579
29487
29390
29292
29193
29090
28982
28871
28763
28653
28538
28419
28295
28168
28045
27930
27822
27726
27655
27620
27632
27711
27873
28134
28495
28947
29481
30087
30745
31432
32129
32820
33489
34119
34692
35202
35652
36039
36359
36618
36819
36968
37072
37133
37153
37135
37092
37036
36965
36881
36793
36707
36621
36531
36433
36323
36203
36069
35919
35750
35566
35378
35186
34991
34796
34610
34440
34289
34159
34052
33971
33906
33858
33832
33830
33843
33865
33893
33923
33951
33979
34004
34021
34026
34019
34001
33970
33926
33872
33804
33721
33628
33526
33417
33302
33178
33047
32916
32787
32654
32518
32387
32264
32145
32029
31920
31814
31702
31581
31458
31335
31206
31070
30934
30801
30671
30545
30430
30327
30235
30153
30081
30014
29952
29896
29845
29794
29739
29683
29627
29570
29509
29447
29383
29312
29235
29155
29072
28987
28903
28822
28743
28662
28577
28494
28416
28339
28263
28182
28097
28009
27917
27823
27724
27622
27519
27416
27310
27209
27127
27078
27068
27112
27232
27440
27732
28106
28565
29107
29718
30377
31065
31765
32461
33139
33780
34365
34882
35329
35707
36014
36243
36396
36484
36518
36506
36455
36380
36292
36202
36118
36042
35969
35899
35835
35772
35699
35610
35510
35393
35256
35101
34936
34763
34583
34402
34225
34054
33901
33774
33674
33597
33542
33509
33497
33503
33521
33549
33586
33627
33668
33703
33732
33755
33774
33785
33787
33776
33749
33708
33653
33581
33491
33385
33266
33134
32988
32837
32686
32537
32385
32234
32090
31951
31818
31693
31571
31451
31331
31210
31088
30964
30844
30731
30626
30525
30431
30344
30261
30178
30098
30023
29948
29865
29776
29687
29597
29507
29414
29318
29224
29132
29041
28952
28866
28783
28706
28634
28561
28485
28406
28327
28246
28163
28085
28011
27928
27830
27725
27614
27494
27367
27235
27101
26968
26838
26712
26593
26486
26402
26354
26348
26399
26523
26731
27022
27401
27875
28433
29051
29706
30386
31073
31744
32378
32971
33510
33981
34382
34716
34985
35189
35334
35429
35479
35490
35472
35428
35360
35272
35171
35064
34951
34830
34712
34599
34481
34351
34210
34065
33912
33750
33583
33420
33260
33101
32951
32819
32706
32611
32537
32482
32447
32431
32432
32450
32482
32527
32578
32627
32678
32727
32769
32801
32823
32833
32833
32825
32808
32782
32744
32692
32625
32549
32467
32379
32279
32169
32058
31947
31830
31708
31586
31463
31337
31211
31092
30979
30869
30761
30657
30558
30462
30366
30273
30185
30098
30008
29916
29826
29739
29651
29561
29470
29383
29302
29223
29146
29071
29002
28937
28878
28825
28785
28756
28729
28697
28660
28621
28578
28527
28469
28411
28350
28284
28213
28140
28070
28001
27933
27869
27804
27730
27642
27544
27444
27340
27235
27133
27042
26970
26926
26929
26999
27146
27380
27708
28133
28654
29261
29930
30640
31372
32103
32814
33488
34115
34683
35180
35602
35956
36247
36475
36644
36764
36839
36877
36890
36889
36876
36855
36833
36808
36771
36722
36666
36601
36523
36430
36323
36202
36059
35895
35717
35534
35344
35153
34971
34802
34652
34527
34430
34358
34310
34286
34287
34306
34338
34378
34417
34453
34485
34511
34529
34539
34545
34543
34534
34516
34488
34447
34395
34335
34270
34200
34126
34050
33971
33894
33822
33751
33682
33617
33551
33476
33389
33298
33200
33093
32980
32864
32744
32616
32484
32352
32227
32109
32000
31893
31788
31688
31592
31502
31419
31345
31275
31208
31144
31082
31023
30967
30909
30843
30773
30702
30628
30555
30489
30430
30368
30303
30233
30154
30065
29967
29868
29774
29685
29602
29527
29456
29390
29328
29267
29203
29135
29063
28984
28896
28803
28710
28620
28536
28469
28431
28434
28492
28623
28837
29144
29550
30055
30645
31303
32012
32754
33505
34244
34950
35612
36226
36781
37268
37682
38029
38308
38519
38669
38768
38824
38843
38835
38810
38772
38721
38661
38601
38548
38501
38455
38404
38349
38286
38207
38112
38002
37872
37718
37542
37356
37168
36983
36805
36642
36497
36374
36276
36205
36165
36154
36162
36181
36209
36243
36279
36313
36341
36361
36370
36366
36346
36312
36265
36207
36134
36050
35957
35853
35738
35615
35491
35369
35249
35132
35022
34916
34811
34707
34605
34506
34404
34292
34178
34065
33946
33821
33691
33563
33439
33319
33201
33087
32983
32889
32800
32715
32636
32561
32484
32407
32332
32253
32165
32073
31985
31902
31819
31734
31649
31564
31480
31394
31306
31220
31136
31053
30974
30900
30826
30751
30679
30612
30546
30483
30421
30353
30277
30196
30104
29995
29872
29740
29602
29456
29304
29148
28993
28851
28733
28650
28610
28623
28707
28875
29135
29488
29936
30474
31084
31749
32448
33165
33881
34570
35215
35801
36322
36773
37153
37462
37708
37897
38041
38145
38211
38245
38255
38241
38206
38153
38090
38019
37939
37851
37756
37650
37529
37393
37243
37078
36900
36712
36515
36311
36108
35914
35736
35568
35413
35282
35178
35090
35011
34944
34892
34855
34829
34808
34792
34779
34768
34756
34742
34728
34715
34701
34683
34657
34623
34580
34524
34448
34350
34237
34112
33978
33841
33702
33557
33411
33268
33127
32989
32858
32736
32623
32516
32417
32326
32244
32164
32080
31993
31909
31823
31731
31636
31538
31439
31340
31241
31140
31037
30937
30839
30740
30643
30554
30474
30405
30345
30295
30251
30211
30170
30123
30073
30019
29956
29883
29801
29708
29603
29489
29368
29247
29133
29027
28932
28840
28751
28667
28589
28508
28422
28336
28249
28154
28054
27955
27857
27761
27676
27611
27576
27581
27641
27770
27984
28294
28705
29213
29807
30470
31182
31922
32664
33384
34067
34707
35291
35805
36245
36616
36920
37161
37341
37466
37542
37576
37569
37529
37461
37367
37251
37120
36975
36816
36650
36484
36317
36150
35985
35820
35654
35486
35324
35168
35009
34849
34693
34543
34407
34294
34204
34136
34089
34065
34057
34064
34087
34125
34174
34226
34275
34321
34364
34394
34407
34408
34405
34391
34361
34320
34270
34206
34128
34042
33948
33843
33734
33620
33497
33368
33239
33110
32977
32839
32704
32573
32445
32315
32185
32061
31940
31818
31700
31591
31487
31381
31275
31175
31086
31010
30949
30897
30851
30810
30776
30744
30712
30683
30666
30658
30643
30617
30586
30550
30504
30447
30378
30297
30199
30092
29981
29870
29758
29647
29541
29440
29342
29252
29170
29091
29013
28931
28847
28757
28662
28566
28472
28377
28280
28192
28125
28088
28087
28131
28231
28400
28642
28964
29367
29851
30406
31013
31652
32303
32949
33577
34173
34720
35211
35648
36030
36350
36609
36812
36958
37045
37079
37069
37024
36946
36839
36702
36536
36347
36148
35947
35748
35554
35369
35193
35019
34846
34676
34509
34341
34176
34022
33879
33741
33611
33502
33415
33346
33294
33267
33263
33274
33299
33337
33381
33420
33454
33482
33497
33500
33496
33488
33475
33452
33424
33391
33353
33306
33253
33201
33147
33084
33011
32931
32840
32732
32608
32471
32328
32181
32023
31854
31688
31530
31381
31246
31129
31028
30937
30859
30789
30726
30671
30622
30575
30528
30483
30438
30386
30322
30250
30174
30098
30024
29959
29904
29859
29820
29783
29744
29705
29669
29633
29593
29550
29511
29477
29440
29396
29349
29299
29245
29187
29127
29064
28995
28921
28842
28759
28679
28605
28537
28477
28438
28436
28477
28568
28723
28959
29285
29705
30215
30804
31461
32172
32916
33672
34422
35146
35821
36434
36978
37446
37835
38148
38388
38559
38666
38713
38712
38667
38592
38503
38412
38318
38221
38133
38057
37984
37912
37839
37762
37676
37581
37471
37339
37187
37021
36850
36678
36509
36348
36204
36083
35985
35909
35856
35829
35823
35829
35848
35879
35917
35956
35992
36027
36057
36082
36102
36113
36115
36112
36103
36080
36039
35986
35925
35851
35760
35657
35547
35429
35304
35179
35051
34919
34792
34675
34569
34473
34386
34306
34229
34152
34075
34002
33932
33858
33778
33694
33611
33525
33433
33337
33236
33136
33042
32955
32873
32794
32721
32657
32597
32540
32493
32454
32417
32378
32342
32307
32269
32229
32183
32130
32070
32009
31946
31877
31801
31721
31644
31571
31499
31424
31346
31266
31182
31093
30999
30904
30815
30745
30705
30707
30765
30891
31096
31385
31765
32242
32807
33441
34124
34842
35575
36296
36985
37622
38192
38694
39132
39505
39811
40058
40256
40410
40525
40601
40638
40644
40625
40582
40520
40447
40368
40280
40182
40080
39973
39862
39746
39619
39478
39322
39150
38962
38763
38564
38372
38193
38026
37876
37755
37670
37607
37560
37534
37527
37535
37554
37583
37620
37659
37696
37724
37741
37745
37734
37709
37667
37608
37534
37451
37362
37264
37158
37048
36937
36830
36728
36630
36527
36419
36313
36210
36106
36001
35894
35783
35666
35544
35415
35279
35141
35006
34873
34742
34616
34503
34404
34316
34232
34151
34077
34008
33938
33863
33784
33702
33617
33533
33449
33362
33269
33177
33093
33015
32935
32849
32762
32681
32606
32529
32454
32386
32326
32266
32203
32138
32069
31999
31925
31843
31750
31648
31540
31421
31293
31167
31051
30947
30860
30799
30777
30809
30912
31097
31372
31738
32193
32732
33342
34004
34699
35409
36112
36786
37415
37991
38506
38951
39319
39615
39848
40022
40138
40202
40219
40200
40155
40094
40016
39923
39820
39712
39598
39478
39356
39232
39100
38959
38809
38648
38470
38280
38085
37889
37696
37514
37350
37202
37068
36950
36855
36778
36712
36661
36627
36611
36608
36612
36621
36637
36655
36676
36696
36708
36710
36705
36692
36662
36609
36542
36465
36372
36264
36152
36040
35928
35819
35713
35607
35499
35390
35278
35163
35047
34933
34821
34712
34603
34491
34382
34278
34177
34077
33978
33880
33785
33702
33631
33561
33484
33403
33319
33234
33145
33053
32963
32880
32806
32741
32688
32638
32587
32537
32492
32447
32399
32352
32303
32250
32191
32125
32049
31962
31869
31775
31683
31595
31512
31432
31358
31291
31230
31169
31094
31007
30916
30822
30720
30611
30499
30392
30296
30222
30186
30202
30283
30446
30698
31049
31496
32026
32625
33278
33965
34665
35363
36042
36680
37265
37785
38232
38601
38892
39108
39256
39338
39361
39336
39276
39192
39093
38985
38873
38762
38655
38550
38442
38329
38213
38092
37952
37789
37612
37427
37234
37033
36832
36637
36456
36298
36162
36049
35959
35893
35853
35834
35825
35821
35829
35848
35876
35912
35954
35998
36041
36086
36133
36172
36199
36212
36213
36197
36156
36094
36021
35942
35853
35751
35638
35523
35408
35292
35173
35052
34929
34810
34694
34574
34454
34343
34240
34137
34034
33935
33841
33747
33655
33570
33489
33406
33319
33231
33139
33040
32937
32832
32725
32615
32509
32412
32323
32237
32156
32087
32031
31983
31942
31906
31870
31830
31783
31732
31675
31607
31532
31453
31372
31285
31196
31103
31004
30897
30792
30691
30595
30500
30411
30333
30265
30206
30154
30112
30090
30098
30148
30251
30424
30678
31020
31446
31950
32530
33177
33871
34583
35290
35974
36618
37208
37734
38189
38572
38878
39108
39268
39368
39419
39426
39400
39343
39261
39162
39055
38931
38790
38645
38495
38334
38160
37976
37783
37583
37379
37169
36956
36745
36546
36364
36197
36049
35925
35826
35748
35691
35659
35649
35649
35656
35675
35700
35727
35752
35781
35816
35851
35885
35916
35941
35951
35950
35940
35917
35882
35839
35784
35715
35633
35542
35443
35335
35215
35084
34941
34786
34618
34444
34273
34108
33955
33815
33691
33582
33487
33403
33329
33260
33197
33141
33085
33023
32949
32871
32789
32697
32594
32488
32385
32282
32180
32085
31999
31919
31847
31785
31727
31670
31615
31564
31518
31472
31425
31376
31323
31262
31195
31123
31044
30956
30860
30765
30671
30573
30470
30369
30271
30179
30097
30034
30003
30018
30096
30247
30479
30798
31213
31720
32300
32940
33624
34337
35054
35757
36428
37052
37616
38115
38543
38895
39170
39374
39512
39590
39617
39604
39565
39509
39437
39354
39269
39183
39093
38993
38882
38766
38642
38507
38363
38213
38052
37879
37693
37498
37304
37123
36960
36806
36662
36536
36428
36334
36251
36182
36128
36088
36061
36045
36037
36033
36037
36048
36066
36085
36104
36123
36136
36135
36123
36105
36074
36024
35959
35883
35797
35698
35587
35467
35342
35215
35089
34967
34847
34726
34599
34465
34330
34196
34058
33921
33793
33677
33572
33475
33381
33292
33212
33139
33068
32998
32932
32868
32802
32729
32658
32590
32522
32458
32398
32341
32289
32244
32204
32166
32131
32095
32058
32020
31979
31933
31882
31825
31764
31700
31633
31560
31479
31397
31319
31238
31154
31068
30981
30892
30805
30729
30671
30635
30638
30697
30828
31043
31352
31758
32260
32852
33521
34245
34997
35752
36493
37199
37845
38421
38930
39370
39737
40034
40270
40451
40574
40644
40676
40678
40652
40605
40541
40465
40379
40289
40194
40093
39986
39876
39762
39637
39494
39334
39163
38979
38780
38567
38347
38127
37911
37707
37526
37376
37260
37177
37121
37087
37074
37085
37116
37157
37203
37252
37296
37330
37349
37361
37368
37359
37330
37291
37249
37198
37139
37076
37011
36943
36874
36806
36741
36669
36588
36500
36402
36287
36156
36016
35871
35721
35567
35413
35263
35121
34992
34877
34769
34669
34578
34493
34412
34333
34260
34189
34111
34028
33948
33871
33789
33706
33625
33543
33467
33397
33330
33263
33194
33124
33052
32978
32899
32816
32732
32645
32557
32471
32399
32338
32286
32238
32193
32146
32098
32044
31982
31911
31829
31735
31632
31522
31413
31316
31250
31224
31251
31349
31531
31798
32154
32605
33146
33766
34448
35172
35912
36644
37351
38020
38633
39177
39644
40032
40343
40578
40742
40844
40890
40886
40842
40776
40699
40618
40535
40450
40363
40275
40191
40111
40023
39922
39812
39691
39548
39381
39196
39000
38791
38574
38361
38165
37988
37836
37711
37607
37526
37472
37443
37432
37439
37462
37500
37546
37590
37629
37668
37707
37737
37752
37752
37741
37721
37687
37636
37567
37483
37384
37270
37144
37008
36867
36727
36586
36446
36313
36184
36053
35922
35799
35687
35574
35457
35344
35240
35142
35047
34958
34874
34795
34723
34656
34587
34515
34440
34361
34277
34190
34101
34014
33930
33847
33767
33689
33617
33552
33498
33458
33424
33385
33340
33290
33234
33169
33092
33005
32911
32814
32717
32622
32529
32436
32346
32255
32156
32047
31934
31822
31706
31583
31463
31353
31250
31150
31060
30985
30938
30934
30991
31123
31336
31641
32044
32537
33103
33728
34398
35094
35788
36459
37098
37689
38221
38686
39083
39415
39687
39904
40070
40188
40261
40296
40300
40275
40222
40148
40059
39955
39843
39732
39622
39507
39381
39243
39091
38919
38727
38525
38319
38115
37917
37728
37552
37397
37271
37173
37095
37034
36996
36978
36970
36965
36966
36970
36969
36958
36943
36927
36908
36886
36866
36844
36819
36792
36763
36729
36685
36629
36558
36470
36370
36263
36149
36025
35892
35750
35607
35460
35308
35155
35008
34868
34732
34598
34470
34349
34228
34105
33983
33863
33745
33632
33524
33420
33320
33227
33139
33057
32980
32908
32842
32775
32705
32639
32572
32494
32404
32312
32218
32120
32017
31914
31815
31720
31629
31542
31463
31388
31316
31249
31184
31114
31038
30960
30876
30778
30669
30553
30430
30294
30145
29994
29852
29721
29596
29477
29364
29264
29184
29137
29129
29172
29282
29470
29740
30089
30523
31039
31625
32266
32945
33640
34328
34996
35626
36204
36719
37164
37540
37846
38084
38260
38381
38451
38474
38456
38407
38337
38244
38124
37984
37832
37670
37492
37298
37095
36883
36664
36441
36209
35964
35712
35459
35210
34972
34758
34575
34425
34306
34218
34161
34133
34130
34146
34175
34212
34260
34312
34358
34390
34410
34424
34428
34418
34398
34370
34336
34298
34257
34214
34171
34124
34075
34024
33968
33904
33832
33749
33653
33541
33416
33286
33150
33006
32864
32729
32595
32463
32336
32219
32107
31998
31895
31795
31699
31607
31517
31429
31345
31264
31190
31117
31041
30961
30884
30810
30735
30663
30600
30550
30506
30462
30418
30377
30336
30289
30235
30180
30125
30069
30010
29946
29873
29795
29713
29627
29537
29447
29357
29268
29182
29102
29024
28947
28869
28795
28728
28681
28672
28709
28796
28945
29176
29498
29910
30396
30948
31551
32186
32831
33467
34080
34655
35179
35645
36050
36394
36679
36908
37088
37223
37317
37369
37382
37362
37309
37227
37124
36998
36852
36689
36515
36329
36135
35938
35739
35535
35328
35122
34922
34735
34565
34413
34278
34161
34067
33999
33950
33919
33909
33917
33932
33956
33998
34058
34128
34202
34281
34361
34432
34487
34527
34549
34552
34536
34503
34448
34373
34285
34186
34078
33964
33851
33743
33639
33534
33432
33336
33243
33147
33046
32945
32847
32751
32658
32568
32478
32389
32304
32223
32143
32064
31984
31901
31810
31708
31595
31477
31356
31232
31114
31004
30902
30810
30733
30668
30607
30550
30506
30469
30432
30390
30347
30297
30238
30175
30107
30026
29934
29837
29735
29627
29515
29401
29290
29181
29073
28970
28875
28790
28714
28646
28589
28558
28568
28631
28760
28969
29270
29672
30173
30766
31439
32172
32940
33717
34482
35220
35913
36549
37122
37627
38054
38401
38676
38888
39035
39118
39148
39140
39099
39027
38938
38845
38752
38658
38561
38467
38376
38283
38189
38090
37974
37838
37690
37530
37352
37159
36959
36760
36571
36402
36262
36152
36070
36014
35986
35985
36002
36029
36068
36116
36163
36206
36244
36272
36289
36298
36301
36291
36265
36230
36193
36154
36111
36060
36003
35944
35885
35821
35751
35674
35587
35491
35390
35278
35151
35012
34871
34728
34586
34447
34316
34188
34062
33945
33840
33748
33669
33603
33544
33489
33438
33394
33352
33311
33265
33218
33169
33112
33047
32981
32915
32849
32784
32723
32675
32638
32604
32569
32531
32489
32441
32388
32331
32268
32201
32130
32051
31963
31873
31781
31680
31570
31457
31348
31238
31128
31021
30919
30829
30763
30731
30742
30811
30954
31187
31517
31950
32485
33113
33810
34556
35335
36129
36912
37661
38362
39006
39588
40100
40534
40885
41158
41361
41495
41569
41591
41572
41519
41438
41335
41219
41100
40983
40867
40756
40653
40560
40462
40355
40241
40121
39989
39844
39692
39534
39361
39181
39006
38841
38688
38550
38433
38336
38262
38212
38183
38174
38184
38216
38264
38320
38378
38435
38487
38523
38539
38540
38531
38506
38466
38417
38364
38302
38228
38148
38062
37965
37861
37749
37629
37501
37369
37240
37114
36990
36870
36750
36628
36510
36397
36286
36168
36043
35916
35787
35652
35512
35372
35236
35103
34972
34851
34741
34637
34538
34451
34378
34315
34261
34213
34167
34120
34069
34017
33957
33888
33814
33737
33653
33558
33460
33368
33278
33186
33096
33017
32945
32873
32795
32710
32623
32536
32449
32362
32276
32193
32125
32082
32073
32112
32217
32402
32670
33026
33478
34021
34639
35314
36028
36755
37477
38180
38849
39470
40033
40529
40959
41317
41607
41840
42021
42147
42217
42241
42233
42194
42128
42046
41956
41863
41767
41663
41554
41443
41325
41193
41045
40881
40701
40504
40295
40077
39856
39642
39445
39266
39107
38971
38863
38776
38702
38645
38605
38580
38566
38563
38568
38578
38594
38617
38645
38670
38693
38719
38745
38763
38774
38779
38769
38738
38691
38635
38568
38487
38388
38274
38150
38020
37880
37735
37591
37455
37328
37213
37109
37016
36934
36862
36791
36719
36648
36582
36515
36444
36372
36298
36223
36147
36066
35977
35882
35784
35685
35579
35470
35363
35265
35177
35094
35022
34964
34912
34861
34813
34769
34720
34666
34607
34541
34464
34381
34290
34190
34085
33983
33884
33781
33672
33562
33453
33346
33243
33150
33077
33032
33030
33090
33229
33459
33787
34218
34748
35361
36035
36752
37490
38224
38926
39581
40178
40705
41149
41508
41786
41991
42130
42213
42249
42253
42234
42197
42150
42097
42043
41985
41919
41843
41757
41661
41552
41424
41277
41113
40933
40736
40522
40301
40079
39862
39662
39482
39329
39205
39111
39046
39010
39000
39012
39041
39080
39126
39178
39235
39287
39331
39372
39414
39447
39462
39461
39444
39410
39361
39299
39225
39136
39031
38909
38768
38617
38465
38314
38163
38010
37856
37707
37565
37428
37299
37182
37071
36963
36859
36759
36667
36579
36493
36411
36335
36264
36193
36118
36036
35949
35863
35776
35681
35581
35488
35405
35324
35240
35158
35078
34994
34907
34822
34741
34662
34589
34519
34449
34374
34295
34215
34130
34039
33946
33856
33770
33681
33587
33493
33398
33299
33198
33103
33023
32968
32948
32974
33062
33224
33474
33818
34252
34774
35377
36046
36749
37461
38162
38832
39452
40014
40510
40934
41287
41570
41781
41921
41993
42009
41979
41912
41819
41707
41588
41462
41328
41190
41048
40902
40752
40599
40437
40256
40060
39856
39647
39430
39211
38999
38803
38629
38479
38354
38249
38169
38117
38093
38089
38104
38139
38200
38279
38361
38441
38522
38600
38671
38733
38784
38818
38834
38834
38820
38785
38721
38630
38518
38386
38232
38066
37900
37743
37593
37449
37312
37186
37071
36967
36873
36782
36692
36606
36525
36441
36349
36256
36165
36071
35975
35881
35791
35701
35613
35523
35432
35343
35258
35183
35114
35045
34977
34913
34852
34791
34730
34671
34618
34569
34526
34486
34447
34406
34360
34310
34256
34202
34147
34090
34024
33951
33877
33803
33727
33659
33613
33597
33623
33707
33865
34108
34439
34862
35377
35972
36626
37315
38020
38723
39408
40052
40640
41160
41602
41967
42259
42475
42616
42693
42723
42710
42659
42580
42485
42379
42263
42142
42020
41898
41777
41652
41522
41386
41243
41092
40933
40760
40572
40380
40187
39993
39804
39632
39480
39345
39228
39134
39066
39024
39009
39017
39045
39084
39134
39196
39263
39327
39386
39442
39492
39533
39557
39566
39563
39547
39516
39471
39411
39337
39250
39154
39049
38941
38838
38745
38656
38569
38493
38429
38363
38290
38213
38133
38047
37954
37854
37745
37631
37520
37413
37309
37203
37099
37002
36909
36814
36720
36632
36554
36481
36412
36350
36295
36243
36194
36149
36104
36056
36009
35962
35911
35855
35803
35754
35696
35625
35550
35475
35394
35303
35208
35109
35004
34892
34775
34655
34533
34420
34323
34247
34199
34193
34246
34370
34576
34872
35265
35745
36299
36916
37579
38264
38950
39619
40256
40843
41371
41833
42227
42552
42816
43027
43190
43307
43385
43427
43437
43417
43372
43306
43220
43119
43010
42900
42788
42671
42549
42424
42290
42142
41979
41805
41621
41429
41238
41055
40885
40728
40589
40476
40384
40311
40258
40228
40220
40227
40242
40261
40286
40313
40333
40344
40350
40349
40339
40319
40287
40243
40192
40134
40065
39985
39895
39799
39700
39597
39493
39393
39290
39183
39072
38954
38831
38709
38588
38468
38352
38241
38131
38016
37896
37777
37660
37539
37415
37299
37194
37090
36989
36894
36809
36731
36658
36590
36528
36467
36406
36341
36270
36196
36123
36051
35981
35913
35846
35777
35706
35633
35558
35489
35421
35346
35265
35183
35102
35020
34934
34847
34760
34669
34572
34468
34359
34251
34143
34041
33949
33873
33818
33796
33820
33906
34074
34335
34685
35123
35647
36241
36882
37551
38231
38902
39539
40128
40662
41134
41539
41878
42149
42354
42505
42617
42694
42730
42727
42692
42633
42555
42459
42350
42232
42109
41978
41837
41688
41530
41362
41184
40998
40801
40598
40398
40207
40019
39839
39677
39538
39422
39331
39266
39223
39198
39190
39195
39207
39220
39237
39256
39271
39276
39271
39262
39250
39225
39190
39149
39102
39046
38983
38919
38853
38778
38694
38596
38484
38361
38231
38098
37963
37822
37677
37528
37377
37229
37090
36964
36840
36714
36591
36475
36362
36253
36148
36050
35958
35865
35766
35660
35549
35440
35335
35235
35142
35061
34990
34918
34843
34773
34713
34657
34600
34550
34506
34459
34404
34345
34287
34226
34160
34096
34035
33972
33907
33843
33778
33710
33642
33573
33499
33417
33328
33234
33132
33020
32903
32787
32672
32557
32450
32362
32300
32271
32293
32387
32565
32829
33183
33628
34161
34765
35417
36094
36777
37447
38085
38682
39228
39714
40132
40480
40755
40953
41085
41160
41179
41149
41084
40994
40883
40760
40633
40507
40380
40253
40123
39992
39859
39717
39564
39398
39223
39039
38847
38644
38439
38243
38061
37895
37751
37640
37562
37508
37477
37478
37508
37557
37617
37690
37767
37832
37883
37924
37958
37977
37980
37975
37963
37936
37887
37823
37748
37659
37554
37439
37322
37206
37091
36978
36870
36763
36657
36548
36432
36309
36185
36058
35921
35780
35644
35516
35392
35274
35165
35063
34959
34853
34751
34651
34550
34450
34351
34255
34162
34076
33995
33917
33844
33783
33738
33705
33673
33640
33605
33561
33506
33446
33377
33298
33212
33124
33038
32949
32859
32771
32687
32600
32506
32415
32333
32251
32159
32061
31964
31870
31777
31685
31599
31528
31478
31460
31484
31568
31731
31979
32311
32722
33210
33767
34375
35011
35650
36278
36886
37455
37968
38411
38779
39075
39303
39465
39565
39608
39605
39565
39487
39379
39255
39121
38975
38824
38680
38543
38400
38246
38084
37912
37730
37536
37333
37119
36893
36660
36425
36194
35978
35788
35630
35502
35402
35333
35297
35290
35306
35343
35399
35466
35535
35600
35661
35713
35755
35784
35799
35797
35776
35733
35671
35593
35504
35407
35304
35197
35084
34969
34856
34739
34612
34487
34368
34250
34132
34019
33909
33798
33687
33579
33476
33375
33274
33177
33086
32997
32906
32816
32725
32632
32539
32449
32366
32288
32212
32135
32052
31963
31874
31783
31688
31589
31494
31407
31322
31239
31165
31099
31032
30967
30913
30872
30836
30802
30775
30749
30717
30680
30636
30584
30520
30446
30368
30281
30184
30083
29982
29888
29805
29747
29728
29759
29850
30017
30278
30637
31092
31634
32251
32926
33632
34341
35030
35689
36303
36859
37353
37788
38160
38466
38705
38882
39000
39071
39101
39090
39040
38964
38870
38757
38631
38502
38376
38251
38129
38008
37885
37757
37623
37478
37315
37134
36948
36759
36562
36358
36159
35972
35799
35649
35528
35441
35385
35353
35341
35349
35371
35401
35435
35470
35508
35547
35581
35601
35605
35600
35584
35556
35519
35473
35420
35357
35280
35189
35092
34993
34889
34780
34669
34556
34443
34336
34235
34135
34040
33955
33880
33803
33720
33640
33559
33464
33356
33249
33142
33033
32919
32806
32694
32580
32470
32371
32282
32204
32139
32085
32036
31991
31948
31905
31857
31800
31739
31673
31600
31520
31442
31375
31317
31261
31210
31167
31126
31079
31023
30967
30908
30841
30768
30696
30626
30553
30475
30395
30317
30242
30167
30094
30033
29993
29981
30007
30088
30238
30468
30785
31190
31683
32254
32884
33553
34245
34942
35622
36262
36849
37381
37852
38257
38595
38866
39072
39214
39299
39336
39331
39289
39217
39127
39029
38927
38823
38722
38624
38528
38431
38331
38227
38111
37977
37825
37656
37474
37283
37082
36874
36673
36493
36341
36214
36112
36034
35978
35939
35916
35911
35922
35940
35962
35984
36002
36014
36018
36018
36011
35997
35976
35944
35901
35851
35796
35734
35660
35576
35491
35407
35322
35231
35141
35052
34964
34871
34774
34675
34570
34462
34352
34237
34117
33994
33873
33755
33636
33516
33396
33274
33150
33029
32920
32824
32734
32646
32565
32488
32411
32335
32272
32220
32169
32116
32063
32008
31950
31885
31816
31739
31653
31559
31464
31372
31282
31190
31099
31012
30936
30868
30801
30739
30681
30623
30563
30495
30418
30335
30251
30164
30074
29986
29906
29840
29790
29766
29780
29849
29987
30209
30524
30933
31431
32008
32644
33318
34013
34706
35369
35985
36548
37051
37482
37837
38125
38345
38497
38584
38618
38609
38560
38482
38381
38266
38144
38021
37904
37788
37669
37548
37426
37301
37167
37021
36863
36691
36498
36286
36065
35844
35632
35432
35247
35083
34948
34848
34778
34733
34708
34703
34712
34723
34732
34742
34755
34766
34769
34769
34765
34751
34721
34678
34621
34551
34474
34390
34298
34199
34099
34000
33898
33787
33669
33551
33430
33297
33156
33013
32873
32735
32603
32477
32352
32227
32103
31979
31857
31738
31626
31519
31415
31312
31212
31113
31012
30913
30817
30727
30633
30537
30445
30360
30277
30199
30130
30066
30005
29949
29902
29861
29823
29786
29743
29690
29629
29568
29508
29445
29382
29320
29257
29188
29109
29027
28941
28851
28757
28660
28563
28468
28381
28296
28210
28125
28048
27978
27914
27857
27812
27790
27802
27854
27957
28128
28381
28721
29148
29658
30238
30873
31544
32226
32893
33530
34125
34668
35152
35571
35928
36225
36462
36638
36757
36824
36848
36836
36790
36715
36621
36513
36389
36252
36108
35960
35810
35657
35501
35342
35185
35024
34854
34676
34498
34323
34149
33983
33829
33689
33566
33465
33390
33338
33305
33292
33296
33308
33326
33350
33381
33412
33436
33456
33475
33491
33499
33499
33492
33483
33469
33446
33411
33366
33311
33247
33171
33079
32972
32857
32739
32614
32486
32359
32231
32104
31983
31868
31753
31636
31521
31413
31304
31191
31076
30961
30844
30721
30596
30479
30372
30272
30181
30101
30028
29959
29893
29830
29769
29710
29654
29604
29554
29496
29435
29377
29316
29251
29190
29135
29083
29033
28988
28945
28900
28854
28807
28755
28696
28634
28574
28511
28435
28347
28257
28167
28075
27981
27888
27804
27735
27686
27668
27696
27783
27946
28199
28540
28966
29475
30053
30674
31314
31962
32604
33218
33796
34333
34818
35238
35594
35888
36117
36284
36395
36458
36478
36458
36409
36340
36257
36163
36057
35941
35811
35668
35514
35349
35167
34969
34758
34535
34301
34062
33833
33619
33420
33238
33080
32946
32837
32753
32694
32656
32636
32633
32646
32667
32689
32713
32745
32782
32821
32857
32892
32926
32954
32970
32973
32962
32935
32896
32846
32779
32695
32603
32509
32413
32310
32204
32105
32014
31925
31834
31742
31654
31569
31482
31388
31287
31180
31073
30968
30864
30761
30662
30566
30469
30371
30281
30196
30114
30035
29963
29895
29828
29760
29692
29627
29564
29502
29444
29384
29322
29263
29209
29158
29106
29056
29005
28955
28903
28850
28799
28749
28696
28641
28585
28528
28473
28417
28360
28301
28234
28158
28075
27985
27889
27796
27708
27616
27519
27424
27336
27259
27207
27204
27267
27409
27643
27985
28442
29006
29659
30377
31135
31911
32687
33443
34152
34799
35376
35883
36312
36660
36929
37128
37265
37346
37376
37362
37311
37232
37138
37034
36916
36788
36662
36539
36418
36296
36171
36037
35888
35727
35557
35378
35185
34987
34790
34596
34412
34242
34090
33954
33840
33758
33712
33690
33685
33698
33730
33776
33826
33870
33905
33935
33965
33990
34008
34016
34009
33991
33960
33914
33852
33788
33720
33642
33554
33463
33368
33272
33172
33063
32947
32830
32716
32604
32488
32368
32251
32143
32039
31933
31828
31732
31643
31558
31476
31400
31329
31262
31195
31124
31052
30979
30906
30839
30774
30708
30645
30591
30541
30489
30440
30392
30342
30285
30225
30164
30099
30026
29950
29871
29791
29715
29642
29572
29504
29439
29378
29316
29249
29184
29122
29055
28976
28890
28804
28715
28621
28526
28437
28357
28287
28228
28175
28133
28112
28127
28190
28314
28512
28798
29178
29646
30196
30820
31497
32199
32903
33597
34260
34878
35443
35950
36395
36771
37079
37324
37505
37626
37695
37727
37723
37683
37612
37520
37416
37301
37175
37043
36910
36775
36635
36491
36338
36172
36000
35825
35640
35445
35248
35060
34878
34705
34546
34407
34287
34185
34104
34045
34004
33981
33977
33981
33987
33999
34019
34039
34056
34069
34085
34101
34107
34100
34086
34065
34034
33994
33946
33892
33831
33758
33675
33581
33475
33362
33249
33133
33012
32888
32764
32641
32524
32417
32324
32238
32155
32077
32000
31919
31836
31754
31672
31588
31504
31419
31332
31239
31145
31050
30957
30865
30781
30708
30639
30573
30513
30459
30408
30358
30315
30281
30246
30203
30160
30118
30067
30008
29947
29886
29816
29737
29661
29592
29524
29454
29382
29310
29236
29161
29091
29023
28953
28880
28803
28720
28632
28544
28456
28367
28278
28196
28130
28095
28109
28193
28359
28618
28973
29427
29971
30589
31260
31969
32698
33424
34126
34789
35402
35946
36414
36811
37136
37389
37575
37701
37770
37782
37747
37676
37574
37446
37299
37139
36974
36806
36639
36475
36314
36157
36003
35849
35687
35519
35351
35185
35012
34831
34656
34493
34335
34186
34055
33947
33857
33786
33739
33712
33705
33718
33750
33800
33865
33940
34017
34085
34142
34188
34218
34228
34214
34181
34136
34077
34002
33914
33820
33718
33608
33491
33373
33261
33159
33062
32970
32887
32811
32736
32661
32588
32514
32436
32354
32269
32180
32084
31979
31863
31740
31615
31492
31369
31247
31126
31011
30907
30813
30730
30655
30581
30513
30455
30409
30368
30325
30285
30251
30220
30187
30152
30112
30066
30015
29962
29904
29838
29764
29684
29604
29527
29455
29389
29326
29270
29220
29174
29127
29080
29035
28989
28935
28871
28803
28727
28637
28541
28446
28353
28264
28188
28141
28140
28203
28347
28584
28916
29342
29856
30448
31100
31795
32513
33227
33912
34552
35139
35661
36107
36478
36782
37024
37197
37298
37338
37331
37278
37188
37078
36958
36827
36687
36540
36388
36230
36067
35900
35727
35549
35372
35192
35004
34807
34610
34416
34227
34043
33874
33730
33611
33516
33449
33409
33394
33399
33422
33462
33515
33575
33647
33728
33807
33879
33948
34014
34066
34102
34127
34139
34132
34104
34062
34007
33933
33842
33735
33619
33494
33367
33244
33129
33019
32913
32808
32701
32594
32486
32382
32284
32190
32096
32003
31910
31816
31721
31628
31535
31441
31347
31253
31147
31031
30912
30795
30679
30569
30472
30393
30328
30279
30246
30226
30208
30188
30166
30136
30093
30039
29981
29921
29856
29790
29732
29684
29636
29589
29549
29515
29481
29438
29387
29329
29263
29185
29099
29010
28918
28824
28736
28662
28615
28607
28652
28759
28942
29211
29570
30017
30544
31140
31787
32464
33150
33828
34481
35091
35650
36155
36597
36968
37269
37504
37676
37790
37855
37878
37865
37822
37753
37670
37576
37467
37344
37217
37088
36952
36804
36648
36484
36308
36117
35917
35709
35496
35285
35082
34891
34718
34572
34458
34377
34325
34300
34295
34306
34334
34378
34431
34488
34551
34620
34686
34743
34792
34832
34862
34882
34891
34886
34863
34826
34780
34725
34661
34586
34507
34426
34342
34255
34165
34070
33972
33874
33776
33672
33560
33446
33330
33214
33097
32987
32885
32782
32678
32577
32481
32389
32300
32214
32131
32052
31971
31888
31809
31730
31646
31559
31477
31403
31331
31268
31221
31180
31142
31108
31079
31045
31003
30961
30921
30877
30827
30776
30723
30659
30580
30492
30397
30290
30177
30062
29947
29831
29718
29618
29526
29441
29367
29311
29279
29276
29317
29417
29589
29847
30198
30642
31171
31776
32446
33154
33872
34578
35260
35902
36483
36995
37443
37825
38134
38375
38560
38696
38784
38832
38853
38847
38814
38757
38686
38603
38511
38414
38318
38222
38121
38014
37905
37790
37662
37525
37377
37220
37060
36901
36749
36603
36471
36362
36278
36213
36163
36131
36122
36132
36154
36188
36233
36284
36337
36400
36472
36547
36622
36696
36759
36795
36807
36802
36778
36730
36663
36583
36493
36395
36293
36190
36087
35979
35872
35767
35655
35533
35406
35286
35180
35083
34988
34890
34782
34662
34542
34430
34326
34228
34132
34033
33930
33828
33732
33642
33548
33445
33334
33219
33105
32997
32903
32818
32738
32663
32593
32524
32461
32403
32356
32319
32285
32250
32216
32179
32131
32072
32010
31943
31869
31788
31708
31629
31544
31450
31350
31247
31142
31038
30938
30845
30764
30704
30680
30705
30792
30956
31208
31547
31969
32471
33041
33660
34309
34973
35632
36271
36878
37442
37949
38390
38771
39099
39372
39589
39755
39876
39951
39981
39976
39947
39893
39817
39726
39631
39533
39432
39327
39222
39111
38987
38849
38700
38540
38370
38193
38014
37836
37662
37497
37346
37210
37095
37007
36941
36888
36851
36831
36823
36819
36821
36829
36844
36860
36875
36887
36892
36883
36865
36841
36808
36759
36697
36633
36564
36486
36399
36309
36216
36115
36005
35887
35764
35638
35515
35395
35277
35164
35055
34945
34837
34734
34631
34524
34414
34305
34197
34085
33973
33866
33767
33677
33591
33510
33441
33380
33318
33258
33203
33150
33087
33021
32962
32910
32858
32803
32749
32699
32648
32593
32534
32470
32400
32322
32236
32141
32042
31943
31843
31742
31646
31552
31455
31357
31263
31176
31093
31011
30929
30854
30789
30738
30713
30728
30795
30920
31116
31395
31763
32210
32725
33294
33899
34518
35133
35732
36301
36827
37303
37719
38067
38345
38559
38713
38811
38856
38860
38827
38752
38642
38511
38371
38220
38056
37893
37734
37571
37406
37245
37081
36908
36726
36538
36344
36148
35956
35771
35595
35434
35294
35180
35090
35025
34985
34961
34949
34945
34948
34959
34977
35002
35036
35080
35122
35151
35176
35195
35200
35182
35151
35112
35062
34998
34929
34858
34776
34684
34590
34495
34395
34292
34186
34077
33963
33847
33731
33611
33488
33364
33243
33119
32986
32851
32725
32607
32491
32377
32270
32175
32087
32003
31925
31850
31777
31707
31641
31582
31529
31483
31443
31406
31371
31341
31314
31284
31246
31206
31164
31118
31075
31042
31018
30996
30970
30941
30906
30863
30813
30755
30683
30596
30503
30405
30301
30193
30088
29992
29909
29844
29807
29808
29856
29964
30147
30414
30762
31185
31680
32237
32836
33457
34088
34713
35312
35871
36383
36840
37234
37565
37834
38039
38180
38265
38309
38319
38305
38270
38216
38141
38045
37925
37785
37627
37451
37257
37055
36850
36642
36430
36218
36006
35792
35578
35366
35162
34975
34813
34679
34576
34502
34456
34433
34429
34441
34463
34488
34512
34541
34578
34626
34677
34729
34780
34822
34847
34851
34836
34802
34743
34661
34562
34447
34314
34171
34026
33875
33717
33561
33413
33270
33134
33010
32900
32797
32701
32616
32537
32456
32376
32299
32220
32137
32052
31966
31872
31767
31658
31555
31461
31373
31291
31217
31151
31091
31042
31008
30979
30943
30908
30873
30827
30764
30692
30620
30545
30471
30409
30359
30310
30256
30201
30144
30076
29993
29901
29807
29706
29600
29498
29407
29322
29244
29184
29152
29154
29206
29323
29516
29782
30125
30546
31033
31569
32144
32738
33332
33910
34459
34970
35433
35839
36187
36476
36698
36854
36956
37015
37032
37012
36965
36895
36801
36685
36559
36430
36293
36151
36009
35866
35716
35557
35390
35214
35030
34839
34639
34429
34216
34010
33826
33670
33545
33449
33378
33330
33307
33308
33332
33374
33425
33481
33535
33580
33616
33642
33655
33650
33629
33594
33550
33497
33437
33374
33312
33247
33177
33106
33037
32967
32894
32819
32737
32650
32558
32462
32359
32249
32130
32010
31894
31780
31668
31559
31452
31349
31250
31157
31070
30988
30911
30839
30771
30707
30643
30576
30504
30430
30353
30279
30214
30156
30101
30046
29991
29940
29893
29848
29806
29765
29724
29682
29634
29581
29525
29461
29384
29293
29198
29102
28997
28885
28774
28665
28556
28452
28365
28305
28280
28303
28390
28551
28793
29125
29559
30080
30670
31316
32003
32707
33403
34074
34710
35297
35827
36297
36698
37023
37277
37470
37612
37702
37743
37746
37718
37662
37584
37494
37397
37294
37185
37070
36950
36820
36683
36541
36388
36214
36019
35808
35587
35359
35134
34927
34744
34578
34432
34311
34218
34149
34103
34079
34074
34082
34103
34132
34160
34179
34189
34189
34179
34158
34129
34091
34044
33991
33941
33892
33841
33787
33729
33665
33593
33514
33431
33346
33263
33182
33105
33028
32951
32874
32796
32713
32619
32515
32406
32290
32167
32040
31915
31798
31690
31593
31509
31437
31374
31317
31261
31204
31150
31100
31046
30983
30914
30842
30769
30693
30615
30537
30458
30377
30298
30231
30173
30120
30075
30036
29998
29957
29912
29862
29805
29739
29665
29584
29492
29389
29287
29189
29089
28985
28886
28800
28737
28709
28732
28820
28987
29245
29598
30045
30577
31178
31831
32512
33195
33860
34490
35073
35594
36050
36443
36771
37032
37234
37380
37474
37522
37532
37516
37476
37416
37346
37271
37181
37078
36973
36870
36756
36630
36500
36366
36218
36055
35887
35718
35542
35359
35181
35018
34867
34732
34614
34512
34427
34361
34318
34295
34283
34281
34293
34312
34335
34357
34379
34399
34414
34425
34434
34437
34428
34402
34365
34315
34250
34175
34097
34013
33918
33813
33699
33577
33449
33317
33182
33044
32907
32774
32640
32505
32374
32255
32148
32048
31951
31856
31762
31669
31579
31494
31407
31313
31215
31114
31007
30893
30782
30682
30593
30505
30423
30352
30292
30238
30189
30145
30098
30043
29982
29917
29852
29787
29719
29648
29573
29494
29413
29329
29243
29160
29082
29003
28919
28834
28750
28663
28568
28474
28386
28305
28229
28164
28121
28109
28141
28234
28404
28653
28980
29392
29891
30463
31089
31751
32432
33106
33749
34354
34915
35421
35862
36238
36550
36787
36950
37057
37117
37130
37103
37054
36989
36903
36799
36689
36579
36464
36346
36228
36104
35968
35824
35669
35500
35316
35118
34906
34681
34448
34220
34004
33801
33617
33463
33339
33238
33158
33105
33081
33073
33076
33093
33121
33147
33171
33197
33221
33236
33244
33246
33236
33209
33167
33117
33063
33003
32934
32859
32778
32687
32585
32477
32365
32248
32135
32026
31912
31798
31694
31602
31507
31404
31301
31204
31104
30999
30898
30804
30706
30600
30499
30404
30311
30222
30139
30056
29968
29879
29793
29710
29625
29540
29461
29390
29321
29254
29192
29136
29083
29036
28992
28946
28896
28845
28794
28737
28673
28605
28533
28449
28354
28257
28160
28057
27942
27818
27690
27557
27419
27287
27165
27052
26950
26863
26794
26754
26757
26814
26937
27138
27428
27808
28271
28799
29381
30008
30664
31327
31980
32612
33208
33750
34231
34652
35003
35279
35485
35631
35725
35766
35761
35725
35662
35571
35457
35325
35172
35004
34829
34650
34461
34263
34064
33869
33670
33467
33264
33068
32871
32673
32487
32322
32173
32045
31943
31864
31799
31748
31716
31702
31703
31714
31732
31755
31783
31814
31850
31885
31914
31939
31957
31963
31957
31941
31916
31874
31812
31738
31659
31572
31477
31387
31310
31237
31160
31085
31013
30935
30850
30762
30671
30567
30451
30332
30210
30082
29950
29823
29703
29588
29483
29389
29305
29232
29175
29133
29095
29055
29014
28975
28933
28889
28844
28797
28742
28674
28596
28514
28433
28352
28277
28212
28153
28094
28043
28003
27966
27927
27888
27851
27805
27743
27673
27598
27512
27416
27316
27215
27112
27013
26930
26873
26853
26884
26984
27167
27439
27807
28265
28796
29389
30030
30700
31374
32025
32643
33216
33726
34164
34536
34844
35081
35251
35365
35424
35432
35397
35326
35225
35096
34949
34786
34611
34424
34227
34022
33805
33575
33336
33094
32847
32592
32330
32069
31816
31581
31370
31182
31019
30885
30786
30723
30682
30657
30651
30656
30660
30657
30657
30657
30647
30628
30611
30599
30584
30564
30544
30525
30502
30475
30447
30418
30379
30325
30259
30183
30098
30006
29911
29811
29706
29605
29513
29421
29321
29217
29110
28994
28870
28750
28644
28545
28446
28350
28263
28186
28120
28063
28015
27968
27917
27861
27802
27742
27677
27604
27525
27445
27366
27291
27218
27146
27078
27023
26981
26944
26912
26890
26872
26852
26829
26808
26790
26765
26728
26680
26616
26536
26445
26349
26247
26142
26047
25969
25906
25868
25876
25946
26075
26271
26552
26933
27408
27972
28612
29307
30036
30786
31537
32263
32943
33566
34127
34619
35035
35373
35638
35826
35936
35981
35974
35926
35836
35715
35576
35429
35274
35114
34956
34805
34658
34517
34383
34252
34120
33984
33839
33682
33509
33330
33156
32987
32825
32678
32552
32439
32337
32253
32189
32145
32119
32110
32116
32139
32177
32225
32278
32333
32386
32436
32475
32498
32507
32505
32487
32448
32396
32338
32274
32199
32115
32028
31936
31837
31733
31631
31530
31425
31315
31203
31088
30976
30870
30766
30662
30563
30473
30382
30290
30201
30117
30033
29948
29859
29771
29683
29600
29527
