12919
15869
17325
16163
12876
16626
17182
15684
13090
17395
16932
15333
13791
16480
17389
13708
15739
17612
16576
12900
16390
17182
15806
12793
17263
17229
15594
13915
17481
16950
14347
14694
17502
16615
13091
16462
17183
16110
13181
17153
17011
15393
14423
17147
16453
14974
14868
17598
17253
13474
16270
17718
15635
12921
17054
16854
15619
13587
17362
17359
15642
14494
17625
16838
13844
16039
17330
16242
13142
17085
17933
15580
13756
18492
17282
15864
14398
17428
16767
14178
15183
18042
16678
12641
16733
17915
16033
12727
17401
17250
15629
13045
17431
17200
14340
14326
18360
16745
12586
16929
17322
16131
12500
17194
17343
15467
12948
17322
16473
15644
13809
17881
16526
12623
15857
17528
16195
12007
16919
17109
15830
13191
17413
17110
15018
13743
17796
16797
13500
15493
17950
16322
12096
16508
17342
16135
12883
17445
17091
15442
13113
17426
17447
13885
14464
18263
16612
12264
16512
17491
16356
12524
17216
17487
15843
13564
17662
17237
14522
14124
17926
17228
12754
16548
17741
16208
12242
17383
17709
16050
13255
17805
17280
15536
14083
18254
16670
13507
14952
18233
16620
12147
16812
17960
16218
12800
17880
17468
15388
14340
17712
17087
14108
14428
18223
16672
12112
16834
17807
16366
12333
17297
17007
15979
14192
17654
17214
14556
14090
18624
16715
13241
16346
17717
16661
12760
17213
17701
15710
12861
17527
16972
15492
13916
18611
17180
13464
15744
18218
16354
12166
16819
18015
15891
13138
17856
17477
16024
13420
18321
17488
14051
15353
17868
16567
12696
16926
17908
16075
12570
17240
17312
15610
13792
17689
17257
14092
14127
18407
16422
12584
16404
17492
15826
12612
16935
17337
15557
13496
17430
16925
14879
13529
17626
16592
12500
15230
17428
16690
11722
17084
17648
15632
13312
17367
16384
15459
13579
17796
17141
13315
15282
17712
16145
12497
16599
17499
16206
12007
16688
16912
15232
13805
17537
16576
14049
14828
17829
16425
12614
16308
17451
16415
12711
17094
17646
15431
14002
17469
17413
14697
14692
17990
16634
12764
16036
18119
16608
11948
17330
17541
15966
13306
17923
17536
15512
13937
18142
17152
13964
15028
17988
16544
12494
17100
17838
15915
13163
17885
17977
15858
14237
17950
17371
13691
14965
18148
16931
12646
16738
17697
16443
12560
17359
17840
15783
13329
17909
17498
14033
14695
19024
16778
12958
16505
18436
16202
12511
17305
17255
15939
13164
17909
17192
15220
14554
17440
17072
13139
16065
17744
16848
12643
17145
17629
16399
13292
17759
17043
15589
14263
18227
17534
13716
15207
17999
16931
12418
17071
17859
16684
12458
17174
17532
15418
13477
18608
16756
14111
15036
17471
16825
12572
16673
17787
16042
12559
17286
17472
15586
13599
17295
16570
14388
14022
18025
16485
12316
15964
18053
16579
12369
17065
17668
15667
14045
17527
17177
15193
14046
17862
17227
13120
15623
17972
16815
12532
16838
17297
16185
12460
17446
17306
15280
13560
17534
16440
14111
14634
18167
16526
12294
16728
17565
16368
12637
17253
17457
15382
13896
17592
17106
14768
14172
18373
17042
13099
16368
17869
16509
13180
17428
17607
15710
13125
17623
17148
15154
14050
17757
17141
13668
15656
17518
16681
12240
17015
17715
15827
12710
17322
17585
15342
13893
17711
17167
14123
15115
18146
16215
12663
17007
17800
15896
12874
17751
17133
15819
13902
17718
17232
14611
15200
18687
16757
12056
16133
18020
16352
12574
17525
17570
15970
12803
17603
17675
15533
14301
18281
17111
13252
16372
17850
16697
12883
17447
17578
16073
13289
17736
16702
15149
14223
18290
16986
13685
15059
18083
16744
12072
17203
17428
16251
12832
17805
17513
15298
13747
17259
17533
14963
14737
19782
16492
13438
16476
18247
16147
12165
16981
16883
15850
13319
17853
16873
14341
14426
17738
16527
13236
16068
18435
16071
12235
17109
17252
15722
12917
17319
16598
14841
13712
18122
16318
12918
15550
18558
16716
12789
16917
17319
15936
12994
17563
17886
15283
13608
18110
16724
13956
14712
18267
16491
12031
16592
17687
16061
12581
17511
17242
15959
13648
17970
17536
14518
14175
18205
17199
12063
16186
18305
16266
12043
17461
17626
16085
13122
17876
17349
15066
14331
17740
16936
13081
16016
17745
16333
13256
17360
17748
15833
13042
17480
17096
15467
13763
18071
17205
13635
14728
18419
16753
12544
16908
17744
16228
12796
17933
17604
15606
13576
17813
17644
14193
14398
18550
16995
12612
16368
17659
16554
12535
17265
17353
15892
13800
17963
17574
14893
14279
18170
17148
13254
16089
18134
16463
12607
17200
17331
16064
13138
17579
17757
15411
14488
18009
17634
13557
14895
18147
16708
12563
16726
17766
15955
12421
17712
17855
15699
13140
17688
16817
13866
14724
18501
16981
12984
17091
17949
15916
12099
17239
16925
16035
13511
17884
17471
14865
13893
18017
16508
12872
16024
18075
16592
12083
17119
17237
15872
12569
17701
17151
15367
14108
18240
16721
13975
15564
18370
16567
12061
17196
17523
15719
13448
17270
16982
15287
14102
17656
17158
13076
15355
18091
16756
12345
16917
17637
16424
12421
17396
17313
15954
13994
17876
17790
14698
14335
17907
16269
12873
16551
18117
16856
12761
17506
17640
16120
12447
17995
17463
15125
14295
17911
16830
13458
16408
18122
16377
12291
17217
17436
16120
13438
17752
17034
14892
13629
18289
17554
14288
15519
17979
17059
12977
16964
17864
16517
12779
17386
17175
15902
13950
17940
17378
14480
14962
18280
17249
13175
16797
18181
17028
13095
17857
17760
16335
13203
17807
17079
14902
14393
18491
17138
12885
16405
18540
16947
12260
17512
17308
16223
13540
17603
17153
15735
14505
17770
17710
14047
15791
18595
16571
12700
16923
17736
16243
13036
17500
17768
15865
13324
18124
16800
14363
14873
17795
17104
12631
16831
18387
16197
12476
17367
17194
15643
13320
17663
17338
14802
14370
17668
17094
12666
16263
17540
16388
12337
16911
17378
15994
13505
17947
17069
15213
14535
17930
16560
12884
16064
17985
16539
11708
17026
18044
16221
13038
17407
17456
15302
14398
18037
17005
13475
15092
18062
16619
11941
16973
18069
16167
12624
17264
17276
15971
13819
17474
17426
14274
14796
18239
17137
12979
16589
18107
16537
13013
17326
17931
16045
13027
18022
17263
14949
14311
18188
17211
13135
16341
18227
16673
12497
17005
17755
16172
12794
17542
17784
15442
14119
18040
17248
13773
15408
17984
16866
12486
16869
17579
16469
12691
17773
17667
15631
14321
18324
17970
14628
15127
18567
16972
12767
16688
18579
16394
13011
17607
17680
16133
13942
17884
17427
14623
14949
18676
16922
13030
16301
18118
16748
12489
17431
17884
15980
13060
17862
17087
15360
13893
17872
17042
13228
15427
18530
16774
12524
17243
17720
16392
12604
17352
17761
15361
13696
18132
16743
14001
14842
18212
16597
12799
16587
17696
16170
11838
17494
17167
15791
13423
17840
16866
14690
14658
18546
17047
13066
16302
17951
16263
12629
17087
17351
15643
12699
17728
17488
15297
14005
18036
16924
12985
15588
18359
16529
12137
17305
17393
15997
12856
17700
17454
15824
13986
18166
16781
13920
15023
18272
16499
12393
17027
18102
16381
12776
17546
17528
15740
13477
17863
17164
14298
14728
18608
16385
13044
16875
18101
16551
12477
17575
17514
15855
13976
17911
17378
14945
14045
19165
17169
12818
16317
17914
16785
12443
17321
17748
16445
13410
17644
17472
15486
14666
18364
17390
13659
16107
18065
16833
12323
17471
18159
16382
12621
17833
17324
15929
14025
18291
17099
14495
14531
18433
16930
12676
17114
17652
16768
12746
17467
17120
15948
13695
17833
18092
15016
14681
18450
17351
13060
16639
18279
16542
12750
17408
18081
15878
13023
17667
17477
15379
14682
18252
17184
13351
15442
17934
16919
12907
17259
17604
16276
13285
17883
17623
15351
14596
18105
17409
13668
15405
18391
16761
12132
17097
17694
16287
12474
17468
17651
15461
13601
18130
17253
14164
14478
18400
17074
12868
16441
18305
16794
12700
17473
17566
15660
13918
18026
17284
15514
14672
17888
17267
13449
16622
17870
16754
13300
17034
17575
15961
13765
17480
17155
15552
14628
17997
16939
14217
16111
18468
16951
13285
17096
17159
16121
13434
17504
17836
15252
13568
17973
17269
14476
14632
18393
16577
12367
17112
17809
16532
13100
17590
17848
15969
14374
17487
16954
14773
14268
18083
17398
13342
16593
18191
16855
12780
17580
18060
15920
13375
17798
17232
15254
14553
18208
17078
13323
15563
18557
16943
12441
17326
17594
16424
13509
17747
18134
15913
13922
17820
17119
13987
15291
18669
17340
12901
17242
17638
16689
12453
17912
17441
15902
14136
18347
16909
14638
14868
18229
17605
13197
16883
18533
16403
13032
17296
17562
16173
13071
17863
17550
14824
14516
17895
17315
13797
16592
17757
16512
12367
17279
17486
15932
13416
18113
16737
15425
14128
17906
17117
13509
15498
18170
16439
12463
16991
18154
16368
12668
17809
18120
15312
13404
17845
16666
14023
14405
18711
16708
12947
16807
17763
16624
12269
17483
17464
15432
13391
17796
17619
14816
14579
18505
17142
13102
16055
18752
16520
11946
17314
17458
15365
12943
17604
17265
15175
13911
18276
16991
13177
15862
18530
16921
12034
17606
17990
15773
13010
17676
17527
15616
14183
18188
17144
14269
15051
18763
16831
12508
17020
18218
16301
12492
17724
17867
15851
13532
18208
17771
14357
14623
18397
17061
12962
16618
18297
16693
12514
17773
17615
15918
13238
17913
17513
15120
13771
18510
16863
13439
16022
18448
16900
12468
16992
17719
16217
13403
18034
17221
15621
14288
18206
17525
14164
15912
18848
16984
12324
17353
18285
16545
13116
17910
17309
15881
14359
18226
17336
14259
15101
18630
17347
12588
17086
17501
16144
12247
17365
17336
15436
14030
17522
17467
15133
14696
18396
16790
13143
16471
18163
16507
13087
17459
17291
15766
13481
17476
17249
15123
14807
17998
16845
13773
16190
17971
16455
12493
16829
17117
16319
13570
17486
16904
15440
13827
17753
16861
14141
14750
18077
16705
12979
17067
17939
16043
13062
17212
17158
15646
14064
17705
17108
14661
14818
18482
16982
13047
16642
17921
16622
13313
17457
17539
16027
13977
17858
17235
14900
14798
18211
16943
13856
16195
17790
16669
13148
16872
17617
16048
14033
17574
17264
16027
14901
18419
16906
14518
15523
18203
16812
13340
17170
17775
16260
13756
17899
16971
15984
14649
18218
17017
14573
15038
18592
17006
13585
16805
18002
16487
13193
17556
17389
15876
13640
18073
17460
15535
15020
18231
17349
13616
16599
17945
16497
12713
17406
17656
15944
13648
17868
17521
15789
14248
18253
16903
14499
15734
17802
16834
13252
17502
18152
16225
13553
18302
17561
15979
13904
17974
17471
14354
15053
18189
16555
13264
17035
18013
16468
13120
17650
17248
15927
14366
17626
16965
14866
14928
18298
16861
13143
16481
17797
16298
12966
17505
17306
15635
13599
17653
17104
15547
14173
18102
16797
14563
15802
19298
16970
10927
17131
18524
15915
12493
17687
17522
15464
13050
17842
17394
13834
14795
18231
16812
11586
16837
19402
16151
12633
17471
17352
15682
13683
17643
17449
14611
14238
18408
16750
12690
16488
18170
16189
12343
17536
18114
15972
14117
17610
17666
14957
13934
18238
17246
12862
15751
18436
17073
12474
17357
17889
15956
12954
17926
17331
15771
14002
18192
17288
13655
15000
17816
16706
12669
17308
18104
16434
12838
17810
18197
16051
13800
17987
17269
14371
14319
18510
17185
13023
16788
18064
16604
12918
17703
17677
16311
13328
18185
17159
15195
14733
18740
17587
13052
16527
18461
16842
12288
17792
17511
15986
13574
17998
18038
15269
13823
18641
17831
13748
15779
18501
16808
12515
17530
18195
16505
13030
17666
17916
15820
13996
18099
17857
14331
14712
18396
17029
12656
16884
17954
16419
13040
17813
17499
15876
13351
18175
17104
15009
14595
18052
17312
12795
16358
17634
16626
12277
17429
17896
16066
13032
17562
17063
15188
13779
18165
17238
13560
15318
18229
16351
11609
17226
17800
16164
12854
17501
17127
15317
14204
18073
17329
13689
15269
18243
16916
12310
17233
18032
16171
12750
18174
17496
14721
13759
17960
17167
14483
14213
18636
16716
12870
16710
18868
16524
12912
17518
17648
15870
13108
17572
16903
15246
14473
18203
16974
13150
16001
18031
16794
12806
17597
17752
16235
13448
18103
17297
15249
14138
18303
16861
13710
15380
18771
17045
12492
17489
17933
16520
13182
16720
17747
15764
13519
17803
17181
14156
14381
18291
16988
13191
17049
18033
16612
12526
17831
18159
16170
13687
18279
17498
15178
14543
19048
16908
13562
16584
18866
17033
12415
17821
17828
16271
13146
17919
17581
15863
14218
19009
17594
13422
15589
18488
16870
12720
17294
18467
16486
13580
18043
17726
15964
14814
18429
17740
14196
14992
18424
17263
12737
17225
18027
16323
12666
17927
17531
15931
14203
18089
17229
14730
14637
18557
17196
12736
17014
17939
16517
12417
17578
17696
15765
13485
17691
17167
14943
13687
17896
16905
13057
15795
18113
16778
11819
17617
17749
16199
13223
17845
17566
15731
14114
18255
17197
14051
14780
18115
16870
12101
16928
17923
16451
12875
17675
17159
15517
13917
17465
16967
14249
14769
18422
16869
12739
16707
18468
16446
12947
17552
17543
15809
13859
17991
17548
15268
13881
18546
17566
13245
16030
18614
16775
13267
17571
17564
16358
13321
17821
17818
15196
13873
18238
17053
13764
15581
18109
16787
12905
17640
18303
16291
13434
17683
18153
15790
13892
18216
17926
14529
14961
18476
16853
13206
17077
18653
16825
12637
17681
17447
16193
14026
18299
17752
14856
14679
18387
17416
13442
16762
18500
16797
13216
17892
17786
16187
13440
17894
17872
15371
14350
18320
17626
13453
16133
18931
16829
12821
17784
17929
16569
13476
18028
17676
15732
13822
18331
17769
14173
15064
18162
17107
13118
17680
18136
16300
12331
17779
17606
15586
13542
18054
17115
14694
14548
18230
16571
12825
16830
18423
16764
12763
17625
17809
15933
13755
17816
16772
15056
14054
18544
17150
13192
16222
17903
16930
12378
17195
17930
16184
12817
17607
17610
15711
14005
17610
17188
14139
15404
18187
16766
12350
17212
18395
16371
12844
17735
17865
16132
14183
18066
17143
14384
14859
17946
16833
12756
16980
18126
16525
13071
17719
16806
15888
14024
17873
17704
15313
14200
18901
16730
12946
16320
18037
16810
12460
17591
18103
15988
13441
17670
16918
15611
14625
17959
17595
13830
15518
18442
17191
12660
17350
17987
16361
13393
18024
17356
15758
14304
18479
17305
14431
14976
18388
17205
12976
17144
18322
16706
12939
17522
18203
16103
14074
18364
17641
15259
14783
18559
17060
12702
16727
18523
16897
13233
17991
17964
16221
13833
17397
17386
15362
14592
18455
17045
14288
15634
18619
17034
12308
17629
18010
17031
13985
18096
17892
15930
14209
18431
17704
14509
15568
18749
17317
13133
16985
18287
16595
13233
17999
17605
16123
13344
18151
18013
15098
14802
18761
17155
13040
16421
18494
16669
12825
17848
17804
16096
13890
18163
17672
15512
14446
18238
17061
13157
15821
18385
16779
12743
17309
18129
16326
13070
17631
17657
15807
14379
18311
16966
13559
15392
18151
16744
12701
17468
17890
16615
12887
17619
17537
15547
13733
18228
17225
14374
15093
18330
17294
13019
17017
17678
16564
12539
17681
17682
15860
13786
17921
17516
15191
14170
18919
17361
13905
16901
18216
16398
12770
17680
18196
16504
13400
17737
17218
15700
14448
18370
16830
13979
15399
18336
17003
12558
17603
17917
16585
13317
18093
18057
15965
13701
18381
17386
14452
15247
18832
17197
13465
17138
18041
16895
12755
17811
17539
16202
14095
18117
17938
15208
14423
18365
17130
13753
16696
18127
16801
12564
17645
17520
16362
13580
18049
17158
15483
14568
18543
17296
13451
15739
18435
17119
12702
17724
18280
16462
13337
18321
17278
15986
13952
17229
17163
14340
15561
18225
16918
12668
17299
18184
16753
12880
18107
17668
15899
13634
18075
17442
14955
14615
18586
17246
12777
17037
17392
16476
12834
18045
17715
16133
13653
17595
17353
15244
14161
18141
16640
13538
16064
17684
16540
12237
17359
17384
16105
13585
17550
17571
15318
14066
17930
17426
13473
15832
17916
16437
12821
17403
18103
16565
13140
17421
17537
15525
13888
18310
17345
14229
14335
18232
17137
12995
17051
18091
16206
12420
17733
17312
15975
13460
18091
17353
15292
14570
18590
16958
12871
16707
18238
16705
12222
17668
18288
15997
13407
18319
17197
15446
14814
18338
17235
13846
15992
18536
16727
12027
17461
18046
16572
13238
17863
17926
15178
14524
18102
17702
14483
15423
18300
16877
12882
17197
18613
16645
12642
17969
17950
15872
14079
18198
17350
15109
15125
18630
17130
13069
17299
18155
16860
12621
17527
17926
16334
13484
18358
17845
15372
14167
18355
17485
13520
16049
18890
16995
12411
17656
17932
16347
12885
17938
17840
16009
14320
18431
17659
14028
15213
18068
16898
12789
17175
18282
16812
13253
18290
17931
15726
14273
18092
17525
14551
15086
18986
17410
13140
17309
18234
16709
12978
17749
18234
15919
13681
18010
18011
14751
14378
17893
17140
13820
16350
18219
16524
12256
17573
17849
15737
13274
17903
17103
15179
13909
18162
17352
13505
15383
18060
16760
12762
17090
18349
16316
13545
17859
17145
15667
13910
18108
17462
14525
14585
18425
16728
12648
16654
18234
16719
13107
17913
17772
16163
13542
17897
17833
15242
14432
18241
16697
13798
16025
19026
17473
12314
17632
17780
16105
13540
18142
17371
15722
14227
18395
17638
13521
15767
18148
17007
12610
17244
17816
16547
13275
18002
17277
15959
13573
18163
17455
14321
15478
18393
17270
12496
17056
18340
16508
12895
17862
17677
15647
13668
17843
17944
14880
15084
18969
17483
13350
16703
18309
16553
13189
18159
17857
16255
13627
18051
17545
15968
14693
18275
17982
13544
16222
18447
17435
13122
17532
17441
16475
13640
18146
17463
15687
14385
18376
16982
14117
15392
18513
17158
13010
17357
17671
16714
12931
18216
17505
15803
14183
18292
17189
14284
14723
18839
17040
12683
16881
18363
16962
12804
17710
17917
16179
13596
18188
17346
15246
13982
18548
17132
13349
16090
17970
16835
12643
17254
17926
16206
13429
17936
18151
15532
14567
18555
16857
13843
15693
17710
16680
12575
17118
17818
16364
13011
17815
17301
16086
14149
18024
17438
13857
14615
18306
16987
13053
16533
18610
16593
13018
17599
18205
15903
13746
18004
17556
14918
14400
18301
17424
13383
16565
18334
16626
12669
17586
17662
16150
13459
17950
17215
15774
14230
18524
16816
13222
16272
18409
16655
12077
17256
17730
16010
13367
18149
18377
15968
13705
18332
17383
14312
15723
18358
16874
12620
17002
18240
16825
12822
17820
17571
15909
13486
18229
17371
15167
15032
18815
17598
12738
16836
18321
16290
12986
17833
17647
16123
13742
18108
17323
15238
14111
18818
17064
13473
16249
18408
16816
13194
17713
17736
16285
13222
18015
17512
15720
14777
18551
17870
13834
15979
18138
17360
12361
17483
18180
16491
13054
18227
18126
15890
13895
18062
17305
14506
14534
18586
17324
13073
17163
17975
16706
12701
17526
17619
15944
13957
18069
17917
15131
14618
18327
17816
13992
16335
18419
16580
12662
17557
17459
16362
13322
17838
17525
15651
14338
18181
17057
13444
15737
18592
16699
12582
17637
18085
16158
12729
17995
17349
15538
13298
17633
17082
14568
14648
18362
17016
12984
17143
17680
16100
12234
17558
17662
15884
13293
17976
17237
14757
14933
18535
17026
13311
16530
18076
16855
13095
17522
17801
16165
13790
17830
17133
15463
14614
17764
17084
13680
16033
17865
16813
12719
17470
17841
16289
14024
18087
17359
15622
15202
18226
16973
14297
15064
18517
16895
12926
16619
18117
15569
12204
17568
17397
16643
13505
19287
18097
14571
14724
18169
16966
12566
16623
17957
16894
12781
17472
17615
16042
14095
18019
17173
15369
14388
18597
17799
13125
15654
18528
16981
12124
17319
17612
15625
14208
18982
18063
15647
14603
18175
17628
13854
15402
18444
16971
12418
17427
18335
16398
13388
18012
17845
15606
14388
17910
17219
14502
15153
18412
17432
13045
17317
18176
16464
13376
17554
17737
16097
13972
17925
17399
15042
14540
18236
17008
13587
16315
18428
16660
12694
17525
17749
15666
13042
17632
17125
15504
14425
18096
17359
14023
16127
17979
16727
12003
17360
18226
16389
13065
17610
17118
15652
14240
17872
16841
14472
15145
18808
16440
13232
17104
17803
16121
12590
17632
17096
15842
13573
17214
16733
14692
15369
18404
17194
13203
16379
17742
16326
12608
17481
17518
15994
13238
17711
16996
15195
14691
18056
16868
13349
16522
18551
16893
11684
17961
17734
16242
12427
18556
17136
15827
13540
18129
17753
14133
14888
17550
16671
12876
17020
17845
16631
12756
17617
17978
15928
13898
17798
18194
15668
13925
18665
17138
12179
16458
19932
16459
11856
17745
18075
16422
13642
18910
17923
15262
15558
17847
16976
13525
16750
18109
16934
12781
17529
17822
16359
13141
17579
18083
15898
14770
18765
17148
14457
14723
17936
16446
12296
17453
18019
16090
13051
18001
18107
16072
14098
18971
17621
14315
15088
18699
16819
13344
16923
18625
16590
13044
17871
17597
16071
13185
17908
17469
15299
14803
18272
17873
13596
16703
18335
16713
12987
17333
17708
16292
13440
17859
17671
15612
14497
17535
17223
13936
15726
18779
16819
12399
17105
18119
16296
12906
17693
17408
15686
13603
18085
16927
14343
14900
18171
16584
12718
17074
17881
16233
13359
17652
17010
15266
13482
17770
16972
14765
14852
18359
17325
13039
16732
18248
16619
12603
17469
17299
15829
13964
17958
17232
15632
14490
18112
17489
13659
15289
16408
18117
12907
17551
16988
16268
11983
17843
16653
15407
14153
18170
16771
14339
14724
19028
16823
13450
16773
17459
16445
12791
17587
16422
15757
15093
17772
16911
14301
14432
18412
17124
13474
17161
18127
16632
12771
17518
17426
15763
13620
17548
16932
14879
14597
17831
17141
13282
15572
18107
16296
13045
17370
17468
15935
13499
17795
17246
14469
14107
18004
16950
14349
15273
17794
16761
12702
17257
17719
16369
12894
17484
16932
15727
14891
16816
16858
13763
15332
17723
17937
12597
16516
17552
15563
13585
17715
17096
15127
13626
18365
17724
15056
14868
18077
17025
12801
15855
17658
16202
12730
17244
17080
15900
14263
17949
16685
16149
13799
16853
17094
13584
16584
17453
17382
11983
16899
17623
16161
12594
17599
16929
15558
13809
17701
17475
14021
15254
17908
16557
12448
16163
17069
15950
13120
17272
17298
15657
13585
17508
17263
14716
14778
17800
16329
13251
16221
17977
16500
12495
17269
17767
15814
13603
17496
17071
15262
14146
17826
17448
13705
15944
17928
16487
12403
17426
17763
15802
13575
17842
16874
15492
13848
17979
17245
14287
15345
18358
16557
12499
17414
17575
16485
12576
18428
17526
15710
13252
17635
16934
14510
14978
18571
16900
13289
16697
17634
16274
12654
17442
17535
15829
14121
17656
17617
14972
14727
18451
16878
13565
16103
17728
16564
12826
17291
17435
15742
13029
17712
17260
15862
14272
18335
17180
14228
15939
18133
16692
12796
17203
17605
16493
13096
17574
17487
15734
14877
17850
16940
14261
14626
18403
16941
13421
17145
18442
16743
12101
17283
17765
15611
14286
18744
18121
14109
14864
18244
17017
13825
15798
18070
16610
13078
17572
17544
16172
13205
17837
17192
15398
14274
18364
16873
14279
15489
18394
16433
11739
16976
17584
16919
12942
17441
16734
15439
14257
17862
16871
13760
14894
17029
15898
12965
16459
17400
16030
12525
17422
17733
15691
13591
17966
16771
14690
14389
17664
16558
13255
16237
18256
16400
12391
17269
16846
15824
13481
18620
16703
15489
14966
17321
16874
13381
16658
17164
16427
12753
16783
17194
16030
13262
17516
17118
15550
14349
17881
16601
14342
15424
18322
16918
12827
17713
17917
16040
12759
17036
16968
15543
13486
17429
16881
14592
14889
17464
16595
13950
16536
17469
16099
12970
17207
17573
16120
13680
17816
17314
14666
14090
17141
16815
13304
16512
18425
16291
12146
17190
17853
16279
12825
17541
17560
14986
14410
18001
16588
13348
16109
18694
16773
13599
17199
17551
17092
13343
17764
17232
16077
13358
17744
17677
14497
15031
18808
17341
12796
17366
18005
16433
13160
17810
17285
15761
14350
17705
17579
15144
14955
18330
17305
13788
16171
18023
16499
13282
17641
17504
16208
13822
17934
17989
15799
14412
17888
16864
13724
15425
17492
16444
12798
17110
17798
16528
13071
17669
17643
15593
14004
17880
17146
14270
14557
18549
16391
13308
17025
17724
16377
12794
18192
17206
15987
13351
17733
16734
14802
14324
18130
16823
13587
15932
17770
16204
12169
17116
17782
15799
13240
17251
17485
15320
14821
17876
16196
13670
15721
17983
16569
12590
17275
17641
16193
12684
17431
17751
15579
14322
17913
16641
14217
14994
17927
16636
12330
16792
18018
16199
12890
17849
17729
16452
14167
17608
16803
14843
14806
18225
16431
12970
16936
17802
16084
12564
17209
17542
16022
12989
17774
17741
15283
14244
17900
16984
13768
16153
17928
16589
13074
17270
17414
17378
13195
17945
17741
15692
14384
18220
17089
13834
15040
17995
16543
12618
17293
17775
16143
13008
18343
17512
15184
13702
18167
17469
14955
14697
17534
17461
13372
17125
17895
16657
12697
17714
17188
16105
13592
17904
17253
15016
14267
18314
17153
13598
16395
18265
16569
12625
16916
17833
15446
13841
17949
16751
15683
14151
18077
17159
13843
15902
18575
16739
12870
17159
17992
16046
12883
17699
17218
15308
13914
18004
16989
14739
14653
17953
16764
12796
16619
17965
16205
13663
17390
17351
15256
13878
17898
17542
14651
14727
18320
17082
12844
16530
17850
16104
12810
17241
17172
15565
13266
17613
16987
15408
14269
17593
16902
13450
15841
17849
16823
11823
17548
17519
16243
13101
17474
17324
15392
13959
19078
16887
13667
15128
17723
16717
12869
16646
17727
16253
12854
17480
17264
15742
13522
17902
17206
14796
14927
18188
17232
13363
16821
17953
16366
12819
17655
18187
16166
13246
16875
17419
15550
13425
18851
16262
13364
16600
18256
16704
12713
17557
18143
16391
13219
18027
17649
15279
14597
17872
17661
14166
15645
18593
17225
13227
17306
17724
16245
12500
17944
17119
15849
14282
17531
17015
14486
14726
18067
17234
13002
16742
17999
16448
13675
17526
17256
15947
13844
17805
17261
15598
14566
19170
16504
13450
16648
17484
16784
12895
17628
17052
15987
13107
17537
17353
16678
14626
18222
17384
13403
16152
18186
16671
10698
17189
17571
16108
12783
17499
17105
15348
14078
17839
16879
14049
14753
18086
16914
12623
16545
17503
16079
12354
17451
16797
15503
12450
17413
16149
14658
14162
18002
16815
12967
16302
17422
15866
12641
16966
17356
15445
12844
17345
16838
15093
14078
17789
16546
13551
14952
17655
15871
12068
17199
17171
15540
12768
17398
16940
15352
13622
17632
17168
14109
14602
18128
16367
12873
17187
17626
15689
13053
17381
17013
15359
13625
17581
16185
14684
14381
18038
17151
12129
17038
17573
16117
11974
17213
17159
14564
13833
18159
16952
14563
14193
18085
16574
13166
15824
17962
16347
12328
16735
17670
15869
12506
17385
16853
15627
13604
17883
16927
13625
15128
17554
16239
12208
16959
17140
15908
12706
17896
17407
16033
13145
17682
16608
14600
14338
18394
16479
12429
16598
17394
16162
12168
17330
17684
15254
13969
17592
16899
15039
14503
18160
17193
13469
15404
18123
16451
13468
17524
17836
16042
13651
17138
16380
15755
13847
17974
17091
13461
15068
17887
16530
13004
16967
17477
16285
13166
17631
16849
15621
14309
16921
17050
14254
15385
17799
16226
12397
16722
17135
16021
12667
17005
17519
15465
13640
17458
17154
14926
14128
17517
16487
13023
15783
17740
16196
12644
17217
17145
15407
13100
17689
16775
15147
14633
17916
16835
13235
15036
18465
16619
12224
16983
17344
15947
13284
17519
17129
15703
14457
17662
16870
13965
14266
18324
17129
12602
16701
17747
15935
12564
17450
17035
15552
13916
17615
17248
14717
14863
18300
16817
12870
16739
18307
16348
12826
17411
17527
15686
12935
17819
17331
15157
14652
18146
17262
13121
15901
17847
16373
12844
17370
17247
16103
13329
17784
17666
16176
14517
17913
17375
13937
15306
17417
17097
12480
17170
17618
16066
12520
17773
17616
15929
13496
17924
17517
14412
14809
18696
17222
12789
16807
18413
16712
13092
17705
17547
15892
14121
18032
17797
14990
14905
18595
17045
13412
16451
17988
16702
12980
17674
17715
16236
13527
17998
17863
15471
14865
18194
17206
13905
15631
18155
17048
12771
17481
18074
16465
13250
17885
17807
15962
13745
18057
17107
14657
14990
18336
16917
12497
16657
17896
16339
12318
17829
17502
15728
13541
17786
17105
14644
13996
18111
16771
12799
15868
17908
16650
12584
17439
17639
15801
13106
17670
16514
15526
14132
17905
16899
13675
16453
17558
16694
11873
17281
17125
16134
13043
17786
17367
15773
13819
18108
16914
14606
14766
18146
16375
13051
16884
17603
16447
13770
17662
17052
16066
13562
17249
17020
14671
14445
17577
17023
13122
17423
18555
17122
12059
17922
16173
16105
13796
18924
16806
16106
14692
18110
17177
12843
15766
18004
16337
12099
17293
17502
16578
13664
17906
16776
16222
14487
17532
17027
14551
15848
18816
16459
12357
17283
17376
16641
13638
18451
16444
16683
14156
17417
17444
14644
15194
18244
18140
12496
17478
18425
15827
13806
17774
17774
16666
14560
17189
17708
14412
14363
18290
16914
13238
16516
18884
17141
13405
17833
17081
16427
14033
18509
17471
15511
14574
18804
16939
14144
15697
18060
16983
12265
17635
17957
16578
13160
17851
17048
15717
13783
17728
17197
14285
14441
17969
17156
13234
17503
17833
15595
12610
18093
16497
15894
13612
18117
17027
14972
14467
18594
16890
13308
16426
17803
17033
12629
17617
17005
16187
13909
17511
17698
14549
14368
17311
17857
13614
16827
18035
17197
12332
17696
17917
16565
13171
17491
17671
14816
14086
18257
18068
14255
14926
17283
16746
12096
17365
18559
16412
12414
17791
17243
15533
14080
17652
17163
14623
14937
18539
16516
13996
16405
18980
16550
12945
17643
17741
16128
13923
18348
17921
14425
14800
18484
17926
12922
16440
18549
16365
12794
16283
17434
17579
13027
18163
17074
15098
15063
19033
17865
14813
15392
19094
16933
12366
17231
17452
16225
13266
17806
18706
15713
13286
17489
17050
15340
15112
18683
16775
12610
16846
17563
16378
12706
17290
18492
15520
13372
18035
16538
15814
15339
19279
16837
13487
15883
18650
17034
13636
17265
17179
16539
14040
17834
16638
15890
14790
16679
18264
14111
15831
17380
16008
12116
17510
17073
15833
13863
17548
16344
14767
13915
17345
16437
14800
14818
18921
16675
12249
16701
18313
15903
12054
16655
16472
14578
13924
17732
16476
14987
13941
17243
17077
12491
15890
18728
16645
13340
17814
17534
15908
13208
17566
17676
15165
13808
18936
16865
13554
14982
17699
16226
12731
17705
16982
15461
12286
18426
17420
15619
14259
18469
17076
14843
14181
18124
17246
12919
16671
17610
16733
11706
18333
16744
16612
13865
18474
17589
14975
14451
18313
16074
12354
16647
17991
16413
13509
17382
17213
15957
13445
17585
17726
15105
15168
17380
17674
13945
16068
17312
16990
12383
17952
16799
15892
13819
16691
17427
16619
12977
19182
15957
13792
14761
17928
16715
12946
17270
17958
16746
13127
17697
17069
15858
14364
17984
16636
15558
14912
18447
17333
13010
16665
18020
16706
12686
17593
17934
16288
13427
17838
17385
15673
15215
18311
16843
13564
15729
17989
16351
13668
16800
16840
17246
13429
17527
17754
15492
14592
18156
17890
13775
15401
18868
16006
12579
16850
18546
16010
12782
18890
16877
15933
13608
17615
17973
15220
15200
19127
16530
13706
16638
18395
16426
13353
17392
17025
16303
13878
18435
17516
15050
13785
19336
16626
13740
16021
18053
16405
13314
17796
17773
15831
13243
18241
16779
15099
14590
17054
17196
13675
15893
18164
16716
12298
16705
17907
16665
13442
16995
17135
15874
15210
17227
17037
14297
14749
19213
17003
13091
17209
18519
16837
13340
17859
17730
15874
12394
18674
17551
14911
14421
18067
17589
13097
15608
17842
17080
13011
17328
17594
16121
13850
17497
17138
16500
13937
17570
17000
13602
15333
17923
16892
12214
17043
17597
15763
12958
17197
16498
15434
15085
16817
16459
14410
14490
17208
16651
12104
16233
18110
15905
12203
17498
16839
15895
13657
17603
17152
14590
15199
18259
16694
13999
17342
17629
16852
13665
17387
17098
15853
13300
18019
16949
15118
14618
18055
17058
14059
15508
18305
16564
12710
17268
17438
16018
13622
17854
16965
15629
15314
18940
16953
14580
15661
17308
15299
13266
16748
18268
16249
12242
16525
17831
15011
12977
16671
17427
15218
15259
19031
16514
13322
16188
18192
15901
13094
16883
17438
16496
13609
17516
16255
14020
13791
17113
16121
12532
16644
16950
16792
12352
16127
18660
16404
13891
16791
17475
15206
13865
18168
16973
14012
14617
18291
17385
12683
17327
17317
16652
12929
17882
17934
16756
13963
17514
16515
13842
14769
18056
16462
13260
16563
17910
16308
13073
17398
17131
15649
13498
17623
17009
15434
14380
17880
16554
12803
16185
18848
16803
12648
17434
17378
16560
12949
17298
17747
15678
14230
16951
17326
13624
13670
18495
15513
11743
17263
18037
16013
13903
18093
17746
15091
14521
17618
16839
13924
15386
19049
16816
13285
16877
17557
16444
12398
18001
16923
16234
13399
17853
16692
14530
14397
18074
17215
13711
16863
18391
16035
11934
17380
17077
15035
13361
17046
16637
14416
13558
17632
17681
14603
15820
17396
16980
13563
17862
17735
15545
13412
16812
17208
15858
13391
17957
16766
14030
14945
18187
16525
11524
17674
16773
16756
11469
18258
17508
14807
13657
17719
17207
14119
13311
18142
16990
12589
15972
16899
16342
11762
16786
16743
16438
13659
16898
17267
14215
14603
17091
16059
13654
15870
18564
16402
12085
17171
16705
15989
12625
17279
16606
15893
13846
17899
17128
13624
14949
18250
16501
12595
16819
18460
15807
12930
18297
17639
15629
12390
17772
17803
15482
14787
18054
16497
12678
16116
16891
16273
13462
17133
17035
15750
13539
18473
16821
14964
14170
18741
17068
13926
15619
18715
17014
12174
16556
16872
15841
13431
16473
17602
14753
14429
17823
16708
13460
16167
17525
17188
12437
16639
17531
15896
12104
16986
16602
15304
13545
18361
17500
13819
13815
18339
16193
13836
17321
18326
16595
12283
17177
17385
16630
14491
18599
16876
16153
14001
18716
16852
13816
15842
18159
16667
12370
17906
18447
16108
14077
17213
18164
14926
13952
19426
17119
13893
15316
18718
17374
12521
18035
17235
15962
12460
16993
18019
14557
14361
16831
17884
14618
13973
17292
16373
13386
17126
17698
15837
13078
17177
17234
15341
13563
17766
17145
14819
14457
17127
16941
13644
15766
17184
16784
13171
16988
17353
15352
13474
18109
17667
16149
13045
16604
15967
13519
16611
17787
16603
13398
17758
17960
16658
13180
16849
16427
15682
13929
18501
16556
14850
14861
18307
16835
11868
16537
17248
15635
11495
17436
16318
15779
13622
16746
16603
14013
14662
17746
17220
13774
16484
17580
16754
13668
17747
17469
15148
14220
16880
16819
14033
13631
17844
15706
12898
15547
18253
16658
12998
17446
17543
15405
12744
18111
17373
14988
14596
17585
17063
14050
16103
18136
15484
12704
17447
17919
16017
12995
18759
17488
14636
13144
17812
16237
14212
14929
18597
17114
12460
17036
17436
15923
13697
17806
17075
16178
13177
17110
18579
15858
13737
18399
17591
14189
17104
17865
15960
13442
17784
18421
15215
13344
17496
17055
15980
14860
17316
16743
13403
15754
18147
16699
12872
17291
17544
16237
13261
17807
17236
15486
14321
18091
17378
14398
14786
17608
17856
13359
15924
17584
16611
13313
17329
17392
16432
13685
18170
16714
15697
13892
18024
17415
14398
16771
17035
16993
12699
17306
17234
15477
14110
17671
17593
16016
14149
17460
16240
13652
15335
18452
16776
12680
16878
18212
15543
13911
18417
18057
15707
14337
18768
17647
14736
14810
17392
16117
13608
17237
18585
16495
12863
17941
16408
15664
14251
17642
17657
14208
14410
18741
16923
13101
16381
18425
16423
12874
17233
17554
15945
13427
17788
17590
15559
14367
17913
16836
13880
16109
18409
16995
12890
16596
18052
15662
13859
16806
16407
16740
14538
17223
16573
14382
14156
16925
16337
11845
16671
17596
17490
12678
18298
17992
15028
13503
18230
17509
14166
15234
17765
16994
13125
17168
18348
16450
13168
17642
17310
15191
13629
18772
16976
14114
14406
18494
16569
13457
17562
17590
15896
12985
17571
17423
17178
13202
17614
17702
16211
13703
18513
17634
14835
16915
18825
17102
13175
17599
17812
15868
13045
18163
17292
16170
14180
18749
17825
14656
14877
18161
16381
13262
16777
18151
16218
12439
17217
16921
15625
14196
17786
16699
15028
14335
17874
16892
13219
16044
17849
16499
12079
17058
17423
15997
13573
17738
16510
15427
14544
18579
16373
13374
15712
18555
15394
13078
17868
17472
15503
12660
16958
16788
15214
14004
17850
16744
14067
15155
18462
16451
12665
16602
17599
16600
13607
18130
17952
15916
13647
17549
16316
14165
14139
18384
16105
13141
16329
18148
16428
12621
17404
17746
15980
13509
17678
17044
15389
14290
18200
17580
13500
15553
17042
16625
12776
17054
18199
17013
13173
17921
17213
15854
14657
18006
17744
14297
14038
18392
16831
12435
17233
17541
15729
13776
18556
17574
15188
13069
18158
17386
15450
15393
18289
16841
12507
16479
18907
16570
13854
17920
18140
15867
13154
17942
17252
15661
14143
18622
17751
14208
15623
18380
17558
12502
17628
16952
16672
13418
18220
16329
15161
13449
17711
17300
14794
16579
18947
16775
12389
17843
16928
17001
13227
17520
17669
15952
14627
16802
17590
14217
14731
17291
16843
11548
16950
17929
15328
12275
18085
17012
16384
14215
18185
17517
14538
14568
18571
15975
12337
15877
18735
16848
12002
16993
17685
16319
13812
17114
16108
15211
14284
17309
16745
13903
14535
18351
16903
12451
17033
17208
16331
13869
18174
17690
14563
14046
16727
16526
13513
13909
17856
17367
13244
15782
17675
15621
12505
16943
17966
16541
14563
16738
17492
15888
15326
17373
17069
12635
15456
17983
16919
12532
16938
18129
16969
14325
18946
17274
16353
15078
19236
17455
14207
16312
17513
16760
12967
17401
18333
16953
14043
18130
17751
16733
13858
17615
17651
14546
14304
18991
15782
12615
16300
18348
15968
13200
18262
17429
14991
14264
16794
18047
14273
14109
18460
16330
13505
17054
17716
16664
13201
17475
16825
15445
13451
18252
17436
15482
14819
18775
17053
13678
16074
17860
16855
12812
17389
17021
17001
12531
18539
17155
15940
13729
18952
17661
13475
14742
18595
16807
13540
17058
16838
15821
12731
16744
18144
15568
13197
18696
17827
14927
14518
17799
16323
13278
16495
16904
15210
12761
17972
16971
16064
13453
16712
16896
14247
13879
18551
17068
13145
16364
17725
15811
12223
16718
17965
16064
12601
17224
17369
15196
13472
17623
17118
13282
15103
17257
16302
13334
16706
17948
16018
13562
17887
17807
15940
14634
16830
16386
13975
15729
16975
15685
13118
16058
17386
16797
12964
17747
16755
15581
14334
16780
15959
14112
15120
17934
15593
13757
16122
18220
16304
11954
17351
17849
15501
13408
17484
17021
15227
13981
18212
16735
14400
15868
18918
16061
13172
16772
16937
15750
12372
17220
16981
14331
13320
17437
17791
14730
15089
18607
16336
13405
16841
17357
17062
13074
16871
16532
15626
14061
17759
17816
14930
15385
17611
16324
12912
15414
18340
15427
13701
16619
18264
15108
12959
18449
17674
14947
14067
17885
16410
14034
16419
17603
16619
11741
17268
17242
15813
13907
18111
17746
14958
14019
18533
17086
14484
14732
18971
16406
13904
17417
18555
17100
13016
18017
18146
15321
14344
17583
16186
14039
15833
19131
16199
11771
15859
17021
16385
13081
18100
17018
15985
14041
17044
17054
14098
14422
18573
17260
12740
16744
17432
15525
11794
18034
17718
14606
13040
17704
17674
14589
13365
16688
16820
14130
15540
18112
16195
13272
16659
17063
15505
11995
17776
17703
15787
13128
18051
16463
14624
15294
17004
16477
13433
16390
17097
16135
13915
16330
16344
14901
13676
18021
16895
14015
14820
17896
17295
13036
16851
17646
16863
12479
17744
17503
16080
13763
18138
17167
14530
15142
19058
17185
13621
15582
18281
17362
12752
16930
16977
17033
13483
18228
17178
14461
13485
17773
17713
14667
15903
17888
16899
12809
16817
17889
16243
13287
17588
17601
15699
13572
18130
17186
14690
14743
18448
16583
12511
16588
18004
15865
13361
18472
17235
16697
14197
17840
17660
15379
14618
18010
17251
13983
16567
18839
16330
13359
16852
17488
16849
13915
17248
17863
16576
13997
17777
17090
14434
15718
17894
17126
13520
17328
17578
16495
14147
17626
17967
15781
14132
18127
17276
14340
15481
18179
17204
12825
16386
18809
15380
12560
17327
18402
15155
13207
17409
17506
14381
14673
18760
17355
12657
15446
18263
17101
12700
17909
17881
16505
13240
18518
17759
16302
15378
19107
17355
13531
15428
18265
16374
12646
16853
17209
16235
13316
17701
17597
15250
14106
18288
17372
13880
14832
17479
16812
13499
16787
17300
15972
11827
17829
17570
14617
13938
17911
16313
15262
14542
19481
17514
13177
17506
18866
16186
12789
18476
17534
15217
13935
17205
17306
15390
14890
18446
17619
13694
16876
18186
15784
12844
16109
17311
17160
13601
18650
16944
15080
14598
18389
17181
13976
15600
18807
17027
13625
17361
17406
16497
12963
17793
17747
15733
14886
17327
17567
14371
15793
17410
16807
13427
16901
17888
16133
13136
17861
17452
16500
13969
19108
16476
14369
14078
19027
16827
14836
17731
18928
17361
12016
17765
18405
16244
14595
17587
17118
15135
13926
19316
16717
14293
16304
18119
17098
12269
17836
17536
16221
13110
18038
16493
15159
13994
17155
16350
14304
15047
17929
16459
12637
17239
19054
15808
13460
18482
16950
15012
13457
17870
16217
15573
14361
19187
16911
12635
17086
18561
15865
12405
18049
17552
16502
14480
16950
17213
16564
14629
18209
16940
13484
16697
18555
16685
12678
16941
17722
15821
13204
18857
18337
14758
14061
17836
16289
14249
14744
18826
17359
12430
17509
18514
16389
13352
17737
17290
16217
13048
18622
18587
15590
15729
18955
16707
13253
16776
18011
17209
12519
17803
17144
16380
14982
18710
17766
15153
14460
17557
17698
14019
16897
19125
17263
13787
17582
18870
16067
13446
18981
17380
15965
15343
17188
17794
14443
16530
19229
18445
13703
18348
17583
15803
13676
17464
18152
15690
14233
17298
16937
14426
16269
19046
18501
14158
18345
18006
16876
12616
17315
17501
16316
13504
18074
17876
15681
15226
18901
17457
13576
16326
18298
16874
13338
17988
18005
16392
15051
17203
18138
17101
14122
17870
18395
13867
14891
18361
16367
13860
17533
18087
17604
13859
19180
16732
16409
14046
18790
16659
13956
14657
18260
17288
13703
16715
17916
17197
12695
18097
16918
17127
12959
18638
17235
15357
15544
19355
17675
13442
17320
19244
17293
12662
17516
18430
16639
13550
18012
17507
14575
15732
19445
16752
14293
16283
17607
16598
13507
17063
17792
16820
14552
16944
17342
16265
14410
19570
18524
14391
16189
19330
18361
12216
16859
18328
16917
13259
17625
17539
15607
15215
17926
18399
15017
14253
18251
16859
13601
16926
18107
16628
13605
17902
18003
15794
13389
18654
17262
14469
13533
17517
17963
13256
16431
17939
16175
12675
16922
18162
16315
14145
16933
18455
16417
14493
19097
18133
14132
15260
18034
17611
13645
17683
18059
17156
13682
18689
18298
15496
15174
18479
16824
14273
15235
19112
16804
12901
18196
17537
17034
12937
18244
17031
15103
13370
17657
17116
15916
15155
17620
17435
12821
16675
18800
16862
13872
17124
17806
17110
14406
18672
17933
15932
14363
19576
17661
13690
16120
17798
16839
13024
17844
17872
16099
13410
17961
17591
16052
13846
18005
17000
14565
14523
18317
16188
12892
15871
17344
16122
13732
18021
16978
15748
14820
16784
16415
15336
14812
18953
16936
13360
16494
17871
16381
12323
17592
17553
15898
13663
18105
17289
15324
14603
17845
16941
13118
16491
18645
17470
12299
18350
17354
16537
13815
18661
17179
15179
14173
18256
16555
13522
15312
18017
16970
12810
17679
18189
17203
14068
16636
17377
15074
12977
18128
16549
14870
14789
18827
16910
13912
16861
18401
16401
12731
17713
18311
15557
13335
19093
17841
15019
14497
17618
17757
12686
16912
17961
16379
13097
16793
16840
15985
14592
18719
17340
14628
15409
19216
16711
14182
15460
18602
17441
13465
17459
17606
16178
12818
17223
17956
16804
14709
19075
16889
15016
16001
19106
16331
13676
18233
18206
16753
13592
17879
17799
15955
14192
17972
17823
15381
14291
17611
17663
12676
16695
18646
16944
13303
17653
18038
16272
13621
17949
17256
15406
14685
18458
17154
14062
15702
18322
16657
13225
17685
17341
17052
13156
17345
17853
16422
14885
18216
17063
14360
15324
18356
16757
12746
17135
17632
16299
12753
16652
17594
16270
13898
18482
16793
14167
14519
17745
16669
12516
16553
17551
16363
12799
17853
18234
16134
13120
16700
18222
16069
15826
17940
16083
13298
16781
18303
15889
12364
18042
17139
17156
13920
18660
18265
16294
15492
19427
18360
13659
15297
18996
16192
13755
17017
17261
16238
13898
17744
16743
16733
13231
18747
17089
14774
15276
19374
16129
13783
17023
17707
17244
13753
16966
17573
15424
15063
17276
18228
14404
16120
18302
16535
13245
16660
19271
16442
13402
18248
17743
15146
13350
18477
16619
14705
14949
19290
16333
14113
16100
19432
17040
14158
17958
18092
15667
14147
17100
18379
16910
15387
17197
17208
15140
15477
18126
17917
12660
18149
17844
16943
12624
18468
18121
17044
14171
17713
17886
14074
15376
18630
17840
12741
18465
17673
16142
12970
18083
18521
15968
12858
18382
16684
16005
15542
17971
18085
14615
15807
19416
16791
13393
17692
17869
16547
13611
17988
17106
15327
14548
17788
17894
14037
14824
18478
17699
12996
16367
18068
16315
13356
17005
18122
16777
13151
17564
16795
14200
14818
18293
16754
13579
16523
17597
16815
13332
17753
17562
16184
14054
18007
16567
15817
15681
17695
17195
12809
15835
17617
15977
13334
17321
17637
16259
14172
17618
17250
15576
15074
18247
16823
13926
14814
18815
17181
12708
17253
17983
16141
13639
18009
17828
15659
14420
18178
17220
14296
15451
18815
17365
13031
17084
17811
16746
13655
17210
16798
15653
14049
17415
17784
15738
15776
17856
17414
13807
17126
18730
16337
13424
17754
17889
16297
13785
18083
17957
15968
14931
18513
17594
13789
17115
18679
16917
13377
17479
17887
16569
13679
18169
17548
16055
14527
18457
17159
14274
15243
18477
16973
12990
17389
18420
16716
12980
18182
18087
16528
15615
17199
18198
14879
15845
18151
16540
14145
17867
18136
15938
12631
17935
17243
14931
14018
18504
18041
16595
15760
17733
18202
14125
15747
18198
16465
13431
18250
17980
15551
13513
16984
16764
15021
15244
19155
17071
13585
16151
18366
16758
13219
16584
18263
15607
13281
17462
16458
15175
14760
18922
17186
14020
15241
17842
17044
12065
16759
18621
15534
13794
17648
16964
16567
13013
18861
17566
16041
15569
18448
16807
13012
17723
18910
16205
13039
17680
18594
15768
13989
18767
17248
16016
13828
19209
17056
14373
16491
18484
16071
12583
17213
17414
17289
13541
18167
17230
15576
13784
17985
17451
15113
15140
17627
16781
13449
16243
17981
17379
13272
17442
17874
16811
13393
18306
17826
14712
15620
17822
15875
13349
15881
18605
15829
13496
16761
17560
15411
14159
17479
18476
14748
14791
18199
16738
14615
15908
18004
16494
12383
17505
17471
16249
14178
18144
18292
16008
14860
18111
17558
14511
15671
19182
16548
13367
17929
17981
16660
13798
17557
16879
15529
13698
17032
17676
15814
15661
18662
16708
12351
16710
18049
16047
13425
17212
18364
17160
14656
18948
17581
14426
14231
18115
18500
13388
15584
18898
16684
12383
17080
18062
15700
14588
18549
18457
14773
15395
17534
17832
13596
14615
17903
17532
13158
17375
17404
16909
12960
18025
16672
15275
13605
18990
17853
14566
15431
18185
16422
12477
17397
18484
16695
12555
17558
17035
15013
13959
17923
16789
15800
15575
18150
18130
14165
17843
18768
17644
11994
16713
17438
15649
14222
18747
18472
16288
14419
18845
16602
13927
14924
18332
16911
13236
17170
18513
16308
13245
18217
17756
15956
15287
19397
16781
14760
15229
18421
17218
13131
17545
18058
16394
13989
18003
17544
16168
14117
18217
17533
14855
15078
18321
17685
13578
16626
18712
16442
13124
17195
17382
17612
14205
18256
17620
15381
14955
18662
17980
13886
15736
18613
16318
12908
16993
18221
16962
13550
17041
16330
16289
14437
18490
17290
14266
17029
18697
16786
13299
17437
18286
16882
13629
17964
17741
16199
14761
18603
17767
15092
15157
18503
17201
13471
17083
18902
16789
13219
17849
17834
16065
13927
18190
17701
15420
15133
18290
17262
13637
16570
18303
16714
12511
18520
18343
15208
13399
17750
17880
15657
14226
18152
16900
14105
15691
18318
16792
12626
16947
17578
16401
13470
17588
17706
16696
14339
18673
17629
14877
14548
17658
16758
12427
17209
18822
16822
12554
17520
17003
16871
13316
17163
16707
14533
14740
17558
16911
13137
17723
17558
17020
13455
17566
18153
17102
12877
18604
16782
14878
14073
19812
16724
13034
15389
18007
17289
12857
17806
17372
16060
14353
18128
18656
15109
14402
19475
17534
14655
15246
19291
16775
13464
17579
18054
16479
13573
18122
18212
16297
14283
19157
17148
14218
14650
19252
16969
14112
18032
18023
16361
13073
18114
17425
15556
13107
18561
17724
15118
15687
18339
16989
13563
15611
18517
17247
12442
17401
18090
15602
14679
17756
17191
16467
15725
17260
17277
13284
16865
17644
16589
13408
17419
18310
16445
13911
18300
17547
16788
13053
17945
17090
14262
14772
19548
17469
12490
17372
18444
16009
12821
18644
17587
16239
14740
17917
17054
15605
14820
19234
17684
13344
16707
19273
16440
12389
18315
17596
16771
13143
17222
16320
14511
14960
18269
16509
14592
17320
17503
17016
12218
18051
17550
15923
13320
18036
18211
16543
14870
17982
17274
14551
15756
18360
17213
12719
18352
17461
15624
13257
17886
18132
15544
13510
17713
18325
15448
14095
17684
16406
12843
17777
18190
16298
12049
17041
18307
15227
14237
16945
17292
16395
15199
17995
18030
14375
16279
17675
16832
13021
17543
17337
16413
13977
18272
17708
16076
14602
18459
17495
13713
15951
18392
17101
13246
17380
18330
16425
14506
17846
17696
16889
14734
17538
17230
14273
15621
18370
16898
13645
16954
18442
16958
13065
17987
17829
16214
14498
17416
17932
15033
15201
18326
17455
14068
17200
18750
16585
12646
17985
17974
16226
13706
18220
16923
15876
14450
18685
17707
13889
16179
19331
16972
12812
17526
18443
16639
13414
18207
17317
15874
13894
17398
18250
14008
15296
18266
17254
13303
17036
18866
17349
13374
17473
18235
16290
13778
18429
18241
14747
14708
18318
17168
13653
17362
18174
18061
12950
17680
18333
16346
13787
18015
17318
15449
14293
18511
17066
14584
15678
17522
16705
13126
16807
18446
16398
13727
17491
17826
15925
14501
17977
17824
14265
15572
18959
17252
12519
17284
18339
16610
12781
17861
18587
16713
14345
17020
16554
14915
13520
17690
16593
13625
16201
18216
16157
12890
17214
17693
17030
14512
17922
17840
16432
15343
19219
16812
12716
16791
18134
16653
13390
17825
18453
15780
13096
17322
17943
16296
14136
18369
17822
14363
16220
18886
17166
13013
18185
18015
15825
13510
17005
17321
15180
13876
18731
17369
14200
14290
18655
17977
13786
17138
17915
16782
13817
17865
18170
16289
14706
18197
17485
15268
15046
17813
17297
14858
16269
18030
17566
12817
18867
17900
16452
13790
18942
18003
15470
14259
18937
17456
14379
14420
19421
16154
12650
18725
18579
15674
13213
17342
17031
14845
13998
17051
17738
15323
15534
19627
17044
12425
16828
18293
16925
13438
18751
17405
17145
15608
19261
17040
15865
16172
17322
17388
14229
16750
19659
17062
12578
18561
18254
17376
13144
18762
17247
14824
14233
17278
16724
13863
17221
18316
17632
12634
16773
17789
15406
14387
18934
18303
16526
13700
18281
16834
14149
15630
18676
17012
12287
17627
17678
16460
13649
18108
17974
15975
14232
18054
16743
15111
15305
17492
17169
13918
16603
17992
17024
12697
18654
17827
15769
13455
19051
18344
14995
13764
17897
18049
14163
16217
18436
16406
12817
18030
18060
16183
13565
18287
18201
16574
15216
17803
18488
14188
17164
17697
17535
12568
17760
17474
16119
12427
18061
18262
16631
14211
18833
17747
14766
15442
19224
17655
14090
16995
17743
16817
13795
17898
18678
16568
14425
18284
17254
16158
14291
18324
17499
14205
17046
19221
16879
13121
17379
16884
17314
14180
17346
17566
15566
14987
18901
17978
14478
17026
19063
16084
13156
18445
18108
15509
13449
17048
18755
14800
13188
19042
16908
14798
15393
19165
17908
12523
17485
17503
16422
14133
18135
17903
16061
14211
17621
16833
14182
15680
17968
17478
13494
16112
18813
17400
12843
16752
18375
16074
14046
18741
18158
14354
14394
18343
16498
14122
16287
18261
16646
13571
17255
18288
15444
12607
18244
17169
14784
14921
17817
17698
13402
15758
18749
16947
12572
18040
18440
16488
13060
18766
18015
15026
13658
18148
16996
15119
14981
18987
16491
12187
17048
17880
16754
12362
18218
17153
15644
13436
17806
16869
15515
14385
18783
16294
13108
16580
18370
16561
11965
17710
17292
16328
13310
18182
17928
16136
15130
16891
17150
14246
14621
17893
15939
13228
18037
18013
16124
12921
18115
17221
16100
13719
18004
17263
14723
15256
18423
17069
12594
16395
18194
16012
12988
17681
17804
15975
14072
18138
17428
15101
14665
18608
16894
13272
16477
18092
16683
13222
17766
18000
16127
13746
17905
17619
16152
14814
19480
16198
14518
16880
18620
17708
13676
18371
18169
15385
12583
19011
18116
16951
14451
17943
17355
14461
14789
18631
17235
13656
18107
17791
15657
13367
18934
17177
16577
14816
17088
17621
15701
15283
18893
17136
12611
15922
18148
16641
13161
18533
17699
15719
13577
18812
17907
15810
15097
17855
17294
13157
15970
18222
16818
12462
17268
17730
15937
13803
17406
17292
14902
14442
17803
16691
14939
15708
19555
16625
12290
17876
18710
16708
13517
18665
17157
16128
14555
18558
17672
15581
14026
19123
16635
12533
17446
18596
16770
13733
17433
16935
16005
12798
17909
17465
15544
14893
19709
17237
13181
17266
17868
15993
11796
17190
17061
16011
12921
17650
17875
15992
14888
17384
17323
13482
15453
19061
16259
12347
16541
18422
15649
12981
16834
17798
16020
14609
18160
16995
15052
14619
18576
17041
13138
18232
18051
17199
13072
18564
17936
14992
13930
16979
18585
16306
13956
19272
16958
13281
16941
17872
17066
11924
17360
17876
16014
13050
18852
16977
14954
13896
18442
17821
13972
14986
18597
16578
12884
18111
17434
17150
13840
17615
17084
17259
15782
19623
17133
15343
16011
17290
17565
14105
17441
17464
16700
13627
17406
18908
15513
14180
17005
16801
15657
15513
17768
18336
14264
18225
18743
17151
13646
17739
18284
17107
14504
17407
17111
17019
14334
18272
17851
12743
16601
17675
16986
12534
17518
18189
16288
13230
17687
16232
16665
15718
19462
16701
13763
16417
19384
17296
13032
16856
17668
16109
13099
18020
17667
15223
14558
18897
17895
13926
15603
18902
16265
12897
15564
18272
16207
13125
17124
17508
16121
13291
17802
17059
16414
14244
18010
17216
14137
16505
18408
16941
13340
17593
17379
16468
12813
18611
17217
16189
14618
19461
16987
14581
15136
18871
17203
13281
17060
18076
16669
13228
19023
16704
16135
14726
18903
16497
14800
15844
18431
17003
13066
16872
18114
16777
12978
18866
17414
17099
14095
17345
17483
16154
15100
17758
17053
13428
16569
18229
16591
13239
17959
18413
16275
13987
18057
17703
15921
14393
18102
16810
14967
16949
19363
17153
12148
18087
17821
16068
12983
17752
18365
17120
15102
17106
18141
14361
15725
18459
18285
13666
17961
17473
16322
13569
18576
17185
16014
14705
19430
16437
15484
15845
19818
18147
12746
18064
18875
17365
14003
17524
17796
16209
13583
18868
17458
15121
14235
18355
17191
13546
15842
17891
17375
12133
17795
18930
16072
12717
17658
18327
16649
15575
19309
17541
14849
16047
18562
18020
12321
18023
18116
15996
12311
18912
18021
15065
12981
19091
18359
13642
15828
16965
16872
14140
16208
17400
16691
13607
17733
17765
15680
14425
17125
16473
15082
14346
18604
17090
13188
15671
17541
16529
12137
16969
17424
15720
14180
18295
17039
14963
14538
17044
18006
13998
15619
18230
16500
13637
16565
18405
16979
12329
17102
18135
15918
14940
18004
17544
14568
15355
18641
17384
14464
17064
17790
16804
12803
17706
17692
16123
13905
17624
17316
15330
15023
18577
16323
13761
16040
18702
16763
12363
17661
17941
15943
14275
18720
17422
15708
14448
19568
17750
13363
15272
19210
17102
11867
17384
17365
16180
13462
17711
18319
15664
14251
18206
17910
14296
15488
18574
17374
12638
17271
18116
16696
13393
17338
18440
15633
14185
18835
17539
14418
14570
19902
17636
12118
15939
18192
15959
12097
16697
18782
16314
13721
17270
18095
17086
15474
18208
16843
13515
16352
18361
17624
12127
18379
18067
15391
14085
16902
17451
15224
15117
17882
18066
14678
16378
18591
16666
12488
16744
17358
16371
13870
17773
17484
16182
14322
16804
16568
15388
14747
18047
15912
13668
17239
17098
16647
12411
17322
17018
15801
13609
16906
16835
16152
14868
16685
17933
14308
15877
17670
17587
12378
17316
18193
15901
12877
18854
17366
15254
14859
18007
17249
13661
15873
16959
16919
11956
17279
17604
17194
12929
17136
17576
15226
14446
18575
17806
14197
15571
18342
17519
13330
16826
18477
16358
13413
17725
17423
15559
14520
17999
17035
15036
15086
18493
16590
13656
17228
18062
17019
12785
17772
18050
16128
13748
18369
18026
16036
15020
18480
16733
14871
14841
18780
17370
13287
17263
17301
17277
13502
17928
17167
15105
14895
17388
18612
14432
14734
19293
17539
13127
17170
18768
15651
14452
17152
17216
15411
15074
17831
17007
14744
15326
18879
17722
13220
16981
17773
16870
13157
17825
18476
16309
13519
17939
16886
15151
14667
17324
16975
13374
16280
17606
16500
13241
18471
18724
15505
13038
17932
17731
14734
15200
19096
16761
14234
15620
18646
16926
13845
16815
17169
16728
13993
17767
17809
15917
14338
18375
17794
15146
15493
19013
17289
13666
17439
18366
15533
12735
17051
18252
15153
13501
17534
17547
16126
13854
19630
16741
13512
15590
18597
16790
12667
18042
17483
16520
13926
17111
17499
14820
15285
17973
17115
14137
16036
17845
16108
12467
17154
18085
16430
13171
17882
17337
16121
14322
17917
17498
14655
15205
18682
17085
13101
17591
18738
16817
13418
17835
17743
16221
14387
18168
17800
15025
14635
18782
16720
13314
16597
18778
16778
12874
17772
17661
16249
13637
17982
17433
15638
14296
18455
16982
13384
17161
17824
17782
12306
17016
17878
16999
13272
18028
17426
15915
14378
18295
17642
14520
16958
19009
16703
12606
17299
17885
15921
13131
16931
16730
15192
14929
19160
17513
15010
15256
17438
17124
13293
17229
17199
16743
12874
18129
17707
16344
13742
18191
17214
15924
14982
18871
17418
14037
16647
18557
16876
12585
17593
17753
16209
14712
17322
17055
14581
14512
18500
18196
14118
16088
18362
16212
12820
17843
18006
16600
13156
17990
17425
15869
14024
18209
17138
14961
15949
18049
17751
12774
18118
17538
16456
12834
18111
17998
15776
13828
17917
17921
15560
15183
18788
17173
13249
16563
18390
16417
13425
17763
18189
16489
13778
17842
16920
15391
14753
17992
17407
14321
16409
18987
17249
12210
17843
18519
15249
13160
18946
17816
16134
14471
18507
17479
15222
15516
18749
16191
13614
17006
18124
15344
13480
16741
17983
15990
14754
17003
17367
15091
14960
18948
18311
13342
16101
18599
16976
13821
16875
18675
16934
14246
19062
16918
16816
14552
19548
17196
14219
16564
18842
16865
13256
17912
18207
16328
13344
18761
18011
15611
15062
17997
17792
15165
15379
18444
17892
13638
18453
18044
17657
13727
18323
17817
16145
14730
18518
17619
14945
15239
18458
17859
13273
18175
18122
16224
13230
17321
16816
17037
14605
18211
17404
15932
14901
18622
17570
13716
16483
18404
16699
12709
17714
18181
16381
13239
18646
17934
15224
15746
18494
16806
15033
16804
18860
17668
12043
16714
17297
17048
12826
17831
17893
15439
14066
17961
17553
14794
15934
19186
17027
12448
16826
18665
17010
13798
18625
17422
15337
13605
17114
18072
14492
15795
18835
17853
14076
17363
18096
16347
13483
17070
17922
15878
14292
18422
18084
16354
13621
19442
17967
13485
15786
17803
16948
13165
17594
17936
16421
14478
18059
17186
15801
14530
17364
17187
14769
15397
18465
17101
13953
17386
17881
16692
14096
18149
18101
16122
14332
19262
17225
14705
15637
18133
16199
13868
17225
18999
17284
14007
17735
17600
15638
14043
18711
18598
14575
15603
18508
17525
15118
15901
18106
16931
12186
17477
17208
17295
14808
18765
18393
15638
13521
18774
17322
14684
14023
18508
16482
12727
17486
17184
16535
13343
18043
16934
15133
15394
18202
17999
14293
15666
19771
16648
12903
16519
17661
16075
12611
18143
18392
15715
14663
19123
16877
15596
14575
17559
16680
13481
17090
17506
16911
13030
17536
16768
15573
15020
17590
17225
15635
13440
18492
16910
14098
15967
18505
16352
12939
17362
17855
16283
12748
18092
17059
15018
14960
17452
17307
14724
15139
18696
15823
13370
17461
18463
16434
12809
17607
17519
16458
14031
17393
16951
15455
15658
18980
17074
13115
16902
17203
16223
12667
17011
17693
14986
13653
18106
17841
14858
14431
19424
17040
13618
15259
18182
16672
12318
17313
17807
15827
12491
17912
16106
15119
13814
17219
17194
14816
15825
18773
16839
13448
16324
18625
15515
13569
17727
17083
14696
14717
19213
17605
13687
14473
17813
17133
13015
17296
18406
16921
12016
17497
18628
15354
13792
16895
17851
14961
15222
18588
16667
13536
16549
18741
15855
12091
17395
17674
17115
13107
17003
17268
14839
13599
18182
17154
14656
15107
19148
17583
12037
18354
18175
15846
12601
18536
16600
16776
14831
17029
17884
15216
14900
17431
17832
12239
16672
17851
16521
13020
17267
18165
15637
13866
18481
17700
15583
15263
17653
17689
12614
16104
17080
16799
13626
18641
18307
15907
13816
17842
18033
14277
14719
17353
17779
13639
15433
18137
16967
12720
16907
18505
17084
13209
17695
17400
16733
14919
16819
17504
14247
14765
18760
16379
13522
16120
17396
16419
12234
17970
17035
16850
14225
17906
16434
14609
14688
17344
16848
13460
16691
18362
16815
12481
17516
18210
15948
13855
17755
16778
14625
14300
18817
17595
13034
16506
18055
17518
11955
17575
18862
15295
13165
18709
17118
16978
15109
18344
17380
13618
16328
18761
17348
12742
17708
18069
16358
13585
17918
18685
16666
13896
19387
17157
15167
15278
17274
17121
12654
17312
17730
16583
13605
17746
17526
15510
15240
19233
17460
14953
15426
19407
17385
14246
15697
18961
15814
13257
18254
17699
15460
14048
18936
16912
14599
14833
17258
17133
13233
16683
17610
17291
11782
16522
19008
17378
14350
17843
17398
16067
13639
17434
17520
14140
13987
18693
17864
13916
17334
17422
16602
13237
17271
18119
15346
14987
18883
17548
14023
15412
18227
16224
14279
16851
17576
16217
12666
17379
17868
16609
13831
16622
17332
16474
15313
17998
17779
14346
15865
18191
17077
12876
17101
17359
15650
14159
17937
16259
14761
14526
18108
16477
14426
15500
18370
17734
13202
17396
18610
16437
12551
18066
18180
15925
14059
18488
17035
14682
14777
18857
17022
13595
17333
18288
16259
12838
18071
18370
16748
13826
17626
17706
14863
15242
17457
16568
14335
15836
17952
16701
12112
16908
18391
15680
14015
19059
17038
15094
14741
19669
17412
13900
15430
19184
17456
12926
16927
18130
16544
12482
17844
17921
16242
14214
18173
17367
14706
15318
18207
16743
13627
16563
17583
16664
13450
17836
17544
15325
14624
18011
18072
15073
14728
17417
17316
14335
17518
17955
16977
13866
17289
17337
16644
13423
16782
18431
15559
13932
18210
17930
14194
14852
17562
17510
12870
17832
18418
17096
13063
17390
17963
16103
14395
17619
16329
13729
14783
19455
17124
13552
17083
17594
15833
13604
18290
17537
15293
13052
18130
18244
14263
15028
17204
17129
13123
16072
17411
16695
12501
18628
16692
17057
14047
18696
17246
15179
15236
18854
16266
13917
16876
18450
15890
11886
16485
18264
16636
13516
17078
18325
15419
13818
16606
16470
14403
16914
17356
16683
11899
17060
16854
15517
12857
18039
16334
15651
14160
18771
17183
13927
15342
18301
16733
13915
16916
17882
16678
12863
18001
16284
15690
13965
18563
18111
14615
15001
18256
18270
13676
15612
18231
15531
12982
18430
18071
15101
13163
17770
17639
14305
15256
16984
17091
13222
15436
17455
17756
12355
16604
16749
15488
13447
17801
17289
16365
13881
18842
17009
14428
16509
19499
17808
12792
16756
17497
16219
12716
16872
17716
15248
12686
17605
16978
15552
14617
18056
17228
13659
16843
16979
16291
13830
17331
17425
16525
14376
16805
16582
14190
15509
18264
17944
13025
15059
17866
16265
12783
17409
17451
15791
13151
17224
16034
15236
13321
19125
17878
14234
15738
18182
17222
11412
17051
18001
15908
12604
17654
16661
16130
14595
16846
17593
15123
13935
17132
17477
13250
17256
17888
15206
13195
18236
17572
16702
14323
18377
17695
14632
15008
19156
17262
13057
14740
18664
15988
13459
17121
16615
16329
14252
17600
17056
15692
14341
17576
17035
13003
14460
18114
16208
12197
17532
18423
15365
12824
17156
17754
14538
14208
16930
17752
14964
14806
17851
17474
11966
16596
16886
17328
12413
18458
16371
16856
14546
17164
18198
15459
14502
18097
17813
12833
16880
18677
16514
13164
17791
17242
16449
12701
18612
17989
14329
15541
17708
16267
13405
16065
18724
16104
13092
16948
18185
15049
14531
18853
16747
14546
14436
19078
17933
13624
14036
17878
16763
13408
17880
17099
16161
12148
18383
16939
16870
13465
18897
17964
15152
16009
17720
17246
13847
17263
17383
16065
13253
17449
18223
16901
14268
17885
17049
15908
13702
18381
16787
13162
16154
17488
17041
13506
16907
17416
16557
13063
16971
17705
15462
13793
17884
17217
14116
15433
18763
16904
13489
16673
18215
15957
13285
18647
18116
14799
14501
18119
17890
14530
15101
18630
16382
12850
17692
17378
15371
12885
18420
16901
14876
13881
18596
16808
14728
15367
17763
16948
12505
16310
17769
16406
13950
17424
17721
15005
13329
16613
17998
14709
15418
18443
16393
14214
15256
18433
15638
13395
18082
17484
17104
14018
17867
17426
16423
13768
16804
17047
14388
15227
18479
16811
13240
17530
18789
16264
12691
18656
18335
16721
13433
19048
16817
14613
14753
18542
17970
12468
15836
17618
16511
13546
18616
17025
15043
14453
18836
17467
15727
14396
17238
17108
14157
17476
18466
16996
13456
17707
17031
16716
14533
16682
18029
15713
15429
19077
16596
14196
15214
17347
17667
12768
16795
17316
16400
12755
17719
17962
16315
14491
17811
16356
14793
13730
19253
16511
12321
17388
18296
15719
11924
17624
18356
15500
13487
16889
17125
14404
13998
18671
16610
13182
16843
18009
16356
13032
16333
16384
16563
12692
16922
16768
14110
14955
18165
15653
12810
16411
17632
16857
13462
17033
17938
16439
13767
16133
17289
16451
14985
17849
15952
13425
14868
18423
16286
12698
16567
16756
16107
12768
17047
17980
15027
13149
16586
16198
13982
14835
16907
15894
13627
16035
18526
15399
12190
16153
17110
16128
12131
16314
17063
15799
13452
17280
15938
12986
14822
17997
16598
12581
16525
18179
16214
12496
17691
17187
15782
13312
17057
16226
13297
14948
17394
15320
11617
17848
17471
14959
12205
17693
17048
15281
13159
18880
16225
15039
14663
16491
16689
12033
16507
18091
16196
13285
17293
18249
15561
14285
17992
17303
14881
14541
17531
16330
12758
16457
17827
16827
13653
17587
17249
16782
13907
18497
16606
14205
14211
18037
17552
13499
14779
18464
16506
12292
17103
17499
16673
13190
16802
18002
15116
13241
16659
16176
14048
15778
18989
16261
13156
16922
16746
17116
11998
18248
16541
16281
14294
18423
16136
14961
15710
18970
16880
13236
17056
18050
15924
13062
17401
17481
16787
13524
18601
17346
13966
13699
17008
16591
12904
15490
18273
15589
13308
17101
17726
16223
11948
16936
17426
13851
13596
16889
16606
13395
14792
18033
16358
13222
17070
17689
16192
11793
17027
17205
15949
14798
16778
16667
14044
15378
18907
15320
11735
16433
18273
16140
13065
18063
17025
15148
14977
16998
17694
15310
15245
17965
17670
12507
15176
17270
16170
12945
16054
17922
15115
13453
16808
17978
15761
14370
16732
16859
14188
15023
17103
16511
12481
17167
17726
15556
14197
17126
17415
15971
14300
18982
16269
13755
15086
18893
16434
12167
17540
17224
16591
13092
16948
17234
15096
13093
17597
17548
13976
14027
18847
17442
12890
16582
17853
16183
12240
17683
17583
14661
13324
18635
18028
15998
14747
17963
16725
13473
16264
17500
16218
13080
17156
17089
15805
13071
18323
17746
16300
15064
18685
17333
13254
17038
17229
16963
12324
17141
18275
15968
13339
17305
17656
16751
14718
16571
16608
13599
15411
17454
15598
11844
16004
18014
16309
12038
17233
17241
15734
13816
18566
17813
14640
13381
18289
17003
13570
15748
18052
16359
12102
17919
17630
14865
12908
17661
16604
14583
14576
16691
16466
13142
15506
18306
15763
12162
17102
16187
16461
13507
17278
16179
15152
15121
16924
16113
13791
14733
17909
16339
11709
16959
16777
16317
12059
18253
18185
14451
12716
18415
16760
13475
15322
18948
15542
13354
16535
17871
16530
12415
17113
17734
15780
14301
18225
17454
15563
13929
18936
16829
13597
16460
18321
16695
12278
17882
17326
15136
13325
18393
16641
16517
13781
16931
16066
14519
15616
17420
16714
13339
17622
17105
15999
12280
18234
16138
16838
14052
16785
16322
14441
14471
18842
15754
12342
16662
17394
16095
14147
18152
16376
16726
14756
17447
16857
14209
14356
19352
17730
14292
16317
18385
15990
13164
17626
17971
15741
12678
18132
16859
14487
14222
19139
17333
12755
15093
18160
16941
12428
17700
18495
16019
12953
18668
17158
14587
14087
17211
18313
14242
16567
18516
17208
13104
18117
18257
15145
12763
16537
16760
14802
14083
18759
16262
14169
15353
19388
16426
13296
16722
18518
16404
13747
17559
16775
15168
13736
17100
16682
15324
14794
18420
16036
13599
16345
16891
15982
12945
17735
17276
16119
12360
18022
17558
15707
15051
19167
17618
13547
14194
16872
17055
13027
18180
17173
16002
12931
17466
16833
14332
13011
18867
16126
14058
14035
17622
17005
11469
17217
18195
15759
13144
16454
16784
15832
14004
17006
17194
14630
14721
17290
16957
12857
16680
16760
16410
13212
17710
18090
16546
14413
18924
17065
14025
13238
18638
17334
13975
15619
17244
15943
12560
16233
18160
16207
13951
17258
16455
16709
14114
18632
17440
13683
15482
17232
15774
12989
15961
17552
16204
14403
18481
17436
16864
14392
17655
17423
14388
14933
19426
17243
12902
17763
18648
16362
14016
18499
17220
14919
13629
17063
16497
14181
14064
17753
17028
13457
15794
18938
16119
12134
17191
17244
15528
13570
17384
18243
14534
14408
18349
16788
14016
16184
17098
16505
12306
17704
18692
15521
12619
16987
17439
16490
13236
19050
17380
14907
15897
17367
16090
13689
17251
16909
16497
12894
16486
16505
16671
12611
16653
15970
14172
15231
18469
17350
12036
15836
18087
15564
12995
17207
17550
16826
13545
16388
16457
15098
14423
18841
16589
13027
14911
18807
15984
12171
16847
17448
16357
13749
16975
17757
16204
14429
18698
16834
13023
15050
17446
17136
12174
17419
17462
16835
13155
17406
17432
15470
13469
16824
16467
14356
13599
18195
15513
13550
15450
17692
16320
12781
17220
16381
16641
13537
17510
17644
15361
13952
16813
16216
13918
16353
18521
16011
13153
17004
17993
14945
14312
16713
17930
14575
15039
16621
16693
12927
15361
18188
16048
11742
16626
16574
16358
13627
17760
17043
14554
13712
18228
16944
14622
14171
19014
17676
13071
17083
17690
15273
13231
18572
17638
15177
14766
18785
17690
13799
14124
17055
16859
12928
16143
16649
16622
13165
17384
17037
15816
12905
17304
17057
15091
14989
17661
16688
14243
16202
19010
15843
11827
16369
18020
14965
12707
16348
16883
14119
15450
16319
16872
14545
15903
17061
15497
12950
17483
16402
15914
12654
17349
16499
14946
13595
16674
16814
13699
13973
17121
15822
12722
16253
17083
16741
12911
17934
16349
14593
14305
18384
16384
15711
14191
17656
16164
13654
15367
17819
16257
12242
17373
16519
15863
12969
16978
15955
16367
13570
16635
16543
13896
14208
17945
16583
13176
15919
17284
16282
13469
16873
16993
15542
14316
17105
16863
14003
13778
18753
17709
13405
16669
16544
16218
12396
17549
17497
15136
14732
17651
16995
15507
14644
17439
16601
14237
15719
18518
16562
11589
16464
18069
16732
13879
17284
18026
14311
14486
16637
16925
12654
15593
17916
16243
12573
16846
18543
15179
13636
18188
17506
16151
14914
17812
17827
13490
15699
18516
17821
12597
17257
17742
15417
13268
17259
17529
15481
14657
18459
17429
13923
13670
18228
16597
12825
15825
17513
17075
12638
17866
16868
16215
14368
18557
18139
16113
14169
18736
16440
12515
16217
18692
16858
12599
17264
18584
15773
12941
18363
16452
15750
13620
17983
16507
14175
15735
18976
16240
13149
17014
18288
16002
13440
17167
17879
16238
13841
18016
17176
14390
14429
17772
15546
12673
16849
17572
16594
12799
18178
17707
14320
13744
18621
15988
15558
14312
18563
16275
13337
16833
17808
16193
13335
17388
17185
15990
13113
18369
17300
15405
14406
18016
16865
13787
15725
17863
16336
12465
18211
17784
16030
13464
17409
17132
15552
13808
18290
16089
14612
14581
18351
16141
12833
17061
17670
16083
12909
17581
17275
15934
13624
17638
16745
14536
14063
17724
16892
14104
16867
17767
16350
13426
17635
17752
15798
13493
17867
17088
15204
14326
18348
16816
13597
16480
17999
16692
12442
16814
17641
16542
13036
17987
17767
15775
14562
18136
17288
14305
15646
17996
16580
12527
15969
17943
16245
14052
17644
17809
15801
14255
17764
17380
14710
15128
18630
17494
13852
17284
17019
16438
12078
17566
17877
16561
14819
16823
18182
14907
14861
18069
15851
13440
17752
18323
16156
12182
18453
18106
16220
13643
18821
15892
14164
14984
17039
17523
13842
16498
18916
17460
12095
17718
17069
15837
13947
17620
17468
14860
13927
16561
17549
14622
14714
19070
16861
13147
16323
17349
17223
12812
18451
18090
15080
14343
17418
15949
13910
14231
18357
16842
13248
17572
17665
16121
13670
18377
18248
16391
15036
18002
17600
14925
14939
16957
17017
14235
17009
17855
17094
13223
18094
18434
16460
13502
17538
18418
16817
13802
17900
17524
13372
15832
18226
17298
13310
16917
18116
16170
14252
18604
18372
15679
13780
17497
17398
14627
15117
19338
15842
11993
18223
18346
15697
13442
16868
18092
17065
14043
18969
17832
14351
14831
18770
15944
14013
18147
17983
16341
12464
18088
18248
16052
13475
17920
17223
15837
14818
18234
16930
13922
16503
18271
16688
12643
17363
17844
16124
12814
18099
17926
15942
14490
17796
18389
14138
15425
17485
16441
13771
18234
17610
15844
13766
16764
17540
16932
14594
17516
16946
15877
13844
19251
17810
13763
15616
18629
16997
13631
16806
17779
15643
13052
18133
18327
14541
14386
19409
17200
14105
15978
17693
16600
14305
17760
16883
15570
14250
17729
17042
15372
14233
17458
16526
13885
15880
18626
16325
13539
17476
18231
15466
14062
16765
16739
15772
13053
16852
18437
14058
14124
17864
16969
12835
16457
17253
16568
13489
16818
17706
15188
14967
17657
18619
14470
15135
17374
16722
13024
16173
18550
16944
12484
18271
17824
15601
14053
18572
17455
15555
15684
18690
17174
13570
15150
17756
16931
12865
17577
17958
16384
13286
17879
17517
15782
14499
18198
17553
14425
14954
18385
17091
13504
16393
17804
17219
12939
