5854
5917
5967
6017
6065
6104
6133
6163
6195
6225
6255
6280
6301
6316
6326
6332
6335
6333
6328
6320
6314
6306
6293
6276
6255
6236
6225
6218
6206
6181
6158
6142
6125
6110
6097
6079
6065
6055
6050
6050
6058
6070
6084
6098
6111
6121
6123
6117
6115
6111
6095
6076
6057
6037
6017
5997
5985
5977
5961
5938
5913
5890
5859
5808
5749
5693
5639
5583
5529
5480
5435
5392
5350
5305
5259
5210
5159
5112
5068
5021
4974
4931
4891
4853
4813
4768
4729
4695
4655
4620
4588
4551
4512
4474
4432
4392
4352
4309
4265
4221
4182
4157
4141
4124
4102
4071
4034
4000
3970
3939
3905
3875
3850
3831
3827
3841
3868
3911
3971
4040
4126
4236
4365
4507
4657
4817
4991
5179
5380
5581
5779
5963
6121
6254
6364
6463
6553
6632
6702
6765
6824
6882
6924
6946
6962
6973
6977
6983
6994
7006
7022
7036
7044
7050
7050
7038
7023
7010
6987
6961
6947
6947
6950
6946
6943
6946
6948
6943
6927
6894
6858
6836
6824
6821
6825
6821
6801
6771
6743
6716
6697
6683
6667
6651
6645
6650
6658
6665
6670
6659
6635
6609
6582
6559
6540
6524
6508
6491
6473
6458
6435
6399
6364
6335
6309
6284
6257
6218
6162
6103
6051
6004
5953
5896
5837
5776
5717
5666
5629
5597
5555
5504
5451
5399
5359
5337
5322
5306
5282
5249
5214
5176
5137
5106
5079
5051
5022
4989
4949
4897
4847
4809
4772
4732
4693
4663
4644
4626
4603
4572
4524
4459
4394
4340
4301
4282
4281
4303
4349
4415
4504
4615
4741
4886
5047
5221
5396
5568
5753
5953
6153
6339
6501
6645
6773
6892
7010
7139
7283
7434
7576
7701
7803
7879
7930
7966
8003
8048
8089
8120
8148
8182
8222
8269
8313
8350
8391
8436
8474
8498
8502
8490
8466
8431
8394
8360
8328
8294
8262
8236
8216
8199
8182
8155
8108
8042
7972
7914
7880
7869
7870
7882
7897
7898
7880
7856
7846
7855
7873
7889
7899
7909
7921
7929
7935
7937
7928
7902
7865
7824
7780
7740
7707
7679
7649
7609
7565
7516
7456
7389
7324
7260
7195
7143
7112
7093
7079
7055
7014
6956
6882
6809
6746
6685
6620
6562
6516
6470
6418
6366
6319
6278
6234
6191
6153
6113
6070
6033
6004
5981
5961
5935
5905
5878
5846
5797
5741
5693
5657
5631
5611
5591
5561
5520
5470
5409
5343
5282
5224
5169
5121
5079
5038
4999
4966
4935
4908
4892
4888
4896
4907
4924
4957
5016
5095
5194
5325
5485
5660
5845
6039
6246
6454
6656
6851
7041
7223
7385
7526
7658
7784
7904
8018
8126
8222
8309
8382
8425
8449
8474
8505
8541
8579
8608
8623
8634
8659
8697
8747
8798
8844
8875
8890
8899
8906
8913
8921
8927
8921
8903
8871
8828
8770
8694
8613
8539
8479
8441
8423
8421
8428
8445
8461
8465
8460
8467
8481
8481
8476
8480
8488
8496
8501
8497
8481
8454
8428
8403
8364
8314
8258
8202
8145
8075
7999
7928
7858
7785
7721
7670
7629
7587
7537
7489
7437
7370
7299
7235
7187
7155
7134
7116
7093
7071
7050
7025
6997
6966
6927
6886
6844
6792
6733
6673
6608
6554
6518
6485
6448
6420
6399
6377
6354
6329
6311
6299
6284
6260
6234
6206
6173
6138
6098
6044
5978
5898
5808
5723
5647
5575
5510
5452
5397
5332
5264
5209
5165
5128
5094
5057
5021
4992
4974
4967
4970
4987
5018
5063
5122
5194
5285
5391
5520
5675
5855
6055
6271
6490
6700
6898
7078
7243
7403
7550
7677
7782
7877
7965
8036
8089
8128
8150
8158
8165
8179
8204
8234
8254
8261
8267
8283
8304
8315
8308
8299
8299
8301
8305
8306
8301
8292
8273
8243
8207
8179
8163
8155
8146
8130
8105
8066
8007
7944
7891
7855
7847
7858
7875
7904
7944
7977
8006
8033
8057
8085
8113
8142
8166
8183
8193
8187
8159
8121
8086
8052
8016
7980
7944
7902
7857
7806
7741
7666
7591
7532
7489
7442
7388
7333
7272
7211
7150
7089
7030
6978
6939
6911
6891
6875
6855
6829
6797
6767
6750
6740
6726
6710
6695
6671
6631
6584
6535
6488
6455
6431
6403
6369
6331
6298
6272
6247
6218
6189
6166
6147
6135
6130
6121
6102
6079
6053
6029
6019
6023
6039
6072
6125
6193
6284
6399
6529
6672
6825
6982
7134
7272
7394
7502
7603
7701
7804
7914
8020
8115
8202
8281
8355
8419
8474
8525
8577
8619
8647
8661
8663
8656
8638
8617
8600
8592
8596
8601
8594
8582
8562
8537
8506
8466
8421
8376
8321
8257
8189
8119
8053
7989
7926
7870
7811
7750
7706
7688
7684
7681
7680
7683
7686
7692
7703
7707
7693
7677
7677
7688
7694
7687
7667
7635
7598
7560
7522
7481
7436
7395
7352
7307
7261
7223
7190
7149
7096
7044
6998
6955
6919
6891
6863
6820
6755
6678
6608
6549
6501
6472
6458
6445
6426
6401
6362
6317
6277
6231
6178
6130
6092
6067
6043
6006
5960
5909
5849
5774
5696
5632
5577
5530
5489
5451
5420
5399
5388
5378
5363
5348
5338
5330
5325
5319
5304
5282
5253
5217
5175
5137
5114
5109
5121
5151
5185
5224
5284
5369
5482
5619
5776
5939
6092
6247
6410
6580
6742
6881
7003
7113
7212
7293
7355
7408
7451
7483
7514
7542
7565
7581
7585
7584
7594
7622
7664
7709
7739
7749
7757
7765
7779
7797
7805
7798
7776
7743
7715
7701
7695
7689
7680
7657
7618
7573
7524
7469
7418
7377
7341
7303
7271
7251
7235
7222
7219
7230
7245
7257
7264
7273
7290
7316
7348
7378
7399
7415
7432
7452
7470
7488
7506
7517
7521
7515
7504
7497
7488
7473
7452
7431
7409
7374
7328
7279
7226
7158
7082
7007
6923
6833
6749
6672
6596
6519
6435
6346
6265
6192
6124
6059
5998
5937
5876
5818
5763
5708
5645
5573
5500
5433
5371
5318
5281
5256
5230
5205
5189
5175
5156
5129
5103
5082
5065
5050
5043
5041
5028
5008
4996
5000
5021
5064
5130
5205
5279
5369
5484
5616
5761
5917
6079
6237
6387
6526
6662
6799
6922
7028
7129
7219
7291
7356
7413
7470
7523
7569
7615
7658
7683
7693
7706
7732
7764
7796
7830
7855
7869
7881
7894
7894
7874
7848
7824
7797
7756
7697
7630
7561
7484
7401
7312
7227
7162
7117
7084
7062
7049
7050
7068
7101
7137
7164
7183
7204
7227
7254
7286
7316
7333
7349
7364
7368
7364
7350
7313
7260
7206
7150
7096
7054
7017
6979
6949
6925
6905
6890
6877
6860
6846
6829
6796
6757
6727
6701
6673
6630
6578
6526
6472
6420
6375
6339
6309
6275
6226
6165
6090
6008
5930
5859
5790
5723
5654
5578
5503
5429
5352
5284
5228
5184
5144
5105
5063
5003
4931
4864
4810
4770
4749
4751
4763
4778
4804
4838
4886
4959
5058
5180
5318
5462
5608
5754
5910
6075
6243
6409
6570
6729
6876
7006
7124
7230
7322
7400
7468
7528
7574
7606
7633
7657
7676
7686
7689
7694
7709
7730
7749
7768
7791
7818
7845
7867
7878
7875
7864
7842
7808
7777
7748
7706
7660
7626
7593
7558
7529
7501
7474
7453
7438
7428
7424
7425
7428
7434
7439
7434
7413
7387
7362
7329
7293
7268
7254
7246
7228
7192
7148
7096
7041
6999
6966
6925
6881
6840
6794
6746
6702
6666
6627
6579
6534
6492
6438
6374
6311
6250
6199
6157
6120
6087
6052
6010
5969
5936
5904
5870
5831
5778
5725
5683
5640
5586
5528
5473
5423
5380
5342
5315
5300
5284
5251
5203
5152
5106
5064
5021
4976
4932
4893
4861
4839
4833
4842
4860
4900
4971
5061
5160
5274
5401
5531
5666
5807
5954
6106
6265
6421
6571
6716
6854
6985
7105
7200
7280
7349
7401
7437
7465
7486
7505
7517
7522
7525
7519
7510
7508
7521
7547
7575
7601
7619
7625
7629
7632
7632
7630
7623
7615
7607
7590
7559
7517
7478
7450
7427
7403
7375
7342
7311
7280
7250
7226
7209
7204
7206
7202
7193
7188
7186
7186
7192
7209
7224
7225
7215
7192
7158
7128
7109
7087
7052
7017
6989
6964
6937
6907
6864
6811
6764
6724
6683
6635
6581
6509
6414
6314
6226
6158
6110
6083
6077
6083
6081
6062
6040
6018
5990
5961
5933
5897
5846
5791
5745
5704
5659
5616
5581
5555
5540
5531
5511
5475
5437
5404
5379
5362
5341
5300
5241
5178
5115
5059
5013
4975
4948
4932
4928
4929
4937
4967
5020
5093
5179
5273
5385
5517
5665
5825
5986
6138
6288
6441
6590
6723
6842
6951
7063
7177
7283
7377
7453
7513
7574
7639
7702
7749
7777
7802
7835
7860
7871
7881
7893
7901
7900
7897
7896
7896
7889
7867
7843
7822
7794
7741
7661
7564
7456
7351
7256
7178
7128
7102
7082
7056
7026
6994
6961
6934
6921
6915
6910
6900
6890
6887
6877
6852
6822
6794
6762
6722
6674
6624
6582
6546
6502
6445
6384
6324
6274
6238
6212
6192
6175
6155
6123
6085
6049
6011
5969
5921
5870
5818
5758
5686
5609
5533
5456
5376
5297
5229
5164
5092
5023
4964
4907
4839
4757
4681
4623
4574
4525
4483
4446
4409
4373
4345
4333
4328
4313
4283
4245
4202
4153
4107
4065
4031
4002
3971
3933
3891
3849
3812
3781
3765
3754
3729
3701
3684
3675
3668
3656
3642
3638
3640
3649
3667
3699
3749
3817
3897
3982
4086
4211
4350
4491
4635
4779
4929
5081
5225
5369
5524
5688
5846
5985
6108
6214
6299
6365
6421
6460
6481
6501
6531
6565
6599
6620
6615
6599
6590
6597
6617
6637
6641
6633
6626
6622
6618
6613
6607
6600
6576
6533
6485
6438
6388
6327
6258
6192
6141
6105
6078
6055
6033
6016
6008
6008
6019
6039
6061
6074
6078
6083
6094
6098
6095
6094
6088
6065
6025
5983
5955
5939
5924
5900
5873
5848
5813
5772
5724
5668
5614
5572
5536
5502
5471
5439
5402
5355
5297
5228
5159
5101
5062
5026
4983
4932
4886
4853
4820
4773
4714
4660
4619
4584
4557
4537
4519
4509
4503
4487
4455
4413
4376
4341
4297
4244
4184
4129
4088
4052
4018
3989
3964
3946
3936
3927
3915
3897
3869
3830
3781
3744
3726
3717
3712
3715
3737
3789
3876
3991
4127
4268
4407
4553
4705
4853
4991
5120
5247
5375
5496
5596
5670
5735
5804
5865
5909
5937
5949
5950
5954
5963
5971
5970
5967
5968
5972
5978
5978
5964
5946
5934
5922
5896
5855
5811
5779
5755
5732
5707
5679
5645
5605
5562
5513
5457
5403
5360
5326
5310
5318
5343
5367
5375
5368
5356
5354
5365
5373
5363
5342
5320
5301
5291
5288
5287
5285
5277
5267
5258
5245
5225
5204
5188
5166
5121
5061
4998
4931
4863
4809
4768
4729
4685
4642
4604
4567
4533
4506
4487
4461
4424
4391
4368
4355
4345
4337
4324
4290
4240
4193
4159
4133
4101
4061
4012
3954
3897
3853
3828
3813
3804
3787
3749
3701
3655
3612
3576
3554
3545
3542
3539
3528
3509
3495
3490
3483
3472
3462
3455
3448
3436
3418
3401
3389
3380
3381
3404
3455
3535
3635
3755
3892
4041
4197
4352
4503
4653
4803
4947
5076
5190
5289
5375
5448
5511
5572
5625
5662
5688
5708
5725
5737
5743
5751
5766
5780
5776
5755
5732
5717
5707
5697
5696
5700
5697
5682
5655
5630
5616
5600
5583
5574
5560
5537
5508
5476
5451
5424
5391
5375
5384
5403
5412
5413
5416
5424
5442
5473
5508
5533
5546
5548
5537
5517
5503
5493
5479
5465
5452
5434
5411
5389
5364
5341
5317
5289
5261
5229
5193
5154
5107
5056
5000
4940
4891
4845
4796
4746
4701
4655
4605
4564
4539
4528
4526
4522
4511
4492
4461
4417
4374
4339
4306
4261
4199
4135
4080
4029
3982
3943
3916
3898
3876
3843
3806
3771
3743
3728
3717
3706
3694
3674
3651
3632
3620
3606
3577
3533
3483
3431
3380
3329
3282
3244
3214
3184
3148
3109
3072
3039
3006
2975
2949
2928
2906
2872
2829
2795
2779
2776
2791
2824
2864
2899
2940
3008
3099
3189
3280
3384
3501
3633
3784
3944
4100
4254
4411
4568
4715
4837
4935
5019
5091
5148
5183
5201
5209
5217
5229
5238
5239
5240
5245
5257
5275
5296
5318
5341
5368
5395
5414
5419
5413
5403
5396
5386
5370
5340
5290
5229
5171
5116
5069
5037
5021
5024
5032
5036
5031
5023
5015
5005
4996
4994
5001
5014
5028
5035
5033
5029
5021
5003
4978
4942
4897
4860
4829
4797
4764
4725
4679
4638
4599
4552
4515
4495
4483
4467
4442
4409
4365
4310
4256
4206
4160
4119
4076
4029
3983
3938
3894
3852
3820
3791
3761
3727
3695
3662
3625
3590
3554
3512
3474
3439
3399
3358
3320
3293
3278
3257
3229
3197
3162
3123
3085
3058
3041
3024
3001
2970
2931
2894
2871
2859
2849
2829
2793
2744
2688
2635
2600
2584
2572
2553
2525
2494
2462
2427
2390
2353
2320
2289
2262
2239
2213
2176
2133
2091
2054
2027
2013
2000
1978
1951
1922
1892
1868
1849
1840
1845
1859
1884
1926
1978
2029
2089
2161
2234
2314
2419
2555
2703
2840
2970
3098
3220
3336
3448
3556
3658
3747
3824
3891
3950
3998
4035
4066
4088
4091
4082
4074
4066
4062
4061
4052
4032
4007
3990
3987
3984
3980
3985
3992
3993
4000
4010
4019
4025
4027
4023
4017
4009
3993
3969
3942
3916
3892
3871
3845
3806
3758
3709
3664
3633
3623
3619
3615
3621
3640
3666
3690
3709
3726
3744
3763
3781
3796
3797
3783
3760
3734
3710
3685
3659
3629
3589
3544
3500
3455
3398
3334
3278
3230
3186
3147
3108
3062
3020
2984
2948
2916
2889
2867
2844
2816
2785
2746
2695
2644
2600
2558
2516
2482
2457
2432
2409
2391
2373
2351
2327
2305
2281
2258
2232
2197
2152
2099
2044
1996
1950
1909
1876
1842
1807
1774
1740
1715
1702
1692
1683
1669
1637
1587
1527
1467
1422
1393
1382
1381
1377
1368
1356
1340
1328
1324
1324
1327
1332
1346
1374
1410
1453
1504
1568
1647
1742
1857
1985
2110
2228
2345
2456
2557
2658
2764
2866
2957
3029
3083
3127
3162
3188
3209
3222
3226
3229
3233
3234
3228
3219
3215
3211
3202
3189
3176
3164
3155
3155
3166
3168
3156
3136
3103
3061
3019
2987
2962
2933
2901
2869
2834
2802
2774
2751
2740
2741
2750
2759
2756
2742
2728
2720
2715
2708
2689
2670
2656
2635
2604
2569
2539
2515
2485
2443
2400
2365
2333
2298
2270
2250
2229
2199
2166
2136
2109
2083
2056
2030
2008
1992
1979
1967
1951
1926
1891
1853
1820
1793
1771
1755
1747
1748
1751
1745
1726
1694
1651
1617
1599
1582
1560
1534
1497
1450
1404
1371
1355
1345
1333
1317
1293
1258
1213
1162
1108
1058
1013
975
946
921
896
876
865
855
843
835
826
812
791
769
746
724
705
690
694
722
768
836
926
1035
1156
1286
1425
1566
1708
1863
2028
2182
2317
2437
2550
2660
2765
2865
2960
3043
3101
3136
3163
3186
3208
3231
3247
3252
3256
3263
3267
3258
3235
3208
3187
3175
3170
3166
3162
3165
3174
3172
3157
3139
3118
3089
3051
3017
2995
2981
2971
2961
2945
2920
2893
2872
2863
2867
2885
2909
2926
2935
2944
2954
2965
2979
3001
3030
3059
3078
3082
3084
3079
3054
3017
2980
2949
2928
2910
2890
2866
2834
2804
2780
2754
2713
2663
2621
2590
2557
2511
2459
2412
2371
2341
2320
2295
2266
2235
2197
2155
2120
2091
2064
2043
2026
2015
2007
1990
1961
1932
1900
1861
1828
1808
1793
1779
1760
1734
1705
1677
1658
1646
1624
1594
1556
1514
1475
1436
1399
1361
1329
1304
1282
1263
1242
1213
1184
1158
1127
1092
1051
1004
950
902
870
850
836
827
825
836
855
881
925
990
1071
1161
1260
1381
1519
1668
1828
2000
2175
2341
2500
2644
2768
2879
2982
3079
3171
3257
3333
3397
3448
3499
3555
3599
3625
3640
3651
3665
3682
3700
3714
3721
3734
3761
3793
3820
3839
3852
3864
3879
3895
3907
3914
3914
3906
3893
3872
3850
3834
3818
3793
3751
3703
3669
3656
3654
3654
3662
3682
3713
3754
3799
3839
3874
3903
3929
3951
3961
3960
3953
3938
3916
3900
3896
3899
3903
3905
3905
3897
3868
3823
3765
3699
3626
3552
3477
3406
3354
3323
3309
3312
3321
3328
3328
3314
3283
3243
3192
3137
3092
3060
3041
3022
2995
2967
2941
2902
2851
2802
2758
2712
2670
2640
2617
2594
2573
2555
2536
2513
2499
2489
2470
2434
2383
2331
2291
2262
2236
2214
2195
2180
2176
2178
2173
2155
2125
2090
2063
2044
2024
1998
1964
1928
1897
1864
1825
1787
1749
1713
1687
1669
1655
1628
1581
1531
1500
1484
1476
1463
1439
1406
1365
1326
1302
1301
1312
1326
1352
1412
1508
1634
1782
1949
2128
2315
2497
2659
2798
2928
3067
3220
3377
3525
3648
3743
3820
3893
3971
4042
4099
4140
4162
4162
4155
4158
4173
4190
4211
4237
4255
4263
4264
4263
4257
4245
4233
4233
4256
4290
4314
4326
4337
4351
4358
4355
4330
4289
4256
4235
4218
4201
4181
4159
4135
4115
4096
4065
4035
4021
4017
4019
4030
4047
4060
4063
4058
4042
4019
3998
3974
3950
3926
3896
3861
3824
3793
3771
3757
3750
3746
3741
3735
3716
3680
3635
3592
3565
3542
3508
3467
3436
3413
3382
3351
3327
3301
3276
3259
3247
3236
3217
3192
3168
3141
3113
3083
3042
2991
2929
2867
2810
2759
2712
2663
2604
2546
2503
2479
2462
2442
2418
2390
2350
2308
2272
2247
2230
2213
2193
2168
2134
2097
2062
2030
1999
1972
1951
1939
1928
1907
1874
1834
1789
1733
1668
1610
1560
1515
1481
1458
1432
1402
1378
1364
1357
1353
1346
1320
1282
1249
1225
1212
1218
1241
1283
1355
1458
1583
1719
1860
1999
2140
2286
2437
2598
2768
2935
3089
3231
3358
3468
3565
3652
3730
3795
3851
3900
3935
3959
3973
3979
3990
4007
4021
4033
4048
4070
4097
4125
4152
4172
4184
4190
4188
4184
4183
4181
4177
4172
4154
4123
4091
4066
4042
4024
4006
3978
3944
3915
3893
3870
3845
3831
3834
3850
3871
3898
3927
3947
3959
3972
3983
3984
3976
3970
3965
3959
3944
3921
3899
3872
3839
3803
3772
3745
3719
3699
3670
3625
3580
3546
3518
3498
3479
3459
3441
3425
3406
3387
3372
3358
3338
3313
3277
3232
3187
3138
3087
3043
3007
2976
2943
2915
2896
2875
2844
2812
2787
2765
2744
2721
2693
2661
2632
2610
2591
2574
2559
2551
2554
2554
2548
2537
2514
2474
2424
2384
2353
2319
2285
2255
2228
2207
2185
2156
2123
2087
2052
2021
1994
1971
1947
1917
1886
1853
1820
1789
1761
1740
1734
1744
1778
1830
1891
1964
2044
2138
2253
2387
2538
2702
2871
3043
3207
3354
3486
3607
3712
3794
3865
3927
3983
4031
4064
4084
4092
4094
4096
4100
4109
4122
4136
4151
4157
4152
4146
4145
4145
4151
4167
4187
4208
4225
4233
4235
4227
4210
4194
4183
4175
4164
4151
4131
4103
4062
4020
3992
3974
3966
3973
3988
4001
4008
4004
3996
3994
3994
3990
3992
3999
4005
4008
4003
3988
3973
3961
3949
3944
3947
3949
3948
3949
3941
3920
3893
3855
3807
3760
3720
3680
3640
3599
3558
3517
3478
3444
3417
3397
3375
3344
3311
3284
3263
3240
3201
3141
3068
2997
2946
2918
2892
2859
2823
2806
2809
2820
2833
2839
2820
2786
2752
2719
2685
2647
2606
2570
2548
2533
2527
2532
2540
2540
2527
2503
2474
2442
2412
2387
2368
2348
2331
2311
2276
2231
2183
2128
2070
2016
1973
1936
1899
1863
1832
1810
1800
1806
1834
1875
1922
1976
2042
2124
2216
2322
2443
2575
2716
2862
3011
3158
3297
3428
3552
3666
3770
3862
3943
4016
4082
4144
4201
4251
4289
4319
4347
4376
4400
4424
4447
4464
4470
4476
4488
4507
4528
4539
4538
4533
4534
4539
4544
4550
4558
4575
4592
4595
4586
4583
4583
4577
4561
4538
4510
4483
4466
4456
4452
4456
4460
4459
4457
4445
4428
4418
4415
4413
4417
4429
4447
4471
4494
4515
4534
4545
4552
4550
4526
4492
4465
4441
4406
4354
4295
4241
4188
4130
4074
4029
3996
3965
3927
3890
3859
3832
3807
3785
3766
3747
3720
3680
3633
3590
3554
3517
3474
3433
3397
3358
3319
3283
3252
3227
3208
3192
3178
3162
3137
3107
3078
3049
3021
2995
2969
2934
2882
2817
2758
2724
2711
2705
2706
2714
2720
2717
2706
2687
2656
2606
2537
2465
2412
2382
2356
2324
2293
2271
2252
2227
2198
2171
2146
2118
2091
2068
2039
1996
1947
1902
1860
1811
1753
1698
1655
1624
1605
1588
1563
1537
1516
1499
1485
1476
1470
1473
1488
1511
1552
1618
1703
1800
1910
2036
2177
2336
2511
2682
2848
3016
3183
3339
3477
3599
3705
3785
3843
3894
3941
3981
4015
4041
4072
4105
4129
4150
4170
4187
4213
4245
4274
4305
4338
4367
4390
4405
4422
4447
4467
4482
4496
4508
4520
4528
4529
4523
4499
4459
4418
4384
4355
4334
4319
4302
4285
4278
4285
4294
4296
4303
4318
4335
4355
4378
4389
4383
4361
4327
4296
4273
4255
4243
4235
4222
4203
4183
4159
4127
4089
4050
4008
3969
3947
3934
3919
3911
3906
3890
3860
3816
3763
3706
3646
3588
3524
3459
3406
3366
3326
3282
3237
3197
3168
3149
3139
3137
3130
3112
3088
3056
3014
2971
2932
2887
2838
2785
2734
2695
2661
2625
2580
2529
2489
2467
2457
2454
2459
2471
2479
2474
2461
2445
2419
2385
2348
2311
2273
2235
2200
2170
2145
2117
2085
2056
2030
2007
1988
1964
1928
1892
1863
1839
1814
1789
1764
1740
1717
1691
1655
1614
1569
1511
1437
1360
1296
1251
1217
1195
1178
1155
1129
1108
1091
1076
1071
1078
1090
1113
1151
1201
1258
1324
1410
1522
1650
1790
1938
2081
2224
2370
2507
2634
2756
2874
3000
3129
3242
3334
3409
3471
3526
3578
3627
3668
3702
3734
3763
3779
3785
3785
3780
3774
3769
3760
3747
3746
3761
3780
3788
3786
3790
3793
3790
3786
3786
3787
3788
3785
3787
3795
3795
3780
3759
3745
3743
3742
3743
3750
3752
3750
3751
3756
3765
3774
3789
3808
3821
3829
3837
3837
3826
3819
3810
3794
3782
3773
3756
3737
3713
3682
3659
3642
3618
3586
3549
3514
3484
3452
3422
3393
3363
3339
3320
3300
3282
3265
3236
3195
3151
3109
3072
3039
3011
2982
2949
2918
2891
2861
2824
2782
2743
2706
2666
2624
2574
2525
2493
2475
2460
2449
2439
2432
2430
2425
2403
2371
2344
2326
2318
2312
2291
2249
2200
2152
2108
2070
2034
2002
1971
1936
1900
1870
1845
1811
1772
1734
1692
1648
1596
1540
1495
1464
1444
1436
1442
1457
1485
1529
1590
1669
1763
1865
1971
2085
2207
2343
2498
2661
2824
2987
3146
3303
3465
3627
3774
3898
3998
4082
4156
4216
4254
4275
4287
4292
4283
4268
4260
4254
4248
4250
4258
4267
4283
4301
4316
4339
4371
4397
4408
4414
4421
4427
4423
4406
4388
4371
4348
4318
4287
4255
4214
4178
4152
4132
4125
4129
4135
4146
4166
4192
4220
4246
4264
4275
4275
4272
4274
4281
4293
4295
4278
4250
4223
4204
4188
4171
4156
4138
4115
4094
4071
4050
4034
4020
4002
3975
3939
3895
3849
3807
3771
3736
3700
3664
3631
3596
3558
3523
3492
3463
3437
3412
3387
3366
3353
3339
3323
3308
3286
3246
3199
3153
3109
3067
3029
2988
2948
2916
2887
2855
2820
2783
2751
2728
2713
2701
2689
2672
2634
2578
2520
2463
2403
2346
2296
2256
2225
2200
2184
2169
2140
2101
2066
2039
2018
2004
1992
1979
1962
1932
1890
1849
1815
1789
1768
1765
1778
1792
1808
1843
1901
1981
2082
2206
2344
2495
2657
2823
2991
3165
3348
3533
3719
3904
4083
4251
4400
4525
4625
4697
4748
4789
4826
4864
4901
4931
4946
4948
4954
4972
5000
5038
5083
5122
5147
5166
5184
5202
5216
5227
5237
5250
5263
5273
5275
5270
5262
5251
5235
5218
5209
5209
5213
5209
5188
5161
5143
5128
5113
5106
5108
5112
5117
5125
5128
5133
5138
5140
5147
5153
5148
5138
5133
5133
5131
5115
5090
5070
5056
5049
5037
5018
5001
4980
4956
4931
4899
4865
4830
4790
4745
4694
4641
4591
4546
4506
4469
4433
4389
4339
4289
4238
4180
4120
4063
4019
3986
3959
3940
3923
3899
3872
3843
3808
3760
3703
3655
3625
3610
3600
3580
3551
3523
3495
3466
3438
3420
3406
3381
3346
3315
3289
3267
3245
3226
3209
3181
3138
3092
3053
3012
2968
2930
2900
2874
2854
2833
2800
2759
2714
2665
2614
2557
2491
2428
2383
2362
2351
2334
2312
2293
2279
2266
2249
2231
2222
2215
2193
2153
2105
2061
2038
2046
2080
2141
2225
2330
2454
2599
2768
2960
3164
3369
3572
3770
3959
4144
4325
4500
4664
4807
4927
5032
5122
5197
5262
5321
5372
5417
5455
5485
5511
5538
5566
5592
5615
5642
5671
5695
5716
5736
5758
5784
5820
5863
5907
5950
5987
6009
6014
6013
6010
6002
5987
5971
5959
5953
5950
5952
5952
5945
5939
5936
5937
5945
5955
5961
5964
5963
5963
5965
5970
5969
5964
5966
5982
6004
6021
6027
6018
5993
5956
5919
5884
5857
5831
5798
5757
5717
5685
5651
5615
5583
5552
5519
5482
5451
5421
5383
5340
5297
5263
5235
5209
5184
5147
5100
5057
5021
4989
4959
4931
4903
4864
4821
4783
4742
4702
4670
4639
4612
4594
4574
4545
4514
4483
4453
4428
4409
4385
4347
4301
4263
4243
4225
4193
4159
4128
4088
4033
3980
3952
3939
3922
3900
3886
3882
3879
3864
3831
3788
3759
3746
3738
3726
3690
3631
3564
3497
3436
3394
3381
3394
3428
3494
3600
3735
3880
4033
4208
4399
4590
4770
4936
5096
5261
5432
5593
5736
5874
6008
6133
6251
6353
6432
6505
6582
6650
6705
6755
6786
6809
6834
6846
6851
6861
6866
6870
6872
6866
6864
6867
6875
6882
6881
6869
6847
6825
6812
6811
6816
6814
6801
6777
6744
6708
6674
6644
6629
6635
6649
6655
6663
6678
6684
6688
6702
6721
6750
6785
6816
6833
6833
6812
6774
6729
6691
6659
6626
6590
6552
6506
6455
6408
6362
6309
6248
6191
6147
6112
6094
6081
6059
6032
6009
5991
5974
5953
5929
5910
5903
5901
5891
5860
5812
5748
5675
5605
5545
5483
5413
5341
5274
5219
5179
5153
5135
5118
5100
5077
5047
5018
5002
5007
5027
5038
5021
4977
4918
4857
4804
4752
4704
4672
4653
4637
4622
4597
4570
4555
4540
4506
4455
4413
4388
4363
4333
4302
4267
4222
4183
4163
4172
4219
4305
4404
4514
4640
4779
4935
5106
5287
5472
5660
5849
6032
6204
6364
6514
6650
6769
6877
6977
7064
7137
7195
7238
7266
7289
7312
7330
7340
7346
7355
7366
7381
7404
7436
7479
7526
7562
7583
7598
7612
7626
7638
7641
7637
7624
7601
7581
7565
7541
7515
7488
7454
7416
7386
7367
7358
7349
7327
7296
7267
7242
7223
7213
7215
7226
7234
7235
7229
7224
7225
7226
7220
7201
7170
7140
7114
7096
7080
7057
7026
6984
6934
6879
6816
6741
6662
6591
6525
6466
6415
6371
6339
6314
6290
6268
6239
6209
6183
6152
6110
6072
6041
6004
5951
5893
5853
5830
5803
5756
5697
5643
5602
5573
5559
5552
5541
5528
5505
5457
5383
5297
5213
5146
5101
5060
5013
4967
4924
4891
4875
4866
4846
4815
4787
4759
4718
4667
4609
4548
4485
4419
4360
4314
4277
4249
4237
4237
4229
4211
4193
4179
4178
4194
4238
4310
4398
4497
4603
4723
4855
4991
5138
5311
5516
5740
5957
6151
6314
6457
6602
6768
6945
7116
7273
7414
7538
7643
7725
7781
7822
7857
7887
7907
7913
7915
7925
7942
7969
8004
8034
8060
8092
8127
8171
8227
8276
8299
8301
8296
8280
8255
8241
8249
8259
8250
8232
8222
8216
8196
8155
8112
8083
8056
8027
8015
8021
8029
8026
8014
8002
7992
7979
7964
7950
7929
7904
7883
7862
7847
7840
7829
7812
7797
7786
7770
7750
7731
7712
7693
7664
7623
7575
7521
7470
7426
7386
7337
7274
7201
7122
7046
6986
6944
6917
6894
6854
6799
6749
6701
6648
6588
6525
6466
6411
6356
6312
6271
6234
6205
6171
6123
6071
6025
5977
5924
5882
5864
5863
5866
5855
5818
5761
5705
5669
5649
5641
5641
5630
5602
5563
5524
5482
5430
5385
5355
5333
5311
5276
5221
5160
5110
5066
5018
4969
4930
4902
4874
4826
4753
4664
4578
4518
4475
4423
4364
4315
4264
4194
4110
4023
3935
3849
3777
3724
3694
3689
3715
3759
3793
3827
3892
3983
4082
4181
4293
4432
4606
4805
5020
5237
5436
5623
5818
6006
6169
6310
6432
6542
6645
6736
6812
6870
6922
6982
7050
7124
7185
7224
7247
7271
7312
7363
7407
7441
7468
7491
7507
7518
7527
7534
7542
7554
7570
7586
7597
7600
7595
7598
7627
7672
7707
7722
7731
7752
7781
7808
7813
7785
7741
7699
7662
7625
7587
7559
7560
7578
7587
7574
7546
7518
7504
7505
7528
7566
7604
7636
7655
7651
7615
7555
7489
7424
7373
7351
7345
7320
7268
7198
7123
7056
7005
6977
6966
6948
6909
6856
6811
6772
6735
6709
6689
6668
6653
6636
6601
6556
6517
6483
6457
6441
6416
6376
6339
6314
6287
6250
6210
6168
6128
6097
6078
6059
6018
5953
5893
5858
5841
5823
5800
5774
5751
5740
5730
5698
5637
5561
5483
5416
5381
5366
5341
5303
5265
5233
5201
5164
5123
5076
5014
4938
4862
4799
4758
4740
4728
4717
4724
4742
4758
4777
4795
4800
4787
4752
4708
4681
4665
4635
4582
4526
4490
4475
4479
4506
4559
4642
4751
4875
5016
5181
5351
5511
5682
5870
6056
6245
6444
6632
6800
6951
7087
7211
7318
7408
7486
7554
7623
7691
7752
7811
7856
7886
7907
7919
7937
7960
7970
7989
8021
8046
8055
8057
8059
8062
8059
8054
8051
8047
8056
8082
8106
8115
8100
8069
8027
7977
7928
7894
7873
7852
7836
7840
7865
7897
7919
7930
7929
7921
7912
7905
7889
7868
7870
7892
7917
7935
7945
7957
7973
7986
7988
7969
7928
7873
7817
7763
7710
7648
7581
7527
7478
7423
7369
7318
7280
7258
7237
7223
7223
7219
7205
7197
7197
7195
7174
7132
7081
7028
6963
6879
6788
6702
6620
6551
6501
6469
6451
6445
6452
6465
6467
6454
6431
6399
6357
6306
6263
6245
6241
6240
6235
6223
6205
6167
6106
6033
5961
5916
5905
5902
5888
5864
5838
5798
5732
5655
5588
5530
5473
5417
5370
5335
5313
5321
5369
5431
5491
5559
5652
5769
5900
6052
6224
6396
6568
6742
6914
7084
7261
7462
7673
7866
8044
8216
8375
8519
8652
8762
8833
8881
8935
8987
9031
9088
9147
9195
9230
9238
9214
9184
9167
9165
9172
9182
9188
9179
9157
9144
9153
9175
9204
9224
9217
9194
9176
9167
9153
9120
9075
9036
9008
8983
8965
8965
8981
9010
9047
9077
9091
9107
9136
9168
9200
9234
9265
9289
9290
9258
9217
9183
9147
9109
9059
8999
8940
8887
8835
8791
8763
8748
8730
8700
8667
8639
8616
8586
8547
8510
8474
8438
8407
8394
8387
8359
8302
8231
8170
8121
8076
8032
7991
7955
7914
7869
7840
7814
7773
7718
7654
7593
7545
7500
7455
7434
7436
7432
7418
7410
7403
7380
7333
7268
7200
7152
7128
7104
7068
7026
6979
6944
6937
6942
6939
6930
6925
6926
6926
6923
6914
6886
6835
6782
6744
6721
6705
6676
6624
6568
6523
6484
6453
6447
6480
6552
6637
6721
6818
6938
7080
7249
7439
7634
7827
8029
8244
8464
8696
8933
9156
9354
9526
9678
9810
9924
10031
10142
10265
10400
10539
10669
10783
10885
10966
11023
11070
11112
11159
11205
11229
11228
11237
11262
11285
11310
11341
11374
11402
11410
11400
11367
11329
11304
11271
11233
11214
11198
11163
11121
11081
11043
11013
11012
11031
11038
11024
10991
10958
10944
10943
10948
10959
10975
11002
11037
11071
11103
11117
11092
11041
10999
10979
10977
10984
10987
10974
10926
10848
10765
10693
10637
10600
10559
10489
10397
10312
10234
10154
10081
10016
9957
9899
9814
9715
9627
9541
9449
9367
9315
9283
9249
9202
9143
9086
9038
8999
8970
8942
8903
8839
8762
8690
8612
8521
8438
8374
8315
8256
8206
8167
8125
8067
8000
7930
7863
7796
7743
7719
7711
7702
7689
7681
7669
7640
7599
7556
7520
7487
7448
7395
7324
7239
7147
7071
7032
7019
7007
6984
6945
6892
6826
6759
6705
6648
6590
6537
6479
6420
6381
6372
6400
6463
6558
6672
6778
6878
6986
7094
7206
7339
7493
7663
7847
8037
8224
8396
8554
8710
8859
8990
9113
9230
9318
9377
9428
9473
9510
9562
9620
9650
9641
9618
9615
9644
9683
9720
9761
9799
9819
9817
9797
9769
9741
9719
9706
9694
9674
9642
9611
9600
9623
9667
9710
9745
9774
9793
9806
9806
9778
9727
9674
9632
9589
9526
9456
9404
9377
9366
9374
9400
9429
9450
9454
9443
9441
9452
9464
9474
9479
9457
9402
9324
9240
9158
9073
8990
8930
8890
8860
8847
8859
8885
8896
8870
8809
8732
8658
8579
8497
8426
8362
8305
8258
8219
8200
8205
8213
8200
8166
8121
8067
8000
7934
7876
7824
7785
7767
7758
7746
7726
7697
7663
7623
7583
7552
7524
7497
7469
7440
7410
7386
7370
7346
7317
7292
7263
7214
7144
7066
6999
6952
6906
6861
6829
6802
6774
6759
6755
6744
6710
6650
6591
6559
6538
6498
6436
6376
6342
6323
6310
6305
6307
6313
6320
6332
6362
6427
6542
6697
6861
7019
7189
7369
7542
7706
7855
8000
8142
8268
8371
8459
8545
8630
8706
8766
8810
8844
8868
8869
8849
8822
8791
8755
8719
8697
8694
8695
8707
8740
8773
8787
8785
8775
8759
8743
8733
8727
8723
8728
8758
8808
8849
8853
8829
8796
8750
8701
8670
8650
8629
8612
8593
8588
8596
8595
8580
8553
8517
8477
8439
8408
8385
8378
8403
8459
8526
8594
8644
8651
8628
8614
8607
8583
8531
8455
8367
8280
8213
8173
8147
8118
8086
8065
8057
8045
8021
7995
7966
7926
7887
7862
7840
7813
7777
7729
7675
7623
7589
7576
7576
7579
7569
7534
7485
7443
7404
7353
7298
7245
7205
7185
7179
7189
7199
7174
7118
7058
7016
7004
7008
6991
6955
6924
6894
6864
6840
6821
6817
6829
6840
6843
6839
6817
6783
6743
6693
6642
6619
6625
6650
6692
6741
6796
6860
6934
7027
7134
7247
7366
7504
7670
7844
8001
8143
8277
8394
8503
8609
8704
8801
8896
8968
9012
9047
9074
9081
9074
9059
9052
9066
9090
9124
9157
9163
9130
9083
9046
9009
8970
8952
8969
9008
9035
9039
9035
9037
9036
9018
8992
8974
8970
8985
9000
8996
8976
8940
8899
8865
8832
8814
8809
8801
8804
8827
8849
8867
8888
8908
8914
8907
8907
8916
8932
8940
8935
8923
8892
8845
8808
8789
8789
8788
8760
8721
8691
8670
8651
8622
8568
8493
8425
8370
8312
8249
8172
8081
7986
7907
7860
7827
7803
7798
7795
7788
7786
7791
7797
7784
7741
7682
7628
7596
7589
7600
7612
7616
7614
7601
7561
7496
7438
7404
7377
7339
7297
7278
7272
7247
7202
7159
7136
7117
7069
6999
6942
6925
6942
6970
6997
7019
7022
6999
6965
6923
6864
6805
6752
6691
6624
6562
6515
6499
6518
6544
6551
6547
6555
6580
6622
6685
6787
6927
7079
7222
7351
7474
7593
7705
7814
7928
8047
8169
8295
8417
8529
8646
8778
8905
9011
9104
9182
9228
9246
9253
9266
9284
9302
9321
9332
9327
9324
9334
9345
9344
9337
9338
9355
9383
9417
9438
9433
9421
9414
9396
9377
9372
9361
9341
9328
9310
9285
9260
9232
9212
9204
9203
9203
9190
9154
9112
9090
9097
9109
9112
9124
9152
9169
9173
9175
9180
9200
9231
9253
9252
9230
9204
9186
9163
9125
9073
9003
8924
8860
8817
8780
8733
8682
8628
8567
8493
8411
8332
8258
8185
8128
8115
8141
8173
8202
8226
8223
8190
8158
8146
8141
8124
8085
8020
7944
7877
7834
7826
7836
7834
7803
7748
7686
7645
7624
7615
7608
7594
7586
7579
7553
7519
7490
7463
7439
7412
7380
7350
7321
7290
7279
7299
7330
7344
7327
7291
7243
7182
7119
7061
7018
7001
6992
6962
6918
6893
6890
6876
6838
6792
6744
6695
6654
6636
6631
6630
6650
6687
6721
6761
6822
6897
6992
7113
7252
7403
7575
7774
7997
8215
8386
8508
8620
8742
8864
8973
9057
9120
9180
9233
9274
9302
9304
9297
9300
9307
9308
9295
9269
9241
9230
9230
9220
9215
9218
9227
9255
9285
9309
9328
9335
9334
9320
9301
9293
9291
9285
9262
9232
9216
9194
9165
9154
9160
9169
9181
9194
9197
9194
9201
9217
9235
9252
9257
9236
9193
9144
9120
9128
9150
9173
9195
9223
9251
9269
9274
9272
9253
9213
9171
9136
9094
9031
8967
8928
8891
8837
8783
8736
8697
8672
8659
8634
8599
8570
8546
8531
8516
8485
8441
8383
8315
8256
8216
8187
8166
8152
8135
8103
8066
8031
7994
7970
7967
7983
8013
8039
8039
8009
7968
7943
7924
7877
7802
7724
7669
7635
7608
7593
7587
7586
7589
7588
7568
7537
7524
7527
7533
7538
7530
7498
7450
7389
7315
7243
7195
7167
7153
7153
7145
7118
7076
7032
6994
6960
6941
6928
6907
6876
6850
6846
6876
6923
6984
7086
7239
7423
7602
7752
7890
8040
8191
8347
8529
8726
8908
9063
9193
9308
9411
9488
9556
9634
9706
9756
9790
9812
9824
9844
9875
9907
9930
9922
9879
9817
9756
9722
9717
9728
9749
9756
9743
9729
9724
9717
9699
9679
9661
9641
9616
9585
9543
9498
9463
9437
9415
9418
9449
9494
9538
9558
9555
9547
9534
9510
9475
9431
9377
9315
9256
9212
9195
9208
9240
9278
9325
9389
9451
9482
9475
9458
9455
9456
9430
9381
9333
9290
9244
9178
9102
9045
9010
8987
8955
8905
8851
8805
8768
8731
8690
8654
8625
8600
8577
8561
8552
8543
8528
8505
8480
8460
8437
8403
8369
8344
8327
8333
8356
8360
8337
8301
8265
8242
8235
8235
8231
8205
8166
8140
8122
8088
8036
7976
7917
7865
7826
7802
7792
7791
7801
7813
7822
7821
7801
7763
7721
7685
7651
7614
7579
7551
7529
7509
7490
7473
7464
7469
7497
7547
7607
7676
7766
7888
8035
8198
8376
8561
8739
8911
9078
9241
9404
9559
9704
9829
9921
9981
10022
10059
10102
10146
10193
10255
10326
10391
10443
10478
10487
10481
10482
10504
10531
10535
10520
10509
10504
10508
10532
10572
10612
10639
10641
10615
10580
10557
10549
10543
10530
10504
10464
10420
10369
10319
10286
10275
10283
10301
10325
10359
10390
10401
10384
10347
10311
10301
10321
10356
10390
10407
10397
10370
10346
10331
10323
10320
10316
10295
10259
10212
10154
10097
10046
10012
10007
10016
10021
10031
10040
10035
10019
9989
9931
9834
9703
9565
9441
9334
9235
9145
9083
9055
9049
9038
9022
9009
8985
8942
8888
8843
8833
8843
8847
8839
8818
8794
8789
8796
8783
8744
8701
8661
8615
8561
8504
8451
8419
8411
8422
8440
8444
8438
8433
8419
8400
8378
8355
8348
8351
8346
8344
8356
8370
8374
8370
8344
8289
8212
8123
8039
7971
7908
7835
7755
7694
7663
7639
7616
7590
7558
7524
7492
7477
7494
7540
7605
7663
7682
7677
7690
7717
7750
7805
7879
7962
8059
8179
8317
8476
8669
8888
9117
9330
9494
9615
9715
9799
9861
9913
9962
10010
10056
10103
10160
10235
10325
10426
10524
10602
10663
10716
10767
10813
10862
10900
10908
10900
10888
10872
10860
10864
10892
10926
10933
10916
10896
10888
10904
10941
10983
11005
10997
10962
10908
10863
10850
10845
10828
10805
10779
10766
10770
10784
10820
10869
10912
10936
10939
10919
10892
10891
10916
10948
10976
10982
10970
10956
10932
10886
10835
10809
10795
10771
10754
10745
10716
10662
10599
10542
10490
10436
10389
10353
10308
10252
10201
10149
10103
10074
10050
10042
10040
10008
9956
9899
9823
9738
9655
9558
9461
9386
9316
9242
9186
9165
9175
9194
9193
9160
9118
9095
9085
9071
9043
9005
8967
8926
8869
8811
8774
8765
8784
8806
8800
8766
8718
8676
8642
8606
8568
8534
8516
8502
8473
8441
8419
8407
8412
8426
8432
8441
8444
8421
8397
8390
8386
8373
8343
8305
8265
8203
8123
8051
8007
7989
7974
7951
7935
7917
7874
7810
7746
7701
7691
7711
7762
7838
7919
7994
8070
8159
8279
8439
8624
8809
8986
9158
9334
9512
9670
9801
9926
10056
10200
10345
10456
10525
10588
10657
10706
10725
10738
10757
10767
10771
10785
10821
10867
10905
10926
10917
10877
10835
10807
10786
10767
10759
10763
10762
10752
10737
10716
10698
10708
10736
10742
10734
10727
10701
10669
10663
10682
10700
10704
10699
10690
10675
10659
10658
10656
10643
10656
10698
10742
10782
10807
10807
10801
10806
10811
10806
10785
10756
10729
10692
10643
10598
10545
10492
10458
10443
10435
10416
10385
10338
10271
10195
10117
10042
9961
9878
9797
9732
9689
9651
9616
9581
9538
9499
9453
9386
9323
9279
9232
9171
9111
9064
9028
8989
8952
8942
8961
8996
9032
9052
9043
9000
8936
8873
8828
8805
8780
8758
8754
8749
8727
8708
8700
8682
8653
8643
8652
8661
8661
8657
8662
8676
8678
8652
8598
8516
8418
8336
8281
8234
8187
8152
8119
8083
8058
8038
8020
8018
8036
8065
8124
8223
8347
8487
8631
8770
8914
9068
9223
9372
9519
9667
9813
9957
10093
10215
10331
10450
10570
10687
10801
10906
10983
11023
11036
11048
11081
11128
11174
11211
11240
11246
11223
11196
11163
11109
11039
10965
10900
10854
10819
10788
10773
10783
10809
10835
10846
10849
10846
10828
10794
10760
10748
10761
10805
10870
10936
10984
11004
10995
10966
10930
10898
10877
10856
10822
10777
10750
10766
10809
10836
10844
10861
10874
10863
10834
10803
10777
10753
10717
10657
10582
10509
10444
10378
10315
10261
10221
10201
10198
10212
10240
10249
10225
10199
10183
10157
10112
10051
9979
9908
9840
9792
9770
9759
9754
9753
9744
9721
9687
9641
9578
9514
9453
9384
9327
9288
9245
9183
9111
9052
9017
8995
8984
8966
8928
8882
8848
8838
8848
8863
8868
8867
8844
8785
8707
8647
8626
8640
8668
8683
8667
8620
8561
8525
8528
8564
8614
8649
8669
8705
8767
8851
8964
9114
9293
9480
9651
9800
9927
10044
10186
10368
10575
10776
10963
11130
11270
11406
11543
11649
11716
11757
11778
11779
11749
11694
11650
11639
11642
11642
11641
11636
11637
11650
11669
11694
11727
11763
11782
11776
11758
11744
11739
11735
11726
11706
11669
11621
11565
11504
11447
11401
11370
11353
11337
11322
11325
11353
11394
11423
11432
11434
11440
11452
11475
11509
11553
11596
11618
11617
11589
11535
11484
11467
11469
11468
11478
11485
11463
11424
11386
11357
11333
11292
11227
11164
11120
11080
11044
11026
11028
11047
11069
11066
11011
10929
10861
10803
10735
10662
10595
10523
10449
10403
10390
10378
10351
10331
10325
10332
10351
10362
10348
10307
10246
10187
10138
10096
10065
10041
10019
9988
9936
9868
9789
9705
9613
9509
9407
9322
9251
9203
9194
9207
9216
9221
9203
9150
9082
9014
8946
8880
8810
8740
8680
8618
8554
8513
8494
8482
8469
8462
8482
8524
8567
8616
8681
8747
8806
8882
8995
9129
9258
9396
9554
9708
9855
10018
10202
10397
10607
10816
11005
11194
11393
11572
11732
11897
12059
12199
12304
12377
12434
12481
12523
12548
12540
12505
12452
12400
12349
12293
12229
12145
12049
11968
11909
11862
11821
11776
11743
11726
11703
11664
11601
11524
11466
11431
11391
11332
11259
11193
11152
11113
11061
11011
10976
10954
10945
10963
10995
11000
10986
10976
10955
10923
10904
10907
10920
10931
10938
10947
10958
10969
10973
10957
10921
10881
10847
10823
10807
10782
10733
10661
10583
10511
10442
10376
10314
10258
10219
10202
10196
10185
10158
10124
10101
10082
10066
10054
10040
10012
9984
9956
9891
9796
9706
9633
9573
9538
9516
9485
9450
9408
9362
9341
9351
9374
9389
9365
9309
9246
9173
9085
8981
8865
8765
8706
8691
8703
8718
8719
8694
8635
8548
8450
8368
8323
8307
8306
8305
8284
8235
8179
8142
8113
8068
8011
7953
7901
7877
7896
7936
7989
8059
8155
8295
8479
8684
8883
9063
9231
9395
9556
9710
9863
10006
10139
10272
10398
10513
10609
10690
10773
10853
10927
10991
11035
11056
11048
11016
10978
10943
10914
10902
10923
10965
11007
11038
11058
11078
11093
11105
11127
11155
11179
11200
11204
11171
11121
11091
11085
11096
11112
11117
11102
11067
11022
10981
10950
10928
10922
10924
10922
10933
10950
10940
10904
10868
10837
10808
10781
10756
10733
10730
10745
10749
10726
10691
10658
10629
10596
10549
10494
10446
10418
10406
10391
10369
10341
10310
10272
10226
10183
10149
10123
10107
10099
10079
10039
9989
9917
9818
9708
9608
9523
9432
9333
9249
9187
9133
9091
9061
9040
9029
9004
8954
8903
8868
8837
8805
8785
8773
8761
8741
8713
8680
8635
8581
8548
8534
8510
8470
8429
8390
8351
8320
8291
8250
8207
8187
8212
8264
8320
8383
8448
8513
8593
8705
8839
8972
9109
9247
9377
9507
9640
9788
9946
10080
10179
10268
10364
10452
10524
10584
10652
10735
10812
10880
10943
10982
11003
11020
11036
11056
11081
11100
11112
11125
11140
11154
11164
11158
11134
11113
11102
11088
11068
11035
10990
10953
10921
10876
10835
10830
10847
10864
10883
10916
10946
10954
10954
10945
10921
10892
10859
10821
10778
10738
10727
10738
10737
10710
10671
10650
10645
10638
10627
10616
10606
10586
10561
10544
10528
10511
10487
10448
10393
10328
10263
10200
10143
10078
10013
9964
9906
9831
9751
9655
9549
9450
9371
9321
9280
9238
9207
9183
9156
9116
9058
9004
8974
8946
8893
8813
8735
8685
8652
8623
8611
8622
8630
8605
8551
8483
8418
8377
8365
8361
8341
8317
8292
8242
8171
8106
8069
8061
8061
8063
8077
8088
8066
8013
7946
7889
7862
7858
7865
7883
7910
7942
7972
7995
8003
8002
8015
8038
8072
8147
8260
8383
8505
8631
8779
8946
9103
9250
9403
9552
9686
9812
9952
10100
10228
10336
10438
10532
10626
10729
10832
10913
10962
10988
11004
11015
11007
10994
10990
10986
10985
10999
11016
11029
11039
11044
11048
11058
11068
11073
11076
11080
11077
11068
11079
11107
11113
11078
11018
10959
10914
10876
10845
10814
10784
10772
10767
10750
10718
10682
10672
10686
10703
10717
10738
10767
10777
10776
10791
10801
10788
10761
10719
10678
10652
10635
10633
10641
10649
10635
10584
10519
10472
10443
10415
10383
10343
10282
10216
10178
10152
10111
10057
9997
9940
9884
9816
9738
9674
9609
9508
9379
9251
9157
9112
9091
9062
9006
8935
8874
8842
8834
8841
8853
8863
8877
8893
8902
8904
8878
8822
8753
8680
8620
8575
8542
8514
8484
8453
8420
8398
8393
8398
8398
8375
8324
8275
8238
8202
8154
8100
8048
7984
7900
7813
7738
7689
7679
7700
7728
7749
7759
7755
7738
7712
7668
7611
7574
7562
7556
7543
7526
7525
7538
7564
7616
7679
7746
7823
7918
8037
8170
8318
8495
8699
8899
9069
9216
9348
9480
9599
9686
9742
9784
9821
9857
9912
9989
10058
10096
10125
10167
10217
10269
10321
10367
10413
10461
10510
10566
10628
10691
10728
10723
10701
10702
10722
10733
10744
10753
10753
10750
10757
10754
10721
10679
10636
10588
10548
10530
10523
10524
10538
10571
10605
10612
10598
10574
10546
10525
10526
10547
10576
10611
10641
10645
10614
10563
10530
10520
10503
10460
10398
10345
10313
10286
10246
10184
10100
10008
9930
9876
9825
9764
9692
9598
9491
9397
9321
9233
9134
9052
8986
8917
8844
8778
8740
8726
8697
8640
8566
8494
8442
8419
8429
8470
8522
8561
8556
8511
8453
8404
8360
8305
8236
8163
8107
8096
8113
8115
8096
8091
8119
8154
8163
8147
8110
8066
8034
8003
7964
7912
7850
7790
7727
7652
7569
7489
7428
7378
7331
7306
7312
7319
7314
7305
7288
7265
7248
7235
7209
7174
7149
7137
7120
7096
7084
7090
7121
7174
7229
7297
7384
7482
7601
7755
7933
8112
8276
8421
8547
8666
8802
8953
9106
9248
9358
9434
9505
9570
9623
9663
9697
9746
9812
9865
9895
9918
9931
9926
9917
9897
9866
9838
9817
9802
9793
9776
9746
9716
9705
9706
9708
9727
9759
9783
9800
9809
9798
9760
9709
9661
9614
9565
9525
9511
9510
9510
9515
9516
9511
9523
9549
9560
9550
9542
9557
9591
9619
9652
9697
9747
9781
9788
9781
9766
9737
9690
9637
9577
9513
9455
9395
9330
9280
9256
9249
9245
9230
9200
9172
9165
9166
9145
9110
9086
9059
9022
8981
8936
8887
8846
8807
8756
8693
8623
8546
8466
8388
8335
8328
8351
8363
8358
8351
8351
8348
8333
8318
8300
8270
8244
8246
8274
8305
8335
8365
8381
8379
8365
8326
8255
8178
8118
8087
8076
8060
8039
8029
8026
8011
7965
7895
7828
7781
7764
7766
7776
7808
7871
7955
8068
8223
8401
8574
8742
8906
9061
9207
9351
9503
9670
9842
10002
10151
10289
10394
10462
10520
10590
10661
10718
10767
10804
10815
10809
10802
10787
10756
10726
10717
10724
10741
10765
10786
10788
10776
10769
10762
10766
10775
10762
10729
10696
10666
10630
10597
10578
10576
10572
10543
10490
10440
10411
10383
10358
10366
10398
10436
10471
10488
10489
10482
10473
10461
10436
10399
10362
10337
10310
10283
10286
10326
10362
10363
10340
10312
10285
10259
10223
10178
10149
10138
10119
10099
10096
10094
10076
10062
10057
10039
10001
9956
9909
9832
9726
9615
9506
9406
9319
9250
9188
9126
9070
9025
8994
8981
8993
9012
9011
8980
8919
8849
8801
8768
8735
8699
8648
8582
8518
8460
8413
8382
8358
8333
8305
8277
8246
8218
8198
8181
8165
8151
8133
8120
8128
8164
8214
8248
8244
8219
8187
8156
8132
8112
8101
8100
8088
8062
8033
7999
7954
7911
7883
7871
7869
7874
7884
7903
7940
8003
8098
8224
8374
8545
8724
8890
9042
9191
9346
9508
9650
9770
9887
10000
10111
10232
10362
10487
10590
10662
10716
10771
10827
10884
10946
10993
11024
11063
11098
11121
11140
11146
11132
11103
11064
11042
11057
11093
11116
11119
11118
11103
11064
11009
10954
10911
10888
10888
10906
10939
10959
10943
10903
10858
10810
10762
10728
10713
10713
10714
10708
10698
10699
10723
10750
10772
10800
10831
10850
10858
10870
10894
10909
10896
10860
10816
10775
10747
10729
10698
10655
10614
10587
10574
10567
10559
10546
10523
10486
10455
10437
10405
10339
10259
10208
10188
10165
10119
10061
10010
9976
9947
9902
9840
9752
9648
9552
9451
9354
9289
9258
9238
9219
9200
9184
9181
9189
9201
9210
9216
9222
9215
9173
9104
9051
9022
9005
8995
8973
8925
8865
8813
8777
8765
8758
8728
8675
8599
8506
8414
8345
8295
8250
8212
8195
8190
8172
8129
8071
8023
8009
8028
8060
8096
8141
8189
8224
8231
8210
8173
8146
8143
8158
8192
8254
8345
8457
8590
8735
8864
8976
9083
9195
9335
9493
9641
9791
9952
10095
10197
10280
10359
10438
10531
10631
10715
10771
10807
10815
10795
10764
10736
10722
10721
10712
10691
10671
10663
10674
10705
10729
10731
10731
10739
10748
10735
10708
10690
10676
10661
10627
10570
10508
10449
10412
10410
10434
10467
10488
10476
10445
10423
10432
10477
10525
10544
10555
10587
10620
10638
10656
10677
10699
10710
10689
10651
10612
10571
10553
10567
10583
10588
10579
10538
10463
10378
10299
10240
10196
10145
10093
10043
9997
9950
9891
9832
9770
9682
9574
9466
9383
9344
9342
9354
9360
9356
9339
9312
9281
9241
9181
9108
9035
8981
8944
8925
8921
8908
8880
8838
8791
8766
8768
8766
8745
8728
8724
8718
8691
8648
8623
8630
8641
8630
8592
8541
8487
8434
8392
8349
8296
8245
8210
8202
8217
8254
8314
8388
8457
8518
8586
8684
8813
8948
9090
9258
9424
9567
9706
9866
10036
10191
10340
10510
10674
10809
10927
11012
11066
11122
11172
11198
11206
11209
11224
11244
11249
11238
11218
11192
11171
11172
11174
11164
11147
11120
11097
11101
11133
11167
11197
11215
11202
11160
11115
11094
11086
11065
11029
10998
10994
11010
11024
11029
11037
11058
11065
11060
11060
11047
11020
10997
10982
10972
10964
10954
10929
10898
10879
10870
10881
10907
10915
10898
10878
10857
10826
10798
10763
10706
10635
10561
10496
10463
10449
10422
10390
10374
10362
10337
10297
10258
10233
10223
10219
10203
10159
10092
10025
9977
9935
9882
9805
9707
9610
9522
9429
9339
9260
9186
9115
9052
8982
8896
8801
8700
8596
8492
8381
8276
8185
8104
8032
7960
7884
7816
7775
7760
7749
7738
7745
7776
7814
7850
7893
7931
7946
7941
7911
7865
7818
7788
7799
7842
7899
7969
8055
8160
8288
8427
8574
8743
8933
9126
9307
9481
9662
9858
10048
10208
10347
10461
10556
10649
10726
10786
10832
10860
10877
10897
10920
10937
10947
10951
10955
10962
10960
10947
10936
10941
10964
11003
11054
11098
11116
11112
11106
11109
11125
11148
11165
11162
11123
11048
10950
10840
10725
10619
10539
10501
10504
10522
10530
10529
10534
10546
10554
10560
10568
10575
10575
10580
10604
10626
10636
10637
10620
10584
10533
10479
10444
10427
10417
10403
10377
10346
10322
10308
10289
10250
10185
10110
10058
10031
10000
9956
9916
9863
9779
9679
9592
9521
9442
9356
9266
9184
9132
9092
9042
8989
8943
8920
8917
8914
8900
8875
8841
8797
8736
8665
8602
8559
8536
8540
8558
8559
8540
8519
8500
8477
8442
8391
8335
8286
8247
8224
8206
8178
8145
8103
8048
7995
7965
7956
7947
7932
7905
7863
7825
7797
7770
7733
7693
7663
7640
7630
7629
7625
7626
7638
7655
7686
7732
7777
7825
7882
7945
8025
8133
8260
8394
8544
8706
8855
8980
9099
9230
9360
9481
9590
9678
9752
9818
9878
9939
9999
10055
10108
10170
10246
10329
10415
10492
10565
10632
10671
10677
10670
10666
10671
10687
10708
10727
10743
10759
10770
10769
10761
10745
10725
10709
10697
10677
10646
10615
10593
10590
10588
10566
10533
10501
10475
10460
10465
10477
10487
10509
10546
10588
10625
10652
10666
10661
10640
10614
10586
10545
10492
10447
10422
10415
10424
10440
10439
10406
10357
10313
10273
10233
10195
10151
10098
10059
10037
10019
9998
9964
9900
9806
9690
9570
9464
9379
9315
9264
9220
9188
9168
9141
9095
9041
8996
8964
8937
8915
8898
8880
8855
8832
8809
8781
8757
8730
8692
8658
8641
8631
8612
8595
8584
8566
8538
8519
8511
8490
8443
8385
8332
8285
8241
8204
8180
8155
8115
8066
8025
8009
8002
7986
7972
7962
7954
7954
7952
7933
7897
7851
7804
7762
7728
7705
7697
7707
7737
7784
7853
7956
8087
8227
8363
8497
8637
8782
8940
9108
9266
9407
9536
9655
9753
9829
9894
9946
9978
9995
10009
10035
10077
10120
10158
10208
10268
10318
10351
10371
10372
10365
10366
10369
10373
10389
10405
10410
10415
10435
10452
10462
10480
10492
10470
10413
10343
10270
10203
10151
10116
10106
10104
10093
10078
10071
10087
10128
10184
10241
10288
10316
10333
10345
10334
10313
10305
10300
10287
10278
10279
10279
10276
10272
10259
10224
10182
10166
10165
10161
10151
10127
10104
10081
10027
9945
9853
9750
9637
9534
9453
9385
9316
9252
9207
9175
9155
9146
9137
9119
9097
9082
9059
9023
8997
8989
8994
8999
8992
8975
8952
8921
8885
8856
8832
8805
8781
8753
8720
8699
8690
8670
8632
8583
8530
8476
8432
8400
8376
8360
8349
8335
8306
8273
8247
8225
8215
8212
8206
8199
8204
8229
8262
8293
8334
8401
8486
8581
8691
8820
8954
9078
9195
9316
9437
9568
9724
9895
10049
10164
10275
10399
10503
10584
10661
10735
10797
10833
10849
10859
10859
10862
10864
10843
10811
10797
10795
10784
10779
10795
10822
10847
10865
10890
10912
10909
10895
10890
10884
10864
10833
10801
10790
10789
10779
10762
10748
10745
10750
10760
10768
10766
10749
10722
10702
10694
10689
10687
10680
10667
10655
10645
10642
10645
10645
10633
10616
10616
10638
10654
10638
10598
10556
10528
10505
10471
10436
10407
10370
10322
10272
10214
10151
10100
10069
10058
10066
10073
10064
10038
10003
9966
9921
9872
9828
9777
9699
9613
9546
9503
9478
9459
9443
9436
9433
9414
9366
9304
9245
9177
9100
9034
8987
8948
8914
8893
8882
8866
8843
8821
8796
8764
8734
8713
8700
8699
8715
8736
8736
8696
8633
8562
8488
8425
8377
8339
8317
8313
8313
8302
8282
8268
8260
8254
8248
8245
8241
8232
8231
8250
8286
8335
8402
8481
8565
8658
8764
8885
9024
9175
9343
9524
9690
9830
9947
10054
10174
10316
10472
10624
10759
10867
10951
11015
11055
11078
11111
11168
11237
11293
11318
11313
11291
11257
11219
11187
11165
11163
11185
11218
11245
11262
11279
11302
11326
11361
11392
11389
11355
11303
11234
11152
11067
11008
10999
11031
11077
11119
11154
11177
11175
11149
11108
11065
11033
11020
11025
11042
11056
11070
11094
11119
11135
11146
11154
11151
11128
11100
11087
11083
11072
11051
11026
11001
10973
10942
10912
10881
10843
10802
10760
10716
10677
10645
10612
10581
10568
10568
10558
10530
10491
10434
10362
10297
10252
10225
10200
10172
10144
10108
10069
10039
10023
10022
10023
10007
9986
9973
9948
9899
9818
9713
9608
9524
9459
9397
9340
9294
9242
9186
9139
9103
9088
9100
9117
9118
9103
9081
9055
9020
8992
8978
8963
8931
8881
8832
8791
8762
8740
8711
8671
8625
8585
8568
8573
8588
8586
8563
8538
8506
8462
8412
8347
8274
8215
8164
8126
8116
8134
8167
8204
8245
8300
8370
8450
8535
8626
8732
8856
9001
9160
9319
9468
9613
9767
9906
10010
10091
10173
10260
10358
10474
10591
10706
10816
10886
10911
10922
10937
10952
10952
10925
10891
10877
10880
10894
10916
10929
10935
10953
10981
11021
11069
11090
11090
11107
11129
11123
11092
11042
10979
10919
10883
10880
10891
10899
10897
10884
10873
10867
10866
10867
10861
10841
10827
10849
10894
10919
10925
10936
10962
10994
11015
11034
11053
11045
11016
10987
10958
10945
10945
10934
10925
10919
10893
10835
10755
10685
10649
10630
10613
10598
10562
10489
10400
10317
10262
10235
10216
10195
10163
10113
10070
10054
10046
10024
9987
9943
9888
9814
9739
9672
9612
9567
9536
9515
9498
9477
9436
9370
9296
9233
9185
9150
9133
9109
9070
9031
9000
8981
8972
8975
8993
9019
9037
9039
9029
8997
8962
8943
8924
8899
8883
8876
8868
8841
8805
8778
8750
8706
8650
8604
8588
8597
8615
8630
8631
8628
8651
8699
8752
8821
8919
9032
9148
9260
9376
9513
9649
9763
9870
9989
10119
10248
10368
10485
10610
10734
10843
10923
10969
11001
11034
11058
11071
11080
11094
11113
11114
11098
11073
11039
11003
10985
10986
11007
11052
11101
11125
11127
11118
11094
11058
11012
10965
10931
10906
10901
10915
10918
10901
10883
10861
10836
10827
10828
10811
10768
10724
10704
10718
10745
10754
10739
10711
10676
10642
10609
10585
10584
10600
10620
10642
10663
10669
10652
10610
10563
10532
10518
10509
10481
10435
10397
10367
10339
10319
10300
10274
10242
10205
10186
10183
10169
10137
10087
10024
9970
9924
9855
9757
9661
9576
9492
9407
9335
9286
9248
9205
9164
9135
9114
9112
9135
9163
9172
9163
9144
9109
9071
9045
9027
9007
8980
8945
8915
8886
8848
8806
8770
8740
8702
8656
8609
8574
8545
8511
8490
8500
8531
8575
8613
8621
8596
8564
8551
8549
8557
8602
8676
8754
8847
8950
9045
9129
9217
9332
9471
9614
9752
9887
10021
10154
10295
10433
10546
10636
10710
10763
10791
10791
10780
10778
10785
10808
10851
10897
10921
10926
10924
10919
10928
10938
10929
10921
10939
10967
10981
10975
10967
10976
10984
10969
10947
10931
10921
10921
10927
10927
10906
10857
10802
10770
10762
10757
10734
10702
10693
10703
10709
10715
10721
10716
10700
10699
10712
10725
10737
10739
10727
10706
10676
10639
10617
10614
10609
10599
10583
10547
10498
10453
10413
10378
10350
10327
10309
10298
10293
10284
10279
10276
10256
10213
10159
10107
10060
10012
9956
9891
9804
9689
9558
9431
9325
9243
9192
9173
9161
9140
9128
9123
9108
9081
9052
9030
8998
8960
8936
8911
8874
8838
8812
8782
8744
8718
8717
8724
8705
8661
8620
8595
8577
8539
8485
8437
8401
8386
8395
8414
8415
8375
8304
8229
8150
8073
8003
7927
7849
7787
7745
7730
7744
7765
7784
7815
7852
7888
7937
8006
8087
8187
8310
8447
8581
8718
8872
9036
9190
9316
9409
9478
9534
9588
9640
9681
9721
9773
9832
9892
9945
9987
10006
10007
10022
10063
10135
10233
10347
10465
10575
10661
10720
10746
10742
10720
10687
10654
10633
10632
10652
10676
10681
10673
10667
10661
10640
10614
10591
10558
10499
10432
10387
10365
10352
10337
10328
10324
10314
10300
10301
10332
10359
10363
10352
10340
10338
10342
10357
10380
10395
10407
10409
10394
10357
10301
10239
10168
10094
10041
10004
9959
9892
9803
9701
9605
9530
9482
9451
9423
9388
9335
9270
9205
9134
9064
9009
8949
8871
8779
8683
8587
8485
8388
8315
8257
8198
8146
8113
8092
8064
8023
7993
7977
7962
7947
7928
7905
7883
7860
7834
7801
7770
7746
7724
7710
7696
7683
7690
7694
7679
7668
7669
7666
7655
7652
7647
7620
7570
7515
7472
7439
7415
7398
7382
7378
7389
7391
7380
7372
7369
7354
7340
7362
7430
7519
7606
7702
7810
7925
8047
8170
8287
8394
8506
8630
8758
8893
9021
9127
9221
9297
9357
9411
9453
9482
9511
9546
9578
9594
9604
9618
9641
9663
9682
9695
9693
9678
9661
9667
9699
9742
9783
9806
9807
9796
9776
9749
9704
9636
9552
9475
9432
9413
9390
9364
9353
9360
9376
9387
9380
9371
9383
9410
9427
9426
9427
9440
9454
9463
9474
9494
9508
9492
9446
9392
9339
9292
9246
9200
9168
9137
9086
9019
8948
8885
8846
8832
8822
8801
8766
8721
8691
8672
8647
8619
8591
8558
8511
8460
8419
8384
8360
8342
8312
8266
8213
8170
8133
8089
8034
7984
7950
7922
7902
7881
7839
7788
7743
7704
7668
7624
7569
7520
7495
7488
7473
7450
7435
7416
7390
7368
7352
7348
7363
7389
7423
7447
7437
7398
7345
7288
7242
7225
7240
7275
7305
7331
7375
7435
7506
7596
7704
7814
7929
8054
8185
8315
8438
8541
8622
8702
8805
8913
9005
9082
9150
9204
9241
9266
9275
9267
9247
9227
9228
9254
9289
9328
9369
9406
9437
9463
9474
9466
9444
9417
9390
9361
9329
9300
9293
9297
9294
9288
9276
9250
9221
9197
9171
9137
9112
9102
9081
9047
9022
9005
8986
8954
8912
8879
8858
8853
8863
8882
8909
8946
8983
8996
8977
8937
8885
8824
8763
8708
8671
8655
8650
8655
8663
8662
8650
8631
8609
8588
8555
8499
8431
8374
8349
8340
8328
8312
8277
8228
8198
8191
8190
8173
8131
8080
8038
7993
7939
7885
7834
7793
7774
7769
7772
7773
7763
7744
7727
7714
7694
7665
7631
7601
7582
7564
7538
7498
7451
7414
7390
7368
7340
7310
7288
7265
7228
7184
7137
7090
7054
7032
7016
7004
6993
6986
6974
6954
6935
6923
6917
6916
6924
6943
6975
7022
7073
7121
7167
7218
7284
7374
7483
7595
7711
7836
7959
8077
8194
8311
8428
8551
8678
8793
8881
8936
8973
9003
9035
9062
9071
9074
9069
9057
9061
9080
9111
9161
9212
9245
9271
9302
9324
9334
9336
9334
9330
9324
9311
9298
9292
9293
9286
9260
9229
9216
9221
9225
9216
9193
9152
9102
9062
9023
8989
8972
8963
8962
8959
8941
8928
8936
8952
8968
8984
8995
9008
9012
8999
8979
8959
8930
8878
8804
8717
8637
8575
8522
8481
8465
8451
8422
8393
8370
8340
8299
8256
8215
8177
8138
8086
8026
7962
7899
7858
7837
7824
7820
7818
7814
7809
7798
7771
7731
7682
7635
7585
7515
7437
7372
7323
7286
7269
7266
7258
7227
7179
7138
7110
7073
7025
6987
6973
6983
7011
7038
7054
7055
7041
7022
6995
6948
6897
6852
6802
6753
6714
6684
6661
6636
6607
6570
6522
6466
6417
6386
6361
6332
6306
6285
6268
6270
6293
6322
6366
6424
6479
6533
6589
6655
6751
6881
7031
7187
7345
7501
7642
7774
7917
8066
8210
8338
8439
8511
8543
8538
8525
8530
8548
8569
8585
8582
8564
8539
8517
8512
8524
8536
8530
8520
8517
8508
8503
8507
8509
8506
8492
8470
8443
8407
8363
8322
8299
8296
8303
8306
8292
8270
8260
8249
8225
8205
8201
8205
8222
8242
8256
8277
8296
8294
8266
8219
8175
8155
8144
8116
8080
8066
8078
8095
8091
8069
8037
8009
7989
7964
7938
7925
7915
7889
7859
7843
7830
7808
7788
7777
7774
7756
7707
7632
7537
7433
7346
7292
7253
7206
7154
7109
7082
7065
7045
7020
6995
6973
6960
6961
6967
6965
6959
6951
6932
6906
6888
6882
6874
6858
6831
6806
6793
6786
6782
6775
6757
6721
6672
6623
6570
6517
6483
6467
6451
6426
6403
6388
6373
6356
6345
6359
6403
6465
6542
6648
6772
6892
6999
7104
7215
7330
7448
7574
7708
7828
7915
7977
8036
8091
8129
8153
8177
8200
8216
8241
8273
8285
8272
8259
8256
8253
8253
8262
8284
8309
8334
8357
8367
8366
8361
8355
8349
8342
8329
8323
8329
8333
8339
8337
8311
8270
8228
8198
8182
8167
8148
8135
8135
8136
8127
8117
8113
8105
8094
8083
8068
8053
8052
8068
8072
8055
8025
7991
7971
7968
7970
7975
7972
7953
7937
7917
7881
7830
7773
7721
7682
7646
7606
7571
7546
7520
7492
7456
7410
7369
7341
7319
7290
7250
7214
7181
7136
7087
7053
7018
6970
6923
6891
6875
6861
6843
6823
6794
6769
6754
6725
6676
6613
6543
6475
6424
6397
6385
6377
6371
6359
6344
6343
6355
6351
6322
6281
6239
6203
6177
6159
6134
6107
6092
6083
6089
6129
6206
6312
6432
6546
6639
6717
6795
6889
7005
7130
7265
7410
7543
7654
7756
7860
7974
8086
8175
8234
8273
8311
8361
8420
8472
8496
8483
8441
8392
8355
8333
8326
8327
8340
8376
8416
8449
8475
8488
8481
8471
8473
8470
8457
8445
8433
8416
8394
8373
8349
8313
8268
8223
8186
8176
8192
8210
8213
8205
8205
8211
8202
8193
8200
8211
8216
8217
8213
8204
8189
8158
8109
8057
8020
8017
8035
8051
8058
8043
8005
7955
7887
7801
7711
7631
7578
7564
7570
7566
7543
7496
7441
7403
7391
7394
7398
7380
7336
7283
7233
7199
7171
7136
7103
7075
7038
6989
6943
6910
6892
6875
6837
6781
6730
6706
6702
6709
6721
6732
6734
6709
6668
6638
6602
6548
6501
6479
6471
6457
6425
6378
6319
6252
6184
6130
6094
6068
6048
6025
5997
5973
5945
5906
5867
5832
5803
5788
5778
5752
5707
5657
5609
5565
5537
5540
5587
5664
5761
5888
6060
6267
6488
6694
6865
7015
7166
7310
7433
7531
7603
7648
7671
7687
7710
7734
7758
7795
7836
7859
7872
7890
7903
7905
7910
7925
7938
7954
7979
7996
8007
8035
8071
8093
8097
8085
8068
8063
8069
8076
8074
8060
8035
8011
7990
7962
7929
7910
7905
7894
7887
7890
7896
7898
7891
7877
7868
7873
7880
7879
7870
7850
7831
7815
7784
7734
7682
7652
7650
7670
7696
7723
7740
7733
7707
7666
7614
7552
7483
7416
7346
7274
7198
7119
7053
7007
6975
6947
6922
6899
6877
6846
6797
6737
6672
6607
6558
6527
6512
6507
6502
6487
6463
6435
6406
6391
6400
6417
6422
6402
6365
6338
6321
6285
6234
6184
6126
6059
6006
5984
5977
5950
5903
5865
5837
5806
5785
5780
5783
5774
5739
5702
5674
5635
5585
5546
5518
5473
5418
5379
5349
5321
5292
5254
5203
5156
5123
5095
5076
5052
5026
5019
5017
5003
4988
4963
4930
4906
4890
4893
4944
5042
5173
5320
5457
5573
5673
5764
5856
5959
6069
6166
6252
6340
6428
6512
6590
6659
6725
6789
6835
6870
6907
6928
6930
6946
6978
7005
7017
7022
7030
7036
7032
7021
6995
6959
6933
6923
6922
6921
6917
6913
6899
6869
6826
6783
6746
6713
6691
6685
6681
6678
6667
6631
6579
6526
6476
6431
6403
6387
6378
6390
6415
6429
6434
6433
6424
6411
6398
6387
6380
6368
6350
6330
6312
6290
6265
6251
6244
6231
6206
6173
6137
6101
6071
6047
6026
6008
5994
5979
5962
5938
5901
5860
5823
5791
5765
5744
5717
5678
5632
5579
5530
5494
5463
5422
5371
5317
5269
5229
5200
5170
5125
5080
5050
5029
5009
4990
4979
4972
4961
4944
4917
4882
4854
4836
4822
4808
4794
4778
4755
4727
4694
4651
4593
4529
4477
4443
4424
4418
4420
4422
4416
4400
4380
4357
4342
4345
4356
4357
4361
4379
4418
4481
4567
4671
4788
4914
5046
5176
5299
5413
5516
5609
5700
5784
5856
5921
5984
6049
6108
6147
6165
6171
6172
6177
6177
6160
6122
6075
6039
6022
6021
6023
6022
6028
6042
6074
6116
6145
6158
6154
6139
6123
6102
6080
6059
6021
5968
5915
5868
5824
5775
5731
5708
5691
5664
5630
5608
5600
5594
5599
5618
5644
5675
5702
5723
5747
5773
5792
5798
5788
5765
5732
5693
5656
5620
5582
5542
5510
5492
5484
5475
5463
5448
5418
5378
5348
5325
5296
5257
5207
5153
5109
5070
5030
4989
4949
4905
4857
4809
4769
4736
4707
4690
4683
4680
4675
4659
4630
4600
4571
4534
4490
4450
4412
4373
4343
4325
4315
4303
4282
4255
4226
4201
4176
4150
4132
4121
4114
4104
4078
4037
3991
3951
3912
3873
3841
3822
3810
3790
3762
3735
3714
3702
3695
3701
3717
3732
3745
3759
3784
3845
3945
4058
4172
4303
4450
4599
4738
4868
4993
5113
5222
5311
5387
5455
5505
5538
5560
5577
5604
5634
5654
5660
5662
5664
5662
5657
5658
5666
5683
5705
5727
5744
5755
5762
5763
5757
5743
5720
5697
5674
5643
5605
5569
5544
5534
5529
5511
5474
5426
5381
5353
5349
5365
5385
5395
5392
5383
5370
5366
5371
5375
5383
5390
5379
5357
5347
5339
5315
5290
5277
5277
5288
5295
5291
5282
5269
5249
5225
5199
5166
5126
5089
5064
5037
4999
4966
4948
4929
4899
4866
4827
4777
4723
4677
4637
4603
4573
4545
4517
4490
4465
4440
4419
4400
4375
4348
4317
4282
4245
4208
4176
4152
4125
4091
4064
4046
4027
4002
3975
3947
3920
3899
3881
3861
3840
3823
3803
3775
3729
3673
3625
3585
3551
3530
3517
3514
3518
3524
3532
3532
3515
3487
3462
3444
3427
3411
3402
3388
3364
3349
3349
3355
3370
3407
3465
3537
3626
3733
3850
3969
4088
4215
4346
4472
4588
4702
4822
4944
5055
5147
5220
5274
5311
5338
5356
5363
5366
5366
5362
5355
5351
5357
5370
5381
5390
5397
5404
5412
5415
5415
5419
5426
5435
5443
5452
5459
5460
5450
5427
5403
5386
5373
5350
5319
5295
5277
5261
5252
5247
5241
5233
5224
5216
5207
5200
5199
5195
5182
5176
5194
5228
5262
5290
5310
5315
5307
5301
5299
5294
5285
5270
5248
5216
5185
5160
5136
5109
5084
5060
5034
5008
4980
4951
4920
4895
4872
4839
4800
4761
4722
4690
4662
4630
4596
4557
4512
4460
4407
4359
4324
4294
4264
4232
4201
4173
4151
4139
4131
4127
4125
4115
4101
4096
4101
4103
4096
4083
4072
4066
4051
4026
4003
3987
3970
3945
3918
3897
3876
3848
3818
3791
3774
3765
3760
3762
3770
3769
3770
3782
3793
3800
3820
3859
3909
3976
4052
4126
4209
4308
4414
4527
4641
4755
4880
5009
5135
5260
5374
5468
5538
5581
5604
5613
5614
5611
5610
5608
5608
5612
5616
5603
5578
5563
5567
5582
5602
5622
5636
5643
5638
5622
5604
5591
5570
5538
5511
5492
5480
5472
5461
5440
5414
5386
5359
5332
5308
5286
5262
5233
5201
5167
5131
5104
5102
5123
5162
5208
5253
5293
5318
5340
5370
5404
5435
5452
5442
5422
5405
5386
5366
5350
5323
5278
5227
5182
5143
5101
5060
5031
5009
4977
4941
4910
4878
4842
4805
4774
4759
4752
4734
4698
4660
4636
4620
4600
4576
4552
4530
4523
4532
4540
4535
4537
4548
4547
4533
4514
4482
4446
4421
4403
4382
4363
4348
4339
4333
4325
4321
4323
4324
4321
4319
4315
4312
4310
4290
4250
4207
4164
4117
4063
4012
3971
3935
3902
3867
3838
3826
3829
3827
3811
3789
3769
3759
3760
3762
3763
3766
3771
3786
3824
3890
3978
4075
4171
4276
4397
4532
4676
4806
4913
5003
5090
5185
5279
5364
5442
5510
5571
5627
5664
5675
5678
5679
5675
5672
5672
5673
5688
5716
5748
5782
5809
5824
5835
5838
5832
5823
5810
5802
5804
5809
5812
5806
5786
5765
5755
5754
5757
5766
5775
5783
5787
5782
5766
5751
5745
5742
5752
5784
5822
5856
5884
5908
