23213
23173
23053
22995
22979
22842
22999
22932
22743
22556
22836
22807
22589
22493
22643
22562
22584
22553
22692
22433
22506
22533
22623
22555
22421
22451
22593
22351
22391
22574
22589
22601
22487
22739
22561
22402
22520
22595
22520
22651
22682
22586
22601
22676
22895
22864
22686
22836
22948
22809
22777
22909
22831
22781
22850
22975
23024
22861
22813
23046
22930
22969
22996
22845
22799
22736
22825
22893
23057
22929
23082
23029
23074
23169
23107
23263
22980
23066
23332
23160
23020
23203
23109
23250
23230
23255
23280
23076
23203
23256
23251
23062
23182
23124
23161
23192
23320
23424
23302
23139
23391
23390
23373
23331
23508
23335
23495
23443
23447
23551
23301
23483
23644
23418
23386
23610
23526
23539
23488
23594
23571
23499
23440
23614
23739
23470
23637
23801
23644
23614
23678
23689
23674
23790
23819
23764
23667
23690
23769
23724
23626
23711
23849
23701
23684
23557
23716
23554
23403
23592
23497
23166
23102
23271
23157
23005
22955
23029
22943
22866
22975
22829
22867
22593
22866
22861
22675
22679
22703
22624
22668
22566
22656
22686
22525
22724
22659
22658
22507
22700
22604
22625
22522
22713
22646
22609
22632
22776
22712
22625
22721
22808
22754
22642
22863
22925
22925
22733
22966
22826
22765
22944
22993
22960
22907
22948
22990
23160
22968
23083
23267
23008
23130
23229
23211
23029
23255
23228
23019
22904
23157
23173
23038
23125
23129
23051
23150
23227
23373
23311
23211
23193
23415
23352
23270
23454
23352
23505
23556
23614
23655
23547
23425
23600
23461
23644
23523
23764
23597
23525
23770
23746
23607
23697
23843
23897
23633
23696
23769
23759
23740
23742
23811
23880
23773
23940
24107
23974
23783
23981
24045
23980
23830
23992
23928
23956
23926
24115
24041
24005
24045
24061
24106
24020
24092
24343
24105
24267
24401
24307
24291
24371
24469
24292
24274
24312
24339
24285
24162
24180
24136
24081
23901
23879
24015
23760
23704
23630
23595
23375
23522
23713
23489
23414
23393
23309
23354
23252
23369
23220
23165
23029
23322
23140
23072
23000
23127
22999
22979
23067
23016
23037
22976
23174
23124
23121
23105
23141
23299
23173
23156
23373
23384
23201
23420
23370
23376
23286
23427
23287
23205
23148
23363
23298
23287
23263
23228
23227
23257
23392
23432
23380
23278
23419
23389
23364
23229
23598
23576
23540
23521
23638
23615
23554
23573
23728
23460
23333
23551
23665
23642
23430
23704
23481
23512
23549
23545
23694
23487
23616
23748
23688
23523
23775
23844
23756
23622
23762
23844
23759
23734
23877
23769
23635
23776
23860
23782
23623
23810
23974
23715
23753
23955
24020
23838
23812
23988
23962
23995
24109
24119
24045
23946
24058
24283
24237
23967
24101
24197
24085
24195
24212
24341
24253
24049
24129
24270
24185
24284
24473
24308
24336
24349
24208
24235
24321
24390
24339
24086
24146
24242
24004
23833
23884
23870
23778
23425
23656
23557
23404
23312
23271
23325
23179
23256
23405
23155
23265
23185
23106
23171
23044
23157
23073
23066
23033
23172
23009
22963
22997
23200
23059
23060
22860
23172
23036
23069
23022
23049
22973
22976
23259
23269
23178
23274
23317
23349
23187
23466
23287
23327
23169
23389
23491
23283
23361
23485
23259
23326
23150
23472
23347
23154
23277
23496
23295
23211
23406
23412
23371
23470
23487
23328
23450
23411
23582
23530
23396
23512
23710
23572
23485
23557
23499
23470
23385
23598
23537
23694
23670
23737
23813
23708
23690
23715
23780
23644
23818
23819
23742
23762
23841
23811
23990
23866
23998
24005
23905
23927
24062
23881
23735
23997
24087
23944
23925
23943
23952
24010
23845
24078
24084
24036
24053
24128
24154
24113
24240
24356
24269
24156
24370
24252
24154
24159
24226
24387
24214
24265
24224
24176
24213
24199
24282
24357
24243
24333
24309
24255
24233
24226
24239
24141
24006
24033
23944
23696
23766
23815
23623
23356
23482
23251
23219
23220
23185
22999
23065
22937
22994
23121
22840
22878
23095
23053
22933
22857
23069
22761
22977
23042
22776
22788
22850
22915
22825
22762
22722
22757
22777
22731
22818
22780
22814
22786
22901
22852
22948
22807
23052
22813
22925
22934
23170
23135
23000
23119
22963
23122
23042
23015
23048
23155
22998
22971
23180
22968
23017
23191
23088
22890
23042
23213
23050
23107
23165
23316
23036
23158
23259
23220
23258
23205
23182
23243
23349
23262
23226
23244
23217
23333
23239
23247
23123
23333
23262
23363
23207
23508
23391
23273
23359
23644
23425
23263
23597
23497
23585
23610
23618
23551
23539
23488
23648
23550
23632
23640
23625
23650
23510
23712
23805
23765
23609
23750
23766
23790
23886
23830
23771
23858
24020
23955
23933
23966
24022
24095
23905
24019
24192
23993
24123
24095
24241
24126
24130
24098
24149
24094
24125
24130
24115
24098
24095
24055
24125
24087
23841
24043
24050
23806
23811
23661
23633
23370
23541
23608
23301
23230
23340
23187
23027
23124
23207
23021
22900
22844
23149
22890
22996
22942
23084
23054
22930
22973
22820
22957
22781
22907
22945
22848
22740
22993
22909
22669
22889
22749
22823
22777
22877
22756
22895
22949
22957
23069
23007
22843
23095
22992
23087
22959
23071
23010
23104
23142
22986
22982
22916
23047
23064
23179
23128
23194
23202
23140
23171
23146
23231
22948
23193
23285
23064
23211
23334
23136
23104
23305
23390
23148
23157
23280
23498
23465
23339
23253
23489
23394
23302
23332
23262
23356
23238
23426
23455
23414
23346
23400
23408
23505
23503
23497
23504
23627
23698
23570
23591
23566
23651
23794
23611
23709
23766
23736
23571
23750
23738
23811
23592
23788
23873
23666
23723
23771
23730
23744
23716
23851
23787
23737
23775
23824
23825
23767
23854
23831
23807
23916
23895
23902
23801
23922
23874
23818
23725
23754
23857
23792
23867
23853
23910
23997
23953
23852
23971
23696
23628
23910
23766
23474
23409
23426
23357
23159
23320
23110
23208
23134
23147
23184
23028
22787
22847
22980
22827
22848
23054
22897
22892
22834
22987
22752
22719
22810
22861
22689
22838
22735
22712
22636
22726
22711
22727
22816
22763
22962
22754
22650
22921
23029
22996
22762
23009
23148
22952
23105
22958
23190
23107
23075
23214
23055
23060
23201
23036
23209
23142
23168
23197
23145
23056
23142
23213
23034
23138
23336
23302
23226
23421
23512
23297
23220
23408
23331
23445
23371
23445
23468
23377
23648
23712
23597
23448
23629
23736
23596
23579
23539
23688
23512
23671
23779
23619
23623
23688
23753
23817
23813
23861
23890
23704
23702
23885
24013
23965
23879
23869
24010
23913
23925
23964
23987
23763
24014
23926
23864
24048
23917
23942
23988
24085
24015
23987
24011
24025
24092
24137
24271
24205
24126
24276
24298
24261
24292
24179
24273
24487
24403
24366
24442
24404
24355
24331
24411
24573
24521
24314
24438
24577
24426
24454
24544
24333
24218
24213
24277
24185
23843
23977
23976
23879
23855
23751
23760
23462
23373
23498
23367
23244
23287
23242
23164
23185
23141
23275
23329
23242
23226
23361
23079
23290
23400
23115
23120
23189
23216
23269
23152
23125
23319
23118
22927
23189
23322
23201
23066
23261
23362
23333
23192
23336
23461
23161
23444
23552
23476
23286
23540
23487
23369
23500
23391
23495
23302
23449
23436
23604
23478
23456
23479
23489
23424
23560
23600
23454
23649
23555
23781
23512
23518
23783
23781
23634
23696
23768
23717
23656
23714
23764
23698
23616
23854
23772
23810
23581
23774
23739
23810
23797
23934
23788
23681
23859
24007
23890
23801
23890
23923
23998
23904
24065
24007
23835
23795
24038
24083
23918
24017
24056
23902
23901
24040
24145
23980
23869
24024
24010
23988
23937
24153
24040
24024
24098
24174
24133
24118
24190
24166
24174
24195
24151
24308
24143
24027
24350
24199
24250
24314
24255
24261
24055
24316
24280
24076
24177
24282
24162
24159
23965
24112
24106
23847
23926
23821
23563
23573
23524
23429
23392
23089
23277
23274
23036
22934
23094
23031
22846
22974
23045
22888
22744
22875
22852
22831
22783
22848
23070
22903
22682
23009
22885
22761
22868
22951
22906
22827
22847
22959
22839
22800
22898
23003
22986
22973
23055
23107
23010
22967
23078
23005
22969
23048
23207
23047
23084
23142
22979
23141
22947
23192
22941
22984
23113
23042
22929
23008
23131
23038
23078
22913
23028
23085
23050
23071
23335
23103
23248
23203
23233
23304
23116
23220
23431
23266
23149
23351
23401
23309
23165
23407
23328
23309
23207
23353
23506
23311
23309
23517
23399
23409
23419
23544
23477
23475
23561
23682
23460
23679
23671
23705
23669
23615
23621
23631
23674
23659
23612
23652
23559
23738
23729
23653
23781
23803
23896
23798
23712
23885
23840
23772
23914
23947
23845
23850
23943
23958
23934
23895
23980
23892
23958
23960
24031
23931
24002
24000
24133
24033
23992
24070
24133
24095
23966
24109
24100
24009
23950
24126
23743
23797
23862
23762
23633
23496
23521
23429
23250
23281
23227
23241
23113
23046
23149
23028
22907
23000
22995
22927
22859
22944
22954
22857
22853
22927
22882
22770
22964
22859
22973
22843
22935
22935
22749
22732
22778
22871
22930
22843
22889
22899
22915
22982
22962
23080
23035
22931
23198
23031
23164
23108
23071
23146
23120
23168
23204
23048
23176
23166
23198
23047
23152
23283
23221
23227
23236
23178
23229
23346
23294
23259
23248
23233
23412
23276
23379
23590
23469
23645
23423
23429
23610
23415
23592
23467
23593
23503
23384
23543
23713
23465
23509
23853
23700
23741
23676
23868
23780
23865
23893
23908
23747
23694
24007
23982
23831
23730
24054
24017
23950
23985
23935
23978
24011
24042
24069
24044
23904
23995
23934
23941
24098
24115
24000
24011
24221
24350
24320
24219
24190
24402
24381
24193
24381
24520
24263
24470
24573
24565
24412
24375
24551
24390
24345
24436
24643
24433
24414
24761
24582
24584
24500
24789
24624
24530
24597
24747
24610
24567
24533
24431
24300
24112
24262
24071
24060
23868
23998
23788
23747
23609
23839
23619
23458
23520
23391
23384
23375
23335
23355
23412
23322
23302
23370
23166
23176
23345
23175
23109
23312
23165
23161
23184
23170
23132
23221
23005
23234
23346
23209
23153
23408
23410
23308
23317
23470
23293
23414
23368
23505
23343
23447
23527
23511
23490
23298
23382
23515
23478
23519
23354
23501
23521
23590
23603
23358
23600
23429
23455
23460
23537
23585
23586
23471
23456
23639
23523
23502
23624
23729
23506
23645
23575
23580
23582
23586
23653
23628
23713
23636
23865
23711
23730
23762
23870
23659
23752
23716
23782
23672
23740
23835
23741
23932
23796
23872
23925
23709
23758
23839
23752
23799
23845
23784
23985
23975
23873
23920
23769
24011
23994
24026
24070
24045
24115
24058
23935
24081
24138
24099
24048
24184
24036
24135
24127
24312
24187
24097
24250
24147
24176
24108
24102
24270
24247
24127
24222
24316
24143
24286
24344
24283
24186
24275
24054
24124
23916
23926
23764
23700
23487
23605
23546
23323
23301
23335
23292
23180
23193
23214
23070
22907
23098
22956
23049
23031
22962
22934
22807
22793
22986
22849
22903
22807
22941
22853
22774
22852
22859
22871
22796
22837
22767
22919
22752
22958
22869
22839
23026
23105
23055
22991
23105
23102
22943
22995
23092
22978
22945
22865
23092
23136
23023
22970
22987
23068
23103
23139
23237
23067
23054
23197
23199
23174
23083
23290
23173
23054
23257
23244
23270
23181
23304
23429
23343
23314
23393
23334
23379
23281
23249
23249
23344
23251
23188
23395
23364
23336
23346
23412
23252
23422
23397
23534
23340
23686
23533
23541
23524
23672
23550
23523
23480
23602
23676
23520
23704
23573
23688
23562
23565
23785
23686
23598
23594
23692
23533
23730
23917
23787
23801
23827
23807
23833
23650
23819
23925
23849
23715
23999
23879
23617
23904
23781
23867
23701
23934
23960
23898
23868
23971
23860
23803
24042
23912
23984
24003
23839
23997
23931
23927
23994
23900
23666
23636
23718
23434
23484
23467
23490
23383
23205
23148
22991
23083
22921
22994
22917
22942
22853
22912
22896
22835
22836
22801
22906
22770
22749
22954
22766
22667
22817
22860
22613
22703
22796
22882
22814
22552
22778
22784
22735
22623
22988
22929
22752
22899
22861
23013
23014
22910
23118
22920
23003
22963
23087
23025
22907
23129
23025
23046
23045
23061
23048
22986
23097
23125
23172
23130
23153
23121
23311
23318
23423
23374
23081
23291
23308
23267
23316
23481
23491
23402
23412
23388
23577
23300
23406
23563
23414
23321
23557
23461
23598
23416
23671
23773
23696
23566
23620
23794
23611
23789
23699
23786
23702
23770
23790
23813
23733
23799
23831
23875
23758
24003
23816
23786
23991
23912
24002
23882
23933
24018
24121
24056
24161
24017
24067
23962
24269
24223
24120
24117
24216
24104
24080
24138
24232
24193
24082
24310
24170
24232
24084
24286
24264
24269
24192
24333
24339
24290
24266
24386
24350
24269
24381
24418
24394
24242
24417
24230
24204
24211
24259
23946
23872
23870
23841
23651
23622
23665
23602
23452
23407
23526
23418
23259
23155
23436
23300
23126
23096
23387
23209
22998
23107
23047
23047
22897
23024
22957
23109
23020
23156
22945
23098
23016
23055
23162
23114
22997
23089
23224
23053
23278
23187
23286
23066
23204
23220
23150
23187
23283
23254
23245
23225
23248
23285
23085
23248
23285
23269
23237
23400
23182
23236
23120
23403
23277
23391
23287
23417
23277
23410
23363
23450
23386
23343
23500
23380
23385
23401
23504
23413
23350
23308
23439
23501
23486
23532
23653
23561
23489
23647
23590
23609
23585
23687
23664
23723
23572
23611
23628
23696
23805
23869
23652
23484
23681
23669
23786
23693
23733
23680
23868
23796
23754
23935
23704
23851
23940
23974
23940
23981
24159
23986
23924
24072
23926
23913
23958
24175
24013
23988
23966
23903
23997
23981
24072
24166
24099
23880
24107
24249
23981
24009
24160
24325
24205
24107
24173
24165
24203
24260
24224
24188
24159
24070
24262
24103
24039
24081
23894
23732
23693
23631
23521
23366
23532
23454
23358
23035
23320
23159
22961
23016
23176
23031
22762
22950
23104
22851
22696
22869
22751
22735
22718
22785
22753
22791
22746
22822
22677
22759
22707
22704
22839
22852
22808
22894
22892
22743
22944
23037
22989
22735
22922
22932
22907
22806
23100
22785
22764
22856
22982
22922
23051
23009
22977
22905
23077
23204
23142
22944
23138
23262
23100
23011
23200
23358
23188
22996
23077
23353
23129
23244
23292
23303
23225
23085
23117
23247
22965
23206
23179
23324
23175
23419
23447
23255
23160
23307
23378
23250
23268
23408
23526
23319
23402
23359
23388
23244
23487
23396
23517
23340
23379
23497
23530
23469
23432
23618
23586
23664
23512
23553
23507
23612
23770
23784
23684
23660
23659
23611
23735
23798
23715
23664
23799
23825
23828
23830
23761
23925
23858
23868
23923
23892
23809
23911
24103
24115
24041
24010
24211
24053
23872
24085
24024
24146
24018
24165
24007
24056
24164
24253
24178
23995
24160
24001
23985
23856
23968
23938
23751
23522
23793
23599
23557
23318
23342
23369
23203
23365
23129
23121
22975
23121
23101
22943
22873
22968
22862
22905
22809
22951
23017
22920
22750
23053
22767
22817
22793
22925
22873
22702
22805
22850
22835
22739
22783
22714
22723
22837
22763
22893
22733
22865
22976
22813
22836
22876
22909
22874
22793
22930
23013
22891
22952
22997
22932
22953
22955
22965
23007
23030
23107
22940
23039
22867
22998
23176
23001
22911
23206
23211
23068
23256
23211
23237
23257
23306
23278
23240
23112
23494
23331
23416
23385
23394
23504
23291
23334
23411
23519
23402
23456
23603
23518
23253
23665
23625
23513
23370
23676
23682
23527
23609
23816
23742
23565
23836
23643
23692
23562
23760
23820
23867
23896
23977
23847
23830
23946
24116
24088
23784
24090
24018
24056
23849
24169
24023
24075
24142
24070
24229
24183
24217
24312
24233
24329
24300
24444
24360
24202
24424
24492
24290
24195
24468
24496
24463
24369
24325
24342
24332
24258
24322
24194
24078
24027
23935
23942
23681
23697
23707
23476
23616
23620
23371
23446
23527
23438
23342
23256
23163
23063
23216
22963
23058
23061
23022
22855
22908
23039
22877
22932
22874
22940
22771
22999
23106
22929
22987
23132
23069
23092
23078
23181
23131
22958
23068
23274
23193
23021
23183
23086
23278
23021
23348
23050
23279
23145
23190
23187
23200
23389
23447
23428
23159
23281
23465
23349
23186
23418
23347
23230
23215
23394
23358
23282
23189
23251
23284
23191
23343
23541
23368
23257
23489
23300
23334
23282
23559
23406
23454
23395
23538
23515
23556
23563
23476
23483
23491
23530
23427
23439
23368
23555
23491
23464
23375
23631
23484
23200
23408
23364
23564
23461
23491
23591
23638
23535
23699
23629
23670
23496
23556
23560
23545
23628
23511
23435
23294
23459
23359
23420
23460
23544
23557
23299
23504
23612
23364
23384
23383
23611
23544
23401
23544
23609
23447
23418
23602
23477
23452
23390
23594
23429
23307
23350
23218
23285
23032
23075
22980
23049
22994
22771
22704
22577
22746
22752
22691
22438
22645
22561
22452
22361
22346
22366
22335
22245
22359
22167
22278
22281
22120
22221
22124
22067
22148
22186
22274
22321
22368
22206
22225
22304
22493
22320
22279
22589
22579
22438
22592
22452
22479
22404
22682
22709
22556
22592
22566
22483
22465
22617
22782
22789
22534
22737
22725
22841
22607
22915
22783
22941
22930
23010
22895
22968
22989
22970
22973
23001
22965
22916
23026
22888
22976
23132
22941
22919
23069
23172
23094
23030
23243
23218
23144
23058
23197
23236
23155
23327
23498
23441
23358
23389
23439
23498
23347
23427
23436
23455
23363
23371
23525
23398
23535
23353
23371
23285
23569
23545
23536
23399
23568
23403
23554
23580
23649
23576
23473
23586
23744
23578
23559
23534
23441
23589
23542
23560
23566
23500
23407
23447
23596
23415
23496
23710
23563
23590
23672
23572
23545
23462
23602
23619
23537
23539
23660
23751
23671
23712
23603
23644
23298
23566
23415
23269
23075
23318
23203
23103
22876
22870
22975
22741
22634
22627
22607
22617
22570
22560
22553
22324
22546
22452
22373
22198
22350
22360
22303
22210
22266
22225
22245
22166
22129
22205
22029
22214
22098
22116
22258
22374
22321
22332
22422
22464
22541
22298
22527
22605
22545
22420
22572
22435
22527
22450
22603
22495
22637
22534
22614
22714
22492
22669
22682
22757
22632
22801
22753
22814
22667
22886
22887
22807
23038
23005
22987
22980
22907
23112
23085
22999
22921
23026
23029
22956
23004
23229
23007
23032
23147
23255
23186
23405
23290
23305
23166
23375
23496
23466
23272
23381
23413
23453
23322
23518
23397
23327
23361
23461
23447
23369
23461
23452
23506
23390
23632
23687
23570
23485
23778
23789
23535
23741
23863
23749
23649
23634
23819
23854
23672
23813
23768
23680
23612
23897
23717
23652
23806
23646
23667
23639
23707
23762
23807
23747
23885
23826
23894
23853
23943
23883
23778
23795
24019
23857
23632
23790
23702
23678
23646
23683
23495
23384
23199
23344
23286
23074
23118
23133
22972
22692
22842
22654
22672
22461
22646
22630
22501
22370
22482
22490
22327
22280
22433
22300
22210
22219
22251
22187
22000
22176
22125
22100
22192
22378
22155
22213
22358
22393
22302
22283
22344
22620
22460
22432
22560
22705
22686
22429
22739
22643
22479
22577
22777
22652
22619
22592
22847
22653
22682
22795
22731
22791
22573
22814
22762
22668
22810
22913
22846
22594
22791
22904
22724
22519
22659
22594
22549
22420
22678
22655
22599
22554
22537
22596
22383
22536
22675
22497
22524
22533
22698
22541
22550
22608
22668
22648
22499
22628
22733
22513
22735
22523
22618
22622
22691
22797
22629
22698
22709
22693
22690
22740
22876
22818
22824
22955
23122
23062
22931
23065
23014
23063
23134
23147
23239
23095
23159
23138
23145
23077
23016
23274
23019
22908
22994
23068
23001
22987
23040
23099
23152
23081
23240
23126
23075
23263
23168
23258
23069
23140
23358
23111
23100
23155
23164
23040
22754
22963
22641
22577
22577
22535
22485
22256
22296
22453
22276
22225
22245
22180
22071
21983
22029
22093
21951
22059
21919
21951
21777
21833
22070
21779
21790
21844
21761
21782
21592
21706
21776
21736
21630
21787
21783
21801
21722
21841
21669
21778
21710
21858
21792
21570
21698
21622
21705
21650
21850
21653
21538
21547
21652
21565
21511
21726
21750
21603
21814
21687
21812
21675
21865
21769
21873
21899
21848
21995
21939
21945
21879
21827
21993
21828
22059
22017
21941
21998
22043
22035
21907
22045
22239
22096
22159
22180
22356
22137
22064
22333
22250
22232
22134
22456
22333
22277
22524
22364
22380
22340
22326
22417
22357
22206
22275
22225
22412
22277
22262
22451
22304
22437
22540
22343
22277
22392
22532
22408
22549
22511
22493
22588
22376
22432
22521
22384
22515
22450
22453
22349
22424
22637
22594
22590
22601
22521
22675
22665
22788
22761
22747
22568
22701
22618
22660
22768
22806
22796
22546
22769
22825
22717
22475
22587
22537
22483
22392
22455
22352
22244
21990
21977
22028
21932
21896
21768
21860
21735
21719
21635
21774
21793
21638
21697
21545
21571
21616
21499
21410
21597
21617
21519
21275
21358
21440
21396
21514
21339
21446
21449
21436
21411
21528
21548
21635
21562
21512
21472
21777
21751
21631
21679
21932
21933
21808
21899
21909
22018
21826
21863
21928
21867
21773
21891
21926
21930
21985
22132
22060
22152
21983
21976
22148
22105
22170
22219
22282
22031
22345
22310
22374
22223
22339
22289
22286
22412
22454
22532
22198
22335
22293
22335
22377
22424
22536
22323
22346
22421
22273
22389
22387
22478
22391
22456
22349
22321
22332
22249
22488
22462
22378
22431
22494
22310
22503
22228
22450
22569
22491
22444
22498
22529
22506
22398
22488
22414
22593
22532
22654
22516
22485
22731
22814
22708
22759
22720
22763
22817
22779
22861
22824
22864
23081
22860
22987
22991
23017
23122
23052
23137
23078
23197
23093
23222
23121
23208
23276
23223
23210
23000
23027
23059
22881
22678
22754
22757
22510
22227
22389
22241
22192
22228
22070
22018
21996
21848
22050
22072
21970
21889
21946
21756
21786
21781
21715
21804
21818
21761
21683
21725
21653
21544
21517
21597
21579
21616
21592
21579
21567
21509
21562
21599
21525
21431
21489
21610
21647
21664
21505
21552
21858
21709
21790
21687
21686
21781
21929
22034
22101
22006
21832
22122
22226
22150
22055
22324
22198
22160
22256
22205
22173
22029
22321
22073
22125
22214
22226
22242
22159
22349
22425
22303
22259
22363
22519
22452
22502
22415
22664
22567
22602
22679
22819
22804
22803
22752
22802
22808
22759
22824
22730
22581
22689
22641
22701
22714
22736
22641
22667
22622
22671
22722
22578
22849
22760
22798
22688
22953
22798
22815
22785
23027
23094
23064
22994
22984
22897
22988
22926
23258
23024
23009
23149
23102
23051
23127
23146
23024
23087
23144
23235
23035
23045
23172
23280
23311
23274
23412
23564
23539
23363
23495
23537
23475
23482
23585
23382
23272
23227
23413
23284
22982
23111
23002
22828
22758
22785
22722
22475
22328
22617
22403
22326
22492
22399
22372
22394
22441
22374
22287
22135
22152
22184
22251
22024
22128
22055
21924
22077
22152
22010
22092
22122
22237
22141
21988
22323
22316
22339
22366
22271
22249
22246
22356
22477
22423
22219
22331
22572
22489
22442
22394
22482
22380
22315
22500
22300
22452
22364
22584
22615
22379
22312
22490
22456
22268
22430
22564
22410
22298
22388
22415
22404
22360
22350
22384
22450
22385
22479
22372
22199
22377
22300
22397
22439
22401
22307
22321
22289
22382
22527
22412
22369
22413
22434
22338
22625
22490
22631
22530
22613
22516
22544
22669
22751
22521
22510
22614
22647
22504
22602
22557
22733
22561
22649
22772
22617
22748
22743
22826
22777
22784
22807
22840
22798
22819
22815
22776
22895
22933
22917
22846
22900
22776
22936
23006
22844
22977
23201
23022
23090
22981
23060
23029
23046
23048
23191
23176
22948
23035
23156
22965
23039
23094
22940
22740
22744
22787
22718
22624
22459
22571
22265
22410
22283
22355
22129
22139
22240
22075
21952
21950
22100
21797
21677
21838
21647
21806
21583
21658
21479
21443
21424
21650
21512
21263
21482
21319
21478
21286
21343
21318
21231
21379
21496
21475
21220
21349
21530
21348
21317
21362
21524
21366
21463
21429
21402
21403
21421
21456
21350
21487
21536
21391
21518
21531
21562
21426
21487
21580
21620
21636
21567
21407
21730
21675
21631
21695
21819
21814
21822
21755
21774
21793
21875
21918
21850
21935
21701
21992
21932
21735
22029
21890
21849
21840
21926
22175
21950
21927
21963
21922
22100
21900
22050
22029
22109
22160
22045
22180
21995
22101
22006
22066
22103
22061
22224
22053
21925
22167
22141
22128
21977
22136
22094
22114
21969
22085
22292
22184
22074
22167
22317
22269
22399
22250
22302
22471
22457
22452
22328
22467
22698
22423
22474
22412
22487
22352
22385
22431
22455
22362
22072
22174
22022
22025
21853
21912
21734
21731
21686
21536
21548
21518
21622
21587
21390
21204
21379
21193
21195
21276
21324
21093
20977
21044
21089
21065
21077
21081
21100
20894
21064
21005
21004
20874
20929
20984
21111
20864
21122
21213
21101
20956
21210
21329
21204
21173
21211
21304
21144
21149
21279
21302
21307
21330
21144
21276
21346
21288
21377
21179
21057
21171
21145
21154
21234
21260
21199
21400
21200
21381
21386
21318
21380
21416
21364
21220
21410
21493
21452
21390
21562
21334
21315
21348
21478
21397
21423
21414
21419
21424
21497
21591
21499
21454
21542
21723
21680
21706
21540
21620
21712
21634
21596
21840
21542
21666
21694
21863
21760
21802
21838
21835
21547
21569
21868
21830
21643
21776
21609
21742
21800
21735
21676
21676
21958
21997
21873
21884
21923
21979
21904
21899
21929
21875
22006
21920
21897
21985
21962
21800
21864
21871
21839
21948
22136
22040
21797
22039
21997
21864
21908
21803
21919
21645
21835
21790
21758
21594
21289
21447
21427
21048
21096
21123
21220
21095
21183
21067
21058
20842
21000
21051
20863
20970
21038
20958
20652
20848
20766
20781
20573
20787
20893
20838
20657
20788
20943
20814
20729
20865
20745
20849
20836
20684
20760
20678
20848
20872
20756
20948
21120
20889
20904
21127
21037
20979
20854
21044
21216
21020
21058
21048
20986
21041
21091
21103
20994
21177
21031
21316
21220
20966
21040
21071
21195
21336
21354
21498
21336
21344
21497
21310
21428
21426
21573
21523
21253
21355
21352
21547
21264
21541
21393
21400
21606
21451
21685
21433
21408
21577
21584
21434
21634
21790
21649
21453
21782
21885
21757
21725
21750
21723
21639
21562
21790
21911
21612
21820
21907
21853
21672
21729
21841
21903
21605
21965
21811
21878
21854
22030
21859
21979
21842
21977
21980
22003
22006
22138
22012
21959
22050
21973
22028
22124
22058
22064
22032
22068
22196
21959
22112
21952
21899
21881
21966
21997
22008
21795
21761
21613
21517
21499
21641
21410
21402
21354
21168
21147
21103
20927
21154
21161
20975
20738
20863
21102
20941
20873
20795
20936
20717
21019
20993
20953
20995
20962
20979
20925
20959
20978
21126
20890
20892
20919
20916
21073
21055
21156
21062
20889
21157
21231
21164
21080
21146
21178
21329
21088
21421
21166
21338
21313
21457
21490
21165
21465
21269
21343
21287
21293
21274
21516
21397
21326
21542
21524
21415
21496
21529
21398
21541
21430
21457
21361
21593
21517
21619
21628
21589
21593
21553
21838
21655
21753
21723
21692
21883
21792
21794
21807
21936
21802
21797
21688
21881
21853
21886
21855
21860
21896
21870
22082
21956
21872
22003
21857
21917
22082
21951
22034
21939
22002
21853
21977
21800
21998
21946
22002
21846
22128
21936
22151
21936
22262
22193
22059
22219
22091
22261
22346
22266
22380
22347
22300
22378
22457
22241
22171
22453
22292
22268
22209
22263
22325
22329
22414
22513
22295
22146
22205
22413
22079
22125
22260
21948
22018
21944
21957
21941
21825
21766
21802
21601
21380
21565
21458
21455
21200
21336
21133
21104
21121
21220
21072
21157
21196
21193
21165
21108
21226
21294
21223
21239
21258
21355
21229
21128
21319
21133
21101
21028
21188
21081
21019
21064
21312
21185
21214
21366
21381
21139
21219
21473
21401
21162
21464
21621
21400
21359
21426
21338
21342
21442
21630
21369
21410
21546
21492
21398
21536
21409
21388
21505
21562
21630
21488
21620
21608
21738
21745
21524
21525
21651
21793
21775
21682
21830
21753
21587
21841
21715
21836
21896
21858
21774
21721
21652
21977
21903
21757
21810
21875
22118
21966
22026
21924
21942
22120
22186
22076
22247
22147
22129
22289
22203
22181
22159
22288
22399
22306
22354
22326
22395
22409
22445
22264
22244
22404
22427
22227
22308
22261
22342
22328
22310
22540
22329
22430
22496
22478
22421
22404
22468
22467
22295
22423
22403
22320
22310
22612
22722
22590
22522
22660
22556
22544
22347
22415
22576
22364
22363
22239
22245
22241
22123
22185
22005
21702
21913
21873
21749
21482
21630
21390
21471
21353
21346
21231
21117
21338
21306
21153
21271
21333
21382
21265
21092
21164
21193
21061
21092
21239
21118
21000
21167
21194
21202
21253
21222
21335
21185
21123
21272
21127
21168
21210
21179
21307
21161
21327
21180
21357
21482
21430
21609
21596
21382
21718
21786
21677
21571
21804
21783
21784
21689
21616
21799
21652
21768
21590
21651
21718
21915
21665
21758
21899
21738
21957
21734
22039
22062
22072
21938
22082
22155
22116
21848
22277
22060
22246
22076
22243
22218
21990
22192
22048
22213
21949
22093
22045
22108
22002
22116
22186
22024
22200
22226
22252
22176
22041
22413
22205
22353
22244
22423
22480
22379
22335
22346
22576
22571
22649
22508
22350
22362
22574
22603
22467
22608
22595
22575
22482
22722
22540
22761
22584
22763
22862
22727
22671
23033
22870
22765
22827
22927
22844
22729
22810
22859
22794
22626
22833
22722
22660
22478
22619
22462
22119
22122
22294
22039
21986
22183
21979
21858
22038
21846
21917
21836
21767
21928
21882
21629
21723
21659
21717
21415
21722
21571
21536
21451
21546
21554
21490
21654
21736
21696
21579
21685
21780
21739
21648
21856
21878
21789
21625
21764
22027
21893
21846
21817
22000
21659
21926
21777
21922
21750
21917
21721
21689
21917
21966
22005
21821
21940
21845
22002
21802
21821
22088
21949
21857
21951
21983
21912
21820
21941
21991
22000
22008
21844
21803
21951
21805
22010
21924
21716
21898
21820
21898
21745
21984
21997
22012
21868
22143
21848
22037
22068
21863
22034
21827
22138
21915
21932
22000
22068
22164
22073
21948
22091
21888
22071
21805
21911
21891
21799
22122
22175
22031
21875
22033
21978
22061
22012
22170
22238
22099
22143
22371
22177
22249
22282
22184
22173
22121
22264
22248
22232
22211
22330
22231
22185
22202
22252
22232
22295
22367
22253
22392
22146
22464
22218
22094
22298
22068
22142
22078
21746
21813
21711
21784
21706
21405
21511
21551
21385
21283
21260
21374
21261
21148
21354
21304
21326
21200
21275
21243
21378
21282
21203
21226
21062
21199
21182
21115
21321
21092
21179
21167
21203
21050
21194
21307
21267
21384
21314
21292
21287
21246
21390
21508
21343
21485
21443
21389
21259
21545
21458
21427
21276
21564
21360
21509
21398
21456
21712
21359
21488
21653
21436
21643
21487
21558
21477
21641
21657
21616
21642
21514
21624
21523
21568
21775
21804
21583
21701
21752
21618
21695
21749
21811
21692
21779
21611
21801
21837
21828
21826
21837
21749
21873
21739
21952
21935
21825
21807
21815
21950
21720
21829
21939
21964
21836
22059
21817
21816
22107
21925
21822
21836
21911
21990
21902
22022
22211
22252
22174
22044
22067
22284
22209
22146
22221
22141
22039
22198
22312
22205
22113
22223
22198
22214
22143
22308
22253
22171
22300
22339
22386
22407
22279
22424
22468
22463
22422
22508
22301
22268
22274
22448
22118
22043
22366
22102
21848
22069
21887
21735
21634
21815
21584
21610
21546
21400
21504
21255
21290
21444
21203
21275
21353
21301
21197
21074
21239
21216
21045
21221
21286
21000
20997
21100
20979
21250
20848
20980
21181
21007
20797
21160
21108
20979
20904
21308
21145
21306
21258
21227
21285
21313
21209
21397
21434
21422
21488
21533
21459
21230
21494
21539
21555
21408
21407
21420
21337
21501
21408
21454
21570
21520
21508
21474
21444
21523
21699
21543
21501
21585
21685
21724
21642
21533
21762
21739
21714
21592
21536
21531
21782
21725
21620
21586
21759
21890
21633
21743
21970
21902
21936
21951
21929
21918
21906
21962
22129
21963
22121
21997
21975
22142
22186
22074
22046
22029
22166
22124
22216
22248
22213
22220
22408
22351
22368
22560
22434
22366
22752
22628
22665
22611
22767
22574
22495
22622
22790
22628
22610
22639
22626
22662
22805
22708
22803
22619
22763
22793
22887
22804
22952
22958
22942
22754
22935
22995
22840
22936
23101
22888
22681
22918
22874
22851
22646
22766
22468
22405
22368
22417
22389
22198
22228
22209
22084
21872
21941
22062
21808
21701
21866
21785
21707
21571
21641
21822
21678
21512
21649
21690
21643
21613
21646
21622
21528
21695
21793
21544
21420
21531
21635
21620
21559
21560
21828
21469
21741
21887
21742
21828
21804
21676
21784
21803
21963
22025
21692
21949
22075
21859
21706
21977
22054
21924
21809
21977
22035
21854
21913
21991
21908
21886
21931
22057
22019
22104
22110
21978
22090
21963
22066
22161
22141
22210
22282
22260
22090
21973
22295
22271
22284
22123
22194
22244
22297
22250
22286
22181
22112
22392
22258
22270
22429
22273
22363
22391
22285
22366
22473
22377
22425
22357
22559
22303
22416
22557
22493
22372
22669
22520
22539
22661
22582
22617
22609
22562
22568
22534
22693
22720
22729
22551
22679
22870
22594
22794
22751
22697
22808
22585
22781
22712
22862
22649
22868
22939
22868
22718
22777
22989
22832
22818
23042
22949
22985
22878
22940
22970
22933
22944
22914
22905
22743
22807
22761
22832
22602
22910
22714
22622
22569
22604
22314
22327
22297
22320
22188
21906
21885
22014
21747
21950
22028
21795
21769
21639
21594
21757
21528
21768
21620
21733
21671
21641
21504
21457
21560
21751
21664
21339
21516
21536
21702
21608
21665
21534
21551
21503
21634
21678
21637
21617
21825
21848
21806
21798
21964
21715
21719
21774
22008
21723
21885
21964
21830
21969
21792
22005
21867
21669
21881
21900
22019
21991
22022
22094
21835
21937
22151
22118
21841
22014
21946
22194
22109
21932
22207
22122
22081
22148
21984
22144
22029
22101
22090
22148
22048
22381
22306
22170
22214
22357
22305
22335
22306
22220
22338
22309
22275
22468
22357
22473
22284
22378
22424
22474
22412
22416
22309
22536
22394
22560
22598
22626
22658
22539
22491
22531
22693
22636
22631
22702
22716
22632
22689
22681
22669
22802
22695
22790
22667
22698
22954
22936
22757
22868
22890
22914
22878
23027
23014
22985
22846
22901
23156
23040
23015
23019
23156
23030
23206
23015
23217
23001
22994
22971
23051
22854
23060
22889
22945
22719
22754
22719
22549
22574
22481
22551
22330
22419
22269
22379
22299
22345
22215
22173
21947
22130
22064
21986
22214
22042
22053
21982
22075
21973
21920
22092
22004
21937
22074
21912
22125
22145
22123
22162
22182
22265
22014
22247
22314
22240
22072
22207
22188
22155
22192
22285
22319
22290
22190
22557
22333
22448
22371
22344
22378
22237
22514
22396
22373
22409
22619
22543
22591
22463
22580
22563
22588
22464
22691
22515
22595
22717
22736
22754
22716
22650
22621
22645
22551
22884
22636
22621
22926
22977
22758
22907
22896
22796
22913
22757
23046
23033
23023
22960
23103
23105
22958
22905
23053
22943
23011
22990
23156
22990
23083
23248
23020
23002
23154
23280
23161
23092
23167
23046
23157
23075
23208
23230
23171
23028
23254
23187
23237
23121
23193
23293
23038
23181
23369
23169
23007
23200
23191
23143
23231
23356
23429
23350
23340
23330
23383
23417
23312
23404
23294
23397
23353
23350
23292
23310
23220
23415
23287
23042
23095
22965
23124
23014
23074
22843
22826
22671
22742
22609
22443
22471
22620
22305
22231
22260
22279
22375
22278
22110
22265
21970
22215
22093
22025
22198
22064
22137
21969
21936
22078
22042
22018
22068
22335
22199
21968
22109
22054
22207
22305
22184
22263
22309
22105
22242
22168
22214
22291
22358
22235
22202
22302
22480
22342
22164
22460
22209
22463
22285
22327
22493
22288
22392
22513
22536
22329
22421
22342
22501
22449
22553
22465
22568
22427
22437
22458
22521
22430
22501
22632
22375
22533
22665
22553
22612
22673
22486
22527
22424
22580
22698
22646
22641
22840
22735
22461
22584
22768
22638
22655
22765
22844
22712
22735
22694
22773
22741
22716
22903
22839
22828
22778
22855
22834
22783
22784
22743
22820
22881
22972
22909
22766
22931
23077
22999
22929
22877
22843
23029
22841
22949
23057
23068
22852
22847
22984
22927
22890
22919
22969
22976
23082
23238
23150
23155
23178
22996
23046
22928
23173
23133
23077
23008
23250
23136
22831
22907
23165
22914
22990
22930
22751
22654
22657
22566
22506
22333
22391
22349
22334
22216
22174
22185
22075
22018
22071
22021
22033
21951
21936
21815
21722
21711
21931
21675
21733
21667
21935
21761
21898
21822
21700
21666
21742
21780
21971
21841
21777
21966
21950
21765
21780
21946
21939
21737
22020
21957
21900
21876
22185
22048
22078
22067
22236
22153
21924
22193
22099
22094
22194
22241
22308
22151
22114
22266
22289
22105
22081
22363
22089
22000
22148
22163
22281
22091
22295
22379
22267
22139
22304
22245
22230
22363
22419
22242
22293
22520
22367
22446
22337
22390
22514
22437
22432
22485
22578
22400
22538
22658
22483
22487
22472
22702
22546
22420
22625
22522
22503
22514
22755
22592
22623
22708
22576
22593
22692
22726
22609
22616
22717
22737
22748
22715
22460
22728
22782
22617
22788
22877
22700
22646
22846
22998
22797
22830
22748
22846
22807
22633
22911
22734
22926
22760
22859
22836
22961
22711
22927
22965
22831
22914
22941
23036
22804
23072
22763
23009
22883
23044
22945
22793
22841
22993
22784
22480
22658
22592
22400
22283
22425
22233
22247
22146
22254
21907
21872
21839
21936
21903
21899
21982
21775
21954
21638
21798
21798
21823
21554
21882
21940
21710
21720
21896
21689
21510
21759
21679
21696
21592
21757
21835
21710
21789
21740
21839
21753
21767
21924
21907
21929
21854
22100
21862
21746
21936
22144
21889
21867
22073
22182
21928
21998
22078
22101
22030
22171
22164
22136
22086
22116
22146
22085
22015
22013
22051
22125
22118
22191
22139
22005
22216
22271
22161
22224
22229
22166
22399
22315
22394
22407
22310
22262
22544
22409
22385
22406
22355
22368
22236
22458
22472
22455
22400
22449
22735
22568
22569
22776
22689
22683
22609
22890
22667
22574
22890
22686
22862
22584
22973
22810
22703
22727
23003
22954
22949
22844
22827
22852
22814
22872
22822
22826
22823
22972
23121
23024
23010
22964
23006
23027
23053
23261
23080
23077
23090
23004
23057
22916
23268
23056
23220
22994
23309
23268
23239
23151
23343
23218
23203
23197
23388
23176
23186
23079
23006
23165
23011
23074
22950
22885
22686
22549
22667
22478
22544
22573
22378
22260
22371
22406
22328
22213
22354
22424
22141
22305
22178
22251
22331
22205
22430
22350
22067
22190
22382
22294
22101
22380
22092
22171
22344
22454
22403
22294
22374
22488
22228
22349
22575
22344
22340
22343
22434
22474
22391
22497
22727
22600
22663
22662
22751
22698
22430
22747
22560
22500
22653
22802
22760
22599
22565
22736
22720
22496
22751
22878
22704
22651
22764
23010
22757
22695
22921
22832
22812
22962
22797
22996
22985
22944
23093
22925
23022
22957
22942
22832
23001
22942
23125
22865
23103
22911
22935
23084
23103
23007
23176
22981
23121
23142
23135
23140
23313
23207
23203
23186
23198
23007
22972
23184
23107
23180
22959
23237
23207
23067
22971
23115
23097
23100
23190
23322
23114
23229
23201
23105
23157
23192
23385
23339
23184
23212
23412
23322
23235
23171
23313
23340
23197
23229
23143
23184
23189
23253
23442
23255
23241
23187
23361
23253
22981
23201
23128
22783
22910
22697
22714
22590
22705
22692
22459
22487
22486
22342
22314
22067
22268
22050
22018
22177
22015
22070
22161
22066
21966
22018
21928
22007
22041
21879
21880
21932
22132
21891
22002
22111
22038
22056
22002
21932
22102
22193
22094
22088
22210
21995
22086
22079
22177
22258
22291
22220
22112
22293
22409
22322
22214
22338
22383
22278
22406
22528
22277
22296
22276
22347
22350
22143
22359
22295
22468
22189
22395
22395
22475
22553
22370
22613
22444
22408
22577
22592
22388
22458
22611
22617
22390
22509
22640
22583
22438
22642
22720
22651
22649
22677
22639
22432
22692
22773
22699
22486
22755
22762
22666
22522
22643
22697
22723
22738
22697
22775
22759
22795
22658
22743
22502
22767
22649
22813
22768
22648
22895
22757
22782
22950
22869
22775
22696
22878
22708
22860
22886
23082
22737
22898
23036
22979
22916
22935
22843
22920
22731
22924
23017
22993
22784
23046
22971
22875
22866
23081
22933
23047
22926
22898
22951
22791
22932
22928
22818
22695
22883
22539
22691
22576
22564
22303
22341
22130
22231
22083
22086
22101
21999
22010
21752
21849
21824
21911
21611
21823
21677
21811
21660
21772
21872
21629
21799
21746
21799
21589
21842
21860
21565
21522
21697
21833
21566
21731
21943
21674
21715
21644
21645
21822
21633
21713
21676
21795
21915
21918
22003
21757
22009
21895
22059
21945
21961
21977
21864
21811
22038
21950
21973
22052
22041
22009
22019
21916
21851
21977
21816
21977
22004
21981
21827
22099
22015
22048
21969
22106
22184
22187
22186
22146
22181
22215
22159
22286
22255
22072
22253
22382
22280
22181
22290
22302
22333
22147
22333
22275
22188
22432
22345
22318
22293
22466
22594
22479
22278
22633
22553
22544
22587
22465
22529
22565
22485
22662
22525
22619
22590
22685
22507
22413
22480
22701
22599
22432
22680
22615
22578
22689
22720
22617
22747
22725
22736
22811
22637
22701
22858
22802
22673
22919
22830
22684
22841
22938
22801
22783
22721
22757
22850
22835
22881
22979
22865
22690
22971
22658
22758
22748
22532
22580
22300
22513
22507
22308
22322
22290
22140
21980
21791
21911
21845
21906
21812
21806
21801
21713
21784
22020
21777
21724
22027
21868
21770
21759
21859
21863
21975
21786
21848
21889
21705
21828
21865
21881
21897
22000
22034
21868
22047
21983
22095
22089
22076
22277
22086
22094
22215
22165
22298
22300
22209
22248
22139
22201
22435
22226
22271
22192
22409
22224
22342
22261
22357
22464
22428
22302
22324
22269
22354
22614
22523
22481
22343
22448
22549
22378
22510
22766
22729
22639
22633
22677
22692
22568
22720
22756
22640
22694
22672
22721
22668
22774
22831
22800
22867
22801
23006
22696
22894
22920
22904
22939
23069
23003
23010
22821
23127
22949
23105
22894
23194
23041
23158
22998
23197
23142
22936
22947
23019
23040
23169
23200
23276
23266
23207
23165
23285
23288
23127
23268
23358
23327
23193
23356
23307
23317
23300
23476
23490
23383
23362
23392
23443
23522
23385
23431
23534
23417
23671
23497
23603
23534
23495
23494
23387
23448
23370
23301
23188
23203
23117
23011
22922
22949
22829
22603
22686
22777
22582
22375
22447
22585
22503
22553
22492
22415
22378
22215
22475
22150
22091
22187
22420
22218
22261
22152
22234
22115
22150
22196
22336
22223
22070
22122
22262
22089
22095
22284
22254
22300
22279
22351
22207
22335
22468
22276
22366
22233
22577
22443
22395
22356
22351
22360
22259
22427
22365
22423
22396
22571
22322
22493
22503
22350
22540
22530
22541
22373
22458
22311
22616
22588
22446
22655
22665
22702
22612
22449
22796
22765
22587
22696
22646
22744
22658
22535
22567
22632
22463
22566
22710
22759
22500
22634
22653
22530
22804
22604
22817
22788
22735
22873
22735
22907
22893
22696
22749
22744
22942
22804
22849
22874
22738
22880
22803
22837
22961
22757
22938
22933
22705
22936
22919
23045
22910
22934
22908
22893
22936
22845
23029
23026
23030
23036
23085
22973
22973
22919
22944
22964
22946
23049
23007
23107
23056
23008
22967
23078
23051
22960
22936
23017
23025
23070
22886
22883
22714
22704
22682
22548
22529
22350
22402
22162
22225
22281
22078
21964
22096
22014
21843
22008
22032
21950
21756
21817
21948
21774
21605
21800
21772
21689
21617
21906
21731
21707
21644
21722
21689
21670
21715
21586
21650
21699
21736
21932
21743
21767
21720
21732
21861
21732
21974
21917
21701
21897
21941
21916
22026
21947
22069
22034
21812
21952
21911
21943
21981
21951
21891
21994
21984
21981
21907
21803
22070
21879
22088
21908
21980
21972
22157
22073
22265
22141
22156
22166
22182
22338
22306
22166
22153
22146
22151
22396
22236
22343
22152
22211
22292
22277
22272
22492
22397
22265
22474
22590
22422
22459
22585
22485
22528
22482
22626
22582
22588
22569
22770
22652
22433
22627
22788
22685
22708
22776
22710
22572
22528
22715
22695
22718
22775
22766
22649
22562
22885
22837
22889
22641
22956
22981
22899
22677
23004
22814
22856
22703
22730
22739
22660
22948
22923
22913
22759
22844
22956
22812
22699
23056
23005
22679
22984
22995
22801
22692
22771
22749
22726
22699
22684
22385
22283
22298
22445
22223
22003
22084
21935
21948
21920
21871
21826
21887
21625
21732
21880
21749
21731
21630
21821
21575
21569
21638
21608
21589
21634
21608
21627
21540
21489
21650
21412
21522
21501
21584
21541
21627
21678
21611
21426
21659
21748
21789
21711
21885
21887
21864
21754
21952
21787
21740
21912
22008
21899
21848
21881
21918
21942
21705
21925
21843
21777
21995
22037
21908
21847
21894
21961
21970
21939
22039
22011
22150
22173
22239
22181
22097
22116
22366
22361
22153
22413
22193
22372
22172
22307
22303
22415
22248
22483
22407
22406
22515
22613
22371
22312
22441
22504
22651
22570
22502
22660
22551
22633
22784
22823
22777
22577
22673
22672
22598
22653
22640
22774
22670
22697
22874
22826
22741
22845
22754
22788
22692
22906
23064
22786
23054
23104
22951
22916
22979
22923
23054
22952
22988
23025
23074
22923
23048
22975
22981
23021
23130
22995
23151
23065
23041
23066
23136
23283
23363
23140
23029
23157
23336
23101
23259
23377
23017
23059
23068
23050
22882
22654
22780
22715
22632
22527
22402
22286
22336
22397
22389
22337
22156
22081
22219
22183
22122
22222
22002
21948
21935
22061
21980
22092
21943
21983
22015
21795
21960
22101
21964
22027
21980
21911
21964
21888
22021
22053
22033
22048
21998
22181
22062
22258
22350
22108
22066
22145
22415
22376
22296
22382
22162
22165
22273
22313
22254
22171
22351
22365
22207
22272
22297
22146
22129
22294
22344
22158
22358
22208
22318
22288
22301
22325
22269
22450
22376
22439
22379
22410
22448
22532
22318
22385
22260
22588
22374
22434
22302
22348
22413
22229
22506
22398
22439
22471
22410
22643
22570
22501
22627
22608
22517
22622
22698
22688
22574
22669
22573
22528
22402
22636
22523
22466
22675
22755
22712
22425
22579
22527
22694
22643
22765
22605
22812
22560
22795
22824
22651
22707
22782
22651
22738
22827
22921
22898
22811
22799
22717
22805
22775
22809
22841
22761
22728
22838
22766
22691
22729
22714
22716
22552
22676
22710
22530
22317
22460
22321
22201
22100
22310
22061
21922
22071
21829
21945
21787
21693
21842
21604
21497
21575
21676
21444
21489
21563
21663
21501
21628
21475
21464
21543
21521
21389
21440
21418
21500
21608
21349
21264
21571
21344
21464
21385
21529
21394
21496
21608
21612
21521
21515
21737
21695
21677
21637
21718
21734
21660
21813
21862
21815
21702
21734
21719
21722
21806
21787
21903
21673
21778
21712
21885
21751
21754
21906
21831
21854
21721
21858
21739
21890
22017
22028
21913
21807
22002
21977
21840
21930
21989
21977
21772
21992
21915
22008
21818
22117
21989
22037
21847
22070
22157
21895
21945
22014
22043
22075
22227
22135
22131
22095
22339
22232
22298
22108
22163
22075
22130
22268
22271
22233
22135
22109
22331
22120
22266
22223
22266
22143
22369
22280
22463
22199
22343
22410
22420
22298
22406
22426
22427
22383
22471
22459
22464
22323
22481
22427
22440
22407
22561
22500
22412
22464
22567
22550
22494
22389
22408
22364
22376
22291
22451
22155
22187
22223
22190
21850
21930
21825
21932
21795
21661
21677
21664
21526
21572
21511
21314
21251
21574
21318
21432
21267
21326
21317
21220
21322
21324
21283
21311
21325
21300
21175
21227
21184
21220
21325
21146
21375
21224
21144
21152
21125
21171
21164
21254
21407
21274
21249
21507
21510
21528
21417
21517
21620
21618
21599
21701
21752
21701
21856
21793
21883
21736
22025
22006
21787
22043
22061
22072
21952
22025
22063
22041
22113
22110
22053
22083
22182
22393
22362
22137
22338
22384
22428
22337
22431
22659
22534
22504
22598
22636
22566
22469
22707
22650
22638
22738
22547
22616
22619
22765
22689
22664
22740
22915
22708
22920
22726
22802
23002
22946
22958
22893
23013
22866
23044
22942
23122
22827
23171
23252
23019
22937
23272
23224
23050
23169
23041
23219
23196
23205
23138
23291
23248
23376
23489
23486
23406
23578
23577
23471
23636
23556
23491
23499
23474
23702
23536
23393
23470
23478
23608
23580
23578
23558
23458
23524
23577
23542
23266
23379
23247
23259
23013
23147
22939
22844
22716
22807
22722
22733
22635
22633
22394
22548
22390
22419
22424
22373
22425
22454
22349
22335
22443
22448
22326
22386
22462
22399
22298
22285
22185
22377
22139
22295
22423
22184
22301
22298
22498
22162
22197
22311
22452
22337
22323
22432
22312
22199
22526
22433
22452
22481
22414
22454
22513
22315
22683
22420
22348
22630
22573
22470
22429
22521
22366
22474
22373
22478
22456
22295
22295
22406
22379
22410
22372
22405
22373
22369
22397
22431
22338
22439
22437
22372
22382
22231
22488
22101
22319
22182
22153
22357
22258
22194
22137
22252
22218
22249
22110
22142
22129
22366
22338
22355
22206
22246
22258
22189
22430
22472
22326
22415
22343
22600
22356
22512
22503
22465
22469
22519
22401
22517
22325
22530
22740
22462
22412
22522
22751
22523
22532
22799
22791
22549
22899
22903
22727
22730
22742
22872
22796
22742
22933
22804
22911
22754
22847
22909
22571
22529
22568
22628
22359
22374
22387
22154
22009
22039
22199
22049
21820
21845
21883
21893
21856
21846
21688
21724
21682
21799
21548
21597
21600
21497
21525
21529
21630
21510
21468
21364
21629
21408
21400
21448
21621
21458
21467
21627
21374
21433
21583
21653
21484
21412
21537
21633
21583
21317
21561
21733
21475
21378
21625
21447
21618
21564
21667
21602
21565
21457
21507
21574
21312
21483
21502
21617
21473
21577
21569
21566
21327
21453
21405
21583
21379
21706
21644
21603
21421
21465
21470
21474
21450
21744
21632
21396
21671
21683
21499
21681
21849
21752
21451
21751
21900
21793
21841
21676
21833
21734
21727
21755
21674
21890
21888
22060
21892
21887
21943
22059
21955
21743
22076
21978
22077
21870
22124
22085
22082
22138
22181
22262
22076
22282
22169
22389
22131
22283
22323
22435
22498
22520
22583
22369
22482
22504
22497
22509
22543
22731
22568
22642
22635
22514
22517
22492
22862
22709
22634
22642
22756
22675
22803
22816
22743
22680
22447
22568
22483
22271
22315
22342
22289
22188
22017
21987
21835
21680
21802
21743
21851
21590
21669
21590
21622
21594
21601
21652
21622
21494
21623
21444
21322
21431
21303
21390
21215
21398
21472
21276
21350
21318
21306
21207
21242
21408
21175
21345
21348
21464
21250
21356
21239
21375
21388
21211
21483
21331
21197
21305
21297
21513
21289
21228
21447
21379
21414
21504
21452
21325
21491
21389
21415
21460
21377
21592
21477
21351
21465
21647
21523
21444
21545
21641
21514
21626
21548
21689
21452
21592
21603
21614
21549
21686
21788
21713
21397
21709
21557
21693
21504
21795
21631
21600
21749
21784
21629
21581
21734
21988
21841
21683
21863
21896
21785
21878
21973
22037
21922
21904
22012
21940
22024
21996
21847
21915
21996
22040
21939
21958
21809
21927
21873
22013
22038
21923
21954
22105
21878
22206
22063
21941
22244
22057
22119
22029
22346
22259
22197
22194
22246
22434
22205
22459
22590
22400
22304
22451
22640
22341
22298
22317
22529
22381
22188
22352
22098
22179
22110
22183
21948
21670
21809
21913
21678
21465
21665
21742
21403
21453
21634
21362
21454
21145
21382
21390
21342
21329
21167
21248
21034
21295
21348
21114
21247
21352
21079
21242
21333
21439
21243
21085
21236
21437
21246
21429
21347
21273
21285
21447
21610
21586
21560
21636
21773
21603
21426
21614
21748
21714
21644
21842
21833
21850
21909
21777
21927
21733
21928
21961
22027
21804
21928
22077
22009
21882
21936
22048
22079
21858
22144
22186
22046
21903
22029
22144
21974
22204
22152
22014
22148
22248
22046
22223
21999
22254
22208
22046
22212
22185
22152
22024
22081
22034
22173
21958
22071
22310
22056
22123
22136
22383
22175
22158
22392
22215
22095
22263
22529
22403
22376
22455
22255
22332
22207
22446
22498
22232
22355
22374
22400
22320
22267
22285
22322
22360
22452
22581
22368
22347
22578
22615
22564
22551
22604
22431
22379
22475
22367
22507
22451
22316
22231
22277
22185
22049
22003
22061
21989
21843
21746
21679
21685
21619
21576
21598
21469
21365
21515
21403
21527
21303
21225
21109
21429
21283
21062
21270
21044
21165
20988
21193
21155
21099
20963
21053
21339
21256
21264
21154
21163
21328
21344
21544
21375
21395
21441
21455
21659
21415
21679
21561
21711
21488
21822
21771
21765
21602
21914
21639
21650
21751
21723
21675
21691
21857
21811
21788
21765
21805
21855
21777
21835
21707
21812
21637
21830
21974
21813
21706
21797
21899
21687
21582
21906
21859
21594
21787
21664
21780
21725
21765
21579
21747
21545
21684
21541
21679
21492
21570
21538
21738
21642
21758
21699
21484
21733
21739
21607
21752
21660
21841
21706
21714
21654
21648
21686
21567
21592
21721
21622
21635
21890
21649
21597
21886
21714
21687
21676
21984
21930
21880
21893
21904
21862
21620
21801
21765
21872
21852
21808
21981
21917
21734
21970
21824
21919
21879
21864
22000
21986
21927
21999
21927
21925
22053
22121
21805
21888
21961
21662
21832
21792
21623
21490
21327
21301
21334
21459
21162
21290
21089
21228
21083
21098
20949
20987
21036
21017
20853
20870
20929
20963
21003
20904
20955
21058
20764
20626
20910
20883
20723
20717
20756
20832
20941
20748
20750
20826
20946
20884
21055
20868
20863
21178
21211
21010
20899
21081
21285
21200
21078
21184
21258
21184
21352
21134
21133
21254
21186
21161
21114
21310
21202
21084
21062
21389
21494
21303
21101
21324
21282
21350
21195
21422
21394
21452
21435
21539
21553
21527
21514
21564
21604
21642
21585
21789
21624
21573
21878
21807
21600
21809
21742
21871
21962
21781
21849
21883
21897
21953
22273
21973
22057
22131
22208
22328
22314
22412
22325
22216
22316
22302
22288
22233
22476
22515
22230
22449
22373
22516
22518
22351
22588
22564
22575
22488
22644
22658
22385
22461
22682
22626
22639
22613
22669
22558
22557
22475
22434
22417
22439
22557
22451
22322
22459
22550
22418
22400
22443
22540
22445
22366
22371
22425
22474
22288
22369
22499
22239
22363
22158
22080
21990
22094
21932
21823
21611
21875
21832
21493
21481
21447
21464
21507
21377
21493
21264
21307
21265
21395
21245
21303
21388
21101
21257
21121
21390
21338
21244
21246
21069
21253
21150
21206
21136
21258
21264
21203
21193
21086
21283
21413
21277
21425
21351
21352
21447
21444
21467
21609
21590
21413
21550
21506
21543
21443
21668
21619
21710
21543
21522
21600
21687
21625
21663
21786
21675
21766
21851
21781
21590
21941
21912
21823
21911
21863
21762
21728
21912
21861
21998
21748
22028
21925
21991
21831
21980
22057
22068
21919
21981
22046
22028
22025
21940
21926
21972
22016
22177
22158
21992
22070
22228
22277
22248
22312
22326
22051
22296
22193
22376
22072
22335
22419
22352
22164
22490
22397
22258
22295
22521
22506
22477
22422
22558
22564
22307
22641
22591
22448
22601
22717
22555
22655
22659
22611
22649
22446
22691
22605
22686
22518
22877
22740
22569
22567
22829
22631
22759
22685
22771
22593
22658
22670
22588
22515
22524
22645
22407
22323
22227
22386
22189
22093
22005
21990
21912
21643
21719
21782
21565
21390
21550
21475
21380
21258
21485
21256
21131
21193
21431
21399
21070
21296
21132
21327
21200
21114
21307
21040
21097
21290
21089
21006
21273
21066
21228
21184
21249
21337
21186
21201
21394
21459
21226
21321
21384
21317
21374
21425
21569
21321
21262
21510
21494
21581
21345
21504
21536
21380
21341
21505
21652
21517
21587
21674
21492
21354
21455
21713
21577
21361
21567
21476
21475
21619
21706
21593
21596
21581
21714
21689
21608
21666
21897
21780
21773
21719
21948
21726
21604
21751
21904
21641
21666
21963
21809
21607
21773
21734
21749
21849
21783
21982
21938
21617
21829
21960
21823
21772
21859
21915
21717
21892
22062
21957
21658
21917
22036
21941
21910
21982
21762
21917
21687
21947
21787
21823
21646
21860
21708
21569
21770
21961
21870
21905
21803
22012
21764
21891
21996
21928
21855
21890
21941
21973
21931
21944
21994
21919
21643
21722
21929
21821
21523
21530
21650
21489
21309
21576
21304
21325
21347
21401
21142
21084
21212
21114
21222
21098
21069
21065
20905
21002
20912
21067
20984
21079
21204
20939
21055
21055
21108
21007
20904
21231
21003
20928
20962
21096
21159
21196
21097
21093
21206
21147
21235
21118
21108
21340
21417
21383
21138
21237
21368
21190
21190
21235
21120
21305
21024
21379
21256
21081
21340
21141
21167
21277
21225
21112
21251
21273
21243
21133
21218
21224
21259
21133
21248
21068
21294
21357
21305
21143
21421
21222
21045
21313
21301
21316
21280
21151
21366
21171
21101
21298
21182
21150
21105
21373
21211
21371
21264
21346
21213
21061
21258
21414
21317
21290
21335
21280
21291
21226
21248
21335
21359
21346
21530
21394
21355
21444
21650
21381
21331
21626
21581
21458
21606
21779
21634
21672
21720
21610
21785
21583
21693
21773
21845
21700
21990
21751
21873
21851
21947
21958
21977
21844
22071
22091
21826
22018
21990
22180
21921
22187
22213
21935
21989
22047
22006
21763
21768
21717
21713
21704
21620
21643
21386
21283
21519
21355
21214
21193
21275
21423
21078
21292
21429
21145
21130
21349
21437
21271
21328
21341
21435
21248
21053
21155
21332
21220
21013
21186
21202
21193
21132
21251
21280
21207
21390
21343
21226
21205
21469
21364
21207
21514
21625
21470
21297
21563
21489
21519
21400
21602
21389
21362
21489
21570
21365
21465
21298
21413
21396
21287
21469
21305
21285
21381
21539
21592
21435
21314
21541
21511
21531
21621
21562
21445
21379
21472
21709
21640
21556
21542
21476
21487
21726
21758
21745
21505
21843
21908
21625
21834
21705
21825
21808
21682
21944
21832
21844
21898
22144
22108
21897
22005
22039
22030
22070
22061
22180
22097
22134
22143
22047
21945
22097
22028
22143
22010
21910
22223
22078
22005
22217
22005
22160
21930
22169
22227
22044
22242
22210
22288
22087
22016
22166
22159
22174
22122
22093
22276
22003
22164
22207
22236
22135
22000
21973
21911
22115
21856
21957
21644
21851
21688
21695
21586
21605
21415
21327
21244
21292
21229
21100
21090
21099
21126
20860
21100
21110
21063
20767
21025
21149
20848
20866
21075
21031
21004
20918
20812
20845
20726
21000
20851
20890
20855
21123
21086
21010
20967
21039
21074
21064
20921
21187
21151
21091
21171
21176
21186
20946
21246
21306
21259
21244
21285
21095
21059
21065
21380
21364
21225
21171
21329
21309
21349
21354
21445
21321
21299
21408
21368
21312
21381
21333
21425
21346
21396
21352
21481
21280
21431
21705
21491
21465
21603
21545
21558
21542
21588
21774
21605
21656
21591
21693
21598
21623
21809
21791
21725
21614
21580
21529
21519
21833
21694
21690
21660
21617
21674
21531
21703
21888
21545
21375
21696
21604
21446
21544
21790
21681
21688
21405
21586
21431
21542
21624
21570
21624
21405
21538
21490
21479
21470
21685
21619
21340
21483
21748
21501
21609
21532
21703
21561
21466
21501
21591
21505
21502
21652
21544
21407
21258
21357
21353
21040
21226
21293
21171
21048
21016
21098
20928
20646
20852
20883
20736
20765
20691
20736
20432
20499
20692
20442
20554
20642
20317
20397
20355
20430
20594
20318
20500
20642
20527
20171
20480
20451
20511
20339
20395
20662
20400
20326
20675
20569
20623
20487
20479
20729
20522
20609
20845
20714
20567
20733
20840
20716
20510
20638
20564
20707
20759
20707
20760
20602
20677
20652
20655
20636
20769
20669
20804
20572
20898
20664
20889
20858
20682
20896
20694
20889
20759
20836
20903
20895
20696
20828
20755
21035
20757
20866
20843
20999
20925
20647
20783
20853
20906
20876
20930
20890
21085
20906
21117
21085
20858
20921
20972
21043
20887
21049
21235
21138
20945
21072
20988
21218
21208
21282
21340
21269
21290
21150
21161
21219
21441
21497
21356
21247
21488
21585
21314
21357
21375
21289
21519
21278
21385
21599
21558
21456
21617
21590
21545
21554
21456
21624
21541
21707
21529
21630
21628
21578
21703
21754
21765
21583
21666
21454
21622
21659
21615
21260
21334
21274
21166
21087
21275
21128
21159
21038
21057
20946
20783
20876
21141
21026
21053
20961
21066
20986
20974
21033
20984
20956
20946
21042
20969
20982
21013
21058
20945
20917
21017
21042
20887
20928
21061
21015
20908
20994
21087
21031
20857
21120
21114
21056
21049
21278
21298
21182
21235
21137
21088
21164
21292
21075
21027
21112
21111
21189
21036
20978
21040
21121
21154
20951
21228
20958
21098
21029
20957
21114
21121
21064
21301
21195
21140
21248
21333
21214
21116
21143
21352
21203
21125
21472
21137
21260
21163
21333
21233
21170
21402
21211
21205
21275
21226
21272
21240
21396
21386
21148
21285
21448
21373
21371
21275
21345
21588
21506
21351
21415
21561
21481
21404
21559
21444
21419
21459
21412
21430
21404
21535
21594
21444
21373
21517
21499
21451
21480
21475
21515
21437
21502
21634
21646
21443
21665
21590
21451
21495
21597
21556
21443
21398
21545
21496
21327
21366
21381
21239
21312
21379
21344
21120
20912
21140
21129
20833
20818
21034
20835
20608
20693
20773
20640
20566
20569
20596
20476
20457
20459
20464
20354
20388
20460
20271
20120
20334
20291
20430
20033
20351
20328
20418
20124
20471
20277
20414
20350
20519
20501
20388
20174
20474
20445
20264
20418
20551
20408
20503
20565
20489
20335
20326
20635
20646
20642
20560
20817
20607
20489
20623
20708
20827
20590
20922
20753
20713
20867
21025
20957
20913
20958
20844
20904
20695
20918
21016
21025
20782
20997
21039
20859
21065
21131
21063
21019
21065
21153
21055
21148
21109
21311
21082
21250
21374
21290
21359
21269
21472
21401
21186
21457
21365
21471
21527
21544
21735
21507
21662
21575
21613
21591
21578
21826
21945
21730
21650
21782
21825
21836
22013
21864
22069
21884
21990
21995
22042
22020
22101
21936
21905
21845
22238
22026
21884
21971
22142
21927
21956
21885
22004
21993
21876
21852
21775
21844
21882
21965
21786
21623
21858
21642
21570
21639
21734
21391
21599
21483
21497
21143
21184
21109
20906
21093
20711
20946
21002
20895
20817
20753
20501
20534
20683
20535
20482
20540
20445
20475
20530
20447
20424
20661
20440
20514
20491
20640
20464
20421
20549
20601
20484
20472
20795
20692
20714
20578
20753
20626
20676
20873
20919
20793
20837
20802
20865
20843
20914
21079
20918
20877
20990
21002
20977
20863
20880
21010
21051
20827
21099
21024
20964
21115
21232
21030
20819
21115
21074
21114
20933
21069
21157
21175
21032
21301
21215
20988
20922
21288
21195
21235
21115
21088
21195
21190
21207
21243
21109
21114
21140
21211
21025
21079
21105
21282
21320
21137
21042
21248
21271
21215
21412
21206
21022
21336
21403
21127
21324
21206
21317
21072
21283
21271
21220
21198
21350
21323
21398
21457
21305
21498
21421
21511
21586
21436
21452
21417
21498
21439
21204
21504
21529
21443
21467
21510
21589
21328
21265
21623
21494
21514
21483
21633
21599
21546
21483
21607
21396
21539
21657
21534
21544
21259
21500
21551
21412
21187
21163
21176
21040
21103
20915
20977
20810
20905
20847
20608
20724
20623
20579
20451
20589
20547
20586
20292
20508
20448
20542
20428
20633
20524
20574
20293
20636
20575
20299
20542
20557
20489
20456
20325
20519
20427
20208
20466
20424
20467
20550
20472
20656
20562
20465
20757
20624
20518
20686
20775
20745
20580
20868
20715
20837
20622
20744
20640
20776
20812
20589
20736
20651
20746
20655
20777
20651
20749
20772
20647
20593
20906
20727
20710
20692
20665
20764
20775
20814
20761
20913
20845
20938
20769
20846
20847
21010
20997
20660
20928
20749
20739
20717
20851
20797
20991
20725
20956
20813
20753
20776
20906
21029
20990
20944
20864
20875
20999
20877
21108
20999
20941
20927
21072
20971
20715
20919
21026
20875
20946
20965
20962
20720
20932
21193
20977
20942
21168
21273
21167
21106
21051
21048
21217
21212
21203
21304
21298
21262
21422
21283
21300
21327
21439
21302
21041
21217
21396
21181
21343
21169
21215
21173
21110
21245
21025
21060
20993
21096
20952
20878
20815
20884
20736
20799
20654
20613
20704
20640
20510
20494
20344
20519
20442
20658
20418
20651
20550
20355
20510
20660
20455
20512
20646
20524
20482
20521
20530
20554
20554
20388
20700
20683
20678
20571
20856
20784
20699
20887
20923
20810
20768
20745
20942
20770
20885
20806
20752
20946
20968
20979
20769
20840
21078
20924
21092
20816
20845
21057
20800
20843
20966
21175
20831
20759
20986
20954
20804
20879
20939
20886
20725
20847
20854
20828
20877
20881
20825
20853
20779
21000
20860
20656
20687
20723
21016
20882
20852
20831
20899
20714
20783
21012
20874
20791
20812
20833
20684
20917
21109
20865
20868
20948
21162
21005
20776
20936
20951
20894
21018
21224
21113
20994
20996
21431
21229
21167
21142
21479
21260
21158
21279
21400
21415
21105
21555
21489
21446
21461
21453
21550
21469
21413
21678
21629
21387
21773
21592
21651
21465
21814
21739
21765
21714
21840
21717
21769
21740
21788
21542
21431
21496
21374
21252
21284
21310
21220
21047
21019
21232
21096
20974
20862
21037
20791
20674
20878
20950
20672
20590
20894
20629
20477
20653
20787
20741
20373
20643
20696
20437
20323
20583
20678
20358
20556
20654
20542
20635
20585
20583
20563
20529
20530
20733
20604
20339
20664
20634
20633
20673
20595
20693
20766
20742
20730
20787
20714
20764
20788
20656
20512
20832
20668
20641
20718
20986
20814
20840
20690
20886
21067
21008
21005
21043
20901
20878
21031
21056
21003
20961
21115
21116
21118
21020
21163
21195
21045
21135
21265
21282
21227
21313
21411
21321
21334
21482
21343
21539
21452
21423
21594
21292
21376
21561
21496
21453
21382
21571
21366
21316
21663
21558
21664
21445
21716
21602
21383
21499
21876
21667
21735
21722
21735
21667
21697
21758
21930
21649
21574
21920
21799
21646
21755
21622
21549
21621
21610
21624
21601
21475
21857
21929
21758
21595
21873
21849
21650
21765
21992
21819
21796
21826
21701
21782
21632
21779
21799
21824
21695
21619
21821
21469
21601
21719
21525
21178
21421
21372
21211
21106
21211
21168
21219
21085
21161
21154
20841
20768
21079
21009
20896
20801
20886
20829
20842
20755
20655
20689
20772
20761
20891
20824
20784
20736
20983
20737
20769
20707
20864
20633
20850
21009
20958
20844
21014
21105
20977
20958
21091
21039
20818
21035
21075
21087
20897
21117
20941
20928
21069
21121
21022
20898
21187
21242
21084
21160
21363
21354
21325
21080
21376
21377
21341
21127
21170
21112
21050
21063
21371
21383
21322
21133
21274
21193
21390
21358
21573
21285
21451
21512
21452
21483
21337
21678
21552
21305
21490
21488
21597
21295
21607
21813
21703
21398
21700
21554
21457
21626
21528
21645
21374
21734
21689
21624
21517
21584
21581
21544
21576
21567
21539
21783
21540
21868
21650
21659
21689
21830
21604
21554
21627
21558
21668
21507
21698
21466
21433
21459
21709
21613
21633
21431
21507
21657
21414
21622
21823
21584
21464
21620
21515
21755
21733
21605
21785
21506
21765
21657
21427
21511
21534
21476
21219
21191
21244
21118
21093
20878
21002
21137
20830
20836
21169
20855
20943
20926
20804
20809
20712
20946
20951
20763
20789
20913
20981
20706
20802
20700
20819
20802
20751
20670
20764
20579
20751
20719
20684
20862
21023
20911
20928
21019
21000
21178
20860
21157
21027
21016
21028
21127
21141
20882
20764
21175
21012
20943
20937
21084
21058
21040
20970
21007
21067
20920
21215
21044
21120
21101
21187
21245
21234
21151
21353
21317
21169
21262
21179
21266
21082
21187
21490
21351
21146
21347
21326
21084
21178
21351
20983
20989
21004
20931
20971
20833
21067
20887
20844
20743
20854
20774
20752
20719
20980
21039
20772
20862
20868
21049
20963
21009
21081
20954
20840
21224
21001
21109
21229
21361
21135
21335
21268
21352
21337
21107
21263
21210
21341
21356
21379
21511
21260
21345
21307
21342
21341
21378
21453
21552
21282
21562
21678
21643
21680
21698
21748
21529
21663
21783
21960
21969
21986
22387
22247
21798
22080
22581
22329
22049
22516
22325
22314
22198
22540
22227
21988
22194
22350
22017
21885
21989
21971
21813
21769
21981
21871
21890
21797
21982
22070
21740
21932
22027
22192
21863
22293
22551
22313
22359
22544
22823
22577
22685
23102
23268
22863
23116
23675
23431
23009
23184
23629
23132
22673
22950
23209
22928
22377
22802
22574
22384
22156
22604
22084
21661
22072
22016
21859
21813
21819
22181
21836
21655
22257
22170
21724
21796
21915
22105
21599
21540
21257
20860
20120
19838
19608
18669
18229
17854
17629
16909
16107
16132
15857
14924
15287
15943
18193
22953
27494
28542
27210
24417
21367
18008
14368
10777
7235
4118
1568
65053
63376
62050
60999
60230
59614
59100
58745
58426
58208
58013
57843
57724
57613
57529
57477
57426
57369
57346
57330
57304
57282
57266
57263
57288
57267
57294
57288
57288
57289
57325
57310
57345
57375
57377
57434
57461
57475
57516
57562
57599
57628
57685
57723
57731
57863
57911
57934
58031
58059
58145
58240
58330
58433
58558
58664
58793
58965
59111
59275
59489
59672
59858
60063
60276
60513
60667
60901
61097
61286
61459
61750
62018
62309
62655
63018
63474
63974
64550
65242
469
1290
2318
3529
4859
6369
8050
9693
11436
12975
14411
15727
16944
17872
18607
19167
19825
20465
20880
21169
21477
21830
22198
22458
22500
22623
22651
22800
23299
23260
23234
23300
23221
23495
23293
23430
23548
23443
23839
24118
23900
24149
24169
24500
24567
24340
24891
25002
24953
25429
25280
25594
25519
26066
25871
26014
26100
26161
25723
26174
26226
26137
25927
26580
26267
26712
26675
26866
27070
27112
27287
27959
27594
27913
27683
27842
28048
27851
28482
28621
28290
28235
28869
28535
28763
28464
29168
29006
29155
29069
29504
29248
28847
29389
29497
29511
29487
29795
29948
29662
29796
29975
30029
29406
29878
30353
30131
29689
29780
30167
29944
29603
29583
29506
29663
29148
29362
29672
29659
29474
29438
30060
29621
29992
30247
30244
30339
30373
30564
30087
29856
30088
30586
30452
30408
30832
30747
30750
30942
31165
30979
30655
30936
31278
30980
30865
31126
31291
31316
31253
31420
31481
31165
31424
31535
31632
31581
31704
31857
31843
31648
31808
31674
31229
31293
31140
31260
31000
30695
31190
30769
30626
31005
30852
31241
30880
31246
31854
31755
31726
32406
32519
32098
32212
32479
32699
32294
32577
32800
32401
32524
32733
32369
32424
32320
32387
32374
32399
32343
32581
32317
32082
32218
32174
32151
32193
32299
32124
31944
32153
31938
32068
32103
31987
31922
32124
31849
31915
32070
31956
31588
31869
31729
31873
31582
31690
31762
31537
31865
31812
31637
31452
31822
31860
31574
31557
31533
31695
31658
31731
31520
31657
31650
31496
31705
31630
31556
31566
31824
31688
31669
31691
31679
31611
31552
31615
31558
31481
31637
31443
31615
31441
31511
31719
31406
31293
31643
31725
31612
31315
31469
31471
31275
31415
31552
31383
31539
31620
31356
31474
31567
31626
31618
31338
31330
31412
31567
31226
31536
31398
31575
31577
31645
31741
31403
31631
31515
31564
31338
31527
31498
31482
31410
31461
31376
31456
31368
31504
31394
31246
30932
31227
31264
30872
30862
31090
30953
30887
30728
30915
30593
30633
30622
30831
30575
30414
30423
30627
30561
30471
30633
30549
30284
30380
30392
30275
30428
30485
30298
30504
30446
30599
30462
30512
30531
30734
30505
30212
30581
30802
30522
30251
30688
30499
30548
30361
30686
30680
30548
30578
30817
30687
30674
30679
30901
30649
30396
30610
30601
30773
30492
30942
30645
30573
30825
30672
30893
30647
30897
30991
30890
30783
30720
30667
30736
30804
30999
30814
30696
30564
30851
30682
30615
30801
30908
30897
30516
30755
30919
30841
30507
30980
30802
30819
30645
30739
30709
30891
30817
30735
30944
30476
30892
30740
30927
30934
30949
31018
30948
30961
30756
30892
30851
30914
31023
30758
30704
30782
31089
30880
30659
30889
31025
30834
30618
31087
30924
30712
30713
31050
30783
30594
30829
31159
30993
30807
31048
31186
31009
30790
31175
31232
30805
30972
31004
31242
30899
31128
31194
30924
31004
30988
31297
31098
30892
31239
31232
31017
30900
31121
30772
30849
30788
30714
30565
30572
30431
30306
30111
30003
30233
30136
30086
29995
30306
30030
29701
30030
29837
29878
29640
30027
30042
29681
29872
30048
29719
29585
29815
29886
29830
29709
29733
29610
29739
29652
29661
29551
29598
29756
29932
29841
29613
29614
30042
29979
29661
29788
29827
29863
29816
30037
29817
29898
29946
29993
29850
29939
29898
29841
29919
29846
29899
29836
29681
29753
29708
29812
29922
29606
29906
29711
29779
29664
29869
29760
29847
30019
30166
29971
29869
30016
30086
29820
29725
30028
29806
29963
29840
30175
29867
29930
30074
30194
29869
29815
30115
30079
30019
29884
30089
30092
30046
29849
30168
30027
29951
29808
30079
29924
29830
30025
30020
29818
29700
30013
29915
29821
29758
29953
29837
30023
29977
30132
29928
29705
30041
30149
29959
29875
29934
30059
29826
30005
30216
30135
30015
30001
30123
29939
29889
30034
29872
29817
29954
30017
29865
30056
29863
30137
30112
30086
30049
30199
30135
29825
30095
30238
29943
30008
30030
29973
29712
29465
29512
29485
29367
29256
29317
29391
28956
29045
29181
29161
28856
28896
29012
28839
28751
28951
29040
28741
28989
28797
28874
28902
28660
28616
28552
28566
28648
28595
28550
28555
28665
28628
28569
28563
28595
28602
28675
28636
28857
28648
28815
28879
29016
28721
28728
28823
28997
28872
28902
28922
28783
28943
28909
29025
28730
28596
28944
28796
28696
28652
28746
29008
28730
28973
28992
28807
28756
28915
29199
28893
29104
28996
29125
29017
29088
28977
29108
29124
29092
29070
28926
28912
29030
28976
28976
28977
29161
29084
29003
28857
29290
29032
29205
29238
29217
29235
29293
29226
29362
29285
28997
29201
29208
29349
29180
29170
29157
29163
29119
29394
29303
29244
29049
29372
29222
29354
29370
29225
29316
29479
29387
29479
29226
29542
29508
29332
29488
29342
29537
29483
29398
29478
29455
29557
29383
29310
29341
29535
29268
29476
29334
29494
29420
29382
29546
29494
29559
29587
29559
29350
29575
29665
29549
29486
29610
29595
29448
29509
29655
29492
29384
29375
29397
29240
29141
29205
29163
29045
28941
29039
29003
28863
28687
28940
28822
28651
28661
28926
28735
28525
28642
28546
28497
28352
28477
28489
28369
28328
28372
28504
28256
28377
28320
28559
28164
28411
28465
28586
28498
28671
28483
28463
28401
28689
28722
28574
28609
28681
28545
28569
28698
28545
28761
28667
28677
28590
28714
28631
28707
28671
28748
28804
28991
28845
28727
28860
28952
28906
28848
29003
28919
28950
28951
29037
29043
28864
28948
29035
28987
29159
29213
29293
29232
29204
29249
29123
29084
29248
29161
29289
29216
29284
29478
29348
29467
29480
29316
29334
29270
29629
29435
29399
29525
29597
29494
29327
29606
29501
29612
29740
29822
29618
29723
29536
29852
29860
29997
29972
29928
30228
30047
30249
30153
30254
29825
30072
30248
30198
30148
30110
30033
30142
30201
30291
30292
30322
30371
30270
30374
30170
30522
30497
30488
30449
30676
30716
30624
30599
30845
30751
30677
30782
30695
30829
30847
30763
30930
30879
30774
31063
30801
30925
30672
31058
31075
30800
30848
31104
30855
30773
30775
30500
30574
30483
30602
30469
30020
29917
30101
30163
29717
29825
30106
29907
29800
29792
29844
29840
29743
29713
29910
29581
29710
29620
29680
29533
29685
29862
29612
29392
29655
29568
