21973
22033
22018
22077
22017
22125
22151
22087
21994
22115
22135
21994
22000
22061
22086
22044
22012
22060
22050
22033
22023
22085
22065
22017
22098
22109
22023
22036
22022
22101
22070
21984
22078
21966
22032
22044
21954
22005
21909
22060
22006
22030
21960
21988
22086
22016
22105
22018
22068
22117
22125
22196
22144
22175
22176
22136
22261
22189
22286
22251
22269
22192
22264
22168
22158
22124
22094
22102
22117
22110
22061
22049
21998
22092
22075
22018
22067
22052
22061
22009
22013
22055
21958
21939
22011
21987
21935
22019
21958
21907
21970
21943
22037
22111
22032
21977
22069
22053
22062
21995
21960
22053
21998
22017
22054
22004
21997
21992
22026
21949
22040
22017
22049
22040
22047
22081
22028
22004
22057
22037
22053
22068
22029
22065
22001
22082
22083
22174
22098
22132
22236
22215
22204
22298
22226
22272
22243
22314
22364
22300
22334
22428
22420
22337
22467
22409
22430
22462
22481
22535
22514
22597
22551
22567
22580
22533
22550
22554
22553
22556
22616
22551
22480
22577
22669
22558
22589
22575
22545
22519
22525
22526
22520
22541
22518
22449
22494
22493
22491
22481
22492
22549
22503
22517
22574
22471
22546
22511
22444
22444
22437
22459
22514
22548
22442
22498
22477
22431
22445
22469
22413
22359
22288
22169
22147
22211
22124
21968
22068
22054
21976
21854
21957
21922
21787
21832
21819
21712
21695
21747
21848
21713
21769
21719
21659
21736
21760
21735
21781
21675
21773
21860
21847
21862
21807
21959
21886
21870
21986
21922
21940
21978
21969
21903
21915
21988
21922
21984
21919
22008
22027
22029
21952
22069
21998
22036
22085
22011
22105
22043
22050
22030
22092
22100
22101
22041
22128
22108
22107
22044
22076
22040
22133
22015
22136
22075
22135
22141
22113
22155
22150
22204
22206
22215
22204
22235
22280
22282
22322
22245
22217
22313
22257
22188
22229
22236
22254
22288
22260
22256
22194
22205
22219
22195
22095
22190
22083
22141
22134
22059
22079
22057
22075
22127
22115
22093
22039
22172
22041
22073
22069
22199
22193
22171
22129
22100
22120
22044
22134
22114
22132
22175
22145
22178
22192
22184
22154
22187
22224
22145
22200
22078
22092
22038
21903
21947
21886
21872
21782
21857
21742
21793
21749
21765
21679
21850
21745
21809
21759
21803
21785
21746
21813
21792
21754
21731
21742
21718
21757
21702
21665
21682
21705
21670
21641
21624
21631
21703
21610
21637
21707
21702
21692
21635
21672
21690
21687
21678
21690
21806
21703
21763
21722
21770
21706
21762
21757
21786
21756
21723
21809
21806
21701
21782
21876
21860
21911
21887
21882
21924
21839
21977
22020
21945
21957
21966
21916
21887
21940
22006
21975
21941
21939
21926
21933
22004
22031
21996
21976
21929
22033
22034
21948
21949
21939
21938
21803
21948
21835
21904
21847
21870
21901
21923
21921
21908
21894
21867
21912
21944
21893
21912
21878
21832
21854
21814
21899
21888
21814
21900
21864
21855
21908
21916
21873
21946
21884
21998
22027
21949
21940
21932
22068
22010
21878
21908
22061
21959
21877
21949
21875
21848
21852
21886
21831
21825
21724
21724
21734
21683
21681
21635
21640
21574
21640
21555
21574
21529
21490
21518
21460
21511
21420
21463
21410
21425
21411
21403
21396
21394
21431
21417
21427
21348
21380
21419
21384
21514
21384
21393
21507
21366
21368
21416
21388
21402
21435
21456
21359
21402
21349
21429
21488
21424
21397
21422
21416
21395
21425
21370
21421
21333
21405
21452
21408
21388
21425
21496
21438
21418
21463
21449
21422
21400
21518
21481
21378
21479
21455
21536
21438
21504
21550
21593
21566
21544
21631
21572
21654
21677
21539
21559
21562
21609
21640
21698
21691
21629
21681
21636
21763
21725
21794
21782
21749
21782
21729
21757
21822
21804
21729
21757
21775
21774
21676
21812
21820
21715
21766
21812
21806
21689
21739
21710
21835
21770
21791
21940
21806
21844
21869
21841
21831
21906
21883
21882
21897
21825
21965
21871
21853
21910
21945
21830
21836
21877
21841
21774
21676
21771
21698
21713
21578
21610
21623
21564
21531
21566
21536
21570
21572
21550
21510
21455
21603
21573
21640
21497
21658
21575
21504
21590
21623
21552
21594
21515
21506
21500
21568
21510
21591
21494
21507
21646
21584
21509
21556
21500
21577
21477
21552
21621
21502
21583
21585
21559
21538
21525
21490
21563
21479
21525
21617
21568
21530
21559
21523
21599
21611
21661
21584
21642
21599
21656
21628
21569
21675
21643
21641
21643
21687
21624
21679
21677
21727
21780
21732
21830
21725
21786
21851
21868
21907
21835
21908
21878
21904
21855
21927
21939
21881
21914
21818
21904
21899
21862
21887
21826
21923
21975
21919
22004
21993
21922
21954
22044
22008
21925
21936
22022
22003
21962
22072
21986
21960
22072
22026
22096
22174
22159
22135
22103
22118
22172
22215
22148
22198
22127
22228
22262
22190
22257
22238
22164
22183
22103
22077
22073
22029
22064
21976
21914
21961
21915
21865
21848
21758
21835
21742
21702
21703
21661
21646
21708
21737
21723
21637
21751
21707
21611
21655
21670
21711
21672
21625
21718
21633
21534
21613
21694
21572
21594
21652
21652
21602
21689
21735
21675
21687
21696
21689
21665
21622
21724
21624
21642
21703
21714
21675
21633
21686
21748
21766
21694
21792
21663
21792
21632
21733
21777
21670
21706
21752
21737
21805
21783
21757
21767
21818
21780
21783
21817
21821
21894
21851
21897
21846
21949
21907
21805
21886
21923
21898
21815
21869
21960
21864
21867
21835
21890
21870
21874
21923
21849
21821
21872
21873
21841
21859
21818
21934
21827
21806
21802
21848
21799
21837
21878
21813
21860
21847
21764
21874
21822
21908
21847
21826
21868
21881
21898
21869
21816
21899
21876
21835
21868
21832
21896
21863
21878
21948
21866
21934
21877
21936
21891
21743
21757
21739
21758
21709
21670
21669
21550
21552
21575
21484
21496
21442
21521
21465
21497
21506
21482
21402
21347
21459
21459
21381
21332
21343
21408
21405
21366
21284
21414
21341
21314
21373
21307
21289
21271
21304
21323
21289
21262
21259
21325
21257
21367
21347
21283
21350
21277
21340
21253
21239
21284
21229
21256
21278
21245
21210
21187
21305
21260
21199
21206
21272
21196
21240
21347
21307
21246
21306
21212
21275
21260
21338
21374
21280
21344
21256
21270
21304
21346
21426
21324
21383
21436
21482
21456
21376
21447
21499
21473
21516
21422
21523
21398
21424
21535
21422
21414
21402
21391
21468
21374
21455
21442
21479
21472
21506
21498
21491
21500
21462
21533
21484
21525
21608
21526
21493
21562
21593
21546
21531
21613
21555
21600
21566
21631
21538
21511
21561
21644
21547
21604
21593
21563
21546
21563
21573
21577
21590
21620
21667
21588
21596
21512
21543
21432
21358
21386
21290
21293
21185
21226
21191
21254
21181
21172
21129
21029
21068
21140
21045
21076
21049
21077
21069
21047
21015
21032
21038
21091
21128
21091
21124
21095
21018
21098
21013
21077
21001
21003
21046
21029
21055
21053
21021
21130
21101
21144
21056
21101
21149
21120
21189
21152
21211
21195
21207
21134
21151
21124
21134
21226
21137
21163
21242
21202
21230
21158
21178
21177
21146
21251
21238
21332
21288
21406
21359
21376
21457
21438
21444
21451
21436
21510
21446
21465
21480
21399
21417
21514
21504
21453
21438
21473
21515
21543
21462
21595
21574
21603
21522
21578
21552
21505
21477
21555
21580
21475
21525
21567
21594
21614
21557
21573
21591
21490
21540
21630
21621
21519
21554
21551
21609
21521
21605
21584
21633
21608
21601
21648
21565
21703
21666
21620
21584
21674
21596
21671
21596
21738
21629
21679
21650
21700
21645
21642
21548
21603
21497
21431
21487
21455
21345
21353
21332
21293
21234
21312
21330
21268
21130
21253
21266
21126
21197
21129
21159
21067
21048
21103
21053
21095
21059
21030
21082
21057
21101
21192
21149
21061
21073
21220
21090
21109
21127
21114
21056
21139
21067
21138
21176
21151
21251
21227
21229
21226
21223
21233
21278
21255
21273
21259
21328
21327
21319
21249
21343
21405
21303
21399
21411
21340
21401
21325
21412
21455
21450
21473
21482
21496
21403
21474
21574
21510
21516
21509
21561
21556
21541
21541
21557
21630
21524
21517
21599
21528
21590
21517
21618
21568
21542
21666
21537
21509
21546
21611
21452
21608
21582
21521
21445
21586
21497
21590
21498
21517
21633
21559
21453
21580
21480
21520
21483
21467
21513
21441
21534
21553
21570
21600
21587
21626
21671
21662
21686
21706
21733
21751
21822
21796
21831
21764
21815
21810
21665
21731
21850
21821
21682
21769
21686
21705
21596
21622
21608
21469
21544
21518
21513
21426
21451
21392
21389
21397
21350
21329
21309
21264
21212
21242
21169
21223
21255
21223
21242
21245
21297
21193
21156
21163
21203
21158
21220
21108
21227
21128
21143
21213
21165
21200
21219
21259
21161
21181
21224
21238
21271
21242
21277
21261
21161
21248
21347
21273
21166
21276
21232
21222
21292
21312
21346
21243
21251
21307
21363
21244
21320
21325
21321
21325
21300
21332
21405
21382
21441
21435
21369
21374
21395
21505
21432
21420
21461
21408
21479
21567
21536
21569
21543
21617
21552
21582
21499
21562
21599
21629
21586
21533
21591
21603
21570
21619
21615
21632
21568
21605
21548
21576
21604
21519
21521
21527
21570
21560
21464
21547
21576
21537
21506
21558
21624
21575
21526
21559
21707
21556
21615
21694
21675
21720
21658
21667
21653
21672
21643
21606
21714
21649
21718
21757
21717
21630
21600
21640
21675
21602
21661
21625
21581
21553
21453
21547
21462
21467
21453
21393
21311
21325
21319
21212
21321
21337
21270
21262
21209
21198
21151
21152
21179
21189
21135
21128
21210
21140
21083
21074
21066
21058
21128
21132
21051
21064
21012
21137
21051
21169
21103
21159
21113
21128
21080
21061
21061
21061
21093
21099
21098
21017
21110
21060
21118
21047
21216
21144
21134
21161
21107
21188
21196
21116
21186
21111
21205
21125
21088
21153
21108
21190
21186
21240
21237
21226
21211
21245
21227
21194
21256
21214
21235
21311
21279
21217
21213
21280
21155
21251
21216
21295
21207
21260
21297
21291
21311
21294
21231
21302
21265
21286
21310
21281
21275
21286
21357
21314
21264
21279
21277
21284
21342
21296
21352
21174
21252
21307
21284
21282
21276
21298
21333
21319
21306
21356
21355
21368
21424
21406
21435
21434
21434
21298
21315
21394
21312
21240
21222
21159
21200
21180
21126
21125
20995
20975
21016
20967
20885
20913
20887
20963
20824
20901
20914
20879
20911
20810
20879
20819
20748
20874
20796
20827
20835
20742
20700
20747
20748
20737
20731
20683
20725
20735
20689
20723
20794
20714
20729
20687
20698
20736
20754
20695
20802
20721
20771
20769
20728
20833
20789
20799
20763
20840
20765
20810
20830
20767
20840
20787
20789
20807
20805
20894
20767
20747
20864
20871
20778
20800
20892
20867
20887
20853
20825
20850
20814
20813
20911
20834
20811
20906
20902
20831
20837
20942
20980
20916
20902
20850
20901
20999
20905
20999
20901
20932
20929
20996
20926
20966
21060
21045
20900
20980
20963
21025
20918
21048
20960
21011
21061
21034
21078
21064
21044
21076
21005
21072
20993
21072
21041
21109
21155
21106
21155
21085
21226
21151
21234
21158
21254
21197
21184
21260
21196
21242
21197
21255
21188
21193
21133
21120
21103
21004
21007
20959
20904
20891
20914
20863
20883
20833
20812
20840
20787
20731
20788
20785
20703
20640
20730
20677
20644
20642
20626
20628
20631
20595
20585
20604
20630
20549
20590
20572
20568
20592
20614
20518
20570
20627
20553
20535
20580
20609
20587
20547
20614
20646
20649
20689
20629
20647
20627
20703
20744
20731
20769
20723
20673
20729
20724
20734
20777
20815
20767
20866
20784
20830
20779
20812
20884
20901
20809
20811
20820
20902
20872
20929
20988
20879
20956
21031
20972
20997
21057
21042
21053
21066
21044
21043
21134
21084
21104
21115
21102
21110
21109
21108
21116
21101
21045
21001
21057
21052
21049
21099
21054
21112
21099
20968
21056
21044
21124
21158
21100
21206
21120
21190
21186
21151
21095
21168
21263
21243
21093
21160
21109
21165
21169
21246
21203
21236
21166
21249
21251
21279
21211
21190
21269
21141
21267
21142
21147
21100
21106
21124
21076
21027
20969
21026
21002
20938
20872
20942
20846
20951
20773
20908
20819
20896
20942
20769
20858
20812
20835
20812
20845
20758
20818
20755
20797
20732
20847
20797
20836
20836
20775
20867
20841
20868
20878
20860
20869
20880
20820
20910
20906
20938
20905
20874
20927
20881
20940
20975
20989
20874
21023
20941
21011
20983
21035
21014
21060
21120
21092
21126
21138
21051
21070
21122
21045
21179
21187
21207
21104
21180
21159
21182
21225
21276
21272
21335
21345
21448
21376
21397
21392
21419
21399
21469
21448
21420
21510
21505
21506
21487
21451
21509
21530
21505
21492
21511
21550
21572
21516
21499
21495
21539
21466
21543
21524
21468
21516
21503
21523
21452
21535
21589
21537
21515
21599
21671
21606
21612
21656
21700
21623
21607
21658
21637
21632
21527
21627
21643
21597
21612
21607
21613
21604
21711
21623
21630
21605
21656
21597
21452
21506
21451
21455
21357
21389
21416
21343
21296
21213
21234
21198
21200
21178
21197
21202
21115
21180
21100
21123
21039
21025
21074
21089
21045
21023
21117
20937
21038
21102
21014
21009
21144
21059
21101
21091
21175
21142
21055
21040
21049
21071
21056
21114
21052
21066
21109
21147
21098
21043
21104
21120
21196
21095
21196
21222
21225
21226
21277
21267
21245
21370
21411
21358
21467
21380
21437
21419
21442
21432
21435
21448
21421
21485
21525
21569
21472
21562
21524
21518
21521
21623
21594
21586
21603
21658
21565
21635
21615
21704
21685
21663
21651
21637
21666
21698
21644
21662
21600
21673
21628
21638
21563
21676
21633
21595
21597
21638
21608
21654
21641
21680
21636
21646
21617
21630
21673
21636
21625
21667
21621
21615
21611
21676
21574
21641
21751
21665
21669
21745
21680
21686
21731
21799
21663
21743
21673
21734
21690
21679
21619
21572
21525
21468
21533
21527
21420
21394
21435
21331
21366
21264
21255
21212
21287
21256
21284
21238
21232
21224
21267
21261
21119
21199
21289
21169
21175
21271
21214
21195
21201
21295
21223
21207
21242
21251
21168
21126
21254
21282
21156
21157
21253
21285
21212
21231
21272
21282
21212
21306
21311
21251
21283
21231
21290
21236
21329
21261
21270
21325
21312
21240
21297
21305
21378
21339
21427
21342
21404
21409
21418
21401
21460
21469
21454
21473
21499
21493
21444
21526
21570
21552
21490
21537
21642
21506
21482
21503
21583
21608
21483
21516
21561
21504
21548
21560
21573
21508
21614
21609
21599
21491
21536
21528
21519
21554
21535
21537
21603
21552
21547
21537
21607
21537
21502
21562
21494
21586
21581
21591
21575
21588
21600
21632
21619
21572
21603
21605
21594
21667
21687
21634
21592
21590
21636
21563
21728
21594
21520
21494
21424
21387
21395
21386
21357
21326
21311
21207
21245
21113
21144
21140
21059
21043
21140
21128
21114
20999
21045
21073
21058
20940
21097
20993
21049
20971
21049
21061
20971
21024
21108
21000
20962
21035
21047
21106
21058
21132
21116
21182
21150
21111
21112
21177
21163
21169
21181
21088
21163
21201
21193
21082
21198
21190
21168
21201
21242
21205
21194
21151
21215
21198
21125
21197
21224
21237
21217
21267
21266
21307
21250
21300
21329
21296
21291
21348
21349
21332
21359
21358
21362
21372
21440
21391
21389
21355
21461
21566
21467
21410
21511
21476
21458
21519
21555
21525
21511
21530
21550
21553
21594
21613
21635
21575
21532
21657
21608
21581
21641
21595
21660
21608
21633
21736
21628
21628
21688
21670
21632
21622
21621
21642
21617
21649
21652
21699
21665
21705
21741
21749
21738
21794
21772
21741
21775
21786
21720
21610
21683
21593
21627
21592
21544
21482
21534
21500
21419
21379
21368
21410
21366
21390
21412
21377
21410
21294
21212
21287
21265
21286
21287
21290
21271
21284
21294
21304
21288
21260
21264
21211
21240
21194
21258
21237
21246
21168
21205
21247
21219
21144
21251
21175
21104
21239
21212
21187
21171
21235
21245
21170
21238
21276
21280
21241
21282
21388
21322
21293
21318
21259
21391
21352
21308
21359
21375
21346
21416
21396
21469
21421
21418
21500
21466
21448
21512
21502
21557
21594
21594
21567
21588
21620
21704
21670
21690
21714
21600
21656
21760
21653
21701
21646
21702
21780
21743
21670
21761
21767
21776
21789
21797
21826
21775
21821
21794
21859
21852
21843
21800
21834
21797
21840
21791
21767
21755
21831
21872
21822
21838
21843
21815
21773
21856
21836
21909
21789
21893
21902
21924
21927
21898
21952
21865
21904
21993
21919
21883
21810
21840
21864
21692
21638
21613
21690
21555
21590
21534
21519
21468
21556
21466
21494
21421
21409
21416
21355
21327
21398
21316
21292
21306
21282
21283
21215
21256
21228
21247
21210
21172
21168
21086
21180
21098
21158
21060
21126
21120
21109
21148
21074
21111
21135
21182
21121
21116
21204
21202
21199
21200
21223
21247
21186
21229
21183
21247
21209
21131
21229
21210
21201
21167
21273
21300
21301
21257
21330
21291
21372
21372
21432
21362
21344
21356
21310
21399
21395
21341
21334
21372
21376
21383
21420
21349
21400
21450
21411
21374
21419
21406
21383
21432
21374
21409
21359
21401
21348
21350
21385
21415
21466
21488
21405
21454
21435
21443
21441
21502
21532
21505
21364
21492
21399
21412
21414
21443
21500
21459
21471
21426
21431
21536
21571
21548
21535
21483
21524
21649
21594
21504
21622
21619
21573
21534
21523
21584
21449
21523
21471
21454
21414
21371
21277
21256
21181
21313
21136
21130
21175
21081
21147
21118
21092
21091
21084
21037
21004
21028
21003
20995
21012
20991
20887
20933
20953
20949
20829
20915
20885
20953
20960
20877
20962
20994
21023
20926
21001
21001
20971
20955
20983
20948
20957
20941
20932
20903
20958
20949
20934
20936
20992
20953
20917
20963
20994
20992
20935
20989
21002
21025
20937
21064
21053
21108
21061
21089
21080
21101
21061
21124
21153
21116
21188
21221
21234
21207
21244
21261
21260
21309
21280
21315
21288
21279
21303
21186
21193
21254
21210
21276
21171
21261
21289
21300
21273
21348
21351
21343
21355
21327
21363
21290
21353
21433
21387
21281
21399
21473
21363
21421
21454
21527
21506
21499
21459
21479
21423
21522
21523
21456
21445
21483
21526
21516
21423
21559
21588
21439
21537
21516
21562
21541
21499
21431
21452
21341
21457
21467
21332
21341
21303
21212
21201
21141
21141
21070
21033
21020
21000
21010
20954
20959
20940
20945
20949
20983
20926
20970
20912
20948
20977
20942
20894
20952
20962
20931
20957
20977
21000
20859
21004
20931
20992
20931
21032
21036
20995
21013
20974
21039
20988
21034
20963
20949
20885
21032
20949
21008
21020
21080
21010
21056
21039
21013
21039
20940
21061
21088
21082
21058
21077
21073
21120
21109
21122
21157
21042
21111
21172
21159
21236
21247
21180
21221
21328
21354
21418
21299
21354
21373
21373
21357
21396
21415
21434
21367
21397
21526
21382
21331
21445
21369
21445
21341
21378
21354
21414
21346
21404
21366
21289
21330
21416
21409
21356
21339
21369
21369
21326
21369
21482
21355
21349
21440
21399
21425
21435
21446
21472
21457
21458
21473
21568
21607
21586
21566
21536
21597
21597
21594
21564
21593
21558
21614
21469
21602
21544
21527
21348
21430
21314
21290
21273
21265
21308
21221
21175
21315
21235
21197
21167
21243
21085
21198
21118
21142
21097
21123
21125
21138
21104
21175
21055
21127
21005
21136
21054
21128
21027
21099
21046
21159
21086
21180
21089
21201
21100
21175
21126
21053
21178
21138
21083
21088
21160
21147
21167
21162
21171
21180
21195
21175
21124
21188
21205
21185
21208
21147
21141
21211
21175
21192
21192
21200
21209
21262
21198
21185
21245
21253
21284
21322
21293
21328
21251
21291
21363
21298
21345
21338
21313
21303
21451
21428
21337
21378
21367
21350
21385
21437
21334
21359
21318
21418
21353
21392
21394
21428
21500
21460
21422
21420
21509
21423
21409
21422
21403
21410
21448
21432
21384
21389
21443
21427
21422
21438
21498
21487
21464
21522
21518
21493
21533
21590
21547
21531
21567
21666
21624
21580
21548
21520
21552
21549
21499
21509
21412
21422
21319
21326
21330
21342
21266
21297
21163
21190
21176
21156
21131
21148
21165
21160
21155
21098
21154
21180
21155
21120
21167
21045
21183
21181
21166
21141
21164
21216
21174
21128
21206
21181
21164
21197
21242
21248
21273
21240
21317
21274
21200
21302
21322
21303
21247
21323
21378
21312
21389
21303
21379
21382
21358
21358
21420
21395
21420
21373
21423
21419
21492
21399
21496
21424
21524
21456
21473
21514
21559
21549
21524
21571
21528
21609
21497
21555
21566
21561
21604
21584
21593
21497
21625
21547
21595
21644
21555
21540
21551
21510
21546
21573
21570
21575
21622
21584
21632
21517
21707
21617
21537
21624
21596
21649
21563
21605
21574
21575
21665
21610
21705
21668
21680
21670
21676
21608
21731
21646
21679
21675
21690
21760
21691
21752
21790
21756
21720
21709
21820
21779
21730
21717
21676
21657
21642
21646
21670
21590
21517
21582
21554
21543
21455
21507
21481
21480
21416
21383
21379
21323
21371
21441
21380
21297
21331
21455
21300
21320
21271
21316
21236
21331
21307
21351
21267
21330
21354
21347
21319
21395
21428
21341
21395
21394
21359
21304
21364
21407
21346
21336
21352
21464
21291
21351
21370
21385
21297
21313
21341
21333
21393
21386
21319
21322
21354
21394
21308
21334
21295
21398
21422
21365
21408
21363
21431
21420
21422
21459
21389
21432
21456
21453
21392
21541
21501
21519
21455
21483
21463
21467
21465
21568
21493
21535
21511
21561
21529
21532
21512
21541
21618
21521
21513
21542
21569
21505
21538
21651
21607
21493
21598
21610
21571
21572
21658
21557
21535
21642
21594
21571
21509
21622
21576
21599
21647
21715
21637
21643
21682
21656
21630
21712
21598
21738
21649
21741
21662
21674
21600
21514
21534
21549
21481
21504
21433
21322
21402
21290
21296
21270
21209
21175
21295
21225
21089
21160
21091
21138
21181
21120
21093
21101
21044
21103
21166
21040
21147
21197
21147
21123
21117
21131
21093
21075
21115
21118
21099
21185
21194
21117
21159
21095
21173
21207
21140
21222
21137
21170
21228
21250
21188
21217
21222
21295
21226
21261
21263
21253
21326
21211
21321
21444
21407
21362
21434
21411
21475
21442
21517
21526
21411
21518
21429
21472
21560
21545
21595
21541
21575
21604
21584
21635
21561
21596
21695
21558
21649
21562
21692
21661
21600
21587
21589
21643
21664
21631
21651
21667
21747
21810
21744
21698
21784
21742
21645
21760
21754
21720
21661
21718
21793
21728
21666
21764
21752
21741
21683
21707
21738
21753
21741
21753
21799
21746
21820
21772
21690
21826
21741
21768
21829
21789
21807
21842
21826
21734
21707
21722
21684
21564
21611
21444
21392
21450
21288
21392
21365
21267
21279
21158
21180
21284
21187
21160
21169
21142
21145
21020
21141
21121
21042
21009
21072
21147
21086
21100
21120
21142
21119
21075
21012
21081
21136
21138
21061
21073
21101
21105
21155
21142
21105
21067
21145
21088
21167
21225
21185
21221
21228
21263
21185
21124
21216
21326
21190
21262
21255
21269
21290
21323
21319
21294
21287
21281
21342
21333
21247
21281
21461
21422
21376
21455
21460
21405
21468
21526
21529
21477
21601
21613
21601
21643
21668
21665
21681
21687
21689
21685
21683
21712
21697
21727
21694
21759
21856
21783
21849
21865
21864
21768
21764
21858
21943
21795
21784
21907
21798
21817
21866
21850
21857
21754
21891
21875
21908
21886
21869
21939
21828
21967
21997
21941
21938
21959
21919
21954
21960
21987
21970
21958
21947
21992
22001
22023
21980
22014
21944
21824
21866
21865
21746
21763
21776
21716
21655
21494
21600
21471
21486
21427
21468
21440
21336
21432
21444
21358
21413
21342
21388
21338
21428
21362
21415
21369
21348
21427
21392
21314
21410
21405
21427
21370
21464
21510
21475
21441
21510
21521
21451
21486
21533
21508
21470
21522
21607
21522
21570
21561
21665
21604
21553
21658
21580
21590
21668
21710
21674
21664
21665
21774
21662
21771
21735
21674
21706
21719
21774
21803
21745
21763
21841
21858
21779
21858
21777
21846
21949
21878
21898
21923
21940
21964
22012
22000
22027
22093
22071
21959
22074
22033
22041
22024
22092
22184
22131
22071
22107
22162
22084
22062
22120
22188
22185
22130
22222
22127
22075
22145
22147
22106
22120
22121
22135
22220
22168
22196
22174
22186
22176
22230
22198
22250
22199
22269
22241
22263
22284
22201
22252
22204
22297
22218
22204
22169
22099
22138
22092
22079
22028
21997
21883
21897
21845
21841
21720
21774
21677
21593
21635
21591
21559
21544
21529
21438
21450
21464
21350
21328
21352
21381
21415
21350
21381
21356
21319
21278
21312
21307
21291
21300
21304
21304
21390
21284
21334
21310
21380
21394
21371
21419
21396
21343
21387
21371
21388
21424
21400
21364
21345
21394
21422
21437
21333
21397
21439
21449
21422
21474
21457
21455
21501
21598
21464
21525
21577
21617
21533
21547
21561
21523
21627
21612
21638
21596
21644
21581
21627
21624
21608
21604
21634
21644
21560
21714
21616
21693
21653
21634
21610
21605
21531
21654
21722
21614
21637
21658
21696
21660
21607
21637
21663
21658
21630
21627
21625
21673
21662
21658
21657
21653
21688
21703
21662
21705
21748
21706
21713
21703
21701
21728
21643
21758
21680
21767
21762
21818
21732
21829
21718
21813
21748
21732
21721
21750
21742
21625
21636
21517
21539
21419
21527
21396
21479
21369
21420
21365
21239
21337
21392
21316
21331
21282
21293
21286
21193
21226
21227
21266
21197
21272
21256
21199
21249
21350
21278
21247
21319
21377
21364
21238
21329
21389
21252
21260
21357
21367
21309
21313
21259
21321
21290
21270
21354
21331
21213
21255
21302
21319
21323
21317
21270
21290
21355
21323
21285
21298
21374
21351
21319
21349
21401
21310
21394
21324
21453
21400
21401
21379
21469
21428
21478
21449
21444
21458
21452
21537
21550
21541
21540
21640
21619
21624
21635
21712
21669
21780
21655
21701
21745
21695
21690
21778
21688
21651
21802
21701
21780
21711
21687
21756
21729
21780
21689
21747
21750
21745
21760
21747
21778
21776
21805
21804
21868
21777
21823
21957
21883
21884
21925
21929
21964
21990
21931
21999
21959
22046
22058
22025
22003
22038
21866
21957
21984
21900
21889
21800
21747
21765
21709
21699
21626
21625
21471
21541
21498
21395
21407
21362
21427
21364
21304
21320
21313
21227
21239
21227
21269
21214
21221
21212
21120
21143
21096
21170
21080
21161
21130
21099
21025
21144
21161
21066
21100
21131
21113
21167
21084
21102
21049
21074
21106
21157
21141
21032
21146
21056
21185
21152
21167
21153
21062
21179
21081
21171
21062
21103
21222
21115
21165
21240
21238
21206
21146
21184
21189
21193
21232
21228
21207
21261
21227
21254
21244
21280
21266
21306
21347
21304
21408
21367
21329
21410
21341
21397
21421
21359
21464
21329
21337
21397
21352
21374
21372
21410
21404
21383
21505
21557
21454
21560
21477
21565
21477
21536
21533
21508
21500
21492
21519
21534
21561
21514
21618
21588
21584
21534
21619
21548
21504
21534
21594
21609
21500
21682
21624
21538
21611
21648
21618
21576
21627
21671
21597
21528
21541
21524
21481
21442
21470
21365
21279
21336
21334
21279
21187
21234
21242
21173
21210
21164
21179
21210
21198
21196
21093
21214
21143
21112
21059
21168
21120
21068
21151
21120
21084
21161
21145
21084
21191
21240
21142
21195
21192
21212
21166
21213
21278
21232
21202
21279
21243
21253
21271
21198
21325
21219
21220
21228
21267
21223
21251
21234
21275
21321
21250
21281
21272
21240
21347
21350
21339
21238
21394
21338
21281
21318
21375
21342
21303
21368
21291
21425
21383
21462
21494
21471
21425
21538
21471
21397
21520
21453
21559
21500
21544
21590
21479
21525
21598
21631
21610
21498
21646
21541
21506
21602
21522
21623
21627
21561
21550
21600
21423
21521
21608
21556
21518
21603
21556
21513
21571
21496
21561
21578
21588
21628
21620
21650
21655
21557
21710
21666
21702
21749
21724
21785
21745
21800
21781
21737
21752
21759
21724
21737
21836
21645
21601
21666
21691
21675
21585
21655
21537
21548
21523
21481
21472
21468
21407
21380
21381
21377
21349
21391
21279
21365
21383
21364
21406
21331
21310
21393
21420
21410
21440
21409
21354
21425
21334
21382
21399
21369
21433
21377
21358
21357
21438
21449
21395
21435
21436
21384
21387
21540
21394
21408
21485
21542
21517
21483
21489
21547
21502
21469
21523
21482
21573
21495
21540
21461
21500
21623
21549
21533
21560
21571
21571
21521
21617
21592
21617
21578
21613
21668
21646
21639
21685
21719
21763
21730
21739
21730
21699
21783
21688
21728
21759
21721
21713
21723
21774
21714
21740
21712
21746
21736
21753
21769
21774
21784
21781
21653
21801
21842
21707
21696
21815
21736
21768
21724
21793
21729
21745
21767
21810
21787
21785
21829
21778
21850
21810
21759
21861
21762
21857
21922
21905
21792
21894
21903
21872
21869
21863
21767
21732
21679
21723
21657
21622
21590
21563
21572
21454
21570
21559
21466
21447
21399
21407
21441
21439
21398
21396
21321
21392
21375
21402
21422
21341
21330
21399
21304
21387
21398
21344
21327
21391
21368
21419
21390
21483
21418
21462
21373
21428
21439
21486
21409
21491
21376
21428
21395
21438
21449
21517
21418
21466
21452
21546
21594
21561
21576
21593
21568
21517
21612
21577
21576
21553
21572
21686
21595
21560
21617
21653
21674
21596
21695
21695
21693
21771
21765
21776
21731
21776
21911
21847
21833
21865
21892
21906
21902
21913
21949
21926
21971
21991
21982
21908
22008
21936
22018
21881
21935
22037
21964
21982
22012
21937
21991
21982
21956
21923
21935
21939
22001
21954
21996
22046
22028
21990
21997
22056
22000
22025
22002
22047
22048
22039
22022
22072
22055
22065
22067
22083
22093
22076
22120
22064
22013
22020
22018
22004
21917
21908
21951
21802
21744
21790
21645
21705
21572
21563
21599
21646
21568
21601
21580
21547
21499
21461
21446
21385
21492
21401
21482
21426
21370
21388
21425
21458
21412
21397
21394
21363
21359
21355
21312
21408
21448
21408
21437
21358
21380
21368
21419
21425
21388
21419
21417
21417
21413
21451
21463
21423
21408
21374
21461
21503
21417
21403
21462
21444
21387
21420
21526
21437
21562
21471
21481
21505
21553
21513
21655
21538
21571
21604
21618
21631
21599
21607
21598
21610
21632
21699
21645
21644
21681
21694
21697
21639
21657
21699
21651
21707
21775
21710
21658
21693
21711
21692
21668
21669
21709
21723
21719
21747
21619
21725
21638
21690
21755
21672
21599
21589
21606
21659
21682
21713
21690
21681
21642
21756
21716
21608
21743
21715
21640
21697
21748
21710
21722
21768
21829
21743
21703
21757
21712
21797
21684
21758
21719
21715
21592
21622
21576
21548
21493
21512
21384
21315
21354
21363
21262
21188
21301
21206
21169
21156
21260
21254
21183
21156
21117
21148
21107
21083
21183
21094
21025
21088
21079
21037
21110
21135
21129
21038
21102
21119
21133
21037
21078
21178
21065
21126
21154
21201
21107
21095
21177
21054
21048
21144
21084
21092
21101
21104
21061
21118
21059
21074
21084
21147
21120
21131
21135
21190
21121
21085
21180
21108
21186
21159
21190
21201
21177
21215
21133
21192
21180
21194
21263
21173
21262
21186
21202
21224
21253
21303
21240
21233
21301
21229
21172
21228
21303
21181
21217
21222
21243
21256
21279
21295
21296
21300
21239
21250
21189
21238
21279
21300
21254
21342
21304
21342
21337
21353
21314
21337
21291
21351
21422
21432
21394
21453
21452
21359
21450
21547
21507
21444
21479
21591
21535
21544
21524
21538
21645
21626
21578
21564
21606
21543
21589
21467
21411
21451
21469
21323
21331
21347
21383
21304
21299
21351
21303
21298
21245
21284
21202
21275
21211
21256
21151
21094
21126
21149
21128
21134
21194
21179
21111
21160
21163
21197
21111
21219
21189
21217
21151
21289
21146
21214
21133
21254
21284
21179
21214
21158
21217
21163
21178
21307
21244
21279
21265
21327
21285
21290
21274
21242
21314
21289
21275
21337
21362
21303
21379
21333
21278
21301
21370
21379
21311
21346
21391
21336
21344
21387
21433
21346
21431
21495
21451
21389
21500
21545
21465
21481
21521
21539
21507
21603
21610
21606
21533
21605
21632
21609
21524
21589
21678
21614
21648
21622
21591
21582
21539
21585
21646
21526
21605
21581
21585
21534
21623
21680
21562
21598
21667
21626
21630
21656
21602
21682
21588
21661
21666
21681
21616
21694
21720
21717
21658
21672
21806
21688
21713
21832
21768
21804
21729
21691
21770
21721
21683
21534
21573
21574
21451
21566
21462
21428
21386
21360
21422
21348
21293
21359
21254
21300
21242
21300
21223
21236
21326
21175
21170
21195
21247
21310
21271
21192
21274
21312
21289
21315
21254
21239
21260
21331
21284
21268
21270
21265
21343
21299
21424
21297
21333
21310
21354
21294
21258
21339
21283
21349
21302
21277
21341
21237
21375
21373
21328
21414
21381
21410
21301
21373
21315
21413
21340
21389
21357
21421
21327
21366
21346
21397
21445
21407
21441
21447
21476
21417
21413
21454
21457
21511
21493
21386
21525
21518
21476
21414
21502
21474
21444
21401
21404
21435
21457
21455
21440
21493
21493
21455
21529
21508
21433
21453
21431
21494
21385
21485
21557
21417
21511
21460
21413
21514
21447
21563
21507
21441
21492
21470
21517
21487
21549
21528
21494
21558
21532
21561
21579
21553
21638
21616
21588
21558
21625
21528
21453
21560
21455
21502
21314
21323
21317
21284
21315
21249
21279
21142
21217
21225
21129
21128
21112
21135
21162
21061
21141
21156
21023
21089
21075
21090
21128
21053
21150
21059
21080
21071
21124
21112
21115
21064
21141
21114
21107
21074
21096
21126
21067
21115
21113
21014
21142
21101
21140
21020
21142
21094
21104
21180
21214
21118
21064
21184
21266
21133
21220
21188
21190
21165
21119
21235
21255
21187
21147
21243
21211
21209
21197
21201
21261
21226
21296
21312
21276
21298
21325
21282
21238
21295
21324
21323
21219
21296
21302
21339
21309
21355
21338
21340
21441
21387
21325
21400
21374
21368
21349
21273
21369
21434
21383
21374
21409
21401
21425
21398
21433
21430
21374
21406
21477
21429
21339
21388
21520
21412
21336
21431
21510
21450
21353
21426
21403
21423
21355
21434
21410
21444
21454
21479
21494
21461
21484
21569
21501
21411
21456
21439
21341
21383
21307
21296
21186
21240
21209
21163
21070
21130
21079
21083
21096
21074
21053
21013
21013
21019
20979
20917
20962
21028
20964
20916
20925
20958
20930
20989
20967
20865
20946
20900
20891
20889
20994
20883
20999
20942
20911
20944
20951
20896
20911
20954
20932
20868
20916
21033
20905
20972
20986
21028
21000
20892
21013
21059
21041
20986
21076
20999
21014
20998
21017
20954
21042
21010
20970
20986
21037
21061
21026
21016
21073
21068
21003
21036
21074
21072
21058
21165
21101
21086
21144
21156
21171
21196
21139
21074
21190
21219
21178
21124
21176
21225
21190
21093
21155
21222
21243
21246
21211
21245
21155
21201
21208
21245
21261
21306
21320
21259
21294
21309
21312
21257
21282
21330
21305
21218
21344
21276
21347
21231
21304
21350
21358
21331
21464
21405
21324
21394
21383
21436
21389
21453
21510
21495
21401
21467
21443
21437
21365
21294
21274
21172
21308
21248
21267
21122
21154
21232
21094
21139
21066
21158
21066
21071
21070
21065
20954
21056
21045
21040
20884
21010
20973
20942
20856
20855
20955
20887
20832
20910
20902
20894
20906
20939
20927
20858
20907
20884
20871
20880
20973
21022
20918
20828
20908
21007
20922
20975
20949
20931
20931
20930
20965
20923
20996
20936
20997
20925
20960
20979
20938
20885
20984
20931
20940
20880
21015
21013
20978
21018
21004
20956
20998
20993
20984
21037
21043
21048
21093
21073
21074
21086
21067
21093
21013
21086
21149
21086
21090
21102
21192
21173
21098
21134
21219
21127
21196
21223
21141
21149
21217
21165
21156
21277
21258
21288
21226
21201
21235
21223
21274
21286
21314
21251
21219
21256
21300
21296
21339
21259
21313
21285
21334
21329
21401
21395
21380
21365
21388
21406
21416
21401
21428
21378
21493
21378
21365
21378
21342
21340
21330
21297
21285
21248
21085
21142
21170
21026
20983
21054
21129
21115
21104
21103
20973
21021
21055
21027
21002
20929
21008
20997
20951
20939
20976
21012
20960
20971
21016
21004
21003
20979
21038
20994
20956
20980
21016
20980
20981
21006
21042
21022
20993
21028
21035
21049
21055
21134
21082
21142
21069
21193
21161
21065
21142
21163
21157
21135
21087
21169
21122
21083
21201
21223
21076
21190
21159
21257
21160
21303
21365
21286
21213
21316
21314
21296
21270
21315
21295
21376
21404
21473
21418
21385
21343
21356
21400
21397
21520
21404
21457
21452
21424
21429
21364
21439
21348
21430
21356
21436
21430
21489
21450
21453
21516
21436
21475
21466
21488
21479
21472
21585
21514
21464
21580
21492
21562
21579
21588
21553
21605
21639
21598
21652
21577
21677
21596
21621
21523
21606
21598
21696
21664
21628
21670
21650
21674
21621
21673
21718
21672
21658
21561
21531
21469
21606
21395
21355
21298
21382
21280
21300
21282
21258
21262
21256
21170
21186
21163
21221
21188
21129
21118
21161
21154
21160
21118
21115
21147
21178
21138
21194
21111
21012
21155
21162
21108
21068
21186
21136
20997
21138
21086
21067
21174
21121
21058
21075
21129
21063
21086
21118
21032
21163
21167
21032
21062
21183
21151
21164
21127
21088
21173
21159
21094
21221
21174
21116
21209
21171
21183
21146
21094
21203
21062
21171
21159
21142
21124
21229
21142
21207
21173
21197
21205
21113
21177
21214
21233
21248
21206
21138
21154
21168
21240
21210
21191
21189
21211
21220
21280
21231
21211
21278
21238
21288
21222
21215
21296
21278
21184
21278
21209
21268
21219
21291
21211
21202
21244
21268
21197
21297
21275
21300
21315
21286
21309
21327
21226
21305
21229
21327
21287
21333
21204
21319
21218
21274
21146
21240
21190
21209
21117
21050
21057
20948
20989
21010
20937
20938
20909
20826
20892
20782
20830
20877
20828
20737
20754
20721
20761
20736
20823
20761
20808
20730
20817
20796
20740
20722
20676
20656
20651
20724
20684
20702
20683
20762
20812
20648
20736
20772
20720
20788
20772
20834
20706
20744
20718
20685
20787
20818
20832
20781
20698
20770
20823
20816
20743
20763
20834
20814
20775
20759
20769
20787
20803
20861
20837
20727
20853
20924
20850
20809
20830
20829
20859
20842
20947
20985
20962
20913
21002
20979
20884
20954
20972
21050
21082
21005
21018
20995
20980
21069
21052
21096
21061
20997
21105
21113
21067
21100
21114
21053
21119
21155
21176
21040
21099
21165
21094
21182
21173
21137
21109
21183
21218
21193
21156
21154
21132
21158
21172
21267
21260
21185
21209
21247
21266
21305
21271
21329
21300
21345
21269
21296
21205
21240
21224
21150
21213
21081
21167
21040
21002
20960
21061
20987
20882
20955
20987
20895
20841
20921
20785
20772
20793
20809
20821
20702
20779
20852
20723
20693
20710
20786
20689
20749
20752
20643
20598
20603
20645
20677
20608
20535
20612
20659
20540
20615
20726
20595
20583
20612
20706
20605
20706
20612
20668
20621
20571
20660
20658
20641
20650
20638
20611
20721
20629
20657
20632
20660
20735
20690
20667
20724
20769
20726
20707
20747
20745
20757
20731
20787
20847
20749
20775
20863
20868
20874
20903
20876
20885
20901
20869
20907
20893
20856
20906
21031
20905
20901
20943
20935
20927
20922
21089
21018
21083
20993
21035
21091
21003
21143
21170
21133
21028
21112
21099
21093
21115
21153
21122
21091
21035
21008
21122
21164
21105
21136
21073
21095
21143
21109
21073
21123
21109
21124
21132
21138
21098
21155
21158
21181
21183
21123
21122
21191
21128
21099
21071
21180
21071
21037
21012
20961
20983
21011
20918
20842
20902
20899
20890
20967
20800
20765
20868
20821
20784
20844
20772
20751
20738
20806
20849
20776
20652
20745
20865
20710
20856
20796
20755
20734
20821
20839
20818
20762
20770
20841
20804
20749
20775
20836
20804
20737
20787
20804
20812
20786
20865
20838
20796
20851
20898
20859
20839
20927
20931
20877
20899
20900
20907
20827
20914
20854
20878
20918
20996
21021
20959
21012
21061
20961
21053
21076
20990
21078
21056
21050
21066
21034
20999
21038
21127
21135
21033
21162
21105
21147
21139
21203
21149
21070
21140
21246
21127
21075
21095
21167
21141
21177
21248
21262
21280
21318
21258
21264
21180
21225
21329
21282
21241
21274
21210
21261
21200
21335
21369
21294
21293
21348
21409
21278
21352
21467
21429
21316
21414
21470
21425
21421
21496
21514
21479
21417
21445
21486
21348
21408
21325
21355
21349
21301
21224
21266
21241
21193
21207
21095
21033
21087
21005
21061
20991
20991
21006
20896
20905
20961
20884
20819
20909
20854
20799
20732
20857
20841
20851
20780
20765
20819
20719
20764
20859
20832
20839
20824
20773
20909
20856
20911
20870
20910
20950
20892
20910
20840
20892
20872
20877
20799
20927
20896
20843
20855
20953
20913
20902
20941
21020
20984
20929
20946
20995
20988
20892
20950
20928
20979
20941
21119
21104
21081
21084
21116
21093
21037
21142
21172
21151
21195
21140
21156
21148
21198
21284
21260
21138
21175
21236
21248
21194
21227
21283
21246
21227
21207
21234
21255
21275
21309
21293
21363
21300
21220
21299
21295
21289
21228
21302
21196
21259
21328
21296
21258
21327
21361
21242
21223
21392
21288
21240
21305
21307
21343
21249
21400
21321
21390
21371
21421
21389
21413
21398
21362
21345
21406
21359
21355
21242
21295
21265
21189
21082
21042
21094
21138
21052
20966
20984
21035
20916
20964
20975
20903
20890
20896
20844
20894
20863
20883
20872
20825
20805
20870
20832
20813
20843
20898
20781
20752
20797
20771
20822
20795
20819
20833
20768
20799
20779
20847
20759
20890
20880
20853
20877
20893
20810
20816
20863
20828
20912
20854
20884
20857
20904
20894
20929
20845
20874
20877
20924
20998
20966
20890
20881
20901
20909
20865
21020
20933
20980
21009
21038
20955
21014
20983
21007
21008
20971
21043
21087
21080
21038
21153
21053
21072
21068
21034
21066
21122
21061
21067
21085
21152
21089
21176
21125
21025
21041
21070
21060
21093
21036
21093
21076
21054
21196
21035
21123
21100
21086
21085
21151
21179
21154
21111
21133
21251
21230
21122
21224
21241
21262
21165
21244
21295
21264
21247
21321
21278
21203
21256
21253
21312
21276
21344
21329
21326
21249
21339
21306
21237
21276
21238
21179
21184
21100
21166
20997
20968
21011
21058
20979
20978
20902
20882
20895
20906
20972
20866
20903
20856
20809
20841
20815
20819
20790
20743
20831
20748
20712
20703
20723
20703
20664
20605
20612
20686
20607
20708
20667
20637
20666
20626
20729
20590
20653
20628
20685
20687
20690
20664
20684
20689
20694
20619
20740
20698
20558
20707
20713
20636
20583
20612
20620
20625
20671
20620
20640
20591
20733
20778
20691
20718
20723
20708
20726
20685
20781
20758
20679
20793
20824
20787
20762
20830
20801
20803
20865
20846
20893
20891
20825
20893
20841
20920
20863
20952
20886
20799
20908
20918
20918
20798
20932
20836
20936
20823
20921
20941
20933
20887
20838
20966
20823
20883
20969
20939
20947
20966
20958
20966
20997
21015
20882
20894
21002
20901
21010
20893
20984
20953
21017
20986
21030
20998
20956
20992
20991
20905
20845
20833
20784
20777
20683
20720
20765
20682
20675
20690
20610
20618
20583
20595
20498
20621
20544
20557
20654
20597
20667
20580
20584
20590
20577
20561
20626
20613
20550
20553
20582
20608
20539
20580
20533
20590
20638
20588
20578
20578
20647
20636
20674
20647
20638
20571
20631
20705
20650
20568
20667
20602
20690
20645
20690
20766
20687
20681
20707
20787
20754
20701
20772
20764
20800
20803
20820
20707
20641
20720
20826
20780
20710
20787
20871
20749
20824
20829
20837
20769
20831
20870
20820
20780
20857
20879
20882
20850
20843
20894
20983
20847
20901
20942
20828
20922
20924
20932
20952
20936
20940
20924
20881
20942
20971
20925
20945
20980
20994
20972
20996
21060
20945
20933
20995
20949
20999
20836
20946
20947
20908
20981
21089
20958
20973
21009
21066
21036
20935
21052
21028
21086
20977
21120
21160
21026
21023
21116
21118
21063
21026
20980
20974
20848
20844
20892
20895
20815
20788
20763
20787
20689
20760
20771
20598
20640
20679
20636
20642
20616
20660
20633
20600
20612
20646
20654
20542
20567
20679
20675
20594
20622
20681
20641
20656
20655
20608
20643
20569
20527
20617
20571
20597
20600
20592
20634
20635
20590
20552
20588
20595
20588
20528
20618
20634
20576
20570
20567
20639
20581
20690
20646
20626
20638
20627
20689
20662
20634
20666
20655
20668
20654
20731
20755
20701
20717
20751
20787
20772
20775
20805
20832
20846
20848
20863
20876
20824
20939
20806
20919
20911
20904
20878
20886
20903
20900
20917
20915
20925
20951
20952
20903
20882
20842
20886
20923
20877
20827
20831
20864
20810
20898
20849
20847
20897
20913
20858
20909
20964
20833
20861
20904
20952
20903
21028
20941
21031
21088
20992
21042
21059
21059
21134
21058
21175
21108
21076
21067
21134
21030
21042
21060
21023
21008
21042
20945
20913
20970
20899
20755
20784
20885
20840
20735
20755
20799
20776
20617
20724
20703
20703
20680
20646
20635
20645
20646
20691
20655
20646
20614
20603
20648
20624
20634
20695
20592
20641
20695
20696
20638
20664
20616
20694
20697
20684
20630
20632
20595
20700
20593
20617
20725
20640
20642
20617
20722
20642
20694
20655
20709
20800
20757
20667
20720
20802
20793
20729
20770
20725
20758
20777
20788
20845
20829
20864
20945
20875
20913
20906
21019
20968
20934
20965
20970
20944
20970
20969
20990
20974
21021
21041
20996
20983
20975
20938
20968
20980
20968
21002
20911
20935
20959
20980
21049
20991
20999
21038
20953
20997
21007
21018
21013
20943
20967
21004
20960
21088
20983
21064
21042
20963
21053
20978
21067
21080
21011
21016
21039
21049
21078
21130
21090
21082
21087
21126
21154
21135
21135
21060
21116
21094
20920
20971
20919
20853
20779
20906
20867
20756
20748
20786
20743
20723
20672
20717
20666
20547
20664
20614
20639
20596
20553
20588
20592
20560
20582
20521
20563
20538
20541
20589
20523
20599
20559
20585
20514
20591
20532
20485
20539
20559
20539
20467
20547
20608
20584
20533
20618
20555
20627
20607
20654
20697
20614
20572
20590
20655
20601
20664
20609
20573
20613
20680
20636
20636
20715
20634
20771
20765
20726
20706
20757
20794
20837
20850
20824
20884
20878
20881
20876
20820
20881
20901
20865
20901
20978
20955
20896
21005
21046
21033
20948
21077
21073
21040
20988
21042
21041
21025
21070
21053
21085
20982
21037
21004
21098
21009
21105
21123
21115
21109
21059
21042
20989
21063
20989
21102
20983
21096
21153
21113
21094
21087
21012
21046
20981
21022
21066
20976
21023
21008
21091
21079
21152
21052
21109
21161
21145
21147
21080
21028
21003
20952
20865
20909
20908
20872
20899
20795
20839
20738
20728
20744
20692
20722
20717
20750
20694
20649
20612
20665
20622
20651
20598
20649
20520
20495
20601
20530
20598
20563
20526
20542
20436
20463
20475
20431
20393
20452
20449
20517
20391
20465
20564
20492
20491
20579
20570
20561
20587
20622
20598
20570
20628
20669
20617
20726
20663
20666
20722
20750
20745
20758
20677
20746
20813
20767
20694
20798
20793
20852
20914
20854
21008
20917
21005
20991
20992
20966
20956
20951
20983
20953
20981
20941
21008
21064
21017
21106
21019
21058
21096
21064
21072
21007
21132
21138
21135
21047
21075
21115
21096
21101
21197
21193
21151
21134
21175
21224
21201
21242
21115
21110
21118
21180
21168
21058
21150
21179
21111
21115
21189
21105
21144
21130
21254
21211
21207
21176
21190
21258
21213
21265
21326
21257
21303
21323
21319
21252
21291
21306
21282
21312
21264
21336
21245
21094
21184
21162
21100
20966
21082
21053
20967
20887
20983
20964
20935
20856
20858
20870
20941
20889
20942
20919
20975
20861
20978
20889
20907
20813
20860
20861
20890
20866
20903
20832
20878
20897
20820
20858
20817
20864
20847
20817
20911
20859
20794
20869
20932
20846
20755
20841
20874
20815
20819
20866
20861
20847
20799
20907
20830
20766
20816
20884
20852
20807
20844
20828
20837
20818
20854
20949
20835
20952
20981
20937
20904
20959
21013
20938
20942
20989
20927
20995
21020
21104
21052
21157
21148
21135
21105
21158
21108
21117
21133
21130
21178
21249
21254
21242
21229
21255
21228
21285
21279
21254
21296
21315
21331
21295
21260
21362
21431
21381
21351
21347
21312
21323
21317
21462
21423
21305
21409
21413
21377
21261
21353
21258
21249
21200
21253
21240
21272
21235
21302
21356
21278
21292
21265
21245
21190
21175
21058
21110
20969
21041
21069
21052
21009
21034
20973
20867
20938
20995
20927
20851
20920
20868
20919
20814
20868
20892
20888
20821
20964
20942
20826
20840
20937
20861
20822
20906
20927
20915
20869
20947
20931
20882
20934
20907
20914
20927
20980
20977
21021
21103
21053
21072
21177
21149
21167
21158
21154
21136
21302
21206
21193
21224
21175
21270
21267
21242
21325
21318
21348
21360
21230
21356
21271
21337
21298
21319
21400
21456
21361
21303
21424
21318
21347
21405
21373
21485
21420
21385
21405
21422
21327
21450
21514
21491
21487
21421
21472
21541
21429
21435
21448
21465
21573
21490
21580
21464
21550
21502
21564
21497
21560
21638
21558
21558
21513
21554
21553
21518
21525
21531
21489
21527
21455
21550
21479
21498
21611
21497
21474
21596
21554
21509
21540
21645
21565
21593
21615
21583
21620
21556
21541
21514
21475
21346
21354
21342
21254
21229
21275
21123
21172
21135
21188
21106
21100
21081
21034
21105
20933
20978
21029
21015
21044
21063
21072
21044
20969
21047
20985
20982
21023
21014
20996
20961
21019
21069
20997
21015
21058
21093
20999
21111
21019
21032
21098
21043
21126
21050
20999
21060
21060
21024
21016
21020
21104
20966
21051
21037
21084
20976
21118
21164
21099
21140
21135
21095
21114
21119
21164
21177
21204
21133
21227
21141
21127
21227
21175
21241
21150
21265
21145
21162
21259
21204
21253
21248
21232
21200
21230
21224
21274
21203
21176
21194
21208
21257
21217
21203
21228
21255
21301
21243
21171
21239
21180
21199
21274
21205
21220
21231
21173
21254
21131
21245
21215
21159
21246
21283
21213
21193
21216
21304
21259
21206
21216
21170
21202
21200
21311
21223
21233
21267
21231
21266
21195
21284
21290
21127
21223
21109
20999
21027
20953
21043
20893
20906
20848
20879
20845
20750
20776
20816
20731
20598
20715
20627
20652
20665
20653
20665
20619
20599
20632
20647
20608
20649
20620
20645
20519
20582
20612
20595
20630
20645
20669
20627
20692
20618
20676
20579
20672
20679
20596
20671
20603
20725
20697
20666
20598
20565
20608
20577
20692
20664
20589
20654
20744
20656
20721
20718
20759
20717
20719
20737
20747
20708
20689
20805
20757
20730
20729
20767
20730
20803
20797
20799
20761
20807
20852
20829
20904
20916
20965
21052
20973
20987
21050
21150
21065
21105
21102
21057
21027
21095
21064
21136
21090
21212
21143
21160
21135
21136
21166
21172
21121
21183
21070
21100
21111
21084
21188
21121
21126
21123
21077
21110
21177
21229
21154
21270
21268
21192
21235
21245
21192
21257
21171
21232
21269
21298
21306
21224
21256
21236
21276
21234
21222
21199
21187
21116
21063
21000
20928
20980
20868
20855
20777
20850
20734
20826
20782
20789
20717
20764
20791
20781
20690
20692
20774
20781
20690
20759
20746
20633
20686
20679
20703
20643
20740
20672
20636
20733
20704
20709
20652
20737
20737
20652
20617
20655
20706
20664
20627
20684
20712
20728
20806
20790
20783
20781
20728
20684
20765
20718
20764
20822
20777
20706
20739
20726
20799
20776
20787
20806
20732
20710
20805
20784
20764
20769
20741
20828
20817
20759
20756
20848
20751
20880
20850
20780
20883
20853
20864
20739
20814
20843
20863
20821
20869
20995
20932
20864
20922
20880
20938
20891
20821
20920
20809
20914
20957
20887
20891
20942
20945
20882
20916
20917
20948
20870
21029
21026
20966
21057
21010
21009
21094
20985
21029
21153
21105
21097
21083
21101
21064
21119
21016
21096
20994
21099
21186
21099
21099
21059
21135
21014
21083
21075
21006
20933
20955
20988
20884
20860
20859
20722
20799
20783
20730
20741
20759
20645
20730
20690
20720
20640
20761
20643
20630
20667
20769
20667
20594
20622
20627
20574
20653
20690
20605
20621
20666
20569
20581
20555
20631
20644
20598
20554
20597
20699
20646
20579
20615
20708
20672
20746
20687
20672
20721
20769
20807
20816
20785
20789
20890
20815
20898
20855
20915
20740
20773
20864
20845
20701
20807
20903
20798
20789
20803
20814
20808
20828
20855
20877
20900
20851
20851
20926
20965
20930
20946
20943
20875
20949
20982
20954
20993
20983
20920
20902
20932
20933
20902
20966
20916
20941
20911
20925
20912
21007
20871
20910
20964
20956
20983
20890
20992
20955
21018
20985
20975
21026
21061
21041
21116
21107
21099
21143
21123
21100
21148
21250
21158
21101
21139
21103
21174
21199
21182
21296
21150
21226
21160
21234
21108
20995
21078
21122
21008
20983
20917
20988
20912
20847
20818
20816
20772
20881
20832
20805
20786
20767
20769
20763
20739
20779
20721
20675
20697
20678
20739
20709
20699
20670
20663
20721
20684
20724
20684
20746
20815
20733
20810
20709
20813
20801
20738
20748
20814
20704
20730
20793
20823
20687
20752
20859
20875
20822
20876
20777
20842
20741
20883
20790
20879
20881
20809
20826
20768
20841
20839
20826
20915
20888
20925
20900
20928
20929
20974
20877
20940
20991
20926
20841
20986
20938
20995
20999
21035
21078
21061
20979
21065
20981
20995
21068
21094
21018
20943
21057
21124
21027
21065
21031
21131
21062
20962
21087
21123
21062
20978
20957
20983
20944
20983
21032
21012
21035
21059
20978
21008
21009
20993
21086
20976
20970
21008
21043
20973
21055
21108
21057
21085
21043
21036
21081
21009
21022
20970
21025
20891
21008
20942
20872
20899
20935
20839
20833
20778
20747
20763
20678
20671
20730
20629
20629
20619
20582
20644
20573
20628
20593
20461
20536
20484
20524
20498
20465
20562
20500
20369
20517
20470
20488
20476
20466
20482
20486
20506
20537
20413
20497
20405
20466
20465
20452
20495
20468
20449
20444
20562
20475
20524
20505
20477
20497
20417
20490
20532
20572
20553
20618
20539
20510
20590
20587
20607
20476
20563
20535
20636
20542
20648
20574
20631
20690
20634
20598
20649
20639
20623
20649
20620
20673
20741
20680
20620
20726
20686
20715
20682
20670
20699
20737
20706
20723
20661
20610
20678
20676
20721
20652
20711
20686
20708
20688
20729
20656
20579
20658
20619
20597
20579
20632
20656
20677
20554
20594
20654
20662
20686
20693
20703
20719
20722
20831
20747
20781
20773
20804
20828
20846
20778
20908
20806
20748
20808
20826
20727
20817
20770
20763
20642
20723
20711
20677
20589
20570
20533
20542
20525
20495
20506
20503
20461
20488
20451
20397
20414
20402
20389
20334
20377
20377
20353
20318
20356
20413
20383
20374
20476
20349
20413
20390
20385
20395
20455
20478
20433
20460
20418
20497
20488
20492
20418
20511
20484
20453
20400
20489
20446
20426
20551
20448
20529
20471
20560
20569
20445
20490
20510
20506
20529
20525
20588
20586
20578
20575
20587
20610
20578
20588
20617
20653
20620
20574
20671
20673
20650
20604
20635
20584
20591
20666
20612
20697
20749
20607
20652
20731
20653
20740
20673
20758
20788
20672
20643
20796
20803
20725
20684
20720
20766
20764
20732
20714
20774
20703
20770
20838
20794
20785
20841
20795
20839
20843
20899
20939
20862
20878
20936
20891
20792
20872
20933
20935
20881
20904
20983
20905
20924
20961
20971
20948
20883
20882
20853
20795
20847
20856
20852
20759
20724
20862
20776
20755
20738
20653
20619
20678
20626
20587
20619
20561
20633
20647
20596
20603
20548
20553
20583
20550
20500
20522
20495
20502
20492
20490
20500
20464
20528
20554
20532
20492
20466
20463
20502
20448
20510
20534
20590
20548
20464
20566
20602
20577
20579
20605
20495
20620
20607
20571
20608
20654
20679
20753
20693
20697
20724
20619
20696
20612
20703
20654
20646
20764
20738
20767
20735
20768
20745
20808
20796
20824
20914
20850
20803
20907
20855
20932
20837
20953
20961
20985
20947
21031
20971
21063
21038
20955
21002
21091
21045
20998
21088
21046
21054
20989
21031
21041
21053
21072
20984
21104
21099
20968
20948
21065
21027
20972
20935
20895
20928
20943
20975
20917
20949
20877
20928
20956
20985
20954
20974
20981
20970
20890
20899
20998
20957
20945
20861
20861
20762
20767
20723
20742
20580
20695
20655
20623
20650
20641
20555
20510
20567
20559
20405
20369
20398
20411
20421
20359
20371
20319
20373
20264
20234
20215
20292
20262
20298
20323
20197
20258
20316
20264
20131
20228
20263
20235
20200
20288
20243
20241
20210
20320
20261
20229
20247
20333
20270
20297
20218
20182
20261
20170
20248
20346
20219
20336
20356
20331
20278
20314
20334
20390
20392
20411
20349
20439
20420
20524
20438
20480
20488
20628
20674
20580
20725
20749
20767
20791
20816
20874
20910
20934
20888
21016
20925
20966
20986
20892
20966
20960
20997
20971
21004
20951
20938
20981
20915
20973
20903
20965
20947
20919
20848
20899
20871
20951
20894
20888
20905
20922
20937
20986
21019
20949
20965
20918
20984
21070
21050
21052
21088
21083
21023
21010
21149
21065
21074
21138
21079
21099
21140
21139
21051
21031
21052
21027
20940
20900
20867
20804
20887
20765
20848
20768
20705
20687
20762
20790
20797
20733
20754
20716
20662
20679
20610
20640
20620
20612
20568
20609
20588
20612
20570
20483
20555
20591
20521
20458
20549
20638
20615
20591
20562
20528
20566
20613
20592
20629
20582
20643
20692
20656
20707
20640
20694
20666
20613
20653
20769
20722
20673
20700
20802
20712
20711
20791
20826
20739
20880
20878
20812
20870
20933
20920
20881
20878
20917
20924
20922
20970
21068
21035
20934
21014
21056
21108
21008
21121
21088
21074
21086
21197
21146
21156
21148
21216
21259
21204
21255
21264
21326
21184
21272
21369
21316
21212
21274
21348
21330
21259
21264
21346
21383
21304
21391
21353
21348
21391
21403
21548
21562
21536
21597
21543
21661
21575
21635
21646
21704
21780
21762
21656
21807
21783
21703
21729
21684
21667
21612
21599
21690
21562
21514
21452
21424
21371
21302
21311
21282
21263
21199
21185
21177
21185
21063
21049
21085
21044
21019
21001
21006
20957
20961
21029
20967
20925
20965
21058
20931
20896
20996
20960
20999
20956
21047
21035
20970
21010
21077
20963
20946
21025
21031
20979
21009
21009
21038
21018
21034
21047
21055
21094
21041
21099
21079
20984
21061
21139
21077
21077
21171
21104
21138
21121
21063
21073
21122
21116
21096
21100
21043
21098
21236
21109
21100
21230
21161
21186
21214
21134
21159
21187
21171
21148
21242
21157
21181
21289
21248
21261
21316
21302
21243
21275
21295
21280
21251
21316
21287
21359
21411
21390
21348
21356
21313
21323
21275
21249
21371
21340
21371
21263
21385
21416
21308
21369
21344
21421
21331
21307
21345
21351
21398
21319
21423
21383
21301
21405
21442
21352
21337
21424
21343
21341
21316
21374
21357
21325
21245
21255
21222
21160
21138
21147
21094
21021
21044
21030
20989
20990
20944
20958
20978
20911
20995
20885
20906
20885
20959
20954
20942
20906
20945
20837
20849
20937
20838
20807
20871
20911
20847
20842
20915
20877
20861
20817
20822
20834
20884
20896
20828
20919
20885
20901
20913
20930
20904
20962
20997
20991
20933
21042
21021
21060
21050
21089
21055
21116
21046
21101
21112
21099
21085
21119
21098
21035
21191
21221
21173
21093
21224
21206
21215
21246
21239
21297
21207
21247
21327
21285
21278
21290
21438
21274
21246
21405
21338
21324
21358
21370
21342
21401
21366
21382
21364
21366
21410
21364
21381
21401
21401
21348
21439
21359
21308
21396
21396
21349
21346
21380
21320
21412
21394
21505
21421
21521
21546
21553
21556
21615
21539
21564
21572
21611
21620
21538
21614
21716
21672
21639
21735
21677
21641
21618
21690
21629
21590
21553
21537
21540
21387
21467
21433
21365
21352
21286
21325
21333
21285
21317
21265
21274
21153
21245
21192
21075
21147
21118
21075
21109
21094
21113
21089
21016
21107
21101
21118
21034
21089
21110
21026
21129
21056
21143
21141
21130
21134
21113
21083
21155
21100
21077
21068
21006
21086
21136
21092
21188
21116
21095
21222
21165
21201
21217
21233
21256
21171
21277
21211
21285
21342
21259
21286
21276
21324
21334
21366
21281
21259
21366
21324
21339
21359
21436
21436
21503
21549
21549
21570
21572
21600
21529
21568
21652
21576
21579
21636
21659
21565
21683
21614
21651
21609
21594
21527
21601
21644
21593
21539
21654
21509
21508
21557
21502
21573
21520
21592
21618
21551
21622
21591
21563
21570
21537
21663
21610
21493
21578
21556
21579
21640
21585
21518
21572
21578
21611
21684
21635
21585
21680
21571
21581
21608
21526
21495
21441
21468
21385
21349
21269
21296
21241
21194
21189
21224
21114
21045
21101
21112
21056
21083
21039
21077
21028
20966
20977
20972
20938
20913
20967
20918
20846
20873
20965
20927
20865
20938
20966
20966
20997
20981
21095
21000
21032
21109
21015
21098
21075
21040
21101
21064
21093
21049
21010
20951
21081
21003
21065
21001
21036
21033
21090
21040
21038
21065
21055
21039
20976
20978
21023
20999
21043
21000
21029
21024
21019
21040
21013
21086
21069
20963
20979
21089
20996
21055
21027
21003
21037
20925
20943
21051
21041
21044
21107
21048
20927
21012
20936
21001
20889
20939
20991
20941
20918
20936
20960
20890
20945
21029
20953
20884
20947
20951
20955
20991
21029
20989
20982
20933
20955
20955
20908
20995
21099
21047
20948
20995
21049
21048
20964
21085
21010
21090
21098
21068
21034
20999
21143
21015
21109
21033
21094
21172
21083
20999
21026
20963
20949
20888
20917
20915
20872
20764
20755
20776
20790
20742
20729
20770
20739
20766
20657
20699
20750
20710
20674
20729
20633
20705
20696
20674
20651
20613
20645
20635
20604
20557
20622
20569
20616
20581
20605
20502
20591
20495
20568
20588
20551
20562
20472
20623
20550
20532
20537
20512
20543
20612
20522
20514
20603
20578
20582
20621
20587
20546
20576
20543
20588
20659
20635
20554
20584
20638
20659
20651
20612
20675
20647
20629
20608
20717
20666
20644
20768
20684
20655
20693
20685
20767
20782
20843
20841
20828
20885
20892
20915
20988
20955
20873
20976
20916
20906
20885
20962
20966
20932
20982
20939
20965
20886
21050
21104
21083
21037
21113
21102
21034
21065
21006
21122
21032
21074
21184
21080
21140
21069
21143
21112
21205
21198
21178
21204
21205
21162
21251
21178
21175
21226
21253
21193
21243
21203
21148
21143
21151
21203
21214
21151
21142
21092
21060
21079
21060
21004
21032
21017
21024
20933
20926
20898
20889
20870
20911
20875
20867
20928
20863
20969
20902
20868
20876
20979
20896
20948
20855
20844
20878
20938
20970
20921
20826
20912
20934
20934
20830
20968
20989
21004
20887
21012
20950
21026
20964
20973
21098
20982
20986
21085
21067
20955
21088
21010
21090
20988
20991
21115
21024
20967
20967
21043
21029
21031
21094
21057
21046
21047
21123
21052
21025
21025
21058
21036
21033
21139
21155
21169
21140
21078
21143
21128
21153
21108
21135
21080
21206
21139
21185
21099
21165
21234
21184
21136
21252
21247
21222
21252
21282
21335
21379
21359
21414
21383
21383
21514
21498
21587
21570
21556
21631
21575
21674
21646
21727
21684
21751
21867
21780
21744
21861
21855
21680
21752
21707
21764
21787
21807
21737
21767
21808
21728
21710
21784
21706
21695
21709
21746
21626
21734
21644
21477
21522
21553
21465
21386
21409
21379
21379
21232
21315
21250
21229
21197
21233
21194
21156
21155
21149
21135
21126
21100
21105
20996
21102
21090
21054
21009
20963
20941
20889
20882
20922
20863
20856
20785
20875
20966
20823
20852
20884
20843
20912
20963
20957
21019
20989
20948
20981
20950
20890
20964
21020
20937
20998
20999
20966
20915
20997
21090
20979
20909
21009
20936
20987
21005
21037
21008
21010
20988
21080
21048
21040
21090
21142
21109
21013
21100
21160
21119
21087
21121
21220
21189
21174
21255
21252
21149
21160
21207
21269
21207
21263
21191
21263
21204
21301
21273
21245
21213
21310
21343
21245
21283
21384
21337
21356
21312
21389
21304
21277
21307
21285
21301
21316
21335
21303
21293
21302
21379
21296
21239
21308
21395
21315
21206
21326
21348
21335
21343
21334
21382
21250
21280
21346
21303
21325
21270
21211
21223
21174
21236
21111
21143
21104
21095
20969
20991
20969
20943
20932
20868
20919
20934
20867
20787
20828
20785
20775
20743
20824
20834
20821
20682
20834
20728
20729
20675
20634
20672
20697
20716
20735
20685
20641
20756
20750
20723
20714
20715
20813
20777
20733
20719
20720
20805
20705
20722
20820
20824
20772
20783
20851
20738
20803
20827
20702
20784
20802
20803
20790
20759
20736
20758
20779
20864
20807
20809
20813
20814
20818
20843
20898
20967
20943
20862
20936
20879
20975
20861
20965
20867
20933
20922
20904
20962
21005
20965
20884
20980
20983
20941
20929
20907
20891
20919
20951
20854
20866
20936
20933
20865
20923
20979
20931
20941
20967
20956
20992
20905
20902
21025
20949
20946
20887
20983
20884
21010
20978
21016
21002
21012
21042
20908
21028
20960
20962
21016
20957
20925
20991
20956
20982
21086
21006
20956
20971
20971
20913
20939
20887
20807
20790
20725
20736
20678
20626
20632
20549
20622
20641
20583
20595
20560
20535
20565
20458
20452
20395
20508
20472
20423
20460
20469
20453
20384
20471
20508
20470
20461
20462
20542
20442
20497
20534
20583
20480
20497
20426
20485
20492
20474
20475
20451
20428
20434
20409
20446
20388
20388
20459
20440
20427
20481
20450
20394
20384
20436
20409
20489
20474
20387
20353
20351
20412
20473
20406
20404
20437
20473
20550
20532
20535
20572
20490
20634
20637
20630
20571
20619
20673
20625
20626
20554
20644
20684
20619
20614
20587
20553
20643
20575
20588
20558
20537
20539
20446
20532
20600
20493
20439
20544
20538
20498
20466
20594
20580
20559
20457
20599
20556
20575
20498
20605
20589
20510
20519
20538
20613
20589
20626
20631
20599
20597
20593
20688
20581
20576
20585
20600
20554
20631
20666
20649
20605
20722
20682
20726
20656
20696
20650
20496
20542
20485
20521
20514
20455
20409
20406
20362
20315
20359
20272
20243
20321
20204
20309
20132
20228
20179
20155
20162
20081
20133
20054
20116
20113
20088
20098
20087
20115
20121
19992
20168
20091
20004
20046
20008
20112
20089
20116
20167
20088
20021
20118
20047
20111
20039
20053
20075
20034
20121
20031
20164
20110
20106
20175
20199
20089
20155
20134
20199
20151
20133
20172
20235
20202
20123
20163
20179
20222
20194
20241
20199
20265
20236
20336
20301
20378
20338
20342
20415
20471
20418
20470
20593
20674
20628
20584
20729
20762
20713
20662
20732
20735
20737
20683
20790
20742
20634
20747
20752
20734
20723
20782
20716
20746
20713
20801
20767
20686
20746
20848
20792
20839
20796
20779
20818
20719
20844
20753
20736
20783
20847
20800
20717
20793
20811
20798
20835
20805
20827
20788
20878
20863
20916
20851
20852
20860
20869
20726
20769
20716
20729
20642
20660
20697
20677
20601
20617
20502
20468
20492
20521
20477
20476
20430
20385
20395
20438
20394
20471
20359
20328
20396
20354
20305
20308
20338
20346
20250
20340
20298
20266
20341
20358
20318
20345
20237
20367
20308
20280
20375
20392
20302
20335
20340
20421
20289
20387
20337
20450
20378
20348
20376
20410
20436
20394
20338
20392
20307
20330
20318
20374
20379
20393
20393
20382
20408
20453
20409
20378
20408
20472
20405
20338
20472
20399
20481
20492
20448
20522
20458
20436
20455
20568
20481
20604
20493
20580
20567
20552
20606
20650
20690
20670
20646
20663
20693
20700
20693
20679
20623
20679
20733
20738
20706
20782
20716
20784
20794
20818
20772
20817
20777
20869
20800
20740
20893
20902
20879
20827
20924
20858
20891
20894
20959
20915
20851
20913
20934
20942
20995
20979
21006
20915
21034
20987
21026
21050
20980
21090
21020
20914
21001
20941
20988
20964
20988
20931
20891
20918
20909
20884
20839
20781
20676
20751
20700
20687
20651
20612
20531
20610
20607
20596
20567
20606
20521
20453
20528
20600
20480
20543
20518
20441
20401
20482
20486
20479
20342
20408
20441
20432
20389
20391
20377
20371
20358
20356
20492
20471
20381
20480
20425
20448
20380
20533
20468
20517
20541
20577
20518
20557
20500
20595
20463
20493
20561
20603
20521
20558
20633
20572
20570
20556
20510
20593
20538
20595
20656
20612
20600
20651
20725
20799
20764
20841
20826
20764
20827
20874
20873
20881
21014
21057
21098
21059
21096
21054
21042
21063
21025
21050
21009
21082
21002
21065
21082
21079
21050
21057
20982
20974
21021
21000
20966
20902
20977
20895
21026
21016
21014
20939
21019
21022
21005
20970
20998
21060
21060
21060
21153
21143
21022
21122
21135
21094
21062
21151
21119
21096
21063
21093
21052
21045
21005
20906
20915
20879
20733
20699
20648
20622
20638
20526
20500
20514
20498
20480
20364
20456
20355
20378
20387
20352
20392
20336
20308
20327
20333
20307
20329
20348
20355
20342
20388
20318
20369
20398
20390
20457
20392
20466
20450
20382
20438
20389
20376
20392
20435
20443
20488
20416
20386
20452
20587
20537
20494
20543
20478
20570
20453
20545
20669
20568
20658
20671
20659
20685
20667
20762
20717
20699
20753
20710
20810
20709
20808
20844
20867
20788
20863
20822
20873
20837
20903
20818
20754
20872
20915
20831
20872
20931
20929
20838
20863
20948
20881
20822
20852
20956
20901
20931
20956
20960
20968
21002
20997
21059
21056
21027
21101
21137
21124
21164
21174
21164
21195
21275
21231
21326
21225
21343
21240
21269
21353
21273
21260
21256
21371
21351
21414
21428
21430
21350
21399
21449
21359
21351
21351
21371
21354
21309
21272
21296
21261
21132
21166
21072
20957
20938
20930
20772
20738
20738
20738
20744
20646
20532
20606
20504
20478
20427
20479
20582
20446
20430
20455
20516
20554
20413
20570
20527
20442
20545
20617
20557
20556
20538
20608
20568
20586
20547
20623
20650
20596
20684
20673
20732
20705
20664
20729
20669
20731
20753
20707
20744
20725
20797
20683
20690
20690
20772
20657
20649
20637
20611
20574
20645
20682
20661
20598
20580
20645
20582
20650
20605
20697
20686
20663
20742
20720
20738
20683
20745
20707
20696
20747
20774
20653
20751
20714
20732
20658
20735
20793
20798
20756
20752
20717
20769
20672
20746
20737
20727
20678
20723
20751
20672
20733
20737
20761
20775
20783
20737
20788
20745
20823
20836
20810
20844
20879
20875
20786
20886
20888
20909
20816
20904
20958
20965
20957
20914
20973
20909
20979
20959
21005
20939
20901
21003
20981
20885
20938
20966
20916
20874
20813
20791
20838
20800
20756
20709
20700
20631
20561
20599
20647
20578
20598
20578
20485
20558
20511
20534
20540
20549
20555
20480
20478
20462
20476
20430
20486
20563
20508
20362
20449
20404
20410
20423
20401
20442
20381
20413
20517
20446
20402
20433
20495
20462
20552
20538
20455
20507
20582
20586
20567
20616
20531
20580
20522
20477
20503
20550
20549
20441
20493
20504
20511
20553
20559
20576
20535
20538
20641
20541
20603
20579
20499
20510
20593
20609
20486
20603
20580
20554
20554
20567
20612
20680
20611
20522
20613
20617
20621
20554
20690
20674
20638
20732
20685
20735
20589
20656
20774
20672
20699
20658
20784
20685
20721
20734
20642
20763
20747
20763
20701
20741
20836
20773
20765
20715
20818
20813
20812
20715
20807
20782
20811
20760
20890
20871
20840
20836
20767
20835
20755
20804
20817
20850
20790
20848
20890
20893
20776
20863
20808
20773
20770
20750
20716
20634
20616
20696
20547
20562
20545
20538
20535
20518
20421
20337
20403
20379
20404
20389
20269
20373
20372
20376
20429
20429
20385
20419
20469
20470
20470
20416
20454
20513
20461
20362
20471
20470
20493
20437
20496
20512
20499
20559
20578
20504
20597
20511
20628
20595
20552
20600
20544
20502
20633
20634
20699
20570
20546
20629
20658
20668
20640
20625
20689
20632
20670
20683
20653
20614
20605
20623
20691
20640
20737
20709
20749
20813
20815
20850
20948
20924
21016
20983
20958
21017
21011
21057
21073
21083
21108
21053
21074
21184
21138
21128
21076
21000
21063
21033
21056
20955
20988
21079
21028
21038
21020
20980
21037
21055
21054
21039
21037
20966
21013
21010
21010
20967
20902
20921
20952
20993
20914
20925
20934
20879
20944
20962
20943
20863
20913
20976
20925
20925
20962
20894
20878
20908
20899
20913
20846
20831
20922
20790
20696
20755
20753
20709
20635
20727
20666
20560
20613
20539
20501
20390
20487
20405
20453
20367
20400
20401
20345
20299
20311
20241
20273
20193
20263
20245
20238
20211
20230
20218
20150
20223
20216
20224
20161
20255
20251
20302
20329
20265
20269
20223
20342
20317
20310
20270
20310
20266
20199
20237
20238
20293
20254
20287
20255
20304
20307
20339
20335
20317
20320
20341
20295
20365
20274
20330
20357
20393
20358
20400
20414
20300
20352
20334
20439
20418
20474
20525
20501
20378
20479
20570
20522
20552
20481
20597
20545
20496
20584
20534
20631
20643
20544
20622
20547
20598
20587
20645
20560
20674
20610
20538
20590
20665
20583
20531
20615
20598
20628
20608
20594
20638
20554
20557
20556
20561
20647
20522
20577
20567
20544
20576
20543
20591
20570
20591
20616
20598
20547
20571
20617
20561
20605
20695
20651
20588
20664
20748
20653
20700
20596
20600
20552
20527
20518
20446
20466
20415
20454
20384
20343
20331
20254
20258
20283
20256
20337
20264
20253
20213
20255
20241
20221
20215
20243
20288
20205
20200
20263
20188
20346
20302
20366
20290
20321
20302
20263
20310
20294
20224
20267
20286
20299
20253
20300
20228
20347
20274
20321
20245
20263
20268
20197
20260
20260
20167
20236
20258
20201
20153
20269
20255
20283
20251
20312
20304
20281
20344
20392
20389
20362
20355
20312
20359
20417
20418
20404
20426
20327
20375
20433
20379
20426
20516
20495
20433
20510
20540
20496
20502
20570
20628
20540
20509
20534
20611
20519
20641
20591
20575
20495
20559
20642
20529
20546
20564
20568
20642
20674
20623
20639
20645
20595
20585
20618
20665
20626
20626
20673
20614
20658
20678
20719
20678
20749
20684
20705
20745
20782
20744
20687
20777
20836
20851
20762
20833
20823
20868
20817
20868
20839
20714
20679
20648
20614
20591
20536
20528
20544
20425
20427
20425
20405
20374
20485
20506
20388
20411
20361
20347
20275
20288
20260
20254
20270
20244
20232
20228
20231
20145
20205
20207
20113
20074
20098
20135
20124
20163
20106
20116
19993
20091
20042
19991
20056
20087
20079
20012
20050
20076
20101
20101
20086
20058
20124
20050
20095
20082
20094
20157
20210
20145
20173
20168
20180
20182
20179
20232
20178
20165
20207
20152
20169
20191
20220
20217
20243
20177
20227
20319
20337
20281
20359
20406
20282
20448
20339
20382
20412
20412
20543
20412
20498
20578
20458
20444
20482
20475
20473
20524
20465
20521
20502
20514
20498
20462
20465
20464
20430
20435
20386
20464
20475
20462
20375
20509
20559
20501
20597
20565
20532
20585
20505
20599
20552
20492
20544
20605
20594
20510
20585
20604
20584
20598
20592
20584
20650
20750
20755
20714
20585
20723
20709
20614
20621
20645
20630
20553
20504
20531
20507
20517
20432
20491
20400
20403
20376
20382
20380
20425
20345
20421
20347
20307
20337
20341
20329
20303
20365
20345
20310
20324
20320
20304
20316
20267
20338
20255
20274
20231
20235
20249
20245
20229
20275
20246
20218
20320
20276
20249
20271
20299
20317
20269
20256
20226
20270
20319
20302
20337
20323
20353
20382
20418
20345
20421
20409
20434
20395
20423
20425
20429
20447
20500
20528
20483
20532
20487
20481
20441
20437
20539
20462
20469
20561
20512
20498
20442
20562
20537
20522
20528
20629
20537
20459
20554
20486
20524
20511
20520
20555
20522
20513
20554
20527
20506
20474
20493
20505
20458
20456
20396
20456
20395
20352
20464
20365
20403
20379
20368
20469
20347
20513
20462
20532
20511
20553
20510
20506
20550
20543
20563
20575
20667
20665
20590
20631
20638
20686
20601
20720
20700
20683
20661
20654
20671
20629
20610
20526
20552
20474
20499
20489
20529
20495
20572
20495
20556
20552
20511
20570
20437
20407
20545
20483
20455
20413
20449
20489
20409
20440
20443
20445
20418
20462
20557
20450
20417
20539
20440
20497
20448
20478
20498
20470
20482
