21594
21674
21720
21733
21713
21663
21594
21508
21408
21298
21182
21060
20930
20796
20664
20538
20417
20303
20197
20100
20011
19931
19857
19785
19713
19648
19586
19520
19448
19371
19294
19221
19158
19108
19070
19039
19019
19009
19002
19000
19003
19013
19031
19056
19086
19120
19156
19191
19225
19258
19290
19314
19331
19343
19347
19340
19327
19312
19291
19262
19225
19178
19118
19044
18963
18877
18787
18695
18603
18510
18414
18313
18209
18103
17992
17880
17772
17670
17572
17475
17379
17279
17175
17072
16976
16884
16800
16723
16652
16584
16517
16450
16384
16322
16264
16214
16171
16131
16089
16045
16003
15964
15928
15895
15864
15828
15788
15745
15700
15656
15614
15574
15536
15496
15452
15410
15364
15313
15258
15202
15146
15089
15030
14972
14915
14861
14815
14785
14777
14798
14855
14959
15114
15321
15580
15886
16230
16602
16997
17406
17818
18223
18616
18992
19347
19675
19975
20247
20483
20682
20846
20976
21070
21130
21157
21159
21137
21090
21023
20938
20836
20725
20607
20478
20340
20198
20055
19912
19772
19638
19511
19391
19276
19164
19055
18946
18839
18736
18637
18542
18453
18370
18295
18226
18162
18107
18061
18023
17996
17983
17983
17990
18003
18019
18038
18063
18096
18133
18167
18194
18217
18238
18254
18263
18266
18265
18258
18246
18225
18192
18146
18091
18030
17966
17900
17826
17743
17652
17554
17453
17353
17255
17155
17051
16943
16832
16719
16610
16505
16405
16304
16199
16096
15999
15905
15813
15723
15633
15543
15456
15374
15297
15223
15153
15086
15022
14958
14896
14839
14784
14725
14663
14604
14546
14488
14431
14380
14334
14289
14250
14215
14181
14143
14103
14063
14026
13989
13952
13915
13873
13826
13778
13732
13689
13648
13603
13554
13496
13429
13360
13293
13226
13162
13099
13038
12983
12944
12931
12953
13020
13140
13318
13553
13841
14178
14557
14972
15416
15878
16344
16804
17249
17671
18071
18445
18790
19104
19390
19641
19849
20018
20149
20245
20309
20345
20356
20343
20306
20250
20178
20089
19986
19876
19761
19643
19525
19409
19297
19190
19092
19005
18926
18852
18782
18715
18646
18574
18500
18429
18359
18290
18222
18155
18088
18022
17964
17917
17880
17853
17834
17819
17808
17799
17792
17788
17790
17799
17813
17827
17839
17846
17853
17859
17860
17858
17852
17839
17821
17799
17776
17750
17715
17671
17621
17562
17492
17416
17340
17262
17180
17094
17006
16913
16814
16713
16612
16509
16404
16300
16196
16093
15987
15881
15778
15677
15578
15487
15403
15322
15242
15168
15097
15027
14956
14883
14807
14731
14659
14592
14529
14470
14412
14357
14304
14252
14205
14164
14124
14084
14042
14000
13960
13919
13877
13837
13796
13754
13711
13665
13617
13566
13514
13462
13406
13345
13284
13224
13164
13106
13052
13002
12951
12895
12834
12765
12690
12618
12550
12485
12425
12372
12332
12305
12300
12329
12406
12539
12729
12974
13270
13608
13983
14394
14832
15286
15744
16195
16631
17045
17432
17791
18118
18409
18665
18888
19076
19222
19326
19396
19440
19460
19459
19439
19400
19342
19267
19180
19081
18972
18859
18742
18617
18487
18363
18253
18157
18066
17979
17894
17811
17726
17644
17568
17494
17424
17356
17288
17217
17146
17079
17019
16965
16917
16876
16840
16807
16778
16761
16756
16759
16767
16779
16793
16804
16812
16819
16823
16824
16825
16825
16818
16804
16787
16768
16742
16708
16666
16617
16561
16498
16431
16358
16276
16191
16104
16013
15921
15832
15745
15660
15573
15477
15377
15277
15177
15075
14972
14870
14768
14671
14581
14496
14415
14335
14257
14179
14101
14025
13952
13878
13802
13732
13668
13610
13554
13499
13446
13390
13332
13278
13228
13182
13142
13105
13067
13026
12979
12931
12887
12845
12804
12761
12717
12672
12629
12589
12551
12513
12472
12431
12387
12342
12296
12250
12201
12148
12094
12033
11965
11893
11821
11753
11688
11626
11562
11495
11426
11360
11308
11281
11284
11326
11413
11547
11731
11961
12242
12572
12936
13322
13721
14122
14517
14900
15269
15620
15946
16245
16512
16748
16954
17129
17274
17386
17464
17512
17530
17514
17468
17403
17331
17253
17167
17074
16975
16868
16756
16644
16534
16425
16319
16216
16112
16012
15918
15833
15755
15680
15604
15528
15450
15368
15286
15211
15146
15091
15047
15012
14986
14966
14952
14946
14948
14961
14983
15014
15050
15085
15122
15163
15203
15243
15281
15314
15337
15349
15356
15359
15357
15348
15330
15301
15263
15221
15172
15114
15049
14985
14921
14853
14778
14699
14617
14534
14446
14353
14257
14158
14057
13955
13856
13762
13671
13584
13501
13419
13336
13252
13172
13096
13022
12953
12889
12825
12758
12692
12633
12580
12531
12485
12442
12397
12351
12307
12266
12225
12190
12159
12127
12091
12052
12014
11978
11942
11902
11858
11813
11770
11726
11681
11634
11583
11534
11485
11433
11375
11317
11264
11216
11177
11161
11176
11222
11305
11431
11604
11820
12076
12369
12696
13051
13422
13799
14178
14548
14903
15241
15552
15834
16088
16314
16508
16670
16801
16904
16980
17028
17049
17047
17019
16971
16911
16843
16765
16675
16577
16476
16374
16270
16167
16066
15967
15870
15775
15683
15595
15511
15432
15356
15281
15207
15134
15058
14977
14891
14812
14745
14688
14641
14604
14574
14549
14532
14523
14526
14541
14566
14600
14636
14669
14699
14730
14760
14787
14813
14839
14859
14868
14867
14856
14838
14816
14790
14759
14718
14668
14612
14552
14489
14423
14354
14283
14209
14131
14049
13963
13874
13783
13693
13602
13508
13412
13319
13227
13132
13037
12944
12854
12770
12692
12620
12549
12474
12398
12321
12251
12187
12127
12073
12018
11961
11905
11851
11798
11748
11702
11657
11608
11554
11503
11455
11410
11367
11327
11291
11257
11219
11183
11149
11117
11084
11051
11016
10976
10932
10886
10836
10782
10731
10684
10637
10587
10536
10487
10437
10385
10333
10284
10236
10196
10172
10176
10216
10299
10430
10617
10857
11146
11481
11859
12268
12702
13149
13591
14022
14435
14829
15200
15541
15846
16116
16351
16552
16723
16863
16969
17041
17083
17102
17098
17075
17038
16990
16930
16857
16774
16687
16599
16507
16414
16320
16229
16143
16068
16008
15957
15910
15866
15825
15785
15743
15697
15652
15607
15562
15516
15467
15417
15374
15337
15301
15265
15233
15209
15192
15181
15182
15192
15208
15228
15250
15273
15298
15323
15349
15375
15396
15410
15418
15425
15426
15416
15397
15371
15339
15300
15259
15214
15165
15112
15057
14998
14931
14855
14776
14695
14609
14516
14423
14329
14232
14134
14041
13953
13867
13783
13704
13624
13541
13463
13391
13323
13256
13189
13121
13050
12978
12910
12847
12785
12720
12657
12602
12552
12502
12447
12388
12331
12275
12224
12183
12142
12100
12062
12026
11991
11953
11918
11885
11847
11803
11755
11708
11661
11617
11576
11537
11495
11450
11401
11347
11287
11226
11168
11109
11044
10976
10910
10846
10782
10722
10668
10627
10612
10636
10703
10820
10990
11212
11485
11805
12169
12568
12991
13427
13867
14299
14714
15104
15467
15800
16099
16361
16591
16788
16949
17075
17172
17241
17283
17298
17290
17266
17226
17169
17095
17009
16912
16808
16702
16599
16496
16394
16292
16193
16104
16023
15948
15879
15810
15741
15676
15615
15554
15496
15441
15388
15333
15275
15222
15176
15139
15110
15090
15077
15068
15061
15058
15064
15078
15097
15118
15137
15155
15180
15212
15246
15275
15292
15303
15314
15324
15327
15322
15306
15279
15244
15201
15149
15095
15040
14981
14915
14842
14769
14696
14618
14534
14447
14361
14274
14185
14096
14007
13917
13825
13736
13648
13558
13471
13388
13306
13224
13148
13077
13003
12928
12856
12791
12729
12672
12617
12565
12513
12463
12416
12371
12329
12290
12253
12219
12185
12150
12116
12084
12051
12021
11992
11962
11928
11889
11852
11815
11774
11728
11681
11631
11577
11521
11466
11411
11355
11301
11257
11228
11218
11234
11287
11382
11522
11710
11948
12233
12556
12911
13290
13678
14066
14447
14816
15167
15496
15798
16069
16307
16512
16683
16819
16920
16990
17033
17048
17035
17004
16958
16898
16821
16730
16628
16517
16398
16275
16154
16035
15918
15806
15698
15593
15490
15392
15298
15210
15126
15047
14970
14890
14810
14734
14663
14594
14532
14485
14452
14428
14412
14404
14404
14410
14424
14449
14482
14521
14566
14615
14663
14706
14746
14783
14816
14844
14870
14890
14902
14907
14903
14891
14870
14838
14799
14754
14703
14647
14585
14514
14437
14354
14267
14182
14098
14015
13932
13845
13754
13661
13571
13484
13397
13308
13221
13134
13046
12957
12871
12791
12715
12646
12581
12519
12454
12388
12327
12268
12214
12164
12118
12070
12022
11977
11934
11894
11855
11818
11785
11749
11709
11673
11644
11616
11589
11560
11524
11482
11440
11400
11363
11319
11273
11229
11186
11141
11097
11058
11031
11023
11046
11109
11220
11383
11597
11860
12168
12518
12902
13307
13723
14141
14551
14949
15330
15689
16019
16318
16585
16818
17015
17177
17302
17394
17457
17493
17500
17482
17444
17390
17321
17238
17151
17060
16966
16866
16761
16653
16543
16434
16330
16230
16131
16033
15940
15847
15754
15667
15587
15511
15439
15367
15296
15227
15162
15108
15068
15038
15019
15012
15015
15024
15037
15055
15078
15106
15140
15180
15223
15263
15299
15335
15371
15405
15434
15458
15474
15479
15475
15465
15446
15419
15384
15343
15295
15240
15182
15120
15052
14977
14898
14815
14726
14633
14538
14442
14344
14243
14145
14047
13949
13855
13765
13677
13590
13505
13424
13344
13265
13190
13117
13045
12972
12900
12827
12755
12688
12628
12574
12520
12467
12418
12373
12327
12279
12232
12186
12143
12102
12065
12031
11996
11961
11925
11885
11845
11807
11773
11740
11705
11667
11632
11596
11557
11510
11462
11416
11372
11327
11281
11230
11173
11114
11054
10994
10938
10896
10877
10887
10935
11030
11179
11388
11655
11982
12360
12774
13212
13670
14139
14607
15065
15508
15933
16330
16696
17028
17322
17576
17790
17966
18104
18201
18262
18293
18297
18279
18238
18180
18105
18018
17927
17833
17737
17639
17546
17459
17374
17289
17202
17118
17041
16970
16910
16857
16807
16756
16705
16654
16606
16559
16512
16465
16414
16361
16309
16260
16215
16177
16151
16138
16130
16125
16127
16132
16140
16154
16175
16204
16235
16266
16291
16303
16307
16305
16300
16293
16282
16268
16250
16225
16193
16154
16109
16057
15998
15932
15861
15785
15705
15625
15543
15456
15364
15268
15171
15073
14974
14876
14780
14685
14590
14494
14396
14293
14190
14091
13999
13914
13835
13764
13697
13630
13560
13492
13431
13375
13323
13273
13220
13162
13101
13038
12977
12919
12865
12818
12774
12730
12689
12651
12614
12579
12543
12507
12471
12432
12393
12352
12306
12256
12206
12158
12111
12062
12015
11968
11921
11873
11824
11773
11718
11659
11597
11531
11462
11393
11333
11285
11256
11253
11287
11367
11501
11691
11940
12241
12589
12978
13400
13844
14298
14751
15198
15627
16030
16408
16757
17074
17355
17598
17799
17959
18081
18172
18233
18262
18264
18245
18207
18146
18064
17967
17858
17744
17629
17515
17400
17286
17174
17067
16964
16865
16772
16687
16604
16522
16443
16367
16294
16223
16154
16090
16028
15969
15918
15875
15839
15813
15798
15796
15800
15808
15822
15839
15859
15882
15910
15940
15975
16013
16050
16084
16115
16142
16167
16192
16213
16230
16238
16233
16215
16191
16161
16121
16071
16010
15942
15868
15789
15712
15637
15558
15475
15391
15304
15217
15128
15039
14953
14867
14780
14694
14607
14518
14429
14341
14257
14176
14097
14017
13939
13861
13784
13713
13650
13593
13544
13502
13461
13417
13372
13329
13289
13255
13222
13188
13149
13106
13064
13025
12987
12948
12909
12869
12827
12782
12735
12684
12631
12581
12534
12483
12429
12377
12333
12305
12302
12333
12407
12531
12704
12924
13188
13495
13840
14219
14621
15032
15443
15848
16239
16608
16950
17263
17544
17791
18002
18180
18329
18445
18527
18578
18603
18599
18564
18504
18426
18332
18224
18105
17979
17849
17715
17584
17459
17342
17230
17123
17023
16923
16823
16727
16636
16548
16460
16375
16289
16201
16115
16035
15964
15902
15851
15812
15784
15763
15752
15757
15775
15803
15837
15874
15908
15937
15968
16003
16042
16088
16135
16176
16208
16230
16245
16248
16238
16221
16202
16180
16150
16110
16063
16011
15952
15889
15819
15737
15645
15551
15460
15370
15281
15191
15101
15007
14910
14809
14709
14611
14519
14431
14348
14266
14186
14107
14029
13951
13874
13801
13733
13665
13600
13536
13474
13413
13355
13302
13252
13202
13155
13112
13070
13026
12987
12953
12919
12881
12839
12799
12761
12723
12687
12654
12623
12591
12559
12527
12492
12450
12406
12366
12324
12279
12231
12181
12129
12077
12029
11984
11935
11880
11825
11774
11729
11700
11702
11744
11828
11963
12156
12405
12705
13052
13446
13882
14346
14827
15311
15780
16227
16649
17041
17398
17717
18002
18256
18475
18657
18800
18908
18984
19030
19056
19062
19048
19013
18961
18892
18809
18715
18615
18512
18407
18302
18197
18094
17992
17897
17815
17744
17679
17620
17566
17511
17453
17395
17340
17288
17237
17186
17137
17087
17036
16990
16953
16924
16902
16889
16889
16895
16904
16918
16938
16962
16985
17008
17033
17059
17086
17114
17137
17155
17171
17181
17184
17180
17169
17144
17108
17061
17007
16950
16888
16820
16742
16656
16566
16472
16380
16291
16200
16106
16011
15919
15828
15733
15637
15544
15452
15359
15267
15178
15093
15013
14937
14861
14786
14712
14644
14579
14516
14456
14401
14350
14298
14243
14189
14140
14091
14042
13993
13943
13892
13844
13801
13757
13711
13667
13629
13594
13559
13526
13495
13459
13418
13379
13338
13296
13258
13225
13189
13144
13091
13037
12985
12932
12876
12817
12758
12694
12627
12557
12487
12417
12351
12288
12231
12182
12152
12154
12201
12304
12468
12693
12971
13294
13661
14068
14506
14964
15430
15893
16343
16773
17177
17554
17899
18209
18482
18716
18908
19061
19181
19267
19324
19357
19367
19351
19312
19251
19173
19083
18987
18887
18785
18682
18575
18466
18361
18263
18172
18092
18021
17956
17892
17826
17760
17696
17629
17562
17498
17432
17366
17302
17241
17183
17132
17089
17054
17030
17015
17007
17002
17000
17003
17012
17025
17039
17058
17083
17109
17134
17157
17179
17201
17221
17237
17247
17249
17239
17216
17182
17137
17087
17034
16979
16916
16845
16767
16683
16597
16509
16420
16335
16253
16169
16082
15992
15900
15809
15718
15628
15537
15445
15349
15250
15151
15059
14974
14895
14818
14743
14670
14597
14525
14457
14393
14335
14281
14230
14178
14124
14069
14017
13970
13930
13894
13860
13826
13789
13745
13699
13652
13609
13573
13545
13520
13489
13449
13406
13368
13332
13297
13259
13218
13173
13124
13071
13013
12952
12892
12838
12786
12735
12683
12627
12562
12494
12429
12369
12314
12264
12234
12239
12291
12396
12558
12781
13061
13389
13754
14148
14563
14988
15419
15848
16266
16668
17042
17382
17686
17953
18185
18379
18531
18644
18725
18780
18814
18827
18817
18785
18729
18650
18556
18452
18343
18230
18112
17987
17857
17730
17608
17490
17379
17273
17170
17067
16968
16875
16789
16704
16622
16545
16469
16394
16325
16264
16209
16158
16116
16089
16081
16086
16094
16106
16122
16144
16173
16207
16243
16277
16310
16343
16374
16403
16435
16466
16490
16504
16512
16511
16500
16479
16449
16407
16350
16282
16212
16143
16071
15999
15924
15845
15758
15669
15581
15491
15399
15306
15212
15117
15016
14915
14820
14729
14636
14539
14443
14350
14259
14170
14088
14013
13939
13862
13788
13718
13653
13593
13537
13480
13419
13355
13292
13235
13184
13137
13096
13061
13025
12990
12957
12924
12894
12866
12838
12808
12778
12748
12718
12688
12658
12626
12588
12543
12495
12444
12392
12342
12295
12251
12204
12152
12095
12035
11973
11909
11845
11779
11707
11630
11559
11503
11463
11446
11458
11506
11598
11741
11941
12200
12511
12868
13265
13689
14130
14579
15029
15472
15895
16291
16658
16996
17299
17568
17802
18001
18165
18297
18398
18468
18508
18517
18498
18455
18397
18327
18244
18144
18029
17907
17786
17668
17549
17429
17314
17202
17093
16993
16902
16813
16728
16646
16565
16487
16411
16337
16266
16199
16137
16080
16026
15976
15935
15907
15894
15894
15903
15919
15938
15959
15987
16027
16071
16113
16151
16187
16218
16243
16265
16283
16293
16294
16286
16274
16256
16233
16208
16178
16138
16085
16023
15954
15876
15795
15715
15637
15558
15477
15393
15301
15202
15098
14995
14894
14795
14700
14608
14514
14416
14319
14224
14134
14047
13963
13882
13806
13734
13663
13591
13516
13438
13365
13299
13240
13182
13126
13073
13018
12963
12915
12873
12837
12805
12778
12751
12718
12683
12650
12620
12591
12561
12530
12496
12454
12407
12362
12320
12280
12241
12202
12161
12121
12079
12038
11995
11947
11893
11839
11787
11734
11685
11641
11596
11548
11499
11451
11400
11341
11280
11217
11150
11080
11009
10937
10863
10791
10732
10693
10680
10703
10771
10893
11070
11305
11597
11943
12334
12765
13230
13717
14212
14704
15180
15632
16056
16449
16809
17136
17425
17673
17882
18053
18185
18281
18342
18374
18379
18363
18328
18275
18205
18122
18027
17920
17809
17701
17597
17492
17386
17283
17182
17085
16995
16917
16847
16784
16731
16683
16635
16584
16533
16486
16439
16388
16338
16294
16254
16218
16188
16167
16156
16150
16152
16161
16173
16185
16198
16214
16229
16248
16271
16293
16313
16329
16345
16359
16366
16366
16360
16348
16328
16300
16263
16217
16163
16102
16039
15973
15903
15829
15748
15659
15567
15476
15388
15299
15209
15116
15020
14925
14833
14743
14657
14571
14483
14394
14304
14213
14125
14041
13964
13888
13810
13733
13657
13581
13508
13442
13384
13329
13278
13229
13183
13134
13085
13039
12996
12950
12902
12854
12803
12750
12701
12657
12617
12579
12538
12494
12451
12409
12370
12331
12287
12238
12188
12140
12093
12050
12009
11965
11913
11856
11798
11739
11677
11615
11555
11494
11429
11364
11302
11245
11190
11137
11083
11026
10967
10911
10856
10799
10736
10669
10600
10528
10451
10375
10303
10238
10183
10144
10130
10150
10216
10335
10508
10736
11020
11355
11729
12134
12562
13010
13469
13924
14367
14789
15185
15546
15870
16156
16402
16610
16784
16928
17040
17117
17162
17181
17175
17145
17095
17033
16961
16881
16797
16709
16616
16518
16417
16318
16225
16136
16054
15979
15912
15853
15801
15752
15706
15661
15616
15571
15527
15483
15438
15391
15343
15300
15265
15238
15216
15202
15194
15190
15190
15196
15207
15225
15249
15278
15309
15335
15355
15372
15387
15401
15416
15432
15447
15456
15459
15457
15447
15423
15391
15352
15307
15254
15193
15128
15062
14994
14925
14855
14782
14703
14618
14529
14438
14349
14261
14175
14087
13996
13905
13816
13728
13639
13553
13474
13400
13327
13255
13183
13111
13038
12967
12902
12843
12788
12731
12672
12615
12563
12518
12478
12441
12401
12361
12318
12273
12231
12192
12152
12112
12075
12041
12005
11969
11936
11907
11882
11855
11823
11788
11747
11701
11657
11616
11576
11531
11481
11428
11377
11328
11282
11237
11188
11137
11082
11023
10960
10899
10838
10777
10718
10658
10598
10544
10504
10490
10510
10572
10679
10833
11033
11279
11563
11879
12223
12589
12968
13352
13732
14091
14425
14734
15017
15274
15496
15683
15837
15959
16052
16119
16160
16175
16164
16134
16089
16026
15951
15867
15775
15677
15573
15469
15368
15269
15168
15069
14978
14896
14823
14758
14695
14633
14568
14502
14437
14375
14318
14266
14218
14172
14124
14076
14031
13995
13970
13956
13950
13950
13961
13981
14007
14036
14068
14101
14134
14166
14201
14241
14283
14326
14369
14412
14448
14471
14485
14490
14487
14476
14458
14431
14396
14354
14309
14257
14196
14131
14064
13997
13926
13852
13778
13708
13640
13574
13505
13429
13351
13273
13196
13119
13041
12966
12898
12831
12766
12702
12634
12563
12494
12429
12369
12310
12256
12207
12154
12101
12051
12006
11965
11928
11894
11860
11823
11786
11752
11718
11686
11656
11627
11596
11567
11544
11525
11502
11476
11449
11424
11400
11376
11348
11319
11292
11263
11234
11205
11171
11128
11077
11025
10973
10920
10869
10820
10770
10719
10671
10627
10584
10542
10501
10463
10439
10440
10477
10561
10695
10879
11112
11389
11704
12049
12418
12804
13198
13590
13973
14340
14681
14991
15271
15518
15732
15916
16071
16198
16296
16364
16409
16433
16438
16426
16399
16356
16299
16231
16155
16073
15992
15908
15820
15728
15637
15549
15467
15394
15330
15276
15229
15186
15145
15108
15071
15033
14995
14957
14920
14884
14848
14816
14791
14769
14757
14753
14753
14752
14751
14755
14769
14794
14826
14860
14894
14929
14965
15001
15037
15073
15106
15135
15154
15165
15167
15161
15150
15133
15111
15081
15044
15000
14951
14901
14851
14799
14749
14700
14644
14582
14518
14452
14386
14321
14255
14186
14111
14034
13961
13891
13822
13753
13689
13628
13566
13504
13442
13382
13326
13278
13233
13186
13141
13099
13057
13011
12965
12921
12880
12841
12804
12770
12737
12701
12662
12624
12591
12562
12533
12504
12473
12438
12401
12367
12336
12307
12281
12258
12234
12204
12170
12137
12102
12066
12033
12003
11970
11933
11892
11849
11808
11770
11734
11696
11654
11612
11568
11524
11480
11435
11390
11345
11298
11246
11193
11144
11100
11058
11020
10989
10975
10992
11054
11166
11328
11543
11813
12132
12489
12874
13282
13698
14112
14519
14916
15294
15644
15965
16254
16510
16732
16920
17079
17208
17304
17372
17419
17442
17445
17433
17410
17374
17321
17257
17189
17123
17056
16986
16913
16834
16754
16680
16615
16555
16498
16445
16396
16354
16319
16292
16270
16249
16228
16207
16185
16160
16134
16112
16094
16077
16062
16053
16050
16049
16054
16069
16088
16108
16132
16161
16196
16230
16265
16302
16335
16359
16376
16387
16394
16402
16406
16409
16409
16404
16397
16388
16376
16361
16340
16309
16267
16217
16164
16110
16054
15995
15931
15861
15790
15717
15644
15571
15496
15423
15353
15281
15212
15149
15089
15028
14962
14895
14831
14769
14709
14656
14610
14569
14533
14501
14467
14426
14383
14341
14300
14257
14213
14170
14130
14090
14052
14015
13979
13939
13899
13862
13826
13790
13757
13728
13699
13669
13635
13598
13559
13524
13494
13467
13440
13410
13374
13337
13301
13265
13230
13195
13156
13114
13072
13029
12984
12938
12895
12856
12816
12772
12726
12681
12637
12595
12557
12519
12476
12427
12377
12325
12271
12214
12155
12094
12036
11989
11965
11970
12013
12102
12240
12424
12655
12936
13266
13633
14025
14434
14849
15261
15663
16050
16417
16752
17049
17308
17531
17719
17877
18007
18107
18180
18223
18244
18246
18230
18199
18154
18097
18026
17944
17855
17764
17674
17591
17510
17428
17343
17260
17186
17121
17067
17020
16977
16937
16899
16867
16841
16819
16797
16775
16751
16718
16678
16637
16602
16573
16554
16546
16547
16555
16568
16588
16614
16645
16680
16719
16758
16794
16827
16860
16893
16922
16951
16978
17001
17016
17026
17033
17033
17026
17014
16999
16978
16948
16911
16867
16819
16767
16710
16650
16588
16524
16460
16396
16331
16263
16193
16116
16033
15946
15860
15780
15707
15642
15583
15524
15465
15408
15353
15295
15236
15176
15117
15058
15000
14946
14898
14856
14815
14773
14733
14694
14656
14623
14592
14562
14532
14502
14472
14440
14408
14380
14353
14328
14304
14282
14259
14232
14201
14168
14136
14103
14069
14037
14004
13967
13925
13880
13831
13780
13732
13689
13646
13599
13552
13509
13469
13425
13378
13330
13278
13223
13169
13115
13069
13035
13021
13036
13089
13186
13330
13518
13748
14021
14332
14671
15029
15399
15772
16140
16498
16837
17151
17438
17697
17926
18127
18299
18438
18544
18619
18668
18696
18705
18697
18669
18621
18558
18487
18409
18322
18232
18143
18050
17956
17861
17771
17684
17600
17522
17452
17385
17318
17251
17185
17118
17053
16994
16940
16890
16841
16794
16750
16715
16690
16676
16671
16675
16686
16700
16717
16737
16762
16796
16836
16875
16915
16953
16988
17022
17058
17096
17133
17163
17184
17195
17197
17188
17175
17163
17147
17124
17096
17060
17016
16966
16912
16855
16789
16715
16637
16558
16477
16396
16319
16242
16165
16090
16014
15935
15857
15782
15709
15636
15562
15482
15400
15319
15242
15171
15108
15050
14993
14935
14876
14820
14766
14715
14669
14623
14575
14529
14483
14436
14388
14342
14302
14262
14221
14181
14141
14102
14066
14032
14002
13975
13948
13920
13888
13849
13810
13774
13738
13698
13654
13612
13571
13529
13487
13445
13399
13348
13298
13252
13207
13161
13116
13070
13019
12964
12907
12848
12786
12725
12668
12622
12594
12589
12616
12684
12798
12960
13171
13429
13733
14081
14463
14867
15277
15685
16089
16483
16862
17224
17564
17874
18147
18385
18593
18765
18903
19012
19094
19149
19177
19188
19183
19162
19125
19073
19007
18932
18852
18770
18685
18596
18508
18422
18340
18262
18190
18126
18069
18017
17966
17918
17872
17829
17790
17754
17717
17679
17644
17614
17587
17557
17528
17504
17487
17474
17467
17466
17471
17482
17500
17524
17551
17580
17610
17641
17673
17705
17734
17761
17785
17808
17826
17834
17832
17823
17810
17791
17764
17731
17695
17656
17612
17561
17506
17448
17385
17319
17249
17175
17098
17019
16939
16858
16770
16679
16591
16506
16419
16333
16248
16163
16082
16005
15927
15851
15780
15715
15652
15593
15533
15473
15412
15351
15291
15236
15180
15122
15062
15003
14948
14896
14847
14802
14757
14713
14672
14634
14595
14553
14512
14472
14431
14388
14348
14308
14267
14224
14184
14146
14105
14058
14008
13958
13907
13857
13807
13760
13714
13666
13616
13566
13516
13467
13416
13362
13306
13249
13193
13135
13072
13003
12934
12867
12801
12735
12672
12612
12554
12499
12446
12396
12352
12319
12313
12343
12416
12538
12713
12937
13205
13517
13870
14257
14669
15100
15540
15975
16394
16795
17175
17531
17860
18159
18423
18647
18833
18984
19104
19192
19251
19283
19293
19281
19247
19199
19142
19080
19015
18948
18873
18791
18708
18627
18547
18470
18398
18327
18254
18179
18111
18055
18009
17972
17940
17910
17877
17841
17807
17773
17734
17691
17649
17612
17581
17559
17545
17535
17531
17535
17544
17557
17574
17598
17626
17651
17670
17686
17704
17721
17732
17740
17745
17746
17743
17738
17731
17719
17698
17671
17637
17594
17541
17484
17422
17357
17292
17225
17155
17079
17000
16919
16834
16746
16659
16575
16488
16395
16299
16205
16112
16020
15931
15846
15759
15669
15580
15498
15419
15339
15261
15188
15120
15057
15001
14949
14897
14846
14795
14742
14688
14637
14586
14535
14480
14422
14369
14320
14271
14223
14175
14128
14078
14028
13978
13926
13873
13822
13774
13726
13676
13625
13576
13531
13488
13445
13402
13354
13304
13257
13213
13168
13120
13066
13008
12951
12893
12836
12781
12726
12668
12610
12548
12483
12420
12359
12295
12225
12153
12084
12023
11975
11947
11940
11960
12012
12104
12242
12431
12672
12959
13288
13648
14030
14427
14829
15228
15615
15982
16324
16635
16916
17166
17386
17575
17730
17850
17938
17996
18031
18050
18051
18033
17997
17946
17882
17805
17713
17614
17513
17415
17320
17226
17132
17038
16948
16863
16785
16713
16648
16586
16528
16471
16412
16352
16289
16225
16165
16112
16065
16023
15982
15944
15917
15904
15906
15916
15927
15937
15947
15959
15977
15999
16022
16050
16081
16110
16136
16156
16174
16193
16211
16222
16226
16225
16221
16209
16188
16164
16137
16103
16055
15997
15934
15865
15791
15717
15642
15563
15481
15397
15311
15225
15139
15054
14972
14891
14809
14730
14651
14569
14486
14404
14320
14237
14156
14080
14009
13939
13867
13797
13732
13670
13612
13558
13508
13460
13411
13360
13308
13260
13217
13179
13144
13106
13063
13021
12983
12947
12913
12879
12840
12793
12748
12710
12678
12653
12630
12601
12565
12523
12480
12435
12389
12340
12293
12250
12208
12165
12119
12068
12012
11952
11893
11836
11778
11719
11659
11595
11529
11469
11417
11378
11360
11371
11421
11513
11647
11822
12040
12303
12610
12954
13327
13714
14104
14492
14872
15236
15578
15894
16179
16434
16656
16846
17007
17135
17228
17288
17321
17329
17317
17291
17252
17198
17132
17055
16969
16880
16791
16704
16617
16529
16441
16358
16276
16191
16108
16029
15954
15882
15813
15745
15676
15608
15546
15487
15429
15372
15319
15274
15235
15201
15177
15167
15166
15171
15182
15197
15213
15236
15267
15302
15333
15360
15386
15408
15428
15449
15472
15490
15500
15505
15507
15505
15497
15483
15460
15424
15377
15330
15284
15232
15174
15114
15051
14983
14908
14832
14759
14682
14601
14518
14430
14340
14253
14169
14087
14004
13921
13839
13758
13680
13604
13531
13458
13387
13318
13252
13188
13123
13061
13002
12945
12891
12840
12792
12745
12700
12657
12615
12573
12528
12486
12441
12392
12345
12302
12261
12223
12188
12155
12121
12081
12037
11994
11953
11913
11875
11841
11810
11779
11748
11716
11680
11639
11592
11540
11487
11435
11385
11341
11300
11258
11209
11158
11104
11047
10993
10942
10885
10824
10763
10701
10640
10582
10527
10477
10431
10387
10353
10339
10352
10403
10499
10644
10837
11077
11364
11695
12064
12465
12890
13326
13759
14182
14592
14985
15353
15692
16001
16275
16510
16710
16879
17015
17120
17200
17256
17288
17296
17287
17264
17227
17179
17123
17059
16987
16908
16827
16749
16675
16603
16536
16471
16408
16350
16297
16250
16205
16161
16118
16080
16047
16018
15989
15956
15918
15877
15838
15804
15777
15758
15747
15739
15733
15730
15733
15738
15745
15754
15768
15784
15802
15825
15850
15874
15893
15911
15929
15944
15955
15962
15962
15955
15941
15925
15904
15873
15832
15782
15725
15664
15600
15536
15468
15396
15323
15246
15163
15074
14986
14902
14822
14745
14666
14586
14505
14422
14342
14265
14188
14112
14037
13961
13887
13811
13736
13663
13590
13516
13445
13379
13319
13266
13216
13171
13129
13089
13051
13015
12975
12931
12887
12843
12799
12758
12719
12685
12651
12615
12575
12536
12499
12462
12423
12380
12333
12283
12233
12184
12137
12091
12048
12006
11963
11915
11863
11809
11754
11699
11644
11588
11533
11483
11435
11386
11338
11293
11249
11202
11152
11099
11042
10983
10926
10873
10821
10768
10714
10657
10599
10544
10497
10461
10438
10434
10461
10531
10650
10820
11041
11311
11625
11975
12362
12776
13208
13648
14085
14510
14917
15304
15668
16007
16309
16566
16789
16981
17142
17273
17377
17453
17503
17530
17540
17533
17508
17466
17411
17345
17269
17187
17104
17022
16945
16872
16802
16731
16662
16599
16544
16498
16456
16414
16369
16323
16277
16231
16185
16138
16087
16038
15993
15952
15917
15890
15871
15853
15840
15836
15841
15851
15864
15881
15899
15915
15937
15965
15996
16028
16055
16076
16091
16102
16115
16125
16125
16115
16097
16074
16047
16015
15980
15943
15899
15847
15790
15729
15664
15594
15518
15437
15351
15258
15165
15073
14981
14896
14818
14742
14664
14586
14510
14437
14365
14295
14227
14158
14086
14009
13929
13847
13765
13690
13621
13553
13488
13430
13381
13336
13298
13264
13233
13199
13163
13127
13091
13053
13014
12978
12943
12908
12874
12840
12806
12769
12729
12688
12648
12608
12573
12544
12516
12483
12446
12408
12369
12327
12282
12233
12179
12120
12060
12000
11942
11884
11826
11771
11717
11665
11610
11551
11489
11428
11371
11318
11262
11206
11150
11097
11055
11034
11044
11088
11169
11291
11465
11695
11974
12297
12658
13050
13463
13885
14308
14722
15121
15502
15858
16185
16481
16743
16968
17154
17303
17420
17508
17567
17600
17611
17602
17572
17523
17458
17382
17299
17214
17132
17048
16961
16872
16784
16696
16609
16529
16456
16388
16320
16255
16193
16131
16069
16009
15952
15897
15842
15785
15728
15672
15618
15572
15537
15512
15495
15488
15490
15498
15514
15540
15575
15614
15653
15688
15721
15751
15777
15804
15832
15858
15879
15893
15898
15896
15887
15875
15860
15839
15812
15778
15732
15676
15614
15550
15487
15422
15355
15285
15212
15133
15048
14959
14867
14772
14676
14583
14495
14409
14324
14243
14164
14084
14004
13926
13849
13776
13704
13631
13558
13488
13426
13376
13332
13288
13244
13198
13150
13104
13063
13021
12978
12937
12899
12861
12817
12770
12725
12682
12644
12614
12592
12575
12558
12538
12516
12491
12463
12432
12397
12356
12311
12267
12228
12190
12153
12112
12064
12013
11960
11909
11861
11808
11748
11687
11632
11583
11541
11516
11511
11531
11588
11695
11855
12065
12326
12631
12977
13356
13761
14183
14610
15029
15435
15822
16186
16523
16831
17112
17360
17571
17752
17906
18031
18126
18194
18236
18253
18250
18227
18188
18135
18069
17998
17925
17848
17769
17684
17593
17497
17404
17320
17241
17164
17093
17028
16968
16909
16852
16797
16742
16683
16623
16563
16507
16457
16416
16383
16355
16333
16317
16304
16297
16299
16309
16327
16346
16367
16392
16422
16452
16486
16522
16556
16583
16600
16611
16620
16623
16619
16609
16595
16578
16555
16530
16500
16462
16414
16358
16291
16216
16143
16069
15989
15902
15810
15720
15630
15540
15451
15367
15283
15200
15121
15043
14965
14888
14811
14731
14650
14568
14493
14424
14359
14295
14234
14175
14113
14051
13993
13937
13879
13823
13773
13724
13676
13633
13594
13556
13517
13475
13433
13394
13358
13325
13295
13261
13223
13189
13164
13140
13111
13079
13045
13009
12970
12931
12894
12859
12825
12789
12749
12702
12655
12610
12567
12525
12482
12437
12387
12331
12275
12222
12171
12113
12049
11983
11918
11852
11789
11730
11679
11634
11603
11595
11622
11694
11821
12004
12240
12525
12858
13233
13646
14085
14539
15002
15463
15912
16344
16752
17128
17471
17784
18060
18299
18501
18670
18807
18911
18984
19032
19058
19065
19058
19040
19011
18970
18915
18850
18775
18690
18600
18515
18432
18356
18289
18232
18179
18133
18093
18058
18027
17996
17961
17922
17879
17832
17783
17737
17692
17645
17600
17559
17523
17495
17475
17461
17449
17443
17444
17452
17464
17479
17495
17513
17533
17555
17577
17594
17604
17609
17610
17608
17601
17592
17582
17564
17537
17504
17468
17430
17388
17341
17289
17232
17168
17097
17022
16943
16862
16781
16699
16613
16525
16439
16353
16265
16176
16090
16006
15923
15843
15767
15690
15611
15530
15452
15379
15307
15235
15163
15096
15035
14983
14938
14891
14839
14789
14742
14696
14651
14606
14562
14518
14476
14441
14410
14375
14334
14294
14256
14219
14184
14152
14119
14083
14046
14010
13974
13932
13890
13850
13811
13769
13726
13681
13634
13586
13537
13489
13441
13390
13335
13283
13233
13185
13136
13084
13029
12971
12914
12862
12809
12757
12704
12650
12594
12537
12477
12413
12349
12285
12222
12164
12114
12078
12067
12088
12148
12255
12416
12635
12907
13227
13591
13993
14424
14876
15340
15804
16254
16681
17084
17461
17807
18121
18399
18639
18839
19004
19135
19233
19300
19343
19364
19362
19336
19293
19236
19165
19082
18995
18909
18822
18741
18665
18589
18511
18436
18367
18308
18252
18196
18143
18093
18047
18006
17965
17923
17882
17839
17794
17748
17702
17656
17616
17585
17563
17551
17547
17547
17547
17550
17556
17566
17577
17593
17613
17630
17643
17663
17690
17718
17742
17764
17781
17794
17801
17801
17791
17770
17736
17691
17639
17581
17523
17469
17414
17351
17280
17206
17128
17047
16964
16879
16795
16709
16625
16540
16455
16370
16288
16206
16122
16034
15950
15870
15794
15721
15648
15579
15514
15453
15395
15342
15291
15238
15188
15145
15108
15074
15043
15010
14973
14935
14903
14879
14856
14828
14797
14764
14729
14695
14667
14643
14616
14583
14549
14516
14483
14452
14417
14374
14321
14267
14212
14156
14098
14039
13979
13917
13855
13793
13730
13662
13593
13532
13480
13436
13410
13410
13444
13516
13630
13790
13999
14253
14549
14883
15249
15639
16044
16453
16854
17242
17618
17977
18307
18604
18868
19101
19300
19463
19593
19693
19765
19813
19841
19848
19836
19807
19764
19705
19631
19544
19451
19356
19258
19158
19060
18966
18876
18790
18710
18635
18563
18496
18432
18369
18309
18250
18189
18125
18064
18005
17948
17891
17839
17795
17763
17739
17722
17714
17712
17715
17726
17742
17762
17787
17812
17839
17867
17893
17915
17934
17950
17959
17967
17977
17984
17984
17974
17958
17939
17914
17883
17843
17791
17728
17662
17594
17521
17444
17361
17275
17189
17101
17011
16921
16830
16737
16646
16558
16466
16373
16282
16192
16104
16021
15943
15868
15792
15715
15636
15560
15488
15419
15355
15296
15239
15183
15130
15083
15041
15001
14962
14921
14876
14834
14798
14763
14724
14688
14657
14626
14591
14558
14529
14498
14462
14426
14393
14358
14321
14282
14242
14199
14150
14101
14055
14009
13961
13913
13864
13814
13764
13712
13659
13605
13550
13496
13441
13386
13330
13272
13212
13149
13089
13035
12993
12971
12977
13019
13100
13229
13416
13663
13962
14304
14683
15096
15535
15990
16449
16903
17339
17753
18144
18510
18845
19147
19414
19644
19837
19993
20116
20209
20274
20311
20328
20329
20311
20273
20223
20163
20094
20021
19949
19877
19803
19729
19661
19597
19534
19478
19430
19386
19341
19301
19270
19244
19219
19189
19154
19115
19073
19030
18986
18939
18895
18857
18824
18797
18775
18758
18745
18737
18733
18734
18742
18753
18767
18783
18800
18812
18823
18834
18844
18848
18845
18838
18830
18817
18797
18771
18738
18703
18669
18634
18590
18535
18472
18403
18323
18236
18144
18050
17955
17859
17767
17683
17599
17509
17415
17322
17229
17141
17057
16970
16881
16797
16720
16650
16581
16515
16451
16388
16325
16263
16203
16143
16087
16034
15983
15934
15889
15846
15809
15771
15727
15680
15635
15595
15560
15527
15496
15469
15439
15408
15374
15331
15281
15232
15185
15140
15094
15047
15000
14955
14913
14871
14828
14777
14720
14662
14608
14553
14499
14449
14403
14357
14311
14267
14220
14165
14105
14047
13988
13926
13861
13796
13729
13660
13594
13532
13469
13408
13354
13302
13247
13191
13135
13077
13017
12960
12910
12876
12867
12893
12965
13091
13269
13505
13799
14145
14533
14955
15405
15873
16348
16820
17282
17729
18147
18529
18877
19188
19461
19700
19904
20072
20203
20300
20368
20412
20432
20433
20418
20382
20328
20262
20187
20107
20027
19947
19866
19784
19707
19642
19587
19536
19488
19445
19409
19376
19349
19327
19307
19282
19255
19230
19204
19172
19132
19088
19043
19002
18965
18932
18905
18882
18866
18858
18855
18855
18860
18874
18898
18921
18939
18956
18972
18987
18997
19002
18996
18982
18967
18950
18928
18901
18871
18838
18800
18757
18710
18656
18597
18531
18459
18380
18298
18213
18126
18040
17955
17874
17794
17711
17623
17533
17444
17357
17270
17185
17101
17015
16930
16851
16782
16717
16656
16594
16529
16463
16399
16337
16278
16219
16159
16103
16051
16004
15960
15917
15874
15832
15792
15755
15720
15685
15651
15616
15578
15538
15497
15456
15414
15370
15325
15280
15236
15187
15134
15081
15030
14980
14932
14884
14834
14783
14734
14688
14641
14593
14543
14489
14432
14373
14314
14254
14188
14122
14060
13997
13931
13866
13804
13741
13675
13608
13543
13477
13406
13337
13278
13236
13212
13216
13260
13350
13491
13684
13930
14221
14551
14918
15313
15722
16135
16547
16957
17354
17730
18076
18392
18677
18924
19134
19309
19447
19548
19619
19665
19687
19688
19672
19636
19584
19522
19450
19363
19268
19169
19073
18981
18894
18813
18737
18666
18600
18540
18485
18430
18374
18323
18278
18233
18188
18142
18095
18045
17994
17949
17913
17879
17844
17817
17800
17789
17784
17787
17798
17814
17836
17863
17892
17918
17944
17971
17995
18014
18028
18040
18052
18060
18066
18070
18068
18056
18030
17997
17959
17915
17865
17808
17741
17664
17583
17505
17431
17358
17282
17205
17123
17037
16953
16872
16792
16711
16629
16541
16453
16369
16290
16213
16138
16063
15988
15912
15836
15761
15692
15625
15555
15484
15417
15354
15296
15243
15194
15149
15107
15068
15036
15004
14967
14923
14881
14843
14801
14753
14706
14664
14624
14585
14547
14507
14467
14426
14383
14338
14294
14249
14205
14161
14111
14058
14003
13947
13893
13843
13796
13746
13695
13646
13600
13551
13499
13441
13377
13309
13237
13169
13105
13042
12977
12912
12844
12771
12696
12623
12552
12481
12413
12354
12309
12287
12295
12339
12425
12559
12749
12992
13283
13621
13998
14405
14832
15272
15718
16162
16590
16994
17374
17726
18047
18334
18591
18815
19001
19150
19265
19346
19396
19421
19426
19408
19369
19319
19261
19194
19116
19026
18931
18834
18738
18650
18574
18507
18447
18397
18357
18322
18289
18260
18231
18199
18166
18132
18099
18063
18023
17981
17941
17904
17870
17840
17809
17778
17755
17743
17738
17738
17743
17751
17762
17775
17795
17820
17842
17857
17873
17890
17908
17926
17941
17953
17955
17949
17941
17929
17905
17870
17825
17772
17711
17647
17582
17515
17446
17375
17304
17232
17156
17074
16990
16902
16811
16720
16630
16538
16441
16341
16244
16151
16063
15981
15904
15825
15746
15671
15603
15538
15475
15412
15347
15279
15211
15148
15090
15037
14990
14944
14896
14847
14800
14757
14719
14681
14640
14597
14550
14499
14447
14398
14352
14306
14260
14213
14163
14110
14056
14005
13952
13897
13842
13791
13738
13680
13622
13564
13505
13443
13382
13322
13260
13197
13134
13074
13020
12968
12916
12861
12805
12746
12687
12625
12559
12493
12432
12376
12320
12260
12196
12133
12069
12004
11941
11877
11809
11739
11674
11614
11557
11499
11441
11385
11334
11291
11267
11268
11300
11376
11501
11675
11894
12155
12460
12802
13174
13571
13985
14406
14829
15243
15635
16000
16339
16651
16934
17180
17387
17565
17714
17834
17924
17987
18021
18027
18011
17977
17930
17871
17804
17734
17660
17584
17508
17435
17366
17299
17232
17168
17109
17055
17009
16969
16932
16899
16872
16850
16829
16808
16787
16765
16736
16700
16662
16624
16586
16553
16522
16494
16469
16448
16433
16423
16417
16416
16422
16434
16449
16468
16490
16514
16537
16554
16567
16574
16577
16577
16575
16566
16548
16523
16496
16466
16430
16387
16335
16273
16203
16130
16058
15983
15907
15834
15756
15672
15585
15499
15415
15327
15240
15156
15076
14997
14919
14845
14772
14697
14622
14546
14469
14391
14316
14248
14185
14122
14058
14000
13948
13902
13859
13816
13772
13725
13677
13630
13584
13540
13499
13463
13424
13381
13337
13291
13246
13202
13164
13131
13097
13060
13020
12977
12931
12883
12835
12789
12744
12696
12648
12599
12546
12490
12438
12386
12330
12276
12224
12167
12105
12039
11971
11902
11835
11772
11714
11654
11595
11539
11488
11437
11386
11337
11290
11242
11193
11144
11092
11032
10965
10902
10848
10810
10789
10793
10826
10897
11012
11173
11376
11619
11903
12221
12567
12931
13305
13684
14061
14429
14782
15116
15422
15693
15929
16130
16297
16431
16535
16610
16657
16677
16674
16654
16618
16567
16506
16438
16364
16284
16202
16116
16028
15938
15851
15766
15685
15614
15551
15494
15439
15385
15336
15288
15240
15193
15147
15098
15045
14992
14947
14909
14873
14839
14813
14792
14773
14762
14760
14766
14778
14796
14819
14839
14854
14876
14902
14929
14955
14982
15008
15030
15044
15055
15066
15072
15069
15060
15043
15016
14981
14942
14899
14853
14804
14754
14698
14628
14551
14474
14400
14329
14260
14191
14118
14037
13952
13870
13790
13712
13637
13564
13490
13414
13342
13274
13209
13148
13090
13032
12969
12905
12849
12802
12759
12716
12671
12625
12578
12531
12485
12438
12392
12349
12310
12277
12245
12214
12182
12151
12121
12092
12064
12033
12001
11970
11942
11911
11873
11833
11795
11760
11725
11691
11654
11612
11569
11525
11482
11436
11383
11329
11277
11222
11163
11104
11045
10987
10929
10875
10824
10775
10731
10700
10680
10679
10710
10785
10904
11065
11269
11515
11794
12101
12430
12777
13133
13493
13847
14192
14520
14826
15109
15367
15598
15797
15966
16104
16209
16282
16332
16366
16381
16376
16350
16304
16242
16166
16080
15990
15895
15799
15704
15613
15524
15439
15361
15292
15231
15179
15131
15083
15033
14985
14940
14892
14840
14788
14739
14693
14647
14605
14568
14535
14509
14490
14477
14469
14466
14470
14484
14503
14527
14555
14585
14613
14638
14662
14685
14706
14727
14748
14764
14775
14781
14785
14783
14775
14757
14731
14697
14656
14610
14562
14511
14457
14398
14334
14265
14194
14123
14052
13981
13906
13827
13748
13669
13588
13510
13436
13363
13291
13220
13150
13080
13010
12942
12877
12813
12751
12692
12637
12587
12539
12490
12439
12389
12340
12292
12245
12197
12149
12104
12059
12011
11966
11928
11894
11858
11822
11788
11750
11707
11668
11633
11600
11565
11528
11487
11444
11400
11358
11322
11284
11242
11201
11161
11119
11078
11039
11002
10960
10913
10862
10808
10750
10695
10642
10590
10534
10475
10420
10365
10308
10250
10194
10138
10085
10040
10009
9996
10002
10038
10117
10240
10410
10628
10894
11199
11534
11895
12272
12658
13047
13435
13817
14186
14536
14865
15168
15439
15673
15871
16036
16169
16272
16346
16392
16411
16403
16379
16343
16296
16242
16183
16116
16045
15973
15903
15837
15770
15703
15641
15589
15549
15521
15503
15487
15470
15455
15440
15423
15401
15373
15337
15299
15263
15232
15204
15178
15155
15138
15129
15122
15115
15113
15114
15116
15120
15130
15145
15158
15169
15182
15199
15216
15232
15247
15253
15249
15240
15235
15233
15230
15223
15210
15186
15149
15103
15054
15000
14940
14875
14808
14740
14668
14595
14525
14453
14377
14300
14225
14151
14076
14000
13922
13842
13763
13686
13613
13541
13469
13398
13328
13256
13188
13130
13076
13022
12966
12915
12867
12818
12768
12718
12666
12617
12573
12535
12494
12448
12398
12350
12304
12259
12214
12170
12127
12082
12042
12008
11977
11947
11916
11882
11843
11802
11761
11724
11685
11642
11596
11546
11493
11440
11387
11335
11280
11224
11169
11118
11071
11027
10983
10935
10882
10828
10776
10723
10669
10616
10565
10514
10460
10408
10358
10305
10247
10186
10126
10066
10010
9961
9920
9883
9854
9845
9865
9918
10010
10150
10340
10577
10858
11182
11541
11929
12335
12747
13161
13570
13969
14349
14700
15019
15309
15570
15799
15991
16147
16266
16349
16400
16425
16428
16407
16366
16312
16251
16181
16104
16025
15946
15868
15794
15728
15667
15608
15552
15503
15458
15416
15377
15344
15314
15286
15259
15231
15200
15166
15131
15096
15060
15025
14994
14973
14961
14952
14943
14938
14937
14941
14954
14974
14992
15009
15030
15057
15081
15103
15126
15150
15175
15199
15221
15240
15251
15254
15253
15247
15231
15204
15169
15123
15066
15005
14946
14886
14820
14751
14683
14614
14542
14471
14401
14330
14257
14180
14101
14020
13937
13856
13777
13698
13617
13540
13466
13394
13322
13252
13184
13114
13043
12980
12926
12874
12823
12776
12733
12693
12653
12616
12584
12552
12521
12489
12455
12421
12389
12360
12336
12313
12288
12261
12230
12194
12156
12119
12083
12044
12003
11962
11921
11882
11841
11800
11753
11703
11652
11600
11547
11495
11443
11390
11333
11271
11211
11158
11107
11057
11007
10956
10905
10862
10840
10843
10877
10950
11069
11236
11447
11698
11986
12309
12660
13032
13418
13806
14187
14559
14917
15251
15556
15829
16067
16266
16429
16557
16656
16726
16765
16778
16768
16738
16693
16634
16565
16489
16406
16323
16238
16152
16069
15993
15919
15846
15771
15702
15642
15588
15539
15495
15451
15403
15355
15307
15257
15202
15146
15091
15040
14992
14949
14918
14900
14892
14897
14914
14932
14947
14964
14985
15010
15035
15059
15085
15112
15137
15164
15192
15220
15247
15272
15292
15301
15299
15287
15266
15232
15188
15137
15083
15025
14961
14895
14824
14747
14669
14595
14524
14451
14377
14302
14220
14133
14044
13954
13864
13773
13685
13602
13522
13444
13368
13295
13224
13153
13085
13018
12951
12886
12828
12774
12721
12671
12623
12574
12523
12473
12427
12383
12336
12291
12251
12215
12180
12151
12126
12103
12076
12045
12008
11968
11926
11885
11846
11806
11766
11728
11694
11662
11629
11593
11553
11507
11455
11401
11346
11289
11230
11173
11116
11054
10989
10925
10861
10798
10740
10687
10638
10594
10558
10535
10532
10555
10612
10708
10849
11037
11273
11559
11888
12250
12642
13056
13482
13912
14342
14761
15160
15532
15874
16184
16461
16702
16910
17085
17226
17328
17397
17438
17456
17455
17438
17406
17358
17299
17228
17149
17066
16988
16915
16845
16777
16714
16660
16612
16567
16527
16497
16476
16457
16440
16420
16393
16358
16322
16288
16252
16212
16173
16140
16111
16084
16063
16050
16046
16049
16058
16071
16087
16100
16114
16129
16145
16162
16183
16205
16223
16241
16258
16274
16284
16286
16283
16273
16255
16231
16203
16170
16131
16084
16031
15971
15900
15822
15741
15657
15569
15476
15381
15284
15188
15099
15019
14942
14864
14784
14700
14616
14533
14452
14374
14295
14218
14145
14075
14004
13933
13865
13800
13735
13673
13614
13558
13505
13453
13404
13359
13314
13268
13222
13175
13124
13070
13022
12977
12933
12891
12853
12815
12772
12725
12680
12638
12594
12550
12505
12459
12408
12358
12309
12263
12216
12167
12116
12062
12002
11944
11889
11836
11787
11741
11692
11639
11587
11540
11497
11451
11403
11350
11292
11232
11171
11108
11042
10970
10897
10827
10760
10699
10648
10611
10593
10597
10634
10716
10850
11038
11282
11581
11926
12311
12731
13176
13636
14109
14587
15057
15503
15921
16312
16669
16988
17271
17516
17719
17879
17998
18084
18140
18168
18170
18153
18119
18069
18008
17946
17886
17819
17748
17681
17615
17552
17494
17443
17400
17364
17337
17321
17308
17295
17286
17280
17268
17249
17228
17206
17179
17141
17102
17067
17032
16997
16967
16940
16914
16887
16867
16856
16850
16848
16851
16857
16867
16882
16901
16923
16946
16965
16980
16988
16990
16996
17005
17010
17001
16979
16948
16909
16863
16814
16764
16710
16649
16582
16507
16425
16341
16255
16169
16077
15980
15886
15796
15706
15617
15533
15452
15372
15291
15212
15134
15055
14978
14904
14829
14753
14680
14613
14547
14481
14417
14359
14302
14242
14187
14139
14096
14056
14015
13975
13936
13897
13858
13819
13774
13724
13675
13629
13586
13549
13514
13479
13438
13394
13354
13318
13280
13240
13201
13157
13107
13055
13006
12956
12901
12842
12783
12723
12662
12599
12535
12469
12398
12326
12256
12188
12118
12048
11983
11923
11869
11824
11785
11751
11726
11727
11760
11834
11960
12139
12371
12654
12982
13352
13755
14182
14624
15071
15515
15946
16361
16752
17111
17431
17709
17945
18140
18293
18409
18492
18543
18565
18559
18529
18479
18412
18331
18244
18151
18051
17946
17840
17736
17636
17546
17466
17391
17325
17267
17214
17161
17109
17061
17018
16974
16925
16877
16832
16787
16738
16690
16643
16602
16571
16546
16526
16506
16488
16478
16478
16483
16493
16511
16537
16568
16602
16636
16666
16695
16726
16756
16781
16796
16803
16802
16792
16771
16741
16704
16660
16608
16548
16483
16411
16330
16247
16165
16080
15993
15906
15817
15722
15621
15517
15417
15318
15219
15123
15028
14932
14840
14754
14673
14592
14509
14427
14349
14276
14211
14153
14096
14037
13976
13919
13866
13818
13775
13735
13697
13655
13612
13571
13535
13503
13469
13430
13390
13354
13324
13298
13271
13235
13189
13135
13080
13030
12986
12942
12895
12846
12797
12747
12696
12647
12598
12546
12486
12422
12358
12292
12225
12160
12094
12024
11953
11883
11822
11773
11740
11727
11748
11812
11925
12091
12312
12579
12889
13241
13627
14039
14475
14926
15382
15833
16268
16684
17078
17439
17763
18049
18292
18490
18644
18759
18841
18890
18910
18905
18878
18833
18773
18703
18624
18537
18444
18348
18252
18157
18066
17981
17907
17846
17798
17758
17719
17682
17649
17622
17596
17569
17538
17500
17452
17395
17334
17270
17207
17149
17099
17056
17019
16986
16961
16945
16938
16940
16946
16952
16958
16969
16990
17020
17050
17077
17100
17118
17126
17128
17123
17106
17079
17048
17018
16984
16943
16895
16842
16779
16708
16636
16563
16487
16408
16326
16238
16144
16052
15963
15873
15777
15674
15570
15468
15368
15269
15171
15074
14975
14879
14794
14714
14634
14555
14482
14414
14348
14289
14234
14175
14109
14041
13976
13916
13861
13809
13763
13719
13674
13631
13591
13549
13503
13461
13420
13379
13338
13300
13261
13220
13171
13119
13069
13020
12968
12917
12869
12822
12779
12737
12691
12638
12582
12529
12478
12424
12365
12304
12241
12175
12110
12049
11989
11929
11866
11803
11739
11674
11612
11554
11497
11434
11370
11307
11240
11171
11102
11035
10968
10903
10851
10823
10826
10864
10945
11076
11261
11502
11801
12156
12560
13001
13475
13972
14478
14987
15492
15986
16459
16902
17309
17677
17996
18265
18487
18666
18804
18901
18963
18993
18994
18973
18940
18891
18825
18746
18660
18566
18466
18367
18274
18185
18099
18020
17950
17886
17831
17788
17755
17726
17695
17666
17638
17610
17581
17553
17525
17493
17459
17425
17390
17353
17314
17274
17231
17193
17164
17144
17127
17113
17104
17103
17109
17119
17135
17151
17162
17170
17178
17183
17183
17178
17169
17158
17137
17107
17071
17028
16976
16918
16857
16792
16721
16641
16557
16472
16387
16301
16214
16124
16027
15926
15825
15725
15624
15526
15431
15337
15240
15142
15047
14954
14859
14763
14670
14579
14489
14407
14333
14260
14193
14132
14073
14014
13960
13913
13871
13830
13789
13746
13698
13645
13592
13542
13493
13443
13396
13351
13303
13253
13205
13157
13108
13052
12992
12937
12887
12838
12792
12749
12702
12651
12600
12551
12503
12453
12402
12348
12288
12225
12163
12104
12046
11988
11934
11881
11825
11767
11710
11653
11593
11531
11471
11410
11346
11276
11206
11138
11073
11010
10947
10882
10813
10745
10683
10630
10586
10560
10564
10604
10688
10830
11038
11307
11627
11994
12400
12837
13295
13772
14261
14749
15226
15681
16108
16499
16848
17153
17414
17630
17806
17945
18050
18119
18158
18168
18151
18112
18056
17986
17902
17807
17702
17587
17465
17344
17227
17118
17021
16937
16862
16792
16723
16658
16602
16556
16515
16475
16435
16398
16359
16315
16266
16211
16155
16098
16045
15998
15954
15915
15884
15865
15856
15859
15871
15890
15910
15932
15956
15984
16009
16031
16052
16072
16089
16100
16104
16106
16104
16098
16084
16060
16027
15983
15932
15872
15804
15734
15665
15592
15515
15432
15344
15250
15151
15050
14953
14858
14761
14661
14558
14448
14338
14233
14137
14044
13951
13859
13767
13678
13595
13519
13449
13382
13318
13258
13201
13148
13101
13058
13014
12964
12913
12866
12822
12780
12740
12701
12663
12624
12587
12556
12526
12494
12462
12429
12395
12360
12324
12288
12246
12198
12149
12099
12046
11995
11948
11901
11852
11803
11755
11706
11650
11586
11514
11436
11355
11275
11196
11118
11039
10965
10901
10852
10818
10807
10828
10883
10980
11125
11324
11575
11875
12217
12596
13004
13428
13864
14303
14733
15145
15533
15889
16209
16495
16747
16963
17140
17278
17382
17456
17500
17516
17506
17471
17411
17333
17241
17139
17025
16902
16778
16653
16527
16400
16277
16161
16055
15961
15877
15798
15723
15655
15591
15527
15459
15388
15313
15237
15160
15088
15024
14964
14904
14852
14812
14782
14761
14754
14756
14763
14776
14796
14821
14845
14868
14891
14916
14940
14963
14984
15004
15020
15030
15029
15020
15004
14983
14956
14921
14875
14819
14758
14690
14613
14530
14446
14358
14266
14169
14069
13971
13876
13782
13691
13599
13506
13413
13319
13222
13123
13025
12925
12823
12720
12621
12529
12440
12354
12276
12204
12132
12060
11993
11935
11880
11827
11777
11726
11672
11618
11568
11525
11486
11451
11418
11384
11345
11303
11264
11227
11192
11156
11119
11079
11036
10996
10961
10923
10877
10829
10783
10737
10692
10649
10609
10564
10515
10463
10410
10358
10308
10260
10211
10160
10106
10051
9992
9930
9867
9804
9735
9658
9580
9508
9442
9382
9331
9299
9296
9332
9416
9554
9749
10001
10310
10676
11088
11535
12005
12483
12962
13436
13901
14350
14772
15160
15514
15836
16121
16365
16570
16734
16862
16954
17014
17044
17046
17025
16985
16930
16861
16782
16693
16595
16493
16388
16282
16179
16081
15989
15907
15834
15769
15710
15659
15611
15564
15521
15483
15446
15410
15372
15332
15289
15244
15200
15158
15120
15085
15053
15027
15010
15001
15002
15006
15012
15018
15027
15039
15053
15068
15084
15101
15113
15120
15127
15134
15138
15135
15124
15103
15073
15035
14990
14938
14881
14821
14759
14692
14620
14545
14468
14386
14301
14218
14135
14050
13963
13879
13795
13707
13614
13519
13423
13324
13226
13133
13043
12953
12862
12772
12683
12594
12509
12432
12361
12295
12234
12177
12118
12055
11996
11943
11896
11851
11809
11767
11724
11679
11638
11600
11560
11517
11474
11433
11396
11362
11328
11293
11256
11217
11180
11147
11116
11080
11041
10999
10952
10902
10853
10804
10752
10701
10651
10601
10548
10493
10438
10382
10324
10264
10205
10144
10079
10016
9955
9897
9837
9775
9712
9649
9584
9522
9469
9425
9395
9388
9415
9486
9611
9798
10047
10352
10709
11114
11557
12027
12512
13000
13484
13950
14392
14806
15189
15535
15842
16110
16340
16531
16688
16812
16900
16954
16979
16984
16966
16924
16863
16790
16708
16618
16526
16436
16342
16244
16143
16043
15950
15864
15789
15724
15665
15612
15567
15526
15487
15449
15417
15385
15350
15309
15262
15209
15152
15095
15043
14996
14956
14924
14902
14891
14888
14893
14903
14917
14936
14959
14990
15025
15059
15094
15126
15154
15177
15196
15207
15207
15194
15174
15149
15121
15088
15050
15003
14949
14887
14823
14756
14681
14596
14508
14419
14326
14230
14134
14041
13948
13856
13766
13675
13581
13488
13400
13317
13235
13154
13075
12996
12916
12841
12773
12709
12644
12575
12506
12441
12379
12323
12273
12224
12176
12132
12093
12058
12028
12002
11980
11954
11924
11893
11862
11832
11801
11773
11747
11719
11689
11658
11627
11596
11563
11530
11492
11446
11393
11340
11285
11229
11175
11122
11066
11008
10948
10890
10835
10782
10733
10691
10659
10646
10666
10732
10851
11026
11257
11539
11865
12231
12630
13050
13480
13909
14334
14748
15141
15506
15844
16148
16416
16644
16838
16996
17116
17200
17249
17266
17256
17220
17169
17104
17026
16934
16832
16722
16606
16486
16366
16244
16122
16008
15905
15810
15725
15646
15568
15489
15410
15332
15257
15183
15107
15035
14970
14909
14853
14804
14760
14719
14682
14654
14633
14619
14611
14614
14629
14656
14696
14745
14796
14841
14884
14929
14977
15020
15058
15090
15111
15122
15127
15127
15117
15098
15073
15040
14999
14949
14891
14829
14756
14673
14587
14502
14413
14320
14228
14136
14038
13936
13835
13736
13636
13534
13433
13333
13234
13137
13046
12954
12859
12763
12675
12596
12524
12456
12390
12326
12264
12209
12160
12111
12060
12013
11971
11929
11886
11843
11803
11766
11728
11693
11666
11640
11615
11594
11573
11552
11528
11503
11475
11444
11407
11369
11331
11291
11250
11208
11161
11110
11063
11023
10983
10937
10885
10830
10774
10716
10657
10597
10533
10469
10409
10363
10340
10349
10399
10500
10659
10875
11153
11495
11888
12323
12788
13267
13748
14222
14688
15138
15560
15948
16302
16622
16903
17147
17356
17527
17657
17750
17812
17845
17854
17844
17818
17772
17706
17627
17539
17444
17340
17231
17120
17012
16906
16807
16718
16635
16559
16491
16429
16372
16318
16269
16225
16183
16140
16097
16052
16005
15957
15908
15862
15818
15780
15753
15736
15727
15725
15728
15737
15749
15765
15785
15809
15834
15860
15887
15912
15936
15959
15981
16000
16015
16025
16028
16023
16005
15975
15938
15892
15837
15780
15722
15659
15588
15512
15431
15344
15252
15161
15071
14978
14883
14786
14687
14584
14480
14379
14283
14192
14100
14007
13914
13823
13734
13650
13570
13491
13415
13343
13272
13202
13135
13078
13027
12978
12929
12882
12838
12792
12746
12705
12668
12633
12597
12558
12516
12471
12431
12398
12366
12332
12299
12263
12223
12186
12154
12123
12089
12050
12011
11974
11934
11893
11853
11811
11764
11712
11661
11612
11561
11507
11450
11390
11328
11270
11216
11160
11100
11035
10967
10895
10822
10752
10688
10629
10582
10562
10581
10644
10759
10934
11172
11471
11828
12238
12692
13175
13673
14181
14691
15188
15661
16108
16523
16901
17237
17533
17791
18016
18205
18359
18479
18564
18619
18651
18659
18640
18598
18535
18455
18363
18268
18175
18078
17976
17876
17782
17695
17619
17547
17479
17416
17360
17313
17273
17232
17191
17152
17114
17074
17035
16997
16959
16921
16882
16846
16815
16789
16766
16749
16735
16723
16718
16724
16738
16755
16773
16791
16810
16826
16840
16853
16864
16870
16877
16885
16888
16886
16878
16863
16841
16810
16773
16729
16673
16606
16531
16452
16367
16279
16187
16094
15998
15898
15799
15702
15605
15505
15404
15303
15201
15099
14999
14901
14803
14710
14622
14538
14459
14384
14314
14245
14174
14108
14046
13986
13926
13867
13809
13755
13702
13647
13595
13548
13507
13475
13449
13420
13387
13357
13329
13300
13270
13239
13207
13175
13143
13109
13072
13033
12992
12951
12909
12866
12825
12785
12743
12697
12649
12600
12553
12504
12448
12389
12326
12260
12195
12132
12069
12005
11943
11882
11820
11755
11688
11621
11551
11477
11402
11328
11254
11179
11111
11055
11017
11007
11038
11117
11249
11441
11698
12019
12395
12816
13275
13761
14261
14766
15268
15753
16209
16631
17016
17362
17666
17931
18157
18341
18486
18596
18672
18713
18724
18713
18688
18650
18596
18523
18435
18335
18228
18120
18013
17902
17786
17673
17568
17471
17381
17298
17222
17154
17094
17042
16994
16947
16900
16851
16798
16744
16688
16634
16584
16540
16504
16472
16445
16429
16424
16430
16444
16460
16482
16512
16545
16579
16612
16648
16685
16721
16753
16782
16802
16817
16829
16841
16848
16845
16833
16810
16777
16733
16682
16623
16555
16475
16388
16298
16206
16111
16013
15911
15807
15701
15598
15495
15387
15272
15160
15053
14949
14849
14755
14663
14574
14492
14418
14346
14272
14199
14127
14059
13994
13934
13877
13818
13757
13700
13654
13614
13578
13548
13520
13492
13461
13431
13401
13367
13329
13295
13264
13233
13201
13171
13140
13108
13077
13046
13008
12962
12914
12870
12828
12782
12731
12678
12622
12563
12508
12457
12404
12344
12280
12217
12154
12099
12058
12037
12045
12093
12194
12352
12567
12834
13154
13523
13928
14361
14815
15278
15737
16183
16612
17013
17376
17700
17990
18245
18463
18646
18796
18914
18999
19055
19082
19082
19058
19016
18959
18887
18798
18694
18582
18468
18348
18225
18103
17985
17868
17758
17658
17566
17480
17401
17326
17250
17177
17108
17038
16963
16885
16810
16737
16667
16602
16546
16499
16460
16434
16424
16426
16433
16444
16465
16495
16526
16558
16592
16626
16658
16691
16724
16753
16778
16799
16815
16821
16819
16810
16793
16765
16728
16688
16646
16592
16524
16449
16368
16281
16191
16098
16003
15905
15802
15699
15596
15493
15390
15289
15186
15077
14972
14875
14782
14687
14585
14481
14380
14282
14190
14101
14011
13922
13839
13766
13699
13638
13580
13524
13469
13414
13360
13310
13259
13206
13157
13115
13078
13045
13015
12987
12959
12926
12887
12846
12803
12757
12710
12665
12623
12585
12550
12516
12479
12442
12407
12371
12330
12284
12233
12180
12128
12079
12032
11980
11921
11858
11795
11730
11663
11598
11532
11464
11393
11324
11257
11187
11114
11045
10985
10939
10914
10919
10963
11054
11206
11429
11722
12076
12483
12935
13420
13925
14443
14963
15471
15956
16415
16847
17248
17610
17928
18205
18443
18646
18818
18961
19071
19147
19193
19215
19212
19187
19142
19080
19002
18910
18812
18713
18612
18514
18421
18330
18239
18152
18077
18018
17968
17924
17884
17843
17802
17760
17716
17667
17613
17557
17507
17462
17420
17381
17347
17316
17288
17266
17252
17243
17234
17233
17242
17260
17280
17301
17322
17342
17362
17386
17410
17426
17434
17438
17437
17426
17409
17388
17360
17326
17290
17253
17209
17156
17097
17035
16964
16882
16794
16708
16621
16530
16437
16344
16248
16149
16054
15962
15870
15774
15676
15577
15478
15379
15281
15184
15089
14998
14916
14840
14765
14688
14616
14549
14484
14415
14346
14279
14213
14152
14098
14050
14008
13970
13937
13906
13873
13837
13805
13771
13734
13694
13655
13616
13572
13522
13473
13428
13385
13344
13304
13261
13214
13169
13126
13083
13038
12993
12950
12908
12864
12813
12756
12696
12630
12562
12496
12429
12358
12289
12220
12152
12087
12025
11963
11898
11830
11763
11696
11626
11553
11479
11405
11333
11267
11217
11190
11190
11229
11324
11482
11702
11985
12329
12730
13183
13676
14192
14711
15222
15725
16210
16667
17095
17492
17855
18182
18471
18723
18941
19117
19250
19350
19424
19468
19485
19480
19454
19408
19347
19277
19195
19102
19002
18900
18800
18705
18616
18535
18457
18386
18324
18268
18217
18172
18130
18088
18044
17999
17954
17911
17866
17821
17778
17739
17702
17666
17635
17614
17596
17579
17570
17567
17565
17567
17577
17593
17608
17625
17651
17684
17717
17743
17763
17779
17790
17794
17794
17784
17764
17739
17708
17668
17616
17556
17490
17419
17345
17271
17192
17100
17000
16904
16812
16720
16626
16530
16432
16333
16234
16134
16034
15932
15829
15732
15641
15555
15473
15396
15319
15245
15172
15104
15038
14972
14905
14838
14773
14710
14649
14594
14543
14491
14443
14402
14365
14329
14297
14267
14233
14196
14162
14131
14101
14073
14044
14014
13982
13946
13907
13868
13829
13789
13747
13703
13654
13600
13545
13489
13433
13379
13327
13274
13216
13152
13087
13022
12954
12885
12818
12746
12667
12590
12521
12457
12398
12356
12343
12366
12431
12545
12718
12949
13236
13575
13961
14380
14818
15265
15717
16167
16606
17020
17404
17753
18067
18348
18596
18808
18984
19127
19241
19327
19382
19409
19411
19391
19354
19300
19231
19144
19044
18936
18820
18700
18579
18459
18342
18228
18122
18025
17935
17851
17774
17704
17636
17567
17493
17413
17332
17248
17166
17091
17024
16964
16921
16892
16871
16858
16853
16856
16868
16888
16915
16950
16990
17029
17069
17111
17151
17189
17222
17249
17268
17282
17295
17304
17304
17293
17273
17245
17211
17175
17132
17076
17001
16919
16835
16751
16662
16568
16473
16378
16283
16186
16087
15981
15868
15753
15642
15533
15428
15327
15234
15147
15057
14965
14873
14781
14694
14614
14540
14471
14405
14345
14287
14226
14165
14109
14057
14007
13962
13924
13890
13857
13821
13786
13753
13720
13692
13671
13650
13628
13603
13579
13554
13528
13499
13467
13429
13384
13339
13296
13251
13205
13158
13108
13049
12984
12919
12858
12797
12730
12662
12594
12529
12472
12434
12425
12450
12518
12639
12820
13059
13353
13693
14069
14470
14890
15325
15765
16199
16622
17028
17415
17776
18109
18413
18682
18913
19107
19266
19390
19481
19540
19570
19575
19559
19530
19490
19434
19364
19285
19193
19091
18984
18874
18764
18652
18543
18445
18359
18280
18211
18149
18087
18023
17962
17903
17843
17780
17713
17648
17588
17532
17479
17434
17398
17369
17351
17343
17343
17349
17359
17373
17391
17414
17445
17480
17512
17540
17565
17592
17618
17638
17651
17655
17648
17633
17615
17594
17564
17524
17476
17420
17354
17280
17204
17123
17034
16943
16855
16763
16664
16562
16460
16361
16263
16166
16070
15974
15878
15785
15693
15598
15500
15404
15310
15218
15128
15044
14967
14894
14822
14752
14686
14624
14566
14513
14465
14419
14374
14330
14288
14247
14208
14171
14134
14094
14053
14017
13985
13953
13922
13891
13857
13821
13786
13753
13720
13681
13636
13590
13545
13498
13453
13410
13366
13317
13266
13211
13155
13100
13049
12999
12943
12880
12814
12745
12676
12610
12548
12486
12418
12343
12268
12191
12112
12042
11994
11970
11974
12014
12103
12247
12450
12715
13041
13418
13835
14287
14765
15257
15752
16238
16709
17159
17588
17991
18363
18694
18980
19228
19438
19611
19752
19862
19945
19998
20027
20035
20023
19990
19944
19885
19816
19738
19655
19572
19491
19415
19343
19277
19215
19160
19115
19080
19048
19015
18982
18947
18911
18871
18832
18796
18758
18713
18668
18623
18577
18530
18485
18447
18414
18387
18372
18367
18364
18362
18363
18366
18370
18375
18381
18383
18379
18374
18373
18373
18373
18371
18367
18356
18333
18302
18267
18226
18175
18115
18054
17990
17921
17846
17768
17684
17593
17499
17408
17317
17222
17124
17025
16924
16823
16722
16623
16521
16415
16313
16215
16120
16029
15945
15866
15788
15715
15647
15582
15517
15451
15388
15328
15273
15220
15171
15123
15068
15008
14952
14905
14860
14819
14781
14741
14695
14647
14600
14553
14502
14446
14387
14327
14267
14212
14162
14112
14055
13988
13915
13843
13774
13708
13649
13594
13540
13487
13436
13386
13333
13280
13224
13165
13103
13038
12970
12899
12831
12768
12709
12649
12588
12528
12464
12394
12322
12253
12184
12114
12044
11977
11908
11838
11772
11720
11687
11677
11703
11777
11907
12097
12351
12667
13037
13447
13889
14357
14839
15326
15810
16285
16737
17159
17552
17914
18240
18527
18772
18973
19131
19250
19341
19409
19453
19472
19469
19443
19396
19336
19271
19201
19123
19044
18965
18885
18807
18732
18662
18598
18540
18491
18454
18424
18399
18375
18350
18323
18293
18261
18229
18193
18153
18108
18060
18011
17964
17920
17877
17837
17805
17782
17770
17766
17769
17775
17779
17781
17783
17788
17794
17796
17794
17794
17796
17798
17798
17794
17782
17761
17735
17706
17671
17627
17573
17508
17434
17357
17278
17197
17113
17023
16929
16833
16734
16635
16534
16433
16329
16227
16130
16036
15940
15845
15752
15661
15573
15485
15397
15311
15223
15141
15068
15001
14935
14869
14803
14739
14677
14623
14575
14526
14474
14423
14375
14328
14282
14234
14184
14133
14080
14026
13974
13922
13869
13820
13775
13732
13690
13646
13599
13547
13496
13446
13399
13350
13297
13240
13182
13121
13058
12998
12938
12876
12813
12751
12692
12632
12569
12504
12436
12363
12284
12204
12122
12040
11963
11894
11827
11759
11689
11623
11566
11528
11520
11549
11625
11751
11929
12158
12435
12760
13133
13546
13987
14439
14892
15332
15752
16150
16523
16866
17172
17440
17668
17854
17997
18106
18189
18240
18259
18252
18225
18179
18115
18036
17947
17850
17747
17642
17539
17434
17327
17224
17126
17032
16941
16858
16783
16711
16643
16581
16522
16462
16399
16334
16265
16193
16124
16063
16007
15954
15909
15876
15856
15846
15843
15847
15855
15865
15882
15908
15936
15960
15978
15993
16008
16024
16043
16064
16082
16097
16108
16114
16113
16103
16089
16067
16032
15983
15926
15862
15790
15709
15625
15538
15446
15350
15250
15148
15048
14947
14843
14735
14626
14520
14419
14324
14230
14136
14044
13955
13871
13791
13713
13633
13551
13472
13401
13336
13275
13218
13165
13114
13060
13006
12954
12902
12853
12808
12767
12728
12686
12645
12607
12570
12529
12488
12448
12408
12370
12336
12302
12267
12227
12187
12145
12103
12066
12030
11989
11945
11899
11854
11808
11757
11701
11643
11584
11525
11467
11408
11345
11277
11205
11132
11060
10989
10925
10877
10845
10831
10844
10893
10984
11127
11325
11577
11878
12227
12622
13053
13501
13956
14413
14862
15294
15702
16084
16432
16741
17014
17257
17463
17627
17751
17844
17904
17933
17937
17923
17890
17835
17765
17684
17592
17492
17389
17285
17182
17082
16986
16896
16812
16738
16675
16615
16555
16500
16452
16407
16360
16309
16254
16197
16141
16090
16044
16000
15956
15912
15871
15837
15807
15785
15773
15766
15764
15771
15787
15808
15827
15846
15868
15888
15901
15914
15927
15939
15947
15947
15938
15918
15890
15859
15824
15779
15726
15674
15621
15565
15506
15441
15368
15283
15191
15095
14995
14891
14786
14684
14580
14471
14363
14259
14161
14069
13983
13899
13814
13726
13643
13566
13492
13418
13342
13267
13191
13114
13040
12971
12902
12834
12772
12716
12659
12604
12556
12513
12474
12438
12403
12369
12330
12289
12245
12199
12147
12098
12059
12025
11990
11955
11919
11878
11833
11791
11755
11722
11684
11637
11585
11529
11467
11404
11344
11286
11228
11168
11107
11047
10986
10925
10864
10802
10738
10674
10610
10543
10471
10399
10328
10258
10188
10124
10070
10034
10023
10053
10135
10272
10473
10737
11060
11431
11843
12293
12773
13274
13782
14286
14773
15234
15665
16064
16426
16744
17019
17253
17444
17594
17710
17793
17846
17875
17882
17870
17838
17790
17732
17660
17576
17481
17384
17291
17202
17117
17038
16963
16891
16824
16765
16711
16660
16613
16576
16546
16518
16492
16464
16427
16382
16334
16285
16240
16197
16159
16126
16091
16051
16011
15977
15955
15943
15940
15945
15956
15970
15987
16007
16025
16037
16043
16047
16050
16053
16056
16052
16035
16010
15976
15933
15885
15833
15779
15719
15655
15586
15511
15424
15329
15234
15140
15047
14953
14857
14761
14662
14561
14462
14365
14272
14184
14096
14006
13912
13817
13726
13639
13554
13472
13395
13320
13247
13176
13109
13046
12982
12915
12849
12784
12724
12670
12623
12579
12537
12496
12455
12410
12361
12312
12267
12226
12187
12151
12117
12079
12037
11995
11957
11921
11883
11841
11798
11754
11706
11660
11614
11564
11511
11456
11399
11338
11272
11210
11151
11088
11022
10961
10900
10835
10768
10702
10637
10572
10506
10441
10375
10304
10237
10187
10163
10176
10236
10355
10532
10761
11042
11375
11755
12173
12621
13089
13567
14045
14509
14951
15364
15745
16100
16422
16704
16943
17141
17298
17413
17489
17532
17550
17540
17503
17445
17370
17282
17184
17084
16984
16882
16778
16679
16585
16494
16406
16323
16245
16170
16101
16039
15984
15933
15882
15828
15769
15706
15643
15585
15534
15485
15440
15400
15366
15336
15312
15294
15286
15288
15301
15327
15363
15401
15439
15478
15513
15545
15576
15608
15638
15666
15696
15720
15735
15740
15737
15724
15702
15677
15648
15611
15565
15511
15452
15383
15300
15209
15115
15016
14913
14809
14711
14616
14520
14422
14322
14223
14124
14030
13945
13861
13777
13694
13611
13527
13442
13361
13286
13214
13146
13083
13024
12967
12912
12860
12811
12764
12719
12680
12646
12614
12586
12559
12527
12490
12453
12418
12387
12359
12334
12308
12282
12251
12214
12171
12124
12076
12032
11988
11941
11892
11842
11790
11736
11679
11623
11567
11507
11447
11387
11327
11269
11219
11184
11171
11184
11231
11321
11457
11643
11887
12188
12539
12927
13344
13785
14238
14692
15143
15584
16008
16403
16764
17087
17368
17607
17808
17972
18100
18193
18254
18287
18293
18274
18232
18171
18094
18001
17902
17802
17697
17589
17481
17376
17275
17178
17088
17005
16928
16857
16791
16729
16666
16599
16525
16450
16378
16311
16247
16184
16126
16075
16030
15993
15963
15946
15941
15944
15954
15971
15994
16017
16038
16061
16087
16112
16139
16171
16204
16235
16260
16279
16292
16298
16301
16300
16291
16269
16236
16195
16147
16093
16033
15972
15908
15839
15762
15679
15589
15493
15396
15300
15204
15105
15005
14907
14809
14712
14618
14530
14446
14360
14273
14187
14098
14010
13926
13846
13764
13685
13613
13546
13480
13420
13365
13314
13266
13218
13170
13120
13067
13016
12971
12930
12886
12843
12805
12767
12725
12683
12645
12610
12573
12541
12516
12492
12462
12424
12383
12342
12299
12256
12216
12173
12123
12068
12012
11956
11901
11845
11787
11725
11663
11603
11544
11484
11422
11360
11294
11224
11152
11086
11027
10975
10937
10925
10944
11002
11111
11282
11515
11807
12158
12565
13012
13490
13989
14503
15024
15540
16042
16522
16970
17378
17749
18082
18376
18627
18837
19011
19149
19253
19326
19367
19376
19358
19319
19264
19195
19117
19033
18944
18850
18752
18656
18563
18472
18389
18317
18253
18196
18145
18103
18070
18038
18006
17972
17936
17898
17854
17807
17759
17713
17674
17645
