17959
17925
17908
17904
17875
17826
17795
17776
17734
17677
17639
17607
17554
17493
17456
17432
17398
17366
17362
17362
17339
17316
17320
17329
17321
17318
17335
17344
17329
17322
17341
17355
17347
17346
17359
17356
17329
17308
17301
17281
17242
17216
17205
17177
17126
17085
17057
17014
16964
16936
16925
16897
16862
16850
16848
16827
16801
16795
16794
16776
16757
16755
16752
16726
16700
16696
16689
16656
16625
16617
16605
16572
16549
16551
16551
16541
16544
16560
16560
16540
16532
16537
16522
16491
16482
16494
16492
16479
16484
16497
16484
16455
16444
16444
16423
16397
16394
16398
16380
16358
16361
16378
16384
16400
16452
16521
16594
16692
16829
16981
17138
17325
17550
17777
17980
18181
18384
18552
18674
18777
18871
18927
18944
18957
18968
18947
18893
18846
18808
18747
18672
18617
18577
18520
18456
18416
18387
18339
18286
18254
18225
18171
18114
18081
18049
17995
17941
17906
17867
17807
17750
17715
17676
17619
17576
17558
17540
17514
17508
17528
17541
17536
17543
17564
17569
17558
17564
17587
17594
17580
17572
17568
17542
17505
17487
17478
17447
17409
17399
17401
17380
17347
17333
17319
17281
17239
17218
17198
17157
17117
17099
17080
17039
17000
16979
16953
16909
16875
16866
16849
16820
16812
16823
16821
16807
16810
16828
16827
16807
16798
16798
16780
16748
16730
16723
16700
16665
16650
16645
16626
16605
16608
16618
16610
16600
16609
16615
16597
16578
16577
16568
16533
16499
16489
16478
16447
16425
16430
16425
16397
16376
16373
16365
16349
16362
16412
16470
16535
16642
16791
16950
17128
17351
17606
17851
18080
18313
18538
18719
18863
18993
19097
19151
19174
19193
19193
19159
19115
19085
19045
18978
18913
18868
18820
18752
18694
18658
18615
18552
18499
18468
18433
18386
18354
18341
18315
18267
18229
18205
18165
18109
18065
18030
17974
17908
17864
17833
17787
17739
17726
17729
17714
17689
17679
17680
17669
17662
17681
17705
17708
17710
17733
17749
17737
17725
17731
17726
17693
17662
17649
17626
17586
17557
17548
17529
17490
17458
17441
17410
17360
17328
17313
17281
17230
17192
17167
17124
17075
17052
17044
17017
16980
16959
16942
16906
16868
16855
16849
16825
16803
16802
16800
16778
16760
16761
16758
16736
16719
16718
16704
16669
16648
16655
16658
16643
16633
16637
16627
16603
16595
16601
16586
16559
16553
16560
16543
16508
16489
16485
16467
16444
16445
16453
16437
16414
16415
16427
16424
16428
16470
16533
16600
16696
16845
17019
17200
17415
17678
17946
18191
18429
18664
18864
19015
19143
19256
19324
19345
19356
19364
19341
19289
19246
19210
19146
19061
18991
18936
18869
18799
18755
18731
18697
18662
18647
18637
18608
18575
18562
18545
18501
18448
18405
18354
18279
18202
18145
18086
18015
17956
17923
17884
17826
17784
17771
17755
17724
17709
17715
17710
17695
17700
17723
17731
17724
17737
17763
17765
17748
17744
17743
17713
17671
17651
17642
17614
17579
17562
17545
17501
17451
17419
17383
17324
17269
17238
17209
17163
17124
17108
17085
17044
17013
17006
16996
16974
16964
16969
16958
16923
16895
16885
16864
16828
16812
16813
16799
16772
16765
16768
16749
16719
16711
16713
16694
16665
16655
16654
16632
16602
16590
16581
16554
16525
16515
16506
16482
16465
16470
16472
16457
16448
16453
16444
16416
16399
16401
16392
16364
16347
16350
16345
16330
16336
16367
16395
16426
16501
16617
16741
16877
17060
17280
17504
17732
17983
18235
18456
18654
18846
19010
19116
19183
19240
19270
19257
19228
19203
19157
19073
18988
18926
18860
18773
18698
18652
18606
18545
18500
18479
18449
18407
18384
18379
18354
18310
18279
18254
18202
18132
18080
18042
17986
17917
17866
17827
17770
17710
17675
17651
17613
17578
17573
17572
17554
17542
17555
17573
17571
17573
17601
17624
17619
17614
17626
17625
17599
17575
17566
17545
17502
17469
17454
17427
17383
17352
17334
17294
17239
17206
17187
17147
17096
17066
17048
17014
16974
16957
16950
16919
16880
16866
16859
16832
16800
16790
16786
16764
16744
16744
16737
16706
16681
16681
16677
16655
16640
16647
16646
16624
16606
16599
16575
16531
16501
16489
16468
16436
16424
16432
16423
16399
16393
16402
16395
16380
16386
16398
16386
16360
16355
16353
16324
16288
16278
16274
16254
16239
16255
16277
16284
16304
16360
16435
16516
16628
16782
16949
17118
17314
17543
17771
17980
18189
18393
18554
18670
18773
18865
18910
18915
18913
18900
18846
18768
18704
18643
18560
18468
18398
18343
18278
18216
18179
18148
18101
18062
18049
18032
17985
17939
17914
17882
17819
17754
17708
17658
17591
17535
17505
17471
17418
17378
17363
17344
17313
17300
17307
17299
17276
17272
17285
17281
17266
17272
17293
17294
17279
17277
17285
17275
17258
17261
17263
17233
17193
17173
17157
17115
17066
17041
17018
16972
16932
16916
16898
16863
16837
16832
16817
16778
16746
16730
16702
16660
16637
16636
16624
16598
16586
16587
16566
16534
16523
16528
16517
16494
16487
16483
16456
16419
16405
16402
16383
16359
16356
16357
16337
16312
16310
16310
16289
16273
16281
16282
16260
16246
16256
16259
16241
16232
16241
16239
16213
16194
16190
16175
16147
16139
16148
16142
16118
16110
16121
16125
16128
16162
16228
16303
16398
16538
16710
16887
17082
17316
17566
17795
18007
18217
18401
18534
18632
18715
18758
18753
18732
18714
18673
18598
18520
18455
18379
18281
18196
18142
18089
18026
17981
17957
17922
17872
17839
17829
17808
17772
17749
17736
17699
17642
17600
17567
17514
17456
17421
17393
17346
17297
17274
17259
17227
17197
17193
17189
17166
17150
17158
17161
17141
17128
17140
17149
17140
17142
17162
17166
17146
17135
17144
17138
17109
17091
17087
17063
17025
17008
17005
16980
16938
16913
16899
16863
16816
16790
16770
16727
16676
16647
16624
16580
16533
16508
16489
16453
16420
16410
16402
16379
16367
16380
16387
16367
16351
16354
16348
16326
16314
16324
16326
16307
16294
16291
16270
16232
16210
16206
16189
16160
16149
16151
16136
16111
16108
16118
16112
16099
16101
16106
16088
16062
16056
16054
16034
16015
16015
16012
15985
15956
15949
15942
15918
15903
15914
15924
15921
15942
16008
16096
16195
16329
16508
16703
16906
17141
17396
17629
17833
18035
18230
18380
18485
18574
18638
18652
18636
18622
18598
18539
18461
18395
18330
18244
18160
18107
18063
18004
17956
17942
17930
17893
17861
17856
17851
17824
17799
17784
17749
17687
17631
17592
17540
17469
17413
17375
17324
17260
17218
17193
17150
17096
17070
17068
17052
17029
17031
17051
17055
17054
17074
17096
17095
17085
17090
17097
17090
17081
17087
17083
17052
17020
17006
16988
16945
16901
16877
16846
16792
16751
16735
16713
16676
16654
16650
16630
16588
16561
16550
16520
16467
16425
16400
16366
16321
16295
16288
16270
16250
16256
16272
16267
16252
16261
16277
16272
16266
16282
16291
16268
16244
16243
16239
16216
16199
16204
16200
16168
16140
16136
16127
16103
16094
16108
16106
16082
16069
16073
16065
16047
16051
16071
16067
16044
16038
16044
16032
16007
15998
15996
15976
15949
15945
15951
15939
15930
15954
15995
16033
16093
16197
16321
16448
16607
16812
17028
17228
17436
17656
17850
18000
18133
18258
18348
18392
18421
18442
18426
18372
18314
18254
18167
18066
17990
17931
17855
17774
17721
17688
17644
17595
17570
17563
17545
17524
17524
17523
17491
17448
17418
17383
17327
17274
17247
17213
17153
17101
17074
17041
16983
16936
16916
16894
16857
16835
16840
16840
16828
16833
16855
16864
16859
16872
16901
16909
16903
16916
16938
16931
16904
16888
16874
16833
16778
16741
16716
16675
16631
16613
16601
16572
16544
16532
16515
16482
16454
16447
16434
16397
16364
16347
16320
16273
16237
16228
16214
16189
16186
16207
16212
16197
16193
16200
16184
16153
16142
16145
16128
16099
16092
16098
16086
16063
16059
16059
16037
16008
15999
15994
15972
15953
15957
15963
15954
15949
15964
15972
15959
15944
15943
15932
15904
15884
15885
15879
15857
15850
15862
15858
15838
15833
15844
15840
15824
15835
15870
15896
15920
15982
16080
16180
16289
16437
16609
16772
16937
17124
17309
17459
17585
17709
17809
17863
17893
17921
17928
17899
17859
17825
17779
17706
17633
17579
17516
17437
17378
17341
17292
17228
17184
17164
17137
17101
17085
17082
17058
17015
16990
16975
16939
16886
16847
16813
16761
16704
16673
16653
16617
16581
16566
16559
16536
16519
16530
16546
16538
16533
16550
16561
16547
16539
16555
16567
16557
16555
16569
16565
16533
16505
16497
16482
16456
16446
16448
16426
16387
16368
16366
16347
16311
16291
16284
16260
16228
16216
16206
16170
16129
16113
16107
16086
16064
16064
16065
16043
16018
16010
16004
15984
15972
15982
15985
15962
15941
15940
15930
15903
15892
15907
15910
15892
15886
15895
15885
15857
15847
15852
15838
15813
15809
15813
15795
15766
15755
15754
15736
15713
15716
15727
15715
15699
15706
15716
15703
15689
15693
15696
15686
15688
15720
15755
15778
15821
15904
15998
16088
16207
16363
16519
16661
16817
16991
17142
17261
17380
17490
17554
17579
17599
17611
17586
17537
17502
17474
17418
17345
17285
17226
17146
17063
17004
16961
16913
16877
16871
16868
16846
16823
16811
16786
16738
16691
16660
16620
16558
16506
16480
16449
16406
16383
16378
16363
16336
16329
16344
16345
16325
16315
16318
16307
16290
16297
16320
16325
16319
16330
16348
16344
16332
16338
16346
16332
16311
16304
16291
16251
16214
16202
16193
16172
16156
16154
16145
16114
16084
16067
16042
16004
15978
15969
15946
15907
15883
15879
15866
15842
15842
15859
15857
15840
15836
15844
15832
15805
15795
15795
15774
15746
15740
15743
15727
15705
15704
15708
15692
15680
15690
15701
15691
15680
15688
15690
15666
15643
15638
15628
15601
15584
15583
15572
15544
15529
15536
15531
15507
15494
15498
15487
15459
15444
15442
15419
15390
15395
15420
15436
15460
15526
15619
15711
15818
15965
16135
16300
16477
16684
16885
17046
17186
17326
17442
17514
17566
17614
17629
17597
17551
17510
17451
17373
17307
17263
17208
17136
17075
17028
16969
16906
16872
16863
16842
16811
16802
16805
16789
16757
16738
16727
16692
16647
16620
16597
16549
16495
16461
16428
16376
16331
16316
16311
16291
16273
16275
16271
16246
16230
16243
16258
16259
16270
16297
16307
16295
16293
16307
16303
16280
16271
16275
16263
16234
16217
16210
16184
16147
16127
16117
16090
16054
16033
16013
15967
15917
15890
15874
15842
15813
15807
15803
15779
15754
15749
15742
15719
15705
15715
15718
15700
15691
15702
15702
15680
15669
15674
15669
15648
15642
15649
15636
15607
15594
15601
15595
15574
15567
15573
15560
15541
15546
15563
15560
15548
15554
15562
15543
15514
15502
15489
15451
15411
15399
15394
15377
15365
15369
15367
15347
15340
15358
15375
15380
15409
15479
15561
15637
15726
15840
15962
16094
16265
16468
16659
16835
17019
17201
17342
17445
17542
17622
17648
17640
17634
17621
17581
17525
17477
17427
17360
17296
17254
17208
17143
17084
17051
17022
16982
16954
16950
16946
16927
16918
16924
16916
16880
16844
16814
16762
16691
16636
16601
16554
16498
16464
16452
16429
16390
16367
16360
16340
16318
16325
16346
16354
16359
16385
16412
16412
16403
16410
16415
16398
16381
16383
16377
16340
16302
16285
16262
16213
16171
16159
16145
16114
16098
16098
16079
16038
16009
15994
15965
15925
15903
15902
15893
15875
15875
15883
15863
15831
15823
15826
15809
15782
15770
15764
15742
15721
15722
15727
15710
15693
15693
15691
15667
15643
15639
15635
15617
15611
15626
15629
15610
15597
15602
15599
15581
15577
15590
15594
15582
15580
15593
15588
15569
15567
15573
15553
15515
15493
15488
15470
15450
15456
15474
15474
15475
15503
15546
15583
15638
15738
15860
15978
16109
16270
16434
16582
16735
16900
17045
17153
17249
17343
17403
17420
17426
17434
17415
17370
17332
17306
17256
17185
17130
17087
17029
16965
16927
16906
16873
16833
16815
16801
16764
16723
16705
16697
16673
16648
16646
16645
16615
16580
16562
16541
16502
16465
16442
16409
16355
16312
16298
16283
16255
16240
16247
16250
16245
16256
16279
16283
16269
16269
16282
16281
16264
16262
16273
16265
16240
16228
16220
16192
16157
16141
16131
16106
16080
16075
16072
16052
16034
16036
16032
16005
15981
15975
15959
15920
15886
15870
15847
15810
15787
15788
15782
15754
15735
15732
15717
15683
15665
15668
15659
15637
15633
15639
15626
15597
15587
15591
15583
15577
15597
15622
15619
15601
15602
15607
15594
15580
15588
15599
15591
15582
15586
15577
15542
15516
15511
15499
15468
15449
15452
15448
15430
15427
15443
15447
15433
15438
15469
15495
15520
15583
15677
15766
15859
15989
16144
16290
16433
16602
16776
16917
17034
17150
17248
17301
17325
17347
17353
17322
17278
17246
17204
17137
17073
17030
16986
16931
16888
16863
16830
16779
16740
16723
16699
16657
16627
16617
16593
16550
16519
16499
16456
16396
16356
16335
16298
16250
16228
16222
16198
16169
16169
16182
16177
16166
16175
16183
16168
16151
16157
16166
16157
16152
16166
16172
16157
16146
16152
16145
16116
16094
16093
16080
16046
16025
16020
15996
15952
15924
15908
15875
15827
15799
15787
15759
15717
15693
15681
15651
15611
15591
15583
15565
15552
15568
15584
15567
15545
15546
15546
15523
15504
15510
15516
15503
15494
15503
15504
15481
15464
15462
15449
15422
15411
15423
15423
15402
15387
15382
15362
15332
15325
15335
15326
15306
15307
15318
15311
15296
15303
15321
15315
15297
15300
15311
15298
15282
15290
15311
15327
15363
15445
15544
15635
15743
15887
16042
16193
16364
16561
16746
16901
17050
17201
17318
17391
17446
17489
17489
17449
17410
17377
17321
17246
17192
17153
17097
17030
16987
16961
16925
16886
16872
16867
16842
16813
16804
16797
16766
16733
16718
16692
16632
16568
16525
16480
16417
16365
16337
16306
16258
16226
16221
16213
16190
16182
16195
16197
16188
16200
16233
16251
16252
16269
16297
16301
16284
16280
16285
16268
16238
16224
16218
16191
16156
16141
16124
16081
16036
16015
15996
15951
15908
15892
15876
15842
15814
15810
15802
15777
15760
15760
15747
15717
15697
15696
15686
15663
15656
15665
15654
15624
15609
15610
15595
15567
15555
15555
15543
15524
15524
15528
15508
15474
15457
15454
15443
15433
15444
15451
15431
15408
15404
15397
15363
15331
15324
15316
15289
15272
15280
15281
15260
15245
15243
15228
15195
15178
15184
15181
15169
15178
15207
15224
15234
15274
15343
15414
15499
15631
15794
15952
16120
16325
16550
16754
16943
17138
17314
17445
17547
17642
17709
17722
17708
17699
17677
17624
17569
17531
17482
17413
17355
17321
17279
17223
17186
17177
17165
17140
17137
17151
17147
17123
17109
17107
17085
17047
17022
16999
16949
16887
16845
16813
16760
16704
16672
16646
16599
16554
16538
16525
16491
16467
16469
16470
16456
16452
16473
16490
16479
16469
16475
16472
16455
16451
16467
16467
16445
16428
16418
16382
16325
16285
16265
16229
16179
16146
16124
16083
16032
15999
15977
15938
15894
15873
15861
15831
15795
15780
15773
15749
15724
15717
15711
15686
15668
15672
15669
15644
15628
15632
15627
15602
15588
15596
15596
15577
15567
15575
15568
15542
15534
15541
15528
15496
15478
15472
15448
15418
15415
15427
15416
15396
15397
15403
15383
15358
15358
15361
15341
15321
15326
15333
15319
15307
15319
15333
15337
15359
15415
15477
15538
15632
15768
15913
16053
16216
16409
16597
16771
16955
17140
17289
17401
17504
17600
17658
17683
17707
17718
17684
17622
17571
17526
17463
17398
17357
17324
17271
17221
17195
17176
17143
17118
17119
17122
17110
17104
17109
17094
17050
17006
16974
16926
16855
16790
16737
16674
16599
16543
16511
16475
16435
16420
16428
16420
16401
16404
16426
16434
16438
16465
16497
16503
16501
16519
16536
16523
16499
16490
16479
16444
16409
16398
16384
16345
16304
16284
16257
16207
16164
16145
16120
16074
16035
16014
15983
15936
15903
15891
15867
15829
15810
15815
15805
15779
15769
15772
15751
15714
15695
15689
15667
15642
15645
15656
15645
15628
15636
15648
15635
15624
15641
15659
15652
15648
15662
15660
15628
15598
15591
15583
15562
15556
15566
15561
15532
15508
15495
15469
15433
15419
15428
15427
15414
15415
15426
15418
15399
15400
15413
15410
15401
15422
15465
15507
15566
15674
15810
15945
16096
16288
16489
16671
16852
17043
17211
17332
17430
17525
17590
17610
17613
17612
17583
17525
17470
17426
17365
17287
17228
17190
17143
17086
17054
17038
17002
16951
16925
16919
16896
16865
16855
16851
16818
16771
16738
16709
16656
16600
16573
16551
16506
16462
16443
16427
16388
16356
16353
16351
16330
16318
16327
16331
16317
16314
16335
16348
16340
16339
16352
16348
16326
16320
16326
16315
16288
16275
16275
16251
16210
16188
16175
16139
16094
16070
16051
16014
15971
15945
15919
15871
15826
15811
15801
15777
15759
15759
15751
15722
15704
15717
15727
15713
15702
15708
15701
15670
15650
15646
15624
15580
15551
15542
15525
15498
15493
15505
15504
15491
15500
15523
15525
15511
15515
15532
15530
15525
15544
15563
15552
15530
15524
15516
15487
15464
15468
15468
15442
15416
15411
15401
15371
15353
15362
15372
15375
15404
15471
15548
15633
15757
15923
16093
16259
16450
16658
16842
16997
17150
17296
17401
17471
17535
17583
17587
17564
17547
17525
17471
17407
17356
17300
17223
17151
17107
17072
17027
16990
16977
16964
16933
16909
16901
16881
16836
16798
16779
16750
16705
16672
16654
16616
16557
16511
16485
16448
16398
16365
16350
16322
16288
16280
16292
16293
16290
16313
16340
16342
16336
16348
16360
16351
16343
16355
16363
16346
16323
16312
16289
16248
16218
16213
16201
16165
16133
16120
16097
16051
16017
16005
15984
15941
15904
15887
15864
15832
15823
15832
15824
15802
15797
15800
15779
15745
15729
15720
15693
15666
15665
15669
15654
15639
15646
15652
15632
15611
15612
15607
15577
15551
15545
15535
15511
15502
15516
15523
15517
15523
15544
15546
15531
15530
15545
15540
15515
15505
15504
15483
15452
15444
15451
15437
15414
15407
15405
15380
15350
15347
15353
15341
15333
15352
15382
15400
15432
15503
15592
15686
15809
15972
16147
16319
16511
16727
16932
17108
17278
17445
17578
17668
17742
17803
17822
17804
17784
17764
17713
17644
17592
17552
17493
17424
17378
17349
17311
17272
17259
17255
17238
17225
17230
17232
17207
17177
17158
17127
17064
16999
16951
16901
16835
16781
16751
16720
16674
16640
16626
16603
16564
16541
16541
16531
16513
16518
16537
16535
16515
16511
16527
16531
16526
16537
16550
16534
16505
16493
16487
16459
16422
16402
16381
16337
16295
16276
16260
16230
16207
16208
16201
16167
16133
16119
16098
16058
16027
16012
15987
15948
15923
15919
15906
15879
15868
15875
15867
15844
15837
15842
15829
15801
15787
15785
15763
15731
15719
15715
15695
15669
15663
15666
15653
15639
15651
15666
15661
15659
15677
15687
15668
15646
15642
15634
15607
15587
15588
15581
15555
15539
15541
15529
15496
15477
15474
15456
15421
15404
15404
15389
15365
15359
15366
15353
15336
15351
15391
15434
15493
15596
15729
15861
16014
16210
16427
16635
16845
17070
17277
17440
17578
17707
17803
17854
17888
17915
17911
17868
17820
17777
17716
17635
17564
17514
17455
17383
17328
17298
17261
17219
17204
17205
17188
17163
17162
17172
17160
17136
17126
17112
17066
17008
16968
16926
16860
16797
16760
16725
16672
16629
16614
16603
16576
16556
16555
16547
16524
16516
16531
16535
16520
16518
16532
16532
16512
16505
16516
16515
16500
16497
16501
16482
16450
16434
16427
16397
16352
16324
16300
16251
16194
16155
16121
16071
16025
16005
15985
15945
15912
15904
15897
15873
15856
15860
15855
15828
15809
15812
15806
15781
15769
15773
15759
15727
15713
15718
15708
15684
15678
15687
15677
15655
15653
15663
15654
15636
15636
15645
15632
15618
15630
15643
15628
15605
15598
15591
15565
15541
15540
15538
15515
15492
15490
15487
15468
15458
15463
15458
15434
15419
15422
15415
15394
15390
15411
15430
15452
15518
15630
15749
15873
16034
16226
16413
16598
16803
17010
17186
17337
17481
17604
17684
17732
17773
17789
17760
17713
17672
17621
17543
17466
17410
17353
17280
17218
17181
17140
17087
17051
17042
17028
16996
16977
16974
16952
16909
16879
16861
16822
16763
16716
16678
16620
16549
16500
16465
16418
16370
16350
16346
16326
16306
16310
16319
16310
16300
16310
16320
16314
16316
16338
16351
16338
16327
16332
16325
16294
16273
16271
16255
16217
16186
16166
16128
16075
16047
16039
16011
15968
15946
15937
15906
15864
15843
15833
15806
15771
15756
15749
15720
15684
15671
15667
15645
15624
15626
15628
15603
15576
15573
15568
15545
15527
15531
15526
15498
15480
15485
15482
15460
15451
15458
15450
15424
15412
15416
15405
15382
15379
15392
15380
15349
15338
15343
15331
15310
15310
15317
15301
15273
15262
15254
15224
15192
15188
15190
15175
15163
15175
15189
15190
15207
15267
15344
15423
15527
15665
15803
15929
16074
16245
16409
16556
16707
16860
16973
17046
17114
17182
17214
17213
17209
17198
17155
17090
17037
16992
16925
16846
16787
16736
16666
16600
16565
16540
16497
16462
16455
16450
16423
16400
16397
16381
16335
16291
16260
16213
16139
16076
16043
16014
15975
15952
15949
15938
15916
15914
15930
15929
15913
15916
15932
15932
15921
15926
15939
15927
15906
15905
15909
15889
15863
15855
15851
15827
15799
15788
15773
15735
15701
15689
15672
15635
15604
15595
15578
15541
15512
15505
15492
15463
15444
15440
15418
15375
15346
15339
15323
15291
15276
15276
15260
15237
15240
15254
15246
15228
15229
15238
15225
15208
15210
15213
15193
15166
15153
15140
15109
15082
15077
15074
15053
15041
15053
15061
15051
15049
15064
15068
15050
15038
15040
15029
15004
14994
15000
14989
14959
14945
14955
14961
14967
15004
15064
15112
15158
15238
15346
15450
15559
15699
15852
15984
16115
16271
16424
16541
16642
16751
16840
16887
16916
16942
16937
16892
16841
16801
16751
16679
16619
16577
16525
16456
16400
16362
16316
16263
16232
16216
16184
16136
16103
16083
16043
15990
15953
15920
15866
15806
15767
15736
15689
15645
15629
15624
15604
15585
15590
15599
15591
15588
15606
15619
15608
15601
15615
15624
15618
15621
15636
15633
15605
15586
15583
15568
15536
15515
15504
15473
15427
15400
15386
15355
15318
15303
15299
15272
15237
15220
15213
15187
15157
15145
15136
15109
15082
15078
15069
15036
15007
15007
15012
14999
14992
15004
15000
14966
14936
14930
14922
14906
14908
14927
14928
14906
14897
14903
14893
14873
14872
14884
14877
14858
14856
14863
14848
14823
14817
14817
14794
14763
14756
14757
14738
14718
14722
14732
14723
14721
14749
14781
14801
14840
14913
14998
15085
15198
15348
15501
15640
15790
15954
16100
16226
16357
16483
16573
16630
16688
16745
16769
16763
16761
16752
16706
16639
16585
16533
16459
16385
16344
16309
16248
16179
16133
16095
16042
15997
15981
15970
15937
15908
15895
15868
15814
15765
15737
15699
15644
15604
15587
15562
15523
15502
15504
15492
15462
15450
15456
15446
15430
15439
15462
15462
15446
15448
15460
15451
15436
15446
15459
15447
15425
15419
15414
15393
15377
15383
15382
15349
15311
15292
15264
15217
15184
15178
15167
15138
15117
15111
15092
15055
15032
15027
15016
14995
14988
14990
14971
14939
14925
14930
14920
14901
14900
14907
14888
14855
14842
14837
14818
14800
14808
14820
14807
14791
14794
14796
14783
14777
14793
14802
14789
14783
14805
14826
14836
14873
14951
15041
15130
15248
15397
15534
15656
15801
15970
16119
16241
16365
16482
16553
16588
16624
16656
16649
16616
16595
16574
16525
16468
16432
16398
16346
16293
16262
16228
16172
16120
16092
16061
16014
15977
15962
15940
15899
15868
15859
15840
15801
15770
15751
15708
15638
15583
15547
15494
15433
15401
15390
15362
15327
15325
15347
15355
15356
15377
15398
15389
15373
15385
15404
15398
15390
15405
15416
15400
15385
15390
15386
15357
15334
15334
15322
15282
15248
15236
15213
15173
15147
15139
15118
15079
15058
15058
15048
15028
15030
15047
15040
15018
15015
15024
15012
14987
14979
14977
14952
14917
14901
14888
14853
14823
14826
14831
14811
14789
14791
14795
14778
14768
14782
14789
14778
14782
14813
14843
14863
14909
14994
15085
15177
15303
15465
15628
15789
15972
16166
16330
16462
16593
16718
16803
16852
16898
16933
16927
16893
16864
16834
16776
16711
16666
16624
16562
16502
16467
16440
16397
16363
16353
16336
16297
16266
16255
16234
16197
16169
16155
16125
16071
16027
15996
15949
15884
15837
15805
15756
15701
15676
15672
15654
15631
15635
15649
15637
15615
15618
15628
15615
15598
15608
15619
15605
15592
15611
15632
15627
15618
15623
15618
15588
15561
15550
15528
15481
15444
15428
15399
15349
15313
15297
15269
15227
15203
15200
15181
15146
15127
15121
15096
15062
15051
15055
15044
15024
15025
15032
15019
15002
15010
15019
15003
14986
14989
14985
14953
14926
14926
14920
14888
14866
14869
14867
14845
14835
14848
14851
14830
14821
14832
14835
14832
14857
14911
14963
15024
15130
15273
15417
15567
15751
15955
16143
16319
16507
16694
16848
16974
17095
17192
17239
17259
17280
17282
17246
17201
17172
17134
17072
17014
16976
16932
16871
16822
16799
16769
16722
16691
16688
16678
16653
16647
16657
16640
16597
16567
16547
16505
16448
16407
16370
16304
16223
16165
16122
16067
16014
15987
15972
15944
15923
15932
15944
15934
15924
15932
15933
15910
15890
15891
15888
15867
15856
15869
15875
15862
15857
15867
15861
15830
15806
15791
15758
15709
15678
15663
15632
15588
15560
15542
15503
15456
15432
15419
15388
15352
15341
15340
15320
15297
15297
15296
15265
15234
15231
15229
15205
15183
15182
15175
15143
15122
15131
15136
15118
15111
15123
15120
15095
15084
15091
15082
15053
15033
15024
15000
14964
14949
14950
14938
14919
14925
14944
14941
14931
14939
14946
14923
14890
14876
14864
14832
14805
14809
14819
14812
14821
14874
14946
15024
15140
15307
15489
15665
15864
16094
16316
16514
16713
16911
17068
17183
17293
17394
17448
17458
17465
17467
17437
17387
17352
17323
17271
17213
17179
17161
17132
17103
17095
17088
17063
17041
17040
17035
17006
16979
16974
16958
16910
16861
16832
16791
16725
16668
16629
16577
16503
16440
16395
16338
16267
16223
16209
16185
16151
16140
16147
16135
16111
16109
16122
16123
16118
16134
16157
16157
16148
16156
16157
16128
16092
16076
16055
16008
15961
15938
15916
15875
15839
15825
15802
15760
15729
15717
15691
15649
15623
15615
15588
15542
15516
15509
15485
15449
15439
15444
15429
15397
15378
15368
15339
15305
15298
15304
15292
15273
15272
15273
15255
15236
15234
15232
15208
15183
15177
15162
15120
15085
15080
15073
15051
15044
15056
15051
15017
14989
14983
14970
14945
14937
14944
14934
14914
14917
14934
14924
14896
14889
14898
14887
14870
14877
14890
14875
14848
14837
14832
14811
14788
14785
14782
14757
14737
14745
14751
14735
14724
14729
14720
14684
14657
14656
14646
14615
14598
14607
14612
14603
14617
14659
14693
14723
14791
14893
14993
15102
15251
15431
15610
15797
16018
16248
16449
16627
16804
16962
17072
17147
17216
17261
17261
17244
17235
17211
17155
17097
17058
17013
16943
16881
16846
16803
16744
16702
16689
16670
16639
16627
16632
16616
16581
16561
16553
16523
16473
16437
16408
16352
16282
16233
16197
16139
16074
16037
16008
15962
15919
15908
15907
15892
15882
15898
15905
15881
15860
15866
15868
15845
15828
15834
15833
15810
15799
15810
15810
15788
15773
15772
15753
15713
15683
15665
15623
15565
15529
15515
15487
15450
15434
15427
15400
15366
15355
15347
15311
15272
15256
15245
15210
15177
15168
15157
15125
15099
15102
15105
15088
15077
15088
15090
15069
15057
15062
15051
15019
15005
15015
15009
14984
14976
14986
14976
14953
14954
14971
14968
14948
14946
14953
14936
14908
14906
14914
14900
14880
14878
14872
14842
14812
14809
14807
14786
14772
14782
14786
14768
14758
14764
14758
14730
14713
14719
14713
14688
14678
14681
14665
14632
14617
14624
14619
14602
14609
14644
14672
14706
14786
14905
15025
15148
15305
15484
15654
15823
16011
16194
16341
16466
16587
16684
16734
16763
16794
16802
16772
16733
16708
16671
16606
16548
16509
16458
16388
16338
16310
16269
16209
16170
16156
16132
16095
16075
16066
16033
15986
15957
15937
15890
15830
15792
15765
15719
15668
15639
15619
15579
15537
15521
15507
15470
15434
15422
15411
15382
15364
15375
15382
15370
15372
15399
15415
15407
15407
15420
15414
15384
15360
15345
15313
15266
15238
15226
15195
15150
15123
15107
15070
15029
15016
15012
14987
14956
14948
14945
14920
14892
14889
14891
14872
14853
14854
14842
14802
14771
14767
14758
14726
14702
14697
14682
14650
14634
14645
14653
14644
14645
14661
14659
14639
14634
14645
14639
14624
14628
14635
14615
14583
14574
14576
14559
14536
14537
14544
14529
14511
14513
14515
14496
14480
14484
14486
14465
14450
14457
14457
14435
14419
14417
14405
14374
14360
14372
14374
14362
14368
14397
14418
14436
14493
14583
14666
14750
14869
15015
15146
15275
15434
15602
15741
15863
15993
16110
16179
16220
16260
16280
16255
16210
16171
16119
16039
15965
15920
15874
15807
15749
15715
15674
15618
15577
15562
15537
15489
15448
15423
15381
15324
15286
15263
15221
15161
15119
15094
15053
15004
14983
14976
14954
14933
14939
14949
14934
14914
14917
14924
14913
14904
14918
14929
14915
14904
14912
14914
14892
14878
14885
14881
14857
14845
14848
14834
14798
14777
14777
14763
14727
14702
14688
14656
14611
14587
14578
14553
14520
14508
14504
14474
14430
14411
14408
14392
14375
14381
14391
14380
14370
14382
14391
14373
14356
14358
14355
14328
14307
14304
14292
14259
14241
14243
14230
14200
14190
14203
14200
14179
14173
14183
14174
14153
14154
14170
14162
14129
14105
14090
14062
14035
14036
14043
14022
13995
13988
13981
13954
13927
13923
13917
13886
13862
13868
13879
13889
13928
14007
14094
14175
14282
14424
14567
14700
14847
15008
15146
15260
15378
15488
15550
15579
15611
15639
15629
15595
15572
15550
15498
15430
15384
15348
15292
15236
15205
15177
15125
15071
15043
15022
14983
14948
14934
14910
14857
14810
14787
14759
14717
14689
14680
14655
14606
14574
14565
14542
14504
14491
14501
14497
14479
14483
14507
14512
14504
14519
14542
14540
14529
14538
14549
14531
14505
14501
14499
14468
14437
14430
14421
14385
14351
14339
14317
14270
14237
14233
14226
14198
14182
14186
14176
14146
14129
14131
14119
14090
14078
14087
14083
14068
14071
14085
14078
14055
14050
14057
14042
14022
14024
14026
14002
13973
13964
13955
13924
13899
13900
13901
13877
13857
13864
13868
13851
13842
13856
13859
13834
13814
13813
13800
13766
13749
13756
13753
13738
13742
13761
13764
13756
13770
13796
13788
13757
13749
13754
13743
13735
13762
13805
13836
13875
13955
14058
14156
14270
14422
14576
14706
14836
14982
15114
15215
15314
15421
15497
15527
15546
15570
15568
15532
15500
15483
15449
15395
15352
15322
15274
15208
15163
15136
15096
15046
15020
15006
14970
14927
14907
14897
14866
14827
14808
14790
14744
14696
14673
14651
14608
14577
14578
14577
14551
14530
14533
14531
14509
14496
14505
14505
14485
14482
14502
14509
14498
14503
14526
14528
14508
14497
14495
14474
14442
14435
14438
14414
14379
14369
14369
14348
14322
14322
14323
14296
14263
14251
14237
14194
14147
14119
14090
14046
14015
14014
14013
13997
13995
14014
14020
14007
14006
14021
14015
13988
13976
13981
13970
13946
13947
13966
13965
13952
13955
13961
13941
13909
13902
13913
13907
13893
13899
13909
13896
13882
13896
13908
13888
13866
13864
13853
13816
13790
13792
13793
13772
13757
13764
13764
13748
13742
13756
13761
13757
13774
13813
13843
13873
13938
14041
14149
14266
14417
14586
14734
14873
15031
15189
15313
15413
15511
15589
15619
15631
15657
15668
15637
15595
15569
15540
15485
15426
15384
15337
15273
15220
15190
15153
15103
15078
15079
15065
15035
15024
15031
15018
14981
14959
14949
14912
14855
14817
14790
14737
14672
14632
14609
14572
14534
14526
14532
14520
14511
14527
14544
14538
14533
14543
14547
14529
14519
14529
14527
14502
14485
14491
14488
14463
14445
14444
14423
14378
14352
14349
14332
14299
14286
14294
14287
14265
14262
14270
14252
14219
14206
14204
14176
14139
14123
14111
14078
14045
14039
14037
14014
13991
13990
13982
13953
13933
13939
13940
13917
13901
13909
13910
13890
13887
13909
13918
13905
13903
13910
13892
13855
13838
13842
13834
13815
13814
13820
13802
13773
13767
13773
13759
13735
13732
13738
13721
13703
13718
13746
13765
13799
13872
13960
14043
14144
14277
14412
14534
14671
14828
14972
15090
15209
15331
15425
15485
15541
15595
15609
15583
15555
15530
15478
15410
15360
15322
15265
15203
15168
15150
15116
15074
15057
15046
15011
14975
14963
14953
14919
14886
14873
14850
14798
14751
14726
14696
14647
14610
14599
14581
14546
14523
14519
14503
14469
14450
14449
14434
14411
14416
14439
14440
14423
14431
14458
14465
14457
14465
14476
14455
14421
14406
14393
14352
14307
14286
14267
14229
14197
14198
14199
14174
14147
14142
14127
14087
14057
14054
14046
14012
13984
13975
13959
13931
13925
13938
13931
13905
13897
13910
13913
13904
13911
13926
13916
13893
13891
13894
13871
13838
13825
13822
13801
13782
13790
13798
13780
13763
13769
13770
13749
13730
13731
13726
13701
13688
13699
13704
13695
13704
13743
13774
13792
13834
13907
13976
14045
14152
14291
14425
14550
14697
14857
14987
15088
15189
15279
15322
15334
15348
15356
15332
15297
15282
15265
15216
15160
15122
15082
15019
14963
14933
14901
14850
14811
14801
14789
14759
14739
14740
14726
14684
14652
14637
14606
14558
14528
14515
14486
14448
14435
14444
14437
14414
14409
14416
14403
14381
14381
14390
14378
14363
14372
14385
14376
14361
14366
14370
14347
14323
14320
14308
14273
14244
14239
14227
14197
14179
14183
14174
14142
14123
14122
14102
14061
14038
14033
14010
13973
13956
13955
13935
13906
13899
13907
13897
13880
13891
13905
13889
13860
13849
13841
13816
13798
13811
13823
13808
13796
13807
13811
13791
13779
13790
13792
13769
13752
13753
13742
13711
13697
13705
13704
13687
13686
13697
13685
13656
13645
13653
13647
13637
13664
13725
13786
13857
13970
14107
14230
14357
14512
14671
14805
14928
15059
15166
15230
15281
15340
15379
15381
15378
15388
15379
15341
15304
15283
15249
15192
15146
15121
15083
15031
14998
14979
14942
14894
14874
14875
14861
14831
14815
14802
14760
14705
14671
14644
14594
14541
14515
14495
14451
14410
14407
14421
14420
14423
14448
14467
14462
14460
14474
14472
14445
14427
14432
14430
14411
14404
14414
14404
14374
14363
14372
14358
14320
14301
14301
14280
14243
14226
14223
14204
14178
14175
14176
14149
14113
14095
14084
14054
14020
14011
14004
13975
13953
13963
13974
13964
13959
13971
13973
13953
13943
13956
13957
13931
13912
13913
13901
13875
13872
13894
13898
13883
13883
13897
13890
13867
13863
13864
13840
13809
13804
13808
13792
13771
13775
13790
13787
13788
13817
13847
13859
13885
13950
14033
14114
14217
14359
14512
14658
14822
15005
15172
15303
15424
15546
15636
15690
15738
15778
15780
15755
15743
15742
15716
15671
15645
15634
15604
15564
15544
15535
15507
15475
15465
15465
15452
15441
15452
15458
15435
15405
15388
15361
15304
15252
15222
15183
15125
15084
15070
15043
14993
14958
14953
14944
14923
14920
14935
14934
14912
14907
14925
14932
14927
14941
14965
14966
14958
14972
14990
14979
14955
14945
14936
14905
14875
14870
14859
14816
14772
14754
14732
14687
14651
14644
14632
14595
14566
14558
14540
14500
14475
14473
14462
14440
14438
14454
14449
14423
14410
14414
14399
14366
14352
14350
14324
14290
14282
14283
14263
14239
14243
14254
14241
14227
14234
14236
14209
14179
14168
14160
14142
14142
14172
14194
14190
14189
14203
14201
14174
14159
14160
14140
14098
14074
14071
14052
14025
14035
14080
14120
14165
14254
14379
14504
14638
14813
15010
15188
15355
15542
15728
15880
16012
16150
16267
16339
16391
16445
16475
16465
16450
16452
16443
16408
16384
16388
16385
16358
16344
16359
16365
16356
16366
16393
16398
16379
16373
16375
16348
16297
16257
16225
16165
16090
16038
15998
15939
15872
15825
15788
15732
15675
15646
15631
15604
15588
15601
15612
15604
15604
15630
15648
15640
15642
15669
15685
15669
15657
15664
15652
15618
15601
15602
15580
15534
15503
15488
15452
15402
15376
15364
15331
15285
15260
15246
15207
15163
15146
15137
15105
15067
15049
15034
15002
14975
14972
14968
14941
14919
14918
14907
14868
14834
14820
14798
14762
14743
14753
14753
14730
14717
14716
14694
14661
14654
14666
14653
14621
14606
14605
14582
14546
14535
14541
14529
14515
14529
14550
14545
14529
14526
14523
14498
14476
14479
14484
14467
14451
14454
14450
14424
14406
14409
14399
14365
14342
14343
14331
14298
14278
14280
14271
14251
14260
14301
14339
14380
14467
14600
14740
14890
15082
15297
15498
15696
15915
16133
16316
16479
16645
16789
16885
16957
17029
17073
17068
17052
17048
17028
16980
16940
16924
16900
16856
16831
16838
16839
16823
16824
16847
16853
16838
16837
16847
16832
16791
16756
16726
16673
16606
16560
16517
16444
16363
16311
16275
16220
16163
16135
16117
16080
16050
16053
16059
16044
16035
16052
16065
16058
16059
16081
16089
16069
16049
16043
16022
15982
15957
15947
15919
15874
15850
15843
15815
15765
15733
15710
15664
15607
15574
15549
15499
15441
15409
15388
15351
15315
15305
15298
15264
15228
15213
15197
15160
15129
15123
15111
15075
15052
15057
15057
15039
15031
15042
15038
15012
15004
15024
15031
15012
14995
14983
14949
14901
14876
14868
14844
14809
14801
14809
14798
14775
14774
14780
14765
14747
14750
14756
14735
14712
14713
14710
14680
14655
14655
14653
14629
14612
14617
14615
14592
14580
14589
14589
14573
14581
14622
14665
14707
14786
14898
15005
15119
15282
15480
15664
15831
16016
16210
16371
16504
16636
16756
16830
16872
16909
16929
16913
16883
16866
16837
16776
16717
16688
16661
16618
16586
16579
16567
16535
16513
16512
16501
16468
16441
16425
16388
16331
16291
16266
16215
16142
16086
16053
16004
15944
15907
15885
15846
15809
15806
15818
15814
15799
15795
15794
15777
15763
15777
15794
15786
15778
15792
15799
15779
15760
15763
15756
15721
15693
15685
15665
15619
15584
15569
15543
15503
15484
15480
15452
15404
15375
15364
15333
15289
15267
15253
15214
15166
15144
15135
15108
15076
15069
15065
15038
15012
15014
15016
14990
14958
14946
14931
14897
14874
14877
14872
14841
14818
14819
14813
14785
14769
14778
14779
14760
14756
14772
14768
14742
14732
14737
14723
14697
14695
14707
14697
14676
14679
14690
14678
14657
14656
14655
14631
14609
14611
14613
14591
14574
14586
14603
14612
14643
14712
14794
14882
15002
15164
15332
15494
15680
15896
16097
16266
16432
16590
16704
16778
16847
16913
16940
16934
16934
16935
16905
16859
16830
16804
16750
16687
16651
16624
16579
16539
16533
16533
16511
16495
16504
16506
16478
16443
16414
16367
16293
16227
16184
16135
16068
16017
15992
15953
15899
15867
15862
15844
15812
15802
15809
15795
15767
15766
15786
15787
15772
15773
15783
15770
15752
15760
15772
15756
15732
15729
15724
15692
15662
15655
15641
15598
15557
15539
15511
15461
15421
15407
15384
15339
15308
15303
15288
15250
15225
15217
15191
15147
15121
15115
15093
15056
15035
15025
14992
14949
14928
14919
14895
14874
14881
14898
14898
14902
14928
14950
14942
14926
14927
14921
14890
14864
14861
14852
14821
14800
14800
14790
14761
14744
14748
14745
14733
14738
14754
14746
14719
14709
14716
14699
14659
14637
14628
14599
14565
14563
14574
14564
14550
14566
14605
14646
14706
14809
14931
15054
15207
15413
15638
15846
16053
16273
16476
16640
16790
16938
17044
17097
17135
17171
17169
17126
17086
17062
17027
16975
16944
16939
16923
16890
16872
16864
16836
16802
16795
16800
16781
16757
16756
16760
16737
16703
16686
16662
16603
16536
16488
16439
16366
16297
16254
16207
16139
16087
16065
16040
15999
15976
15980
15977
15959
15957
15972
15970
15953
15951
15958
15940
15908
15898
15900
15878
15840
15823
15821
15797
15759
15739
15724
15687
15644
15621
15596
15547
15498
15472
15451
15415
15381
15363
15332
15270
15219
15197
15172
15130
15102
15104
15097
15066
15050
15054
15042
15011
14997
14998
14981
14949
14936
14941
14930
14908
14908
14919
14906
14880
14870
14865
14839
14808
14798
14793
14771
14753
14760
14766
14748
14735
14746
14745
14717
14696
14700
14693
14660
14634
14628
14615
14582
14566
14573
14566
14539
14529
14538
14528
14498
14486
14496
14496
14499
14542
14615
14683
14760
14884
15047
15220
15413
15647
15890
16107
16316
16529
16717
16854
16961
17056
17115
17126
17127
17137
17129
17094
17064
17050
17019
16969
16936
16926
16906
16874
16862
16866
16854
16826
16815
16819
16805
16778
16768
16761
16725
16671
16634
16600
16538
16464
16409
16362
16297
16236
16204
16172
16115
16058
16028
15999
15954
15922
15917
15909
15882
15871
15891
15902
15895
15909
15946
15961
15947
15942
15948
15933
15897
15874
15862
15828
15778
15752
15743
15714
15673
15652
15638
15603
15564
15546
15530
15495
15458
15442
15427
15386
15344
15326
15302
15255
15214
15195
15171
15129
15102
15100
15092
15064
15047
15049
15032
14994
14973
14969
14943
14898
14873
14870
14856
14835
14834
14840
14826
14804
14801
14804
14788
14767
14767
14771
14750
14724
14724
14730
14713
14698
14709
14715
14689
14660
14653
14640
14608
14588
14590
14582
14554
14540
14543
14533
14508
14507
14533
14548
14553
14589
14661
14739
14829
14964
15127
15283
15444
15638
15846
16030
16196
16369
16530
16649
16743
16834
16898
16915
16910
16904
16871
16799
16725
16674
16618
16543
16481
16443
16400
16339
16293
16273
16250
16220
16211
16220
16207
16177
16168
16172
16148
16098
16053
16009
15943
15870
15822
15784
15722
15654
15616
15593
15554
15523
15526
15533
15516
15499
15506
15510
15492
15477
15484
15487
15468
15458
15475
15482
15464
15448
15447
15429
15391
15371
15366
15340
15297
15277
15275
15251
15206
15179
15164
15127
15074
15040
15016
14975
14928
14904
14890
14862
14838
14839
14840
14817
14793
14794
14796
14773
14751
14751
14743
14715
14707
14733
14750
14737
14722
14722
14711
14683
14667
14666
14648
14618
14612
14627
14623
14603
14605
14625
14625
14612
14618
14624
14598
14563
14553
14545
14510
14472
14464
14464
14446
14432
14444
14453
14442
14441
14469
14496
14512
14554
14642
14741
14838
14963
15127
15288
15428
15577
15739
15878
15988
16099
16209
16278
16307
16334
16360
16351
16314
16290
16271
16224
16161
16114
16068
15998
15925
15874
15828
15767
15717
15695
15673
15627
15587
15574
15557
15511
15472
15456
15427
15371
15324
15294
15250
15190
15154
15146
15128
15098
15093
15106
15098
15072
15067
15082
15077
15057
15059
15070
15062
15052
15069
15087
15077
15059
15059
15057
15032
15006
15004
14996
14959
14924
14916
14902
14862
14830
14823
14804
14759
14726
14717
14698
14658
14634
14629
14612
14582
14575
14586
14574
14546
14540
14549
14538
14518
14520
14531
14516
14492
14491
14495
14473
14445
14442
14441
14418
14400
14407
14415
14398
14380
14381
14374
14342
14315
14305
14288
14255
14238
14244
14241
14222
14219
14235
14235
14219
14226
14259
14284
14300
14346
14426
14507
14595
14724
14877
15013
15147
15309
15476
15612
15731
15852
15956
16020
16067
16125
16167
16168
16155
16155
16138
16084
16030
15995
15950
15887
15836
15805
15760
15695
15648
15629
15603
15565
15543
15532
15499
15448
15414
15394
15352
15296
15260
15236
15190
15130
15089
15060
15016
14975
14967
14969
14950
14932
14942
14953
14941
14931
14946
14960
14956
14956
14971
14974
14952
14941
14953
14950
14921
14898
14885
14856
14811
14785
14777
14750
14709
14695
14701
14682
14645
14630
14633
14619
14594
14590
14587
14553
14509
14494
14492
14476
14463
14473
14477
14450
14421
14414
14406
14378
14359
14365
14366
14348
14343
14363
14372
14357
14356
14376
14374
14346
14329
14328
14311
14286
14290
14311
14305
14282
14280
14294
14289
14276
14292
14334
14373
14428
14532
14666
14796
14943
15124
15308
15471
15631
15804
15957
16069
16161
16251
16310
16322
16322
16332
16323
16283
16251
16234
16194
16126
16072
16038
15991
15931
15895
15878
15850
15816
15808
15810
15788
15755
15740
15728
15688
15635
15601
15570
15512
15451
15420
15393
15341
15290
15260
15224
15164
15115
15100
15085
15043
15008
15003
15001
14991
15000
15033
15051
15047
15057
15081
15078
15052
15046
15063
15063
15040
15028
15022
14992
14952
14935
14921
14874
14817
14786
14765
14725
14688
14680
14674
14643
14617
14617
14612
14578
14543
14528
14507
14471
14451
14454
14445
14418
14406
14416
14412
14392
14387
14396
14380
14347
14341
14357
14354
14334
14337
14355
14347
14325
14324
14333
14318
14294
14292
14297
14278
14257
14260
14264
14242
14226
14249
14293
14349
14441
14576
14726
14879
15069
15302
15532
15738
15949
16166
16345
16474
16588
16690
16746
16760
16773
16788
16771
16724
16686
16655
16603
16534
16482
16443
16391
16343
16329
16325
16294
16261
16255
16252
16226
16199
16189
16169
16122
16074
16046
16009
15944
15885
15848
15801
15735
15686
15659
15618
15560
15523
15513
15495
15463
15452
15460
15451
15428
15429
15447
15445
15428
15434
15453
15449
15432
15434
15438
15416
15388
15380
15367
15321
15270
15237
15200
15138
15083
15058
15036
14995
14965
14958
14939
14896
14863
14853
14828
14778
14742
14732
14713
14678
14657
14652
14631
14600
14593
14603
14597
14579
14578
14584
14567
14539
14531
14532
14510
14488
14496
14510
14498
14482
14486
14486
14459
14431
14427
14416
14381
14361
14369
14367
14338
14318
14317
14301
14263
14245
14257
14263
14256
14271
14316
14364
14427
14541
14692
14846
15009
15210
15437
15652
15856
16077
16293
16464
16604
16741
16852
16909
16934
16954
16955
16922
16885
16863
16823
16749
16677
16629
16574
16500
16441
16411
16380
16338
16315
16313
16298
16271
16262
16265
16239
16187
16147
16120
16075
16012
15968
15931
15870
15804
15766
15738
15692
15645
15622
15603
15564
15530
15526
15528
15512
15502
15520
15536
15523
15508
15513
15511
15488
15474
15480
15474
15448
15434
15439
15427
15393
15371
15358
15318
15259
15220
15197
15159
15111
15084
15069
15033
14991
14975
14967
14934
14893
14877
14868
14835
14799
14785
14771
14735
14707
14709
14708
14684
14670
14683
14686
14662
14641
14636
14620
14582
14556
14557
14549
14526
14518
14524
14510
14479
14469
14480
14470
14440
14430
14432
14409
14375
14370
14377
14359
14337
14342
14350
14330
14301
14290
14276
14240
14213
14219
14227
14219
14227
14271
14326
14382
14471
14607
14760
14918
15114
15351
15583
15790
16003
16222
16406
16554
16698
16826
16897
16920
16933
16934
16896
16828
16770
16716
16637
16553
16499
16457
16394
16329
16289
16252
16196
16146
16122
16094
16044
16001
15985
15965
15919
15873
15841
15792
15722
15664
15625
15572
15501
15450
15427
15395
15353
15337
15342
15336
15323
15336
15363
15365
15351
15357
15372
15362
15341
15340
15343
15325
15305
15305
15299
15269
15240
15238
15234
15206
15175
15159
15134
15087
15048
15031
15006
14960
14926
14915
14890
14845
14815
14805
14780
14738
14718
14721
14708
14677
14668
14670
14648
14607
14585
14578
14554
14522
14510
14503
14471
14440
14443
14456
14447
14438
14452
14461
14440
14420
14420
14415
14389
14371
14376
14373
14347
14331
14334
14325
14294
14278
14282
14274
14249
14242
14248
14230
14204
14210
14244
14267
14288
14348
14443
14541
14648
14796
14971
15144
15325
15538
15750
15925
16082
16243
16373
16447
16497
16547
16568
16541
16503
16472
16418
16332
16254
16196
16129
16045
15980
15940
15888
15823
15783
15760
15715
15657
15624
15606
15564
15505
15464
15431
15374
15311
15274
15238
15175
15110
15076
15057
15030
15014
15021
15023
15004
14999
15029
15051
15041
15035
15051
15058
15043
15037
15050
15053
15036
15031
15046
15041
15008
14983
14966
14926
14873
14846
14836
14807
14769
14758
14759
14736
14695
14669
14652
14615
14574
14558
14543
14504
14467
14465
14465
14437
14414
14419
14420
14398
14382
14386
14378
14346
14323
14321
14307
14276
14261
14266
14254
14222
14205
14205
14187
14157
14150
14161
14151
14127
14127
14142
14135
14119
14124
14137
14130
14119
14130
14152
14165
14194
14269
14367
14465
14590
14762
14951
15134
15334
15559
15769
15944
16112
16282
16414
16495
16560
16613
16624
16596
16570
16547
16492
16404
16323
16252
16162
16068
16005
15960
15897
15828
15790
15770
15739
15703
15691
15681
15640
15592
15570
15545
15490
15431
15393
15356
15303
15264
15253
15237
15201
15181
15188
15186
15167
15169
15195
15203
15186
15181
15194
15191
15175
15180
15196
15188
15166
15167
15179
15164
15134
15122
15114
15082
15042
15025
15007
14962
14908
14874
14840
14782
14734
14720
14708
14672
14640
14635
14622
14589
14566
14563
14544
14501
14468
14456
14435
14407
14401
14412
14402
14374
14365
14374
14362
14335
14334
14345
14330
14299
14288
14288
14263
14230
14220
14217
14193
14169
14169
14171
14153
14139
14149
14156
14140
14134
14160
14186
14199
14234
14311
14403
14505
14653
14851
15059
15265
15498
15755
15991
16191
16382
16560
16686
16771
16849
16913
16932
16917
16902
16877
16817
16741
16684
16631
16558
16486
16444
16409
16353
16301
16278
16256
16209
16165
16144
16119
16071
16028
16008
15975
15914
15861
15828
15783
15721
15677
15653
15610
15550
15511
15494
15460
15416
15401
15407
15393
15369
15372
15393
15397
15395
15418
15441
15433
15416
15416
15414
15388
15363
15358
15348
15311
15279
15268
15249
15206
15168
15152
15129
15087
15053
15038
15006
14949
14904
14875
14827
14767
14731
14717
14689
14646
14623
14617
14591
14555
14545
14545
14519
14489
14490
14506
14500
14484
14485
14487
14459
14431
14431
14431
14406
14385
14390
14390
14366
14349
14360
14365
14348
14338
14344
14331
14294
14273
14275
14264
14235
14229
14245
14251
14263
14324
14430
14541
14669
14848
15065
15278
15497
15744
15996
16213
16402
16584
16741
16845
16920
16994
17038
17030
17005
16990
16958
16894
16835
16796
16743
16662
16592
16550
16501
16438
16392
16368
16334
16292
16272
16265
16233
16181
16148
16123
16071
15998
15940
15891
15823
15750
15707
15676
15621
15562
15533
15512
15474
15447
15453
15465
15456
15449
15466
15480
15475
15476
15495
15500
15482
15475
15490
15489
15463
15445
15442
15419
15374
15345
15328
15288
15233
15202
15182
15137
15079
15047
15032
14999
14959
14947
14945
14915
14874
14855
14834
14788
14746
14729
14713
14675
14640
14627
14611
14574
14542
14535
14523
14493
14478
14485
14476
14442
14420
14418
14406
14382
14376
14385
14376
14355
14359
14380
14378
14358
14355
14358
14331
14295
14288
14290
14268
14238
14232
14234
14218
14216
14261
14327
14391
14484
14630
14797
14963
15153
15377
15598
15793
15984
16178
16339
16453
16552
16640
16686
16690
16689
16690
16661
16608
16571
16546
16493
16414
16346
16296
16232
16166
16128
16097
16043
15990
15970
15956
15917
15880
15870
15855
15808
15758
15728
15685
15609
15539
15494
15447
15385
15340
15323
15301
15263
15248
15262
15264
15239
15227
15235
15230
15211
15212
15231
15232
15223
15235
15257
15253
15231
15223
15218
15186
15146
15127
15110
15066
15019
14995
14975
14937
14906
14896
14878
14835
14796
14778
14750
14699
14664
14659
14648
14617
14600
14604
14589
14549
14523
14517
14497
14470
14464
14470
14451
14418
14410
14422
14414
14391
14388
14396
14379
14354
14351
14356
14338
14319
14324
14330
14310
14286
14287
14285
14254
14225
14226
14226
14212
14220
14269
14332
14399
14506
14657
14812
14965
15148
15360
15553
15723
15899
16070
16195
16279
16361
16433
16463
16462
16461
16450
16405
16343
16294
16245
16174
16103
16059
16019
15952
15889
15855
15823
15773
15727
15701
15668
15611
15562
15539
15508
15455
15414
15393
15355
15302
15269
15257
15225
15175
15150
15150
15139
15119
15125
15148
15149
15135
15141
15158
15148
15131
15138
15153
15143
15127
15128
15124
15094
15069
15071
15068
15033
15001
14996
14980
14935
14896
14885
14866
14818
14779
14764
14741
14703
14688
14694
14679
14644
14627
14624
14599
14561
14545
14544
14522
14491
14486
14496
14485
14469
14477
14485
14462
14435
14431
14429
14403
14380
14383
14384
14360
14340
14339
14328
14295
14278
14299
14322
14336
14377
14452
14527
14599
14710
14862
15020
15183
15380
15601
15799
15974
16157
16338
16473
16570
16662
16735
16755
16740
16727
16708
16657
16592
16543
16491
16410
16329
16277
16227
16152
16081
16035
15985
15911
15847
15810
15768
15708
15660
15637
15603
15549
15509
15488
15453
15404
15377
15367
15335
15290
15273
15283
15278
15262
15270
15293
15294
15287
15305
15331
15331
15326
15344
15360
15346
15327
15327
15325
15300
15278
15274
15260
15216
15177
15160
15132
15082
15042
15027
15008
14967
14936
14928
14909
14872
14847
14834
14802
14750
14717
14705
14678
14643
14630
14625
14596
14560
14552
14549
14523
14496
14497
14502
14480
14457
14460
14461
14438
14419
14420
14410
14372
14342
14341
14340
14320
14317
14346
14372
14398
14468
14587
14712
14841
15013
15230
15451
15671
15918
16172
16386
16560
16727
16875
16971
17029
17088
17134
17136
17116
17108
17089
17035
16974
16937
16896
16827
16760
16717
16669
16597
16539
16511
16480
16428
16389
16376
16351
16306
16277
16270
16236
16170
16112
16065
15998
15920
15868
15834
15780
15717
15683
15672
15649
15623
15621
15627
15608
15585
15592
15608
15604
15603
15630
15654
15649
15647
15664
15667
15637
15609
15604
15587
15536
15485
15458
15427
15382
15352
15341
15311
15259
15225
15215
15188
15143
15121
15116
15090
15047
15026
15016
14980
14929
14905
14894
14857
14812
14794
14788
14765
14742
14743
14745
14719
14694
14690
14680
14647
14621
14617
14605
14572
14550
14552
14545
14519
14510
14524
14519
14492
14481
14490
14485
14469
14480
14512
14534
14561
14636
14751
14870
15007
15199
15428
15653
15887
16149
16409
16629
16825
17020
17186
17294
17370
17437
17472
17464
17443
17426
17388
17317
17245
17189
17124
17045
16987
16958
16920
16868
16835
16825
16802
16764
16748
16749
16729
16690
16665
16648
16602
16538
16489
16441
16360
16270
16208
16156
16086
16020
15986
15959
15912
15875
15877
15886
15874
15870
15893
15911
15903
15900
15917
15923
15909
15904
15916
15910
15874
15847
15836
15804
15756
15729
15713
15670
15615
15586
15570
15534
15482
15447
15421
15375
15325
15296
15272
15224
15176
15152
15129
15081
15039
15031
15027
14994
14962
14957
14945
14904
14871
14866
14857
14834
14832
14850
14848
14818
14796
14789
14763
14721
14703
14705
14686
14651
14634
14628
14595
14551
14534
14531
14503
14465
14456
14461
14443
14424
14439
14468
14489
14534
14632
14757
14887
15053
15272
15509
15741
15992
16263
16511
16714
16900
17080
17216
17298
17363
17415
17419
17383
17354
17334
17289
17222
17168
17120
17044
16955
16889
16837
16768
16695
16654
16624
16574
16521
16495
16468
16414
16360
16325
16280
16206
16134
16088
16038
15969
15914
15886
15857
15812
15784
15784
15774
15746
15735
15744
15737
15712
15709
15722
15713
15687
15682
15691
15677
15654
15659
15676
15663
15635
15625
15613
15568
15515
15488
15463
15415
15370
15350
15326
15278
15236
15219
15192
15139
15094
15073
15043
14990
14949
14931
14901
14855
14826
14818
14793
14751
14731
14735
14727
14706
14705
14712
14693
14656
14637
14628
14598
14565
14560
14562
14541
14515
14512
14512
14488
14463
14462
14459
14440
14433
14451
14460
14445
14437
14456
14483
14512
14573
14679
14802
14941
15128
15363
15598
15815
16044
16275
16468
16621
16765
16893
16971
17007
17039
17054
17023
16968
16927
16885
16814
16728
16660
16593
16506
16426
16376
16326
16257
16198
16168
16134
16073
16019
15987
15944
15878
15826
15797
15752
15679
15619
15579
15529
15467
15436
15432
15412
15384
15387
15411
15412
15398
15409
15438
15447
15445
15463
15484
15474
15454
15456
15456
15424
15392
15389
15387
15355
15323
15310
15282
15225
15176
15155
15129
15080
15037
15012
14975
14916
14872
14847
14810
14764
14744
14734
14693
14635
14607
14605
14587
14553
14536
14526
14493
14453
14437
14434
14413
14391
14394
14402
14388
14370
14372
14370
14343
14318
14317
14315
14290
14271
14274
14269
14249
14249
14278
14307
14337
14407
14526
14659
14804
14989
15205
15415
15614
15829
16049
16233
16379
16516
16630
16691
16711
16727
16730
16691
16629
16577
16520
16430
16334
16261
16188
16093
16005
15945
15884
15808
15748
15717
15680
15617
15560
15523
15475
15408
15356
15328
15288
15232
15198
15186
15157
15110
15082
15071
15040
15001
14994
15008
15006
14996
15013
15045
15057
15065
15091
15114
15103
15083
15084
15085
15061
15040
15038
15024
14979
14942
14931
14910
14866
14830
14814
14783
14731
14693
14674
14644
14599
14576
14574
14550
14504
14478
14468
14435
14390
14370
14368
14348
14321
14318
14322
14301
14276
14278
14287
14271
14255
14264
14270
14246
14222
14220
14209
14172
14145
14150
14146
14114
14091
14094
14087
14060
14054
14081
14115
14158
14248
14381
14512
14645
14815
15017
15211
15395
15597
15797
15950
16061
16168
16256
16289
16289
16297
16296
16258
16202
16154
16092
15994
15891
15811
15728
15628
15542
15488
15436
15366
15307
15271
15227
15165
15121
15102
15066
15007
14963
14940
14897
14835
14799
14790
14765
14731
14729
14746
14741
14724
14734
14758
14762
14756
14775
14797
14792
14783
14799
14813
14800
14789
14800
14798
14761
14723
14709
14690
14648
14616
14606
14587
14546
14518
14512
14489
14446
14425
14429
14410
14368
14344
14332
14297
14253
14236
14235
14210
14171
14153
14149
14127
14105
14114
14127
14111
14090
14091
14091
14065
14041
14043
14037
14002
13973
13976
13978
13957
13944
13953
13949
13921
13914
13938
13954
13961
14001
14084
14172
14261
14391
14561
14730
14901
15102
15315
15494
15645
15797
15937
16027
16079
16128
16158
16139
16095
16057
16005
15919
15834
15777
15714
15622
15537
15483
15428
15351
15281
15233
15177
15103
15045
15009
14956
14880
14824
14797
14763
14716
14689
14679
14650
14610
14602
14620
14622
14613
14627
14649
14644
14633
14648
14672
14671
14666
14680
14689
14669
14648
14650
14651
14629
14607
14606
14597
14563
14536
14528
14508
14466
14437
14430
14406
14360
14327
14308
14272
14225
14206
14204
14179
14135
14113
14110
14091
14063
14059
14067
14053
14031
14036
14045
14025
13997
13992
13987
13957
13928
13927
13928
13903
13880
13886
13891
13871
13857
13861
13849
13807
13777
13774
13761
13731
13723
13747
13764
13773
13812
13889
13973
14066
14206
14387
14568
14758
14987
15233
15451
15647
15845
16028
16160
16256
16341
16397
16401
16381
16362
16318
16229
16136
16071
16005
15918
15840
15787
15725
15643
15580
15545
15498
15433
15384
15356
15311
15249
15207
15186
15148
15093
15055
15026
14977
14918
14887
14876
14849
14820
14818
14824
14808
14784
14785
14793
14784
14780
14803
14825
14822
14824
14851
14871
14862
14854
14863
14856
14821
14788
14772
14742
14688
14648
14631
14604
14558
14530
14517
14480
14430
14407
14406
14387
14355
14342
14335
14301
14256
14237
14229
14198
14160
14149
14142
14110
14078
14078
14079
14054
14031
14033
14030
14000
13981
13993
13999
13982
13975
13990
13992
13968
13957
13965
13955
13925
13912
13916
13899
13866
13854
13858
13842
13818
13827
13861
13890
13931
14025
14157
14294
14459
14680
14927
15164
15403
15655
15887
16068
16225
16377
16495
16558
16599
16634
16631
16581
16522
16470
16399
16302
16216
16151
16072
15974
15894
15838
15775
15708
15671
15655
15624
15583
15566
15558
15518
15459
15416
15381
15322
15260
15226
15201
15156
15115
15104
15099
15077
15064
15082
15097
15088
15085
15105
15114
15096
15087
15099
15098
15076
15065
15068
15053
15019
15004
15007
14990
14953
14932
14920
14879
14820
14783
14762
14724
14679
14659
14646
14609
14565
14546
14534
14501
14464
14447
14427
14386
14351
14342
14333
14307
14290
14296
14294
14267
14246
14248
14241
14215
14201
14207
14198
14166
14146
14141
14119
14086
14079
14091
14081
14053
14043
14044
14020
13987
13984
14000
13993
13975
13981
13991
13973
13956
13970
13985
13972
13958
13969
13986
13992
14020
14097
14197
14300
14442
14640
14860
15087
15344
15625
15883
16102
16305
16488
16619
16701
16776
16842
16859
16835
16811
16786
16726
16644
16579
16520
16442
16357
16294
16240
16167
16095
16050
16009
15940
15871
15829
15789
15729
15678
15656
15624
15562
15510
15487
15457
15408
15372
15361
15340
15301
15282
15285
15276
15258
15269
15297
15302
15286
15286
15297
15287
15267
15275
15294
15286
15259
15251
15247
15214
15178
15168
15163
15137
15109
15098
15075
15022
14974
14955
14934
14896
14870
14865
14845
14798
14763
14751
14729
14688
14661
14649
14612
14553
14518
14510
14482
14440
14424
14423
14401
14369
14363
14373
14363
14344
14345
14345
14315
14281
14274
14270
14243
14218
14220
14221
14198
14181
14192
14197
14178
14167
14177
14173
14139
14113
14111
14094
14055
14031
14030
14017
13992
13996
14026
14042
14055
14111
14207
14306
14419
14580
14775
14970
15178
15423
15674
15895
16100
16308
16492
16622
16719
16805
16856
16853
16828
16808
16766
16685
16599
16530
16449
16344
16249
16177
16099
16004
15932
15892
15845
15787
15752
15731
15680
15608
15559
15523
15464
15390
15343
15311
15260
15207
15188
15182
15155
15127
15130
15140
15127
15119
15144
15171
15171
15173
15202
15223
15213
15208
15226
15230
15204
15187
15193
15186
15156
15137
15131
15097
15037
14993
14970
14932
14879
14849
14835
14799
14749
14717
14700
14664
14619
14600
14589
14550
14507
14496
14493
14471
14450
14448
14436
14394
14352
14334
14314
14277
14255
14263
14265
14241
14228
14240
14240
14215
14202
14210
14202
14174
14164
14170
14152
14115
14096
14097
14081
14053
14049
14055
14032
13998
13990
13995
13976
13952
13955
13967
13958
13951
13979
14021
14054
14115
14231
14377
14532
14730
14982
15245
15492
15742
15998
16219
16395
16558
16706
16797
16832
16855
16875
16857
16802
16747
16688
16599
16498
16422
16362
16281
16193
16132
16078
15995
15901
15831
15770
15692
15618
15575
15537
15477
15423
15399
15375
15329
15291
15276
15255
15215
15190
15192
15185
15164
15166
15194
15208
15204
15217
15251
15266
15260
15269
15289
15287
15268
15268
15283
15275
15251
15245
15242
15213
15174
15160
15151
15115
15076
15062
15045
15000
14954
14932
14904
14849
14803
14787
14765
14715
14672
14654
14628
14578
14543
14532
14508
14467
14447
14454
14450
14430
14424
14433
14420
14391
14385
14393
14376
14343
14329
14325
14295
14256
14243
14237
14211
14187
14190
14198
14183
14172
14194
14216
14210
14208
14228
14236
14210
14187
14186
14171
14131
14102
14098
14082
14049
14042
14072
14102
14129
14195
14304
14420
14549
14730
14956
15189
15434
15713
15999
16248
16468
16684
16869
16990
17070
17144
17192
17197
17183
17173
17143
17073
16999
16944
16878
16790
16714
16664
16605
16528
16469
16443
16411
16360
16325
16306
16264
16199
16157
16132
16086
16022
15981
15955
15904
15838
15798
15778
15743
15706
15700
15700
15675
15649
15652
15656
15636
15621
15633
15640
15617
15603
15619
15633
15627
15630
15659
15676
15663
15655
15658
15632
15574
15533
15509
15463
15396
15350
15322
15279
15226
15196
15176
15129
15072
15041
15023
14983
14934
14909
14890
14848
14803
14783
14765
14722
14683
14680
14681
14656
14629
14622
14609
14572
14543
14538
14527
14495
14475
14473
14459
14428
14415
14423
14416
14392
14390
14405
14396
14364
14350
14353
14336
14306
14295
14291
14267
14239
14236
14237
14213
14185
14182
14180
14154
14134
14147
14158
14139
14118
14119
14113
14089
14085
14129
14193
14270
14394
14573
14774
14990
15256
15566
15868
16145
16421
16687
16898
17056
17196
17320
17397
17436
17465
17469
17420
17337
17266
17203
17116
17026
16967
16913
16836
16763
16724
16692
16639
16595
16582
16567
16526
16486
16462
16424
16357
16293
16249
16192
16116
16054
16014
15959
15888
15837
15812
15781
15744
15736
15744
15731
15709
15715
15737
15738
15729
15743
15761
15755
15744
15759
15772
15753
15734
15741
15745
15719
15691
15684
15666
15615
15565
15540
15508
15457
15418
15400
15363
15297
15240
15206
15160
15097
15057
15039
15007
14959
14932
14926
14905
14876
14868
14865
14834
14793
14779
14775
14750
14721
14714
14705
14666
14626
14613
14600
14566
14538
14538
14533
14502
14480
14479
14467
14427
14396
14392
14386
14366
14365
14384
14383
14356
14346
14356
14350
14329
14330
14344
14335
14307
14294
14293
14271
14236
14221
14209
14170
14122
14099
14092
14077
14065
14079
14095
14086
14089
14135
14200
14270
14379
14543
14734
14940
15189
15483
15777
16050
16325
16593
16807
16965
17105
17228
17299
17322
17337
17345
17319
17264
17212
17154
17061
16953
16871
16804
16721
16638
16586
16548
16498
16453
16430
16400
16343
16284
16249
16211
16144
16079
16038
15991
15922
15865
15830
15787
15724
15678
15660
15635
15602
15590
15599
15595
15579
15586
15609
15607
15588
15596
15622
15627
15615
15623
15634
15612
15580
15573
15568
15530
15483
15458
15433
15380
15331
15314
15294
15246
15200
15178
15147
15094
15050
15028
14993
14934
14886
14861
14822
14768
14737
14726
14699
14659
14642
14642
14617
14579
14568
14573
14549
14510
14497
14498
14472
14439
14435
14438
14411
14375
14364
14352
14309
14271
14267
14263
14237
14221
14234
14236
14209
14189
14194
14189
14161
14143
14143
14129
14097
14083
14092
14083
14054
14044
14048
14029
13994
13980
13983
13969
13951
13972
14027
14086
14161
14288
14449
14611
14794
15027
15276
15503
15728
15963
16177
16346
16492
16631
16733
16782
16806
16825
16814
16763
16709
16667
16599
16501
16413
16343
16260
16163
16085
16025
15948
15861
15802
15765
15717
15663
15634
15608
15547
15472
15423
15385
15330
15278
15258
15246
15211
15175
15163
15153
15125
15109
15123
15138
15131
15131
15158
15177
15174
15186
15222
15242
15234
15236
15255
15248
15215
15194
15183
15147
15092
15061
15048
15009
14955
14923
14903
14858
14804
14777
14762
14726
14684
14668
14655
14614
14569
14551
14535
14497
14465
14457
14443
14402
14368
14361
14349
14318
14297
14297
14284
14253
14240
14249
14239
14209
14198
14204
14188
14155
14144
14153
14140
14107
14094
14092
14070
14040
14035
14038
14022
14001
14001
14004
13987
13970
13969
13961
13925
13892
13889
13882
13850
13826
13830
13831
13814
13810
13837
13864
13886
13944
14049
14169
14303
14485
14711
14938
15170
15434
15708
15942
16136
16323
16494
16610
16683
16751
16794
16780
16731
16686
16633
16542
16444
16373
16301
16202
16111
16053
15995
15917
15855
15825
15792
15738
15694
15669
15631
15576
15541
15521
15480
15418
15376
15354
15312
15250
15209
15196
15174
15142
15137
15149
15138
15116
15120
15138
15137
15128
15142
15166
15168
15163
15175
15183
15162
15142
15148
15150
15123
15100
15099
15088
15047
15008
14990
14963
14910
14869
14848
14805
14734
14679
14650
14608
14555
14527
14519
14490
14446
14426
14424
14398
14361
14350
14347
14315
14273
14262
14262
14240
14214
14209
14200
14166
14138
14142
14142
14111
14081
14071
14052
14006
13971
13963
13946
13908
13886
13890
13881
13847
13830
13837
13825
13795
13786
13797
13786
13758
13748
13748
13723
13685
13670
13664
13637
13608
13606
13608
13585
13569
13591
13625
13649
13699
13806
13942
14086
14273
14524
14799
15068
15349
15643
15905
16118
16312
16494
16630
16715
16784
16841
16853
16822
16791
16764
16703
16620
16556
16506
16434
16352
16298
16263
16213
16165
16148
16137
16101
16061
16046
16031
15988
15940
15915
15882
15818
15754
15713
15667
15601
15545
15517
15487
15446
15425
15433
15432
15412
15408
15428
15435
15425
15432
15454
15456
15444
15450
15464
15451
15419
15410
15414
15393
15359
15347
15341
15308
15269
15253
15234
15182
15131
15107
15081
15030
14979
14948
14911
14849
14799
14778
14753
14711
14688
14685
14666
14622
14596
14592
14568
14524
14501
14498
14473
14429
14404
14399
14373
14330
14305
14289
14248
14202
14183
14175
14146
14117
14116
14125
14113
14105
14121
14131
14111
14089
14087
14078
14044
14018
14018
14010
13978
13956
13954
13933
13887
13859
13863
13857
13833
13829
13841
13830
13796
13783
13791
13789
13784
13818
13882
13943
14019
14154
14340
14547
14785
15071
15373
15648
15910
16177
16418
16605
16763
16915
17028
17083
17112
17137
17126
17073
17015
16968
16904
16817
16742
16683
16609
16520
16457
16420
16374
16325
16310
16318
16309
16284
16273
16261
16214
16149
16101
16057
15986
15909
15862
15824
15758
15690
15654
15627
15582
15547
15544
15544
15524
15519
15545
15566
15563
15565
15585
15592
15575
15573
15593
15596
15570
15555
15559
15547
15515
15500
15498
15470
15421
15388
15365
15320
15264
15229
15194
15130
15056
15009
14973
14918
14867
14842
14820
14779
14746
14742
14737
14710
14689
14686
14667
14617
14576
14559
14535
14492
14464
14462
14447
14409
14388
14390
14377
14349
14341
14350
14338
14314
14318
14336
14323
14291
14281
14281
14254
14219
14211
14207
14178
14145
14137
14134
14108
14085
14092
14098
14072
14043
14036
14022
13984
13954
13948
13937
13914
13918
13965
14023
14089
14203
14368
14546
14734
14965
15236
15503
15759
16027
16287
16494
16658
16812
16940
17008
17034
17057
17063
17028
16973
16930
16880
16801
16723
16673
16624
16552
16483
16440
16397
16335
16285
16258
16223
16167
16125
16105
16069
16002
15943
15901
15838
15756
15698
15664
15615
15557
15524
15510
15480
15445
15443
15458
15451
15435
15447
15471
15475
15476
15504
15532
15534
15532
15549
15558
15537
15516
15515
15503
15460
15422
15403
15372
15318
15279
15263
15231
15174
15132
15110
15073
15017
14978
14954
14907
14844
14806
14787
14748
14699
14674
14661
14624
14580
14564
14562
14542
14517
14513
14513
14490
14469
14476
14481
14459
14439
14440
14434
14403
14379
14381
14376
14343
14316
14307
14282
14234
14202
14194
14170
14128
14109
14114
14102
14077
14080
14097
14088
14060
14054
14069
14073
14083
14134
14213
14292
14394
14554
14753
14960
15195
15474
15752
15991
16212
16432
16620
16755
16869
16979
17054
17081
17094
17105
17080
17014
16949
16897
16829
16742
16674
16628
16568
16497
16455
16439
16406
16361
16338
16327
16291
16239
16206
16176
16114
16043
15998
15955
15883
15807
15761
15720
15657
15601
15579
15564
15541
15535
15564
15589
15593
15607
15645
15673
15677
15687
15714
15727
15719
15721
15734
15722
15687
15667
15661
15630
15580
15545
15517
15464
15398
15354
15323
15275
15224
15202
15185
15139
15090
15064
15036
14982
14934
14915
14892
14844
14803
14788
14766
14720
14684
14675
14660
14625
14607
14616
14609
14575
14551
14545
14518
14473
14451
14450
14427
14388
14371
14369
14348
14315
14309
14314
14293
14262
14254
14255
14233
14209
14214
14220
14196
14173
14177
14185
14176
14187
14247
14330
14420
14554
14753
14983
15221
15495
15807
16111
16383
16649
16901
17093
17230
17353
17461
17519
17534
17546
17556
17528
17473
17430
17389
17321
17242
17187
17143
17077
17012
16983
16962
16922
16889
16887
16880
16840
16799
16785
16756
16688
16617
16565
16500
16409
16329
16272
16208
16126
16066
16038
16011
15978
15971
15988
15988
15970
15973
15993
15989
15974
15987
16014
16015
16004
16015
16031
16019
16001
16008
16011
15981
15947
15939
15927
15886
15845
15824
15793
15731
15674
15641
15599
15529
15468
15432
15389
15329
15290
15276
15248
15202
15179
15177
15155
15118
15104
15105
15080
15041
15029
15030
15008
14970
14953
14942
14903
14856
14834
14817
14782
14755
14755
14753
14726
14705
14708
14702
14671
14649
14652
14646
14611
14580
14565
14532
14479
14450
14447
14435
14415
14427
14480
14540
14614
14745
14932
15139
15376
15672
16004
16323
16624
16928
17215
17442
17621
17785
17917
17991
18031
18067
18076
18039
17990
17959
17922
17856
17793
17751
17696
17616
17554
17529
17504
17468
17454
17469
17470
17444
17428
17423
17386
17321
17271
17230
17157
17059
16979
16913
16825
16731
16671
16625
16562
16500
16472
16459
16428
16406
16423
16445
16442
16446
16478
16505
16504
16506
16528
16537
16512
16492
16492
16479
16439
16410
16398
16364
16308
16268
16246
16204
16144
16105
16084
16040
15978
15937
15913
15867
15810
15780
15758
15704
15637
15593
15558
15504
15455
15440
15430
15395
15365
15363
15360
15335
15311
15308
15294
15250
15212
15200
15183
15148
15128
15129
15112
15069
15042
15038
15021
14989
14980
14992
14983
14955
14951
14962
14949
14922
14917
14916
14881
14831
14803
14785
14747
14705
14690
14681
14654
14637
14655
14686
14713
14774
14895
15054
15240
15478
15778
16094
16402
16729
17073
17386
17640
17862
18056
18191
18269
18334
18394
18410
18384
18358
18332
18272
18189
18124
18065
17980
17886
17820
17773
17710
17650
17624
17607
17568
17525
17508
17492
17449
17402
17373
17326
17244
17163
17105
17041
16957
16883
16836
16784
16712
16656
16623
16583
16535
16516
16529
16535
16529
16543
16569
16575
16567
16580
16610
16614
16604
16616
16633
16617
16589
16584
16580
16545
16510
16501
16484
16430
16371
16329
16277
16198
16132
16096
16053
15987
15934
15906
15864
15799
15751
15730
15701
15655
15624
15612
15580
15530
15500
15492
15471
15442
15438
15445
15424
15385
15368
15365
15342
15314
15311
15315
15294
15267
15263
15255
15217
15182
15174
15165
15134
15110
15109
15096
15059
15032
15031
15019
14981
14949
14937
14914
14878
14863
14873
14874
14866
14889
14948
15015
15105
15261
15481
15724
15987
16294
16623
16925
17209
17500
17765
17961
18107
18239
18339
18382
18396
18407
18386
18318
18242
18182
18111
18017
17938
17887
17824
17739
17669
17629
17582
17518
17474
17452
17410
17345
17301
17277
17226
17150
17089
17037
16958
16865
16797
16747
16684
16619
16583
16561
16522
16486
16487
16499
16492
16488
16516
16549
16561
16576
16615
16642
16640
16641
16663
16670
16643
16616
16605
16572
16508
16456
16428
16388
16329
16288
16261
16208
16140
16098
16081
16047
15999
15975
15964
15930
15886
15864
15845
15794
15732
15692
15658
15605
15558
15545
15540
15511
15485
15484
15477
15444
15420
15421
15412
15378
15352
15347
15329
15288
15264
15265
15250
15212
15188
15180
15150
15106
15086
15084
15061
15026
15017
15018
14994
14957
14941
14931
14899
14865
14867
14878
14862
14842
14846
14856
14851
14870
14943
15046
15161
15332
15584
15877
16184
16526
16901
17254
17555
17840
18110
18320
18460
18575
18671
18712
18702
18690
18676
18623
18544
18478
18421
18339
18245
18179
18131
18066
18000
17965
17943
17899
17851
17831
17815
17770
17723
17702
17670
17599
17522
17463
17391
17294
17206
17144
17074
16990
16932
16912
16883
16836
16811
16816
16812
16798
16812
16843
16848
16835
16842
16865
16867
16857
16870
16891
16880
16852
16845
16844
16815
16776
16753
16724
16661
16594
16554
16515
16455
16405
16379
16346
16285
16231
16200
16161
16103
16063
16047
16014
15957
15916
15900
15868
15812
15771
15750
15710
15660
15635
15623
15585
15535
15514
15514
15494
15462
15452
15450
15421
15388
15383
15381
15353
15321
15315
15314
15293
15283
15305
15317
15296
15280
15285
15280
15250
15229
15231
15217
15178
15153
15145
15117
15064
15028
15012
14980
14938
14926
14930
14908
14877
14881
14912
14939
14979
15073
15224
15403
15630
15929
16268
16606
16952
17315
17656
17941
18193
18431
18621
18743
18825
18890
18914
18887
