27310
28094
29668
28861
27988
29317
29930
28436
28336
30387
30277
27640
27312
29443
29653
28356
28846
29821
29125
28958
30270
30086
28206
27954
29518
29920
28911
29197
30726
30816
29839
30002
30234
28913
28119
29602
30674
29513
28978
30307
30466
29070
29432
31135
30308
28208
29052
30571
29203
28468
30598
31456
29874
29564
30731
30263
28785
29259
30561
30032
29143
30182
31291
30282
29293
30310
30740
29181
28753
30394
30712
29016
28908
30878
30883
29007
29551
31320
30160
28542
29977
31044
29274
28744
30733
31022
29310
29315
30310
29268
28214
29879
30882
28851
28116
30322
31010
29264
28600
29359
29098
28138
28517
29310
28430
27344
28274
29539
28788
27806
28584
28796
27439
27767
29560
29112
27568
28429
29913
28804
27189
27953
28758
27623
27369
28959
29033
27286
27382
29203
28937
27312
28127
29913
29100
27696
28548
29077
27365
26857
28908
29827
28459
27657
28105
28076
27828
28902
30011
29036
27804
28807
30021
29063
27986
28875
29612
28916
29185
30510
29895
28153
28735
30437
29505
27544
28338
29772
28971
28818
30470
30234
28264
28749
30818
29955
27596
28439
30218
28814
27473
29236
30271
28770
28506
30102
30107
28819
29008
29609
28607
27971
29702
31171
29688
28159
29471
30404
28444
27265
28939
29732
28239
28144
29855
29804
28568
29294
30346
28872
27352
28669
29843
28342
27561
29226
29735
28246
28141
29395
28607
26638
27326
29291
28599
26903
27520
28778
28235
27769
28890
28961
27401
27614
28933
27954
26605
27571
28295
27206
26636
26947
26449
26079
27260
28546
28179
26899
26873
28257
28419
27250
27655
28753
27758
26836
28094
28326
26520
26825
29274
29301
27290
27303
28624
28164
27284
28442
29239
27481
26472
28283
29536
28507
27816
28494
28527
27995
28914
29981
28851
27599
28503
29400
28447
27775
28928
29752
28916
28528
29386
29432
28408
28542
29688
29188
27592
28103
29837
29637
28470
28834
29493
28593
28098
29590
30034
28251
28063
29954
30009
28669
29259
30265
29046
28210
29788
30464
28803
28470
30305
30448
28557
28703
30637
30322
28700
29512
31117
30046
28319
29142
30246
29287
28918
30221
30363
29366
29596
30238
29323
28154
28798
29917
29407
28748
29848
30805
29642
28795
29988
29766
27207
27155
29682
29406
26869
27163
29492
29395
27768
28094
28789
27603
27250
29074
29677
28297
28152
29319
29065
28273
29162
29929
28602
27451
28363
29072
27963
27569
29068
29598
28451
28475
29630
29133
27739
28313
29457
28603
27989
29725
30726
29037
27968
29346
29925
28632
28869
30611
30228
28586
29159
30657
29901
28620
29488
29962
28521
28784
30532
29618
27795
28938
30583
29583
28120
28482
29263
29268
29279
29747
29898
29282
29047
29794
29674
28420
28469
29460
29011
28508
30084
31224
29510
28073
29487
30565
28991
27850
29198
30440
29880
29430
29751
29507
29540
30876
31130
29021
27748
29206
30126
28645
28199
30132
30586
28738
28731
30713
29985
27332
27953
30105
29217
28069
29589
30387
29010
28730
29915
29616
28235
28676
30011
29508
28459
29379
30658
29765
28435
28950
29185
27681
27353
29100
29628
28333
28373
29905
29782
28516
29128
30254
29226
28238
29296
29566
27926
27923
29943
30299
29099
29290
30020
28979
27679
28441
29409
28325
27479
28927
30017
29044
28749
30165
30185
28792
29406
30659
29314
28111
29615
30611
29305
28658
29808
30120
28969
28893
30068
30090
29084
29375
30612
30378
29256
29551
30042
29165
29074
30435
30291
28579
28708
30557
30556
28879
28706
29707
29555
29037
29569
29768
28954
29099
30185
30040
29143
29297
29926
29787
29160
29207
29967
30021
29373
29630
30086
29020
28187
29545
30511
29423
29116
30056
29412
28180
29199
30581
29236
27444
28522
29974
28945
28268
29632
29955
28640
28917
30549
29953
27855
28221
30058
29743
28491
29010
29603
28372
27803
29352
29562
27440
27144
29037
28846
27050
27660
29423
28588
26851
27330
28189
27286
26655
27666
28092
27016
27014
28564
28763
27539
27659
28415
27318
26084
27197
28122
26823
26562
28559
29137
27684
27495
28576
28033
26706
27502
28732
27566
26444
27805
28920
27805
27166
28368
28493
26992
27188
28597
27776
26162
27219
29030
28171
26673
27704
28983
27912
26884
27648
27860
26836
27195
28791
28364
26616
27126
28729
28153
27132
28200
28876
27289
26739
28611
29191
27407
26740
27786
27638
26504
26989
27998
27327
26849
28098
28682
27676
27387
28056
27478
26584
27901
29155
27502
26250
28086
29403
27786
26554
27862
28841
27751
27212
28293
28373
26828
26598
28252
28600
27306
27407
28199
27277
26639
27936
28394
27157
27221
28596
27990
25892
25786
27478
28100
27522
27483
27566
26574
26200
27723
28195
26102
25138
26805
27307
25594
25424
26990
26648
25175
26057
27660
26670
25254
26401
27342
25828
25358
27304
27789
26207
26191
27555
26763
24845
25477
26948
26116
25468
26969
27623
26443
26330
27354
26664
24943
25381
26962
26671
25762
26676
27681
26647
25774
27005
27587
25955
25326
26911
27437
26033
25849
27439
27718
26624
26865
27556
26478
25567
26520
26709
25235
25396
27340
27565
26387
26692
27560
26726
25640
26544
27617
26462
25291
26600
27905
26853
25973
26980
27055
25747
26326
27697
26492
25131
26571
27927
26830
26031
27195
27583
26297
26319
27634
27200
25864
26633
28153
27344
25666
26188
27529
27184
26288
26169
25796
25356
26533
28129
27232
25237
25681
27268
26761
25589
26299
27079
25959
25386
26836
27273
25590
25013
26167
26039
24858
25537
26792
25800
24687
25921
26825
25344
24276
25461
26234
25325
25303
26340
25748
24538
25631
27203
25806
23689
24719
26522
25753
24950
25994
26179
25045
25416
26742
25988
24439
25383
26886
26014
25300
26729
27172
25537
25262
26793
26698
25182
25502
26989
26594
25181
25722
27331
27034
26096
27158
27924
26090
25033
26802
27490
25513
25169
27461
27975
26321
26539
27885
26594
24746
26124
27646
26164
25424
27293
27910
26633
26602
27423
26625
25587
26778
28083
26800
25556
27096
28667
27564
26490
27654
28034
26397
26339
27792
27000
25230
26094
27685
26792
25775
27284
28124
26364
26019
28145
28297
26286
26393
28166
28009
26811
27003
27385
26648
26303
27200
27559
26362
25775
27005
27499
26207
25937
27242
27258
26092
26498
27530
26932
26416
27307
27424
26222
25789
26619
27130
26743
26714
27388
27073
25753
26040
27757
27300
25256
25827
27855
27531
26527
27165
27357
26301
26597
28083
27486
25586
26230
27972
27197
26039
27087
27656
26405
26287
27751
27889
26691
26531
27318
27357
26818
27275
28381
27874
26591
27420
28636
27331
26301
27844
28423
26853
27007
28691
28197
27006
28324
29488
27509
25788
27403
28750
27416
26986
28321
28094
27099
28029
29075
28021
27001
28056
29035
27996
27226
28551
29610
28573
27839
28906
29016
27522
27797
29364
28749
27453
28620
30057
28879
27482
28356
28888
27512
27250
28578
28235
26792
27512
29204
28944
28100
28463
28366
27211
27198
28499
28555
27052
27016
29021
29690
28129
27272
27726
27477
27051
28142
28894
27542
26856
28479
29218
27589
26602
27575
27911
27024
27465
28779
28168
26824
27480
28717
28061
27053
27784
28378
27408
27300
28575
28436
27073
27549
29180
28504
26599
27282
29060
28662
28004
28884
28689
27030
27322
29223
28776
26755
27224
29136
28768
27375
28049
29225
28469
27984
29417
29589
27286
26431
28243
28979
27779
27925
29252
28778
27668
28471
29256
27934
26900
28151
29144
28300
28179
29287
28878
27521
28083
29476
28797
27454
28286
29475
28623
28188
29813
30463
28892
28350
29674
29358
27323
27693
29769
29368
27760
28583
30154
29432
28253
29010
29599
28430
27889
28914
29162
28333
28720
30006
29665
28638
29383
30061
28524
27578
28999
29416
27645
27488
29400
29537
28097
28391
29475
28586
27375
28465
29533
28011
26834
28434
29625
28314
27511
28714
28927
27532
27548
28403
27359
26442
28043
29257
27743
26575
27937
28740
27457
27393
28922
28512
26669
26988
28703
28510
27304
27762
28317
27168
26817
28382
28832
27527
27483
28879
28838
27646
27755
28420
28003
27931
29037
29075
27659
27677
29149
29155
28111
28417
29241
28721
27838
28465
29502
28643
27261
28152
29456
28206
26920
28328
29179
27850
28146
29862
28904
26998
27986
29604
28496
26825
27463
28468
27762
27467
28699
28983
27859
28139
29640
28852
26588
27107
28994
28274
27035
28164
28995
27814
27597
29067
28917
27138
27145
28512
28284
27491
28435
29385
28569
28191
29173
29022
27600
27507
28747
28913
27763
27771
29319
29601
28186
27823
28470
27631
26241
27101
28700
28088
26968
27803
28683
27863
27369
28264
28228
26959
27233
28514
27603
25856
26811
28672
27541
25556
26536
27722
26332
26036
27858
27604
25730
26192
27769
27303
26348
27144
27649
26358
25796
27152
27654
26203
25920
27901
28506
26882
26719
27974
27384
26300
27316
27945
26437
26406
28758
28807
26005
25504
27692
27843
26301
27029
28154
26440
25321
27486
28886
27337
26493
28007
28700
27620
27713
28843
27939
26265
27281
29192
28131
26067
26871
28288
27321
26740
27984
28045
26929
27428
28450
27432
26031
26820
28125
27839
27526
28450
28606
27129
26919
28922
29179
26728
26109
28052
28411
27213
27619
28417
27228
26536
28178
28668
26619
26159
28222
28433
26375
26410
28220
27839
26483
27413
28425
26858
25740
27291
27773
25891
25934
27842
27368
25829
26591
27623
26506
25505
26553
27437
26415
25655
26663
27293
26259
25908
27082
26810
25048
25464
26975
25852
24286
25669
27271
26277
25455
26736
27008
25232
24926
26447
26299
24901
25612
27449
27241
26182
26597
26936
25820
25302
26343
26653
25443
25351
26955
27324
26057
25906
26899
26689
25759
26247
26978
25887
24937
26274
27573
26699
25741
26420
26743
25875
25970
26761
26072
25427
27018
28454
27041
25196
25905
27138
26693
26580
27378
26604
24887
25330
27031
26677
25196
25726
27005
26573
26200
27413
27729
26134
25717
27333
27526
25837
25918
27669
27637
26553
27235
28182
27169
26427
27602
28111
26659
25654
26421
27329
27163
27037
27484
27185
26490
27262
28230
27047
25728
26795
27683
26564
26418
27745
27310
25846
26554
27868
26637
25297
26884
27869
25862
25324
27150
26645
24655
25717
27783
26563
24631
26001
27758
26325
24786
26199
27526
26347
25643
26944
26843
24815
24833
26728
26429
24714
25602
27885
27542
26027
26713
27427
25762
25018
26770
26956
24993
25402
27711
27522
25977
26509
27398
26297
25411
26517
26970
25551
25359
26955
27217
26338
26827
27664
26711
25758
27129
28571
27506
26342
27424
28391
27265
26448
27579
28058
26904
27010
28256
27695
26388
27086
28380
27913
26861
26931
27273
27249
27684
28368
28086
27187
27448
28701
28499
27191
27589
28605
27620
26866
28391
28987
27366
27266
29049
29105
27705
27659
28482
28400
27865
28114
28537
27965
27545
28597
29238
27933
27027
28173
28740
27537
27522
29027
28832
27376
27777
29078
28148
26290
26978
28953
28769
27328
27079
27239
26737
27228
28837
28366
26105
26323
28145
27574
26447
27772
28719
27130
26404
28031
28140
25960
25729
27654
27709
26452
27361
28867
27668
26121
27273
28412
27141
26399
27654
27694
25983
26273
28393
28430
26914
27066
27845
26918
26002
27189
28227
27146
26562
28013
28667
27457
26984
27777
27418
26307
27056
28312
27421
26483
27727
28950
28443
27882
28122
27763
27010
27654
28715
27974
26694
27438
28939
28326
26930
27533
28193
27044
27103
29054
28920
26849
27116
29093
28684
26953
27458
28751
28108
27441
28601
29044
27377
26788
28414
28958
27747
27650
28363
27444
26471
27946
29173
27707
26942
28714
29256
27375
26746
28361
28964
27917
28095
29303
28750
27443
28025
29055
28119
27076
28146
28990
27889
27670
29056
28757
26883
27226
29221
28528
25962
26271
28412
28184
27037
27896
28433
26639
25832
27814
28576
26418
25420
27034
27772
26802
26856
27747
26977
26022
27260
27685
25088
24087
26800
27931
25915
25685
27385
27092
26209
27341
27869
26032
24916
26166
26839
25672
25710
27551
27700
25975
25930
27290
26577
24986
26077
27551
26152
25211
27139
28171
26665
26151
27515
27454
25766
25798
27217
26931
25750
26374
27731
27538
26925
27426
27395
26166
26135
27530
27479
25822
25763
27609
27897
26481
26575
27402
26393
25779
27365
27677
25741
25820
27988
27887
26064
26210
27375
26797
25829
26849
27980
26837
25849
27419
28675
27218
25924
26977
27662
26706
26857
28084
27525
26325
27210
28501
27654
26588
27349
27491
26093
26508
28198
27247
25330
26301
28041
27207
25731
26108
26600
26065
26530
27838
27113
25004
25206
27321
27284
25101
24464
25672
26157
25847
26171
26466
25721
25449
26440
26517
25150
24883
25935
25809
24764
25283
26383
25522
24559
26121
27495
25794
24091
25314
26374
25305
25343
26775
25985
24091
24967
27008
26316
24521
25102
26115
24993
24484
26140
26643
25125
24956
26448
26265
24642
24889
26104
25451
24680
26136
27291
25924
24880
26156
26623
24994
24790
26548
26594
25003
25301
26916
26555
25338
25936
26336
24750
24502
26761
27164
24874
24677
27010
27510
26318
26645
27193
25665
24728
26533
27430
25578
25134
27062
27244
25737
25985
27133
26317
24936
25726
26963
25947
24824
26261
27822
26615
25080
26038
27040
26067
25791
26889
26611
25505
26266
27532
26605
25352
26316
26925
25363
25116
27109
27256
25362
25313
26653
26211
25176
25834
26397
25395
25107
26468
26706
24955
24501
26275
26870
25418
24861
25615
25414
24614
25262
26064
24891
23896
25357
26510
24880
23265
24161
25033
24190
24212
25581
25557
24556
24911
25491
24272
23064
24168
25611
25105
24451
25073
25246
24537
24913
26008
25257
23668
24452
26037
25314
24265
25130
25529
24276
24371
26269
26121
23948
24082
25987
25637
24462
25676
26713
25095
24231
25860
26412
24914
24674
26119
26209
24757
24962
26862
26914
25217
25293
26537
25689
24161
25175
26753
26170
25712
26890
27049
25791
25918
27082
26318
24679
25334
26565
25573
24899
26536
27449
26266
25950
27127
26788
25225
25843
27397
26435
24949
26070
27471
26583
25788
26856
27029
25294
24823
26290
26646
25626
26004
27380
26826
25438
26228
27392
26130
24995
26490
27584
26035
25010
26224
26787
25681
25210
25667
25487
25218
26057
26443
25255
24914
26349
26511
24636
24016
25469
25833
24732
25095
26123
24906
23289
24123
25648
25528
24799
24856
25075
24968
25341
26034
25582
24287
24758
26666
25908
23152
23766
26413
25884
24292
25305
25961
24394
24299
26445
26731
24873
24742
26300
26479
25926
26695
27034
25365
24574
26132
26723
25210
24934
26554
26798
25375
25427
26702
26364
25429
26255
26965
25527
24454
25745
26618
25552
25468
26789
26429
25050
25713
27118
26199
24680
25730
27301
26401
25326
26368
27255
26539
26373
27220
26604
24996
25663
27629
27468
26364
27258
28601
27780
26640
27344
27405
25625
25479
27350
27396
26077
26863
28379
27703
26864
27839
28023
26412
26302
28336
28724
26584
25908
27726
28233
26669
26363
27357
26913
26000
26850
27223
25511
25083
26925
27466
26289
26032
26505
25972
25277
26046
27045
26274
25093
25729
26876
26258
25347
26251
26970
25882
25544
26662
26433
25061
25575
27242
26727
24991
25485
26854
26161
25306
26401
27140
26182
25908
26964
26888
25623
25557
26435
26392
26049
26674
27117
26365
26239
27457
27431
25772
25641
27030
26674
25368
26489
28259
27335
26106
27351
28296
26786
25727
27144
28374
27733
27413
27984
27474
26602
27256
27912
26703
25780
27149
28189
26954
26360
27808
28232
26895
27270
29334
28560
25669
26148
28492
27751
26555
28191
28812
26695
26272
28249
28277
26448
26655
28259
27920
26740
27685
29249
28510
27281
28048
28605
27283
26868
28281
28313
26685
26913
28626
28445
27282
27744
28315
27104
26059
26958
27688
26547
25911
27310
28223
27373
26946
27540
27017
25810
26507
27777
26700
25240
26229
27537
26582
25539
26515
26959
25560
25480
26994
26677
25069
25446
26963
26839
25988
26350
26454
25358
25335
26579
26215
24553
24947
26944
26827
25141
25384
26537
25846
25242
26591
27065
25621
25638
27198
26883
25422
25829
26952
26426
25645
26597
27437
26236
25412
26915
27933
26483
25228
26064
26766
26269
26650
27591
26683
25347
26323
27737
26561
24839
25785
27374
26902
26376
27093
26880
25711
25966
26852
25837
24509
25814
27506
26635
25702
26902
27424
25935
25694
27409
27212
24907
24836
26959
27218
26026
26640
27835
26800
25541
26474
27107
25705
25212
26689
26998
25797
26256
27686
26977
25651
26427
27296
26164
25307
26412
26936
25668
25563
27265
27543
26253
26403
27422
26305
24500
25354
26821
25894
25248
26911
27633
26025
25375
26461
26034
24277
24815
26543
25824
24456
25491
26468
24887
23740
25252
26129
24621
24109
25664
25745
23770
23572
25804
26635
25282
24672
24985
24535
24427
25562
25485
23431
22983
25160
26089
24687
24283
25288
24914
23784
24706
25967
24395
22623
24337
26577
25458
23796
24849
25639
24395
24477
25758
24872
23638
24966
26484
25899
25090
25406
25295
24419
24623
25521
25022
24025
24904
26648
26497
24976
24556
24915
24930
25514
26296
25396
24040
24685
25926
25370
24397
24834
25581
25561
25434
25614
25483
24747
24700
25925
26400
25289
24996
26318
26733
25478
25140
26233
26095
24895
25579
27051
26039
24444
25542
26714
25520
25271
27057
27028
25227
25559
27139
25949
23671
24621
26568
25583
24403
25678
26258
24783
24757
26682
26626
24522
24442
25804
25004
23628
24819
26369
25460
24189
24676
24959
24032
24103
25335
25220
23986
24325
25879
25863
24737
24796
25083
24038
23426
24428
24783
23549
23447
25032
25070
23400
23495
24861
24072
22642
23955
25390
23908
22866
24492
25318
24058
23760
24945
24893
23689
23927
24911
24171
23191
24405
25781
24711
23458
24233
24238
22690
23624
26104
25207
22933
23981
26043
25334
23854
24275
25019
24627
24417
24849
24692
24214
24675
25267
24602
23943
24619
25070
24300
24091
25062
25160
23919
23749
25037
25362
24355
23931
24571
25215
25280
25299
25484
24997
24311
25086
26054
24811
23308
24277
25351
24556
24575
25802
25177
23675
24530
26115
25143
23587
24737
26223
25065
24020
25262
25812
24355
24112
25698
25461
23392
23628
25597
25317
23809
24262
25206
24377
23835
25036
24960
22910
22802
24668
24472
23057
23843
24923
23635
22850
24459
24990
23084
22336
23820
24251
22986
23151
24749
24782
23868
24477
25078
23594
22427
23858
25078
23733
22723
24013
24790
23838
23757
24688
23757
22096
23250
25122
24111
22950
24316
25266
24218
24027
25373
25355
23729
23458
24583
24555
23754
24443
25775
25395
24548
25363
25581
23845
23715
25609
25376
23753
24613
26280
25780
25225
26085
26088
24918
24761
25727
25897
24740
24373
25823
26477
25191
24980
26475
26490
25250
25866
27041
26108
25309
26573
27077
25554
25009
26413
26844
25923
26442
27622
26768
25697
26700
27692
26931
26129
26529
26938
26574
26425
26841
26673
25762
25996
27506
27335
25496
25613
26984
26447
25746
26838
27123
25913
26174
27597
26985
25120
25157
26491
26621
25984
26204
26585
26046
25968
26986
26833
25141
24861
26408
26807
25640
25530
26290
25596
24680
25863
26966
25446
23945
25144
26224
25095
24807
26392
26751
25712
25742
26386
25842
25172
25941
26554
25610
25231
26519
27074
25991
25737
26880
26694
25149
25474
27187
27049
25859
26342
27354
26681
25928
26897
27236
25778
25623
27254
27233
25738
26165
27787
27441
26390
27228
28120
26991
26045
27072
27643
25998
25270
27486
28794
27157
26707
28366
27740
25644
26612
28135
26360
25164
27321
28525
26989
26369
27532
27454
26263
26766
27710
26478
25529
27204
28370
26792
25636
27050
28137
27232
27137
28639
28863
27548
27489
28512
27828
26286
26910
28104
27372
27006
28132
27860
26579
27486
29255
28808
27630
27908
28368
27990
27913
28437
28291
27215
27072
28345
28571
27152
26783
27844
27752
26655
27136
28310
27467
26123
26971
28067
26893
25601
26574
27591
26816
26433
27190
26963
26352
27573
28821
27164
25085
26048
27263
26249
26377
27943
27122
25644
27267
29030
27327
25127
25873
27513
27387
26684
27128
27694
27135
26920
27983
27866
26150
26183
27739
27303
25998
27199
28992
28105
26880
27957
28486
26602
25817
27714
28579
27062
26868
28774
29062
27424
27109
27821
27077
26188
27395
28484
27491
27033
28154
28172
27104
27324
28151
27493
26454
27076
27919
27048
26465
27970
29162
28006
26812
27503
27870
26925
27327
28838
28271
26524
26969
28574
28140
26930
27780
28743
27671
27219
28501
28247
26239
26285
28343
28516
27053
27252
28076
27094
26496
27774
27685
25734
26057
28361
28494
27002
26809
27225
26826
26591
27424
27877
26590
25563
27043
28828
27940
26067
26151
26995
26654
26427
26988
26528
25352
25771
27098
26636
25347
26020
27188
26483
25827
26423
26162
25163
25793
27085
26285
24741
25454
26690
25856
25120
26210
26534
25262
25417
27159
26876
24781
24766
26488
26476
25375
25867
26642
25621
25057
26633
27301
25441
24303
25687
26836
26026
25718
27071
27331
25955
25953
26939
25845
24288
25434
26625
25307
24943
26889
27245
25656
25679
27018
26524
24978
25572
27256
26734
25262
25939
27285
26447
25431
26815
27737
26057
25277
26558
26372
24844
25577
27700
27417
25576
25587
26387
25745
25524
26782
26866
25546
25944
27814
27753
26213
26182
26732
25850
25598
27272
27678
25736
25210
26857
27007
25438
25317
26249
25783
25160
26456
27337
25702
24601
26023
26858
25610
25042
25964
25778
24589
25162
26393
25379
24128
25498
27082
25994
24496
25196
25928
24971
24810
25958
25674
24386
24777
25873
25154
23798
24235
25393
25331
24931
25331
25373
24352
24131
25458
25704
24200
23948
25231
25267
24469
25151
26098
25212
24498
25758
26091
24094
23539
25406
25726
24461
25230
26413
24944
23938
25758
26511
24416
23430
25266
26327
25065
24687
26040
25972
24416
24565
26104
25955
24867
25650
26741
25670
24706
25675
26243
25503
25701
26670
25728
23856
24439
26043
25424
24485
25768
26890
25927
25383
26484
26486
24883
24678
26043
26246
25516
26157
27229
26312
25130
26209
27017
25300
24509
26418
26993
25169
25117
26934
26911
25788
26154
26601
25552
24773
25603
26163
25060
24490
25946
26786
25564
25256
26897
26842
24558
24258
26018
25857
24407
24937
26226
25594
24762
25782
26123
24488
24324
26051
25904
24305
24950
26820
26375
25010
25823
26602
25056
24464
26314
26661
24798
24906
27055
26919
24767
24585
25894
25659
24937
25774
26286
25073
24897
26613
26761
24800
24413
26055
26448
25450
25831
26894
26202
25346
26408
27191
25949
25038
26100
26911
26291
26355
27239
26586
25306
26190
27865
27054
25249
25936
27548
27212
26653
27230
26968
25955
26486
27687
26980
25608
26322
27597
27103
26605
27480
27410
25782
25767
27855
28206
26363
26184
27699
27529
26476
27402
28580
27296
26099
27528
28462
26760
25959
27737
28498
27181
27245
28709
28286
27031
27954
29204
28068
26775
27805
28660
27429
27027
28589
28986
27940
28357
29477
28147
26088
27121
29057
28159
27019
28453
29662
28658
27961
28759
28757
27542
27558
28653
28395
27333
27876
29141
28534
27342
28125
28682
27085
26747
28859
29245
27198
26694
28085
28315
27657
27872
27685
26301
26180
28101
28929
27314
26497
27993
28772
27717
27462
28259
27726
26510
27165
28323
27381
26352
27682
28938
27876
26877
27749
28125
27139
27456
28811
28420
27581
28768
29991
28805
27343
28103
29192
28754
28668
29533
29182
27970
28458
29871
29334
27928
28536
29373
28185
27686
29232
29405
27712
28077
30371
30115
27772
27978
30053
29823
28287
28794
29873
28948
28124
29151
29404
28010
27985
29586
29719
28563
29148
30502
29528
28165
29626
31082
29243
27524
29144
30337
28830
28671
30457
29978
28150
28969
30661
29458
27655
28821
30156
28837
28296
30018
30382
29117
29249
30103
29475
28662
29456
30332
29693
28819
29162
29670
28998
28554
29603
29799
28214
27975
29355
29062
27714
28440
29901
29247
28408
29542
29911
27913
26978
28524
29070
27578
27613
29479
29337
27575
28096
29704
28600
26852
28102
29475
28039
27267
28884
29388
28331
28522
29260
28255
27231
28460
29293
27288
25976
28120
29991
28636
27656
29525
30173
28038
27758
29493
28820
27136
28120
29433
28408
27660
28801
29046
27796
27988
29516
29313
27841
28279
30005
29712
28214
28471
29251
28356
27741
28968
29437
27961
27703
29439
29632
27876
27667
29076
29132
28342
29049
29540
27762
26661
28358
29539
28247
27520
28815
29235
28218
28539
29376
28316
27626
29012
29484
27948
27377
28618
29190
28529
28726
29826
29582
28056
27985
29380
28973
27191
27745
29288
28606
28122
29743
29905
27784
27680
29834
29606
27097
26854
28666
28622
27202
27636
28930
28162
27069
28277
29161
27426
26386
27841
28323
26959
27252
28874
28519
27391
27990
28385
26935
26164
27474
28053
26846
26829
28269
28128
27010
27675
28810
27748
26298
27247
28457
27264
26217
27572
28674
27687
27183
28293
28075
26132
26157
28129
28190
26604
27019
28962
28914
27493
27609
27799
26458
26675
29058
29270
27151
27195
29234
29230
27706
27745
28353
27511
26899
27990
28465
26819
26092
28024
29132
27762
27360
28538
27979
26796
28321
29619
27596
26310
28135
29082
27820
27436
28294
28038
27243
28041
28864
27492
26322
27593
28893
28233
27561
28136
28066
27007
27352
28696
28295
26921
27453
29035
28713
27323
27642
28587
28164
27874
28654
28473
27218
27572
29245
28854
27000
27362
28891
28317
27397
28492
28887
27066
26870
29209
29323
26461
25643
27621
28039
26758
27243
28267
27166
26493
28062
28514
26675
25909
27202
27639
26607
26736
27877
27286
25940
26785
28174
26705
24530
25465
27111
26222
25553
26846
26979
25552
25857
27521
27197
25477
25565
26666
26074
25010
25964
27343
26553
25523
26820
27822
26270
25288
26548
27052
26160
26598
27895
27279
25979
26531
27158
25855
25053
26610
27803
26683
26064
27516
27921
26385
26344
27618
26561
24765
26121
27797
26329
25349
27271
28303
27064
26667
27523
27144
26237
27213
28208
26712
25419
26533
27254
26043
25624
26925
27165
25855
25900
27338
27291
26005
26169
27346
27064
26187
26893
27360
25981
25644
27436
27813
26028
25788
27582
27745
26229
26383
27610
27163
26413
27374
27845
26346
25944
27724
28091
26356
26150
27453
26831
25333
26371
27845
26604
25548
27128
27954
26208
25196
26354
26771
25825
26267
27461
26532
25195
26260
27468
26065
24423
25321
26575
25835
25213
26095
26179
24947
25277
27171
26875
24564
24500
26204
26003
25029
25840
26488
25323
25033
26629
26595
24521
24542
26500
26308
24836
25500
26522
25252
24530
26333
26957
24879
24258
26313
26952
25425
25579
27236
26796
25355
26080
27192
26110
25123
26324
26840
25243
25129
27266
27744
26217
26017
26991
26481
25437
26324
27439
26507
25777
26875
27337
26312
26359
27542
26908
25163
25932
27882
27132
25336
26207
28034
27448
26145
26894
27643
26654
26512
27666
27070
25487
26320
28159
27527
26103
26876
28034
27388
26889
27906
28175
26798
26478
27818
28110
27178
27259
27860
27273
26727
27833
28607
27305
26491
27891
28534
26881
26095
27526
27967
26820
27279
28637
27738
26413
27389
28338
27097
26238
27498
28131
27028
27073
28146
27146
25391
26513
28685
27710
25317
25790
27482
26993
26233
27261
27486
25806
25647
27723
27860
25695
25751
27885
27878
26543
27138
27918
26660
26092
27456
27429
25527
25334
27179
27699
26466
26522
27916
27626
26245
26854
28086
26906
25413
26571
27783
26897
26870
28341
28007
26579
27338
28726
27484
25826
27187
28878
27667
26619
28090
28759
27119
26664
28308
28416
26739
27066
28691
28047
26778
27987
29388
28300
27194
28182
28596
27200
27043
28794
29116
27439
27151
28769
28904
27677
28362
29564
28274
27252
28891
29386
27242
26933
29041
29332
28036
28411
29441
28809
28176
29474
30319
28784
27740
28997
29769
28811
28495
29350
29165
28249
28901
29836
28676
27555
28697
29794
28905
28097
28797
28979
27997
28171
29231
28688
27467
28051
29201
28502
27440
28217
28809
27740
27690
29092
28677
26917
27445
29354
28959
27319
27574
28511
27851
27161
28090
28631
27239
26419
27739
28509
27440
27087
28038
28010
27324
28018
28568
27247
26739
28410
28936
27201
26477
28027
29039
28185
27714
28389
28139
27105
27632
29006
28421
27066
27843
28765
27512
27012
28553
28951
27963
28386
29449
28573
27100
27726
29100
28883
28303
29021
29527
28504
28191
29694
29464
26725
26256
28613
28996
27476
27947
29180
28083
27137
28800
29484
27034
25756
27851
29295
28306
28187
29353
28990
28000
28665
29196
28002
27489
28678
28420
26472
26943
29484
29862
28873
29572
30366
29031
27824
29138
30697
29654
27899
28382
29760
29404
28540
29051
29085
27820
28126
29780
29306
27541
28017
29575
28827
27478
28745
29891
28201
27286
28758
28652
26835
27173
28692
28117
27223
28291
28878
27400
26574
27687
28097
26722
26395
27909
28162
26802
26959
28207
27495
26111
26950
27845
26566
26149
27876
28180
26545
26391
27720
27430
26214
27022
28206
26959
25804
27133
28112
26908
26352
27626
27683
25999
26058
27761
27557
26095
26813
28526
27615
25579
26175
27671
27052
26481
27734
27981
26411
26415
28351
28515
26796
26642
27891
27809
27066
27753
28462
27182
26188
27560
28322
26675
26149
27822
27877
26278
26870
28350
27208
26020
27739
28899
26894
25362
26792
27807
26568
26388
27982
27912
26490
27041
28465
27437
25737
26802
28308
27222
26334
27573
27987
26896
27351
28896
27971
25764
26456
28425
27676
26264
27435
28773
27843
27166
28266
28304
26611
26331
27642
27387
25780
26128
28051
27929
26371
26794
27808
26634
25868
27531
27999
26024
25781
27634
27577
25963
25926
26650
26079
25428
26348
27141
25885
24763
26050
27100
25605
24713
26393
26946
25416
25757
27128
25632
23938
25758
27805
26586
24842
25406
26098
25163
24898
26052
26050
24819
25265
27058
26839
25166
25425
26349
25351
24867
26559
27138
25639
25441
26848
26707
25436
25792
26709
26067
25649
26846
27022
25223
24962
26981
27394
25659
25489
27121
27324
26277
26687
27512
26418
25378
26423
27082
25731
24971
26257
27129
26601
26846
27613
26620
25385
26551
28172
27295
25656
26101
27033
26317
25888
26938
27069
25725
25845
27619
27401
25269
25369
27216
27219
26516
27373
27722
26395
26251
27863
27765
25787
25625
27158
27064
25999
26773
28053
27230
26098
26772
27151
26015
25970
27446
27321
25620
25913
27803
27585
25972
26225
27139
26095
24954
26044
26916
25697
25363
27023
27309
25796
25802
27255
26860
25094
25330
26787
26358
25261
25949
26742
25761
25317
26728
26683
24597
24835
27075
26682
24750
25379
27013
26468
25576
26514
26907
25502
25302
26990
27187
25493
25399
27068
26908
25300
25766
27125
26270
25359
26846
27717
26168
25689
27212
27242
25687
25691
26892
26811
26122
26840
27629
26499
25574
27037
28247
27094
26530
28124
28301
26425
26520
27932
26933
25726
27463
29136
27876
26366
26931
27352
26481
26752
27997
27446
26101
26784
28242
27913
26957
27408
28089
27810
27872
28539
28149
27043
27524
29099
28731
26945
27070
28487
28220
27202
27770
28597
27938
27635
28714
28683
27079
26855
28230
28283
26990
27145
28386
28194
27606
28606
28976
27019
26182
28267
28955
26784
26469
28511
28409
26779
27291
28578
27677
26316
27074
28031
26994
26228
27491
28373
27367
26808
27666
27416
26057
26652
28162
27546
26667
27857
28691
27726
27674
28975
28316
26082
26264
28223
27920
26186
26732
28414
27847
26610
27529
28452
27104
26094
27290
27937
26625
26461
28378
28887
27215
26562
27475
27576
26952
27497
28189
27284
26654
27929
28820
28013
27805
28864
28582
27194
27774
29069
27903
26515
27867
29465
28637
27488
28021
28302
27440
27744
28850
28087
26706
27562
29081
28435
27220
27988
28921
28128
27710
28773
28936
27722
27834
29418
29427
27942
27922
28985
28815
28378
29247
29582
28052
27441
29129
29816
28157
27399
28541
28778
27892
28448
29499
28416
27133
28308
29487
28215
27141
28460
29362
28277
28105
29234
28686
27285
27977
29308
28349
26862
27692
28788
27849
27321
28408
28471
27363
27688
28723
27739
26023
26656
28224
27784
26706
27433
28347
27280
26466
27910
28329
26245
25955
28083
27897
25807
26422
28521
27935
26403
27225
28221
26954
25974
27308
28464
27766
27464
28328
28183
27238
27536
28064
27061
26254
27416
28213
26941
26417
28028
28847
27931
27727
28432
27773
26507
27318
28757
27868
26516
27438
28685
27916
27201
28250
28401
26847
27043
28669
28065
26533
27349
28639
27755
26864
27945
28448
27161
26962
28321
28240
26966
27667
29513
28959
27193
27716
28940
27920
26849
28040
28749
27238
26932
29057
29575
27389
26434
27564
27713
27096
28154
29122
27825
27027
28409
29034
27943
27576
28069
27431
26763
28089
28861
26905
25922
27921
29040
27611
26721
27501
27752
27016
27157
28045
27623
26139
26203
27807
27818
26238
26409
27793
27409
26339
26713
26957
25859
25711
27250
27314
25329
24849
26305
26535
25555
25796
26529
25917
25678
27127
27364
25279
24594
26382
27011
26008
26560
27731
26548
25237
26546
27439
25521
24357
26212
27231
25651
25446
27315
27348
25951
26562
27904
26858
25369
26546
27915
26531
25284
26621
27790
27063
26747
27590
27330
26117
26529
27747
27192
26083
26672
27455
26620
26203
27708
28213
26536
26157
27666
27498
25960
26655
28742
28667
27293
27312
27650
26871
26733
27825
27698
26141
26253
28103
28479
27426
27409
27833
27134
26810
28311
29242
27602
26354
28009
29257
27551
26564
28288
28459
26523
27270
29241
27641
25623
27279
28966
27546
26208
27132
27751
26990
27233
28330
27756
26450
27034
28157
27205
25848
26616
27452
26520
26325
27564
27121
25225
25591
27692
27556
25666
25561
26782
26805
26407
26972
26847
25164
24820
26883
27832
26193
25113
26044
26749
26399
26512
26659
25591
25107
26568
27370
25927
24869
25948
26818
26089
25971
27047
26924
25815
26261
27414
26478
25022
26132
27571
26647
26138
27426
27239
25470
25960
28067
27330
24898
25706
28020
27197
25519
26543
27585
26515
26420
28205
28151
26035
25855
27556
27462
25990
26382
27740
27088
26042
27207
28055
26350
25395
27175
28104
26563
26177
27898
28337
27369
27731
28306
26699
25228
26727
28358
27183
26186
27676
28540
27252
26793
27841
27338
25683
26463
28406
27665
26074
27034
28617
28056
27122
27661
27682
26438
26664
28108
27500
25679
26095
27910
27952
26898
27075
27234
25959
25445
26793
27354
26124
25874
27409
27607
26025
25824
26658
25933
25314
26638
27066
25528
25456
26883
26431
25095
25866
27090
26222
25295
26686
27854
26302
24967
26361
27498
26017
24498
25199
26285
26172
26086
26187
25364
24956
26312
27278
26017
24833
25979
27303
26536
25590
26153
26569
26008
26361
27702
27321
25539
25698
27062
26665
25929
26934
27490
26218
26017
27848
28017
25813
25404
27373
27873
26666
26749
27732
27490
27364
28501
28211
25884
25389
27343
27597
25798
26126
28296
28216
26772
27489
28632
27235
25937
27552
28814
27387
26848
28440
28520
27053
27422
28760
27880
26466
27729
29203
27816
26741
28438
29370
27689
27031
28806
29307
27510
27225
28958
29047
27402
27386
28832
28702
27547
28041
28850
27881
27168
28043
28223
27311
27688
29020
28776
27744
28108
28494
27456
27272
28638
28478
26764
27028
28566
28102
27010
27745
28497
27602
26904
27702
28065
26766
26080
27382
28320
27533
26952
27533
27557
26809
27169
28067
27448
26625
27636
28732
27673
26271
26879
27755
27052
26708
27683
27795
26763
27032
28567
28651
27584
27980
28642
27520
26968
28436
28838
27243
27086
28932
29105
27424
27413
28646
28182
27367
28490
29293
27956
27422
28902
29053
27323
27204
28727
28592
27332
28122
29611
28660
27266
28195
29079
27796
26949
28262
28940
27758
27755
29371
29124
27243
27560
29510
29087
27433
28310
29495
28235
28013
29858
29565
27673
28419
30284
29223
27040
27519
28969
28408
27703
29162
30337
28862
27654
29089
29562
27422
27149
29392
29391
27608
28374
30216
29557
28586
29682
29994
28169
27585
29094
29089
27004
26868
29200
29942
28552
28185
28782
28263
27760
28821
29060
27112
26388
28168
28811
27350
27000
28172
27977
26846
27567
28611
27283
26144
27610
28806
27743
27226
28522
28518
26754
26941
28753
28363
26761
27473
28986
28078
26623
27599
28761
27630
26675
27748
28266
27004
26905
28813
29147
27401
27279
28472
27785
26861
28166
28825
27145
26845
28789
29069
27430
27242
28321
28063
27112
27840
29079
28330
27183
28056
28983
27947
27340
28800
29426
28148
28021
28934
27986
26744
27977
29377
28127
26548
27411
28630
28106
27958
28973
28832
27806
28253
29182
28129
26488
27136
28851
28846
27848
28080
28956
28711
28432
29472
29430
27454
27223
29075
29138
27953
28677
29587
28290
27709
29611
30156
27893
27050
28909
29505
28052
28042
29244
28858
28260
29348
29739
28103
27224
28426
28918
27456
27007
28681
29437
28375
28065
28691
27772
26110
26727
28299
27707
26610
27545
28517
27491
26827
28003
27965
26109
26344
28181
27619
26225
27384
28739
27597
26596
27729
28192
26761
26366
27609
27585
26205
26423
28012
27943
26871
27494
28302
26990
25939
27220
28045
26664
26280
28119
28528
26849
26884
28371
27608
26223
27866
29422
27582
26403
28287
28997
27114
26336
27555
27876
27031
27481
28664
28191
27331
28230
29198
28243
27201
27852
28312
27565
27847
29037
28476
27103
27942
29665
28867
27037
27686
28923
27881
27082
28364
28736
27370
27406
28841
28452
26863
27181
28596
28535
27848
28359
28821
27747
27261
28753
29194
27459
27343
29507
29656
27539
27506
29118
28454
26959
28080
29578
28434
27204
28382
29023
27529
27506
29546
29537
27617
27764
29297
28469
26607
27430
28991
27965
26932
28310
29165
27857
27244
28218
27979
26585
27136
28533
27585
26174
27207
28554
27902
27114
27602
27625
26554
26206
27301
28065
27104
26210
27240
27907
26851
26961
28196
27451
26402
27557
28009
26504
26484
27608
26809
25895
27223
28237
27021
25913
26671
27406
26692
26441
27641
28053
26970
26649
27521
27439
26654
27248
27914
26698
26006
27578
28516
27213
26534
27750
27923
26422
26566
28148
27662
25921
26431
28301
28298
27103
27208
27624
26847
26531
27573
27940
27108
27261
28465
28066
26457
26630
27898
27556
26731
27489
28150
27179
26885
28285
28638
27339
27135
28202
28135
27297
27766
28283
26980
26236
27956
29041
27542
26657
28089
28643
27598
28335
29939
28474
26025
26861
28849
27946
26040
26818
28526
28013
26950
27459
27792
26880
27014
28507
28083
25866
25907
27695
27717
27127
27942
27970
26434
26409
28046
27682
25538
25381
26646
26115
25149
26346
27497
26398
25711
26923
27304
26169
26068
27180
27144
25879
26001
27649
27770
26302
26508
27876
27164
25724
26557
27389
26138
25947
27567
27409
25803
26042
27255
26622
25371
26195
27620
26961
25906
26877
28038
27207
26384
27354
27641
26154
26108
27804
27695
25987
26110
27732
27875
27044
27469
27784
26555
26140
27352
27361
26002
26277
27889
27841
26873
27563
28473
27459
26567
27586
28095
26674
26311
28121
28663
27070
26743
28074
28198
27694
28801
29269
27097
25983
27964
28985
27299
26647
28262
28617
27359
27834
29022
27864
26711
28061
29037
27744
26909
27978
28721
28368
28754
29394
28337
27126
28359
30045
28788
26601
27392
29224
28685
27813
28876
29466
28288
28120
29536
29225
27084
26807
28532
28902
27738
27705
28683
28445
27787
28510
28864
27442
26851
28208
28698
27819
28297
29446
28498
27079
27755
28405
27059
26350
27885
28441
26810
26615
28323
28332
27099
27771
29125
28111
26149
26377
27642
27283
26663
27785
28657
27428
26844
28581
28867
26581
26371
28318
27964
26575
27789
29372
28581
27901
29015
29092
27245
26528
27513
27571
26842
27867
29685
29108
27461
28068
29221
28104
27128
28530
29217
27344
26608
28622
29661
28473
28149
29068
28719
27786
28613
29434
27963
26838
28195
29147
28131
27947
29273
28971
27305
27865
29317
27927
26099
27446
29273
28318
27156
28460
29461
28139
27586
28877
28743
26997
27198
29220
29310
27610
27630
28836
28580
28081
28972
29345
28281
28116
29257
29039
27683
28034
29287
28843
28112
29120
29666
28103
27545
29424
30015
27981
27113
28660
29403
28615
28941
29888
28949
27797
28961
30060
28548
26945
27874
29074
28497
28237
29134
28942
27956
28438
29299
28188
26923
28094
29217
27844
26976
28280
28515
26914
27000
28967
28837
26625
26464
27988
27910
27453
28721
29289
27534
26628
28110
28580
27063
27003
28470
28109
26799
27813
29594
28929
27770
28666
29054
27203
26491
28209
28605
26819
26934
29275
29596
27860
27691
28537
27625
26487
27728
29028
27865
26977
28324
29015
27840
27504
28458
28095
26994
28019
29467
28133
26488
27688
29263
28473
27508
28276
28399
27054
27335
29085
28811
27274
27870
29401
28633
27074
27751
28759
27856
27527
29036
29169
27217
26963
29001
29238
27253
26948
28360
28411
27903
28942
29523
27939
27233
28940
29603
28070
27796
29280
29246
27980
28582
29722
28613
27633
29140
30138
28561
27269
28170
28884
28202
28335
29296
28546
27057
27735
29334
28741
27149
27476
28425
27986
28002
29141
28910
27503
27727
28871
27949
26240
27099
28781
28123
27099
27956
28310
26854
26734
28759
28834
26491
26385
28592
28634
27004
27352
28370
27365
26712
28246
28662
26687
26148
28068
28539
26705
26584
28704
28928
27134
27188
28434
27481
26051
27290
28510
27216
26867
28846
29209
27569
27762
29267
28166
25796
26476
28460
27769
26657
28085
29313
28175
27645
29040
28897
27032
27586
29399
28385
26963
28376
29364
27764
27111
28533
28476
26931
27442
28990
27983
26179
27262
29095
28050
26696
28249
29531
27892
27012
28812
29216
27036
26773
28978
29223
27479
27448
28622
28261
27509
28587
29493
28056
26982
28423
29421
28086
27161
28080
28376
27603
28268
29486
28450
27066
28223
29615
28455
27304
28564
29102
27489
27690
29667
28998
26884
27536
29289
28684
27417
28092
28984
28345
27829
28410
28375
27331
27480
28925
28653
26911
27173
28554
27813
26897
28427
29373
27613
26709
28050
28238
26699
26385
27608
28114
27435
27277
27860
27632
27199
28300
29148
27476
25863
27007
28040
26833
26654
28512
28707
26970
26799
27985
27416
25979
26694
28006
27340
26995
28582
29123
27585
27148
28422
28172
26433
26822
28773
28605
27094
27501
28796
28192
27332
28609
29252
27372
26724
28528
28775
27202
27624
29381
28952
27751
28671
29513
28025
27119
28658
29378
27744
27295
29081
29565
28348
28534
29536
28678
27648
29107
30253
28245
26762
28898
30836
29573
28363
29263
29259
28204
29469
31052
29296
27712
29479
30700
29074
28256
29696
30022
28759
29288
30819
29773
27832
28691
30555
29995
28566
29002
29647
28804
28463
29401
29459
28592
28948
30002
29697
29146
29989
30337
28862
28052
29230
29719
28125
27427
29007
29792
28616
28254
29267
29202
28180
28661
29811
29155
28254
29407
30270
28559
27004
28226
29654
28842
28137
29115
29412
28534
28981
30351
29589
27676
28210
29883
29345
28290
29052
29590
28587
28635
30351
30279
28144
27975
29586
29521
28825
29747
30205
28970
29080
31187
31296
28913
28430
30298
30458
28780
28754
30032
29601
28637
29727
30744
29417
28495
29754
30282
29174
29425
30804
30425
29387
29855
30005
28555
28093
29891
30833
29213
28240
29722
30730
29989
30057
31052
30079
28374
29543
31205
29703
28360
30128
31420
30190
29810
31293
31075
28887
28855
30969
31075
29295
29445
31191
30988
29592
30244
31343
30427
29999
31401
31323
29332
29334
31449
31593
29833
29670
30472
29780
29356
30816
31202
29236
28758
30853
31519
29946
29553
30442
29888
28794
29658
30534
29163
28338
29845
30591
29339
28784
29726
29927
29093
29312
30159
29277
27819
28522
29839
28654
27014
28280
29814
28740
28275
29936
30035
28148
28040
29619
29349
27610
27697
28992
28936
28460
29131
29327
28054
27897
29686
29671
27262
27074
29370
29661
28368
28974
29954
28813
28192
29766
30280
28621
28045
29225
29316
28231
28636
29748
28947
28007
29502
30691
28854
27191
28640
30004
28954
28594
29836
29695
28665
29249
30112
29131
28013
28876
29977
29131
28078
28901
29896
29183
28793
30070
29986
28016
28242
30057
29246
27612
28933
30714
29785
28742
29839
30135
28445
28207
29755
29512
28014
28845
30738
29951
28199
28963
30169
29068
28237
29575
29960
28126
27694
29403
29666
28245
28023
28502
27658
27023
28397
29262
27838
27228
28826
29383
28041
27639
28531
28248
27094
27529
28581
27808
26834
27856
28922
27985
27032
27835
28292
27321
27347
28356
27744
26486
27231
28599
28048
26914
27434
28293
27815
27317
27977
28271
27134
26650
28042
28414
26779
26662
28345
28386
27516
28288
28735
27309
27080
28819
29153
27743
27423
28272
28300
27785
28443
29440
28845
27972
28854
29796
28803
27654
28366
29278
28771
28526
29316
29095
27981
28578
30148
29274
27092
27580
29356
29003
28370
29340
29421
27925
27833
29185
28680
26936
27650
29459
28769
27571
28863
30074
28673
27490
28545
28820
27287
27459
29556
29665
27897
28184
30176
30002
28607
29558
30887
29353
27783
28882
29447
27894
28018
30227
30238
28431
28935
30523
29273
27150
28207
30093
29012
27541
28595
29440
28354
28206
29533
28897
26861
27460
29118
28010
26819
28487
29689
28251
27451
28786
29089
27397
26954
28299
28307
26843
26998
28486
28004
26496
27415
28681
27297
26441
28041
28212
26286
26483
28590
28337
26369
26437
27662
27350
26979
28247
28762
27176
26594
28102
28395
26870
26673
27829
27647
26858
27766
28500
26970
26141
27979
29061
27610
26759
27871
28100
26960
27365
28680
27879
26617
27841
29401
28278
26504
27012
28109
27639
27229
27695
27364
26770
27941
29341
28113
26187
27082
28713
27964
27159
28178
28209
26647
27045
29352
29254
26720
26027
27527
27934
27189
27671
28724
28227
27595
28654
29105
27388
26497
27868
28383
26940
26629
27981
28220
27469
27780
28245
27462
26991
28008
28360
26998
26679
28329
28912
27677
27334
28039
27210
25794
26774
28249
27185
26167
27558
28533
27469
27038
28068
27817
26155
26220
27676
27340
25875
26369
27937
27499
26161
26716
27371
26084
25547
26984
27211
25825
26148
27815
27330
25795
26673
28046
26657
25184
26520
27560
26060
25441
27123
27747
26558
26252
27024
26953
26277
26616
27215
26382
25593
26802
27809
26530
25747
27394
28125
26792
26962
28203
27023
25501
26913
28577
27491
26098
26864
27583
26746
26737
27824
27311
25894
26609
28306
27688
26150
27019
28410
27486
26605
27729
28187
26946
26962
28610
28617
27073
27045
27744
26917
26683
28588
29187
27200
26795
28790
28852
26624
26181
27778
28212
27516
28020
28717
27768
27287
28825
29519
27965
27115
28298
28754
27671
27828
29172
28848
27635
28079
29004
28188
27006
27665
28799
28284
27456
28076
28925
28709
28764
29569
28851
26839
26938
28517
28194
27153
28112
29227
28245
27435
28493
28372
26123
25822
27989
28228
26417
26523
28216
28198
27252
27625
28008
27082
26606
27445
27718
26833
26951
28255
28183
27046
27593
28816
27894
26547
27656
28820
27464
26542
27886
28250
26578
26146
27726
28333
27681
28220
28924
27596
26582
27978
29147
28231
27457
28000
27837
26952
27774
29133
28337
27317
28526
29523
28159
27086
28256
29051
28170
28230
29709
29629
27776
27461
29111
29430
28106
28052
29124
29042
28502
29123
29556
28434
27924
29281
29642
28034
27742
29147
28941
27775
28886
30241
28793
27722
29621
30661
28596
27209
28764
30016
29114
28790
29733
29319
28092
28707
29949
29128
27940
29099
30366
29117
27933
28908
29564
28669
28734
29961
29181
27097
27725
29577
28703
27345
28597
29596
28215
27728
29484
29731
27627
27066
28613
28882
27878
28287
29296
28599
27714
28468
28917
27839
27418
28554
29061
28061
27840
29010
28907
27421
27557
28691
27814
26660
28139
29267
27583
27027
29164
29534
27317
26867
28659
28725
27096
27267
28208
27106
26323
28052
29352
28461
27996
28964
28945
27903
28412
29392
28175
26754
27854
29293
28653
27868
28574
28745
27664
27751
29260
29267
27318
26896
29038
29848
28187
27809
29062
28705
27646
28464
29120
27685
27195
29052
29663
27962
27452
28692
28609
27447
27950
28859
27935
27304
28374
28577
27368
27277
28350
28240
27471
28360
29535
28554
27485
28534
29244
27609
26362
27634
28790
27980
27623
28546
28373
27351
28275
30231
29592
27427
27691
28918
27949
27165
28577
28913
27041
26693
28435
28404
26628
26868
28516
28135
26820
27502
28640
27727
26796
27706
27883
26208
25815
27377
27783
26877
27394
28266
26888
25625
27164
28335
26505
25200
26764
27290
25304
25319
27786
28071
26465
26685
27871
27243
25967
26434
27413
26617
25446
26271
27700
27338
26667
27479
27377
25469
25430
27433
27512
26149
26841
28454
27801
26273
26620
27125
26130
26087
27501
27372
26116
26626
27720
27021
26404
27508
28006
26888
26617
27849
28045
26521
26210
27912
28305
26670
26468
27920
27687
26346
27002
28058
26913
26075
27446
28164
27049
26686
27645
27619
26700
27164
28106
27096
25899
27208
28840
27802
26501
27737
28494
26850
26643
28378
28023
26444
27196
28510
27563
26487
27483
28335
27483
27102
28225
28542
27153
26665
27952
27938
26142
26003
27432
27193
26162
27007
27997
26931
26275
27640
27934
26052
25444
27004
27468
26229
26261
27379
26698
25393
26338
27394
25703
24194
25867
27293
25718
24720
26139
26445
25051
25452
27114
26211
24154
25109
26946
25947
25026
26699
27415
25641
25171
26787
26503
24335
24631
26597
26196
25062
26367
27727
26769
26034
26986
26958
25305
24950
26446
26988
25856
25626
26962
27201
26053
26058
26723
25907
25091
26103
26854
25889
25756
27267
27430
26039
26223
27390
26451
25014
26325
27797
26233
24875
26523
27909
26911
26312
27202
26825
25272
25730
27159
26501
25639
26785
27634
26744
26156
26610
26474
25770
26210
27241
26838
25684
26229
27833
27542
26124
26632
27498
26272
25723
27499
27886
25750
25082
26869
27529
26408
26249
27061
26838
26266
27014
27757
26631
25605
26791
27765
26533
25712
26676
26918
26158
26748
27356
25599
24276
26040
27564
26096
24656
25710
26521
25442
25360
26841
26583
24791
24859
26195
25494
23833
24481
25854
25237
24753
25949
26210
24916
24763
25631
24789
23187
24012
25804
25326
24233
25263
26360
25059
23849
25026
25597
24098
24238
26315
26203
24601
25268
26697
25982
25329
26424
26315
24422
24472
26419
26290
24857
25992
27706
26372
24927
26375
27432
25811
24569
25758
26787
25744
25040
26368
27301
26483
26221
27140
26694
25302
25925
27122
26043
25112
26675
27984
27143
26403
26797
26459
25672
26738
28214
27125
25306
26047
27642
26934
25679
26608
27274
25670
25111
26888
27349
25954
26126
27741
27850
26993
27061
26974
26009
26110
27766
28414
27030
26550
28263
28687
26750
26491
28187
27617
25982
27452
29093
27254
26001
27810
28333
26311
25707
27306
27927
27060
27185
28062
27289
26002
26924
28379
27207
25493
26490
27649
26537
26377
28038
27747
25876
26307
28008
27284
25531
26197
27456
26600
26021
27399
27767
26287
26186
27800
27992
26623
26264
27179
27741
27613
27643
27712
26960
26595
27973
28757
27045
25724
26840
27685
26815
26953
28454
28001
26176
26996
29116
28147
26154
27252
28527
27267
27185
28912
28395
26796
27784
29309
28225
26825
27885
28978
27776
27058
28624
29519
28355
27944
29025
28680
27058
27599
29406
28911
27494
28423
29924
28963
27661
28803
29724
28290
27708
29191
29270
27683
27889
29561
29621
28811
29273
29713
28814
28339
29237
29480
28145
27844
29656
30456
29118
28749
29806
29421
28323
29239
30102
28564
27778
29528
30388
29264
29074
30039
29479
28191
29058
30306
29031
27874
29367
30548
29199
27968
28638
28978
28203
28687
29986
29393
28019
28528
29672
29162
28096
28307
28977
28966
28829
29079
28970
28115
28144
29709
29819
27730
27398
29259
29386
28132
28711
29714
28550
27686
29226
29898
28013
27263
28797
29019
27759
28373
29636
28549
27564
29023
29648
27702
26817
28566
29399
28240
28434
29845
29140
27784
29157
30967
29544
27473
28479
29789
28439
27715
29308
29711
28423
28826
30361
29496
27383
27845
29578
29308
28586
29666
30406
29220
28807
30216
30024
27807
27697
29792
29907
28270
28687
30426
29961
28667
29554
30424
28797
27644
29181
30154
28662
28310
30456
30994
28978
28552
29840
28978
27223
28442
30143
28949
28134
29957
30961
29915
29520
30053
29504
28684
29506
30141
28691
27784
28897
29315
28338
28549
29905
29702
28291
28555
29966
29533
27768
27956
29747
29514
27807
28234
29159
27717
26984
28809
29265
27564
27638
29295
28887
27258
27425
28281
27807
27528
28740
29177
27396
26331
27686
28246
26571
26056
27640
28080
27121
27550
28282
26834
25807
27738
29095
27170
25617
27121
28196
26952
26890
28544
28337
26955
27689
29043
27872
26072
26954
28717
28380
27686
28625
29080
27759
27384
28752
28339
26117
26490
28539
28025
26827
27952
28679
27328
26899
28059
27994
26938
27373
28433
28036
27461
28385
29036
27853
27175
28365
28655
27026
26427
27618
27844
26711
27190
29217
29230
27569
27966
29239
27661
25676
27177
28815
27408
26877
28902
29286
27596
27529
28635
27778
26321
27320
28698
27710
27078
28693
29456
28204
27972
29274
29178
27820
28143
29183
28096
26696
28023
30017
29376
27752
27955
28333
27325
27284
28778
28691
26859
26790
28685
29052
27748
27591
28110
27306
26633
27647
28151
26661
25853
27039
27460
26286
26141
27179
27095
26510
27295
27611
25971
25451
27290
27885
26269
25859
27314
27460
26225
26708
28051
27175
25757
26632
27987
27457
26640
27250
27667
26876
26800
27734
27420
26066
26412
28020
27591
25801
26276
27802
27168
26287
27517
28253
26837
26381
28043
28159
26072
25799
27561
27618
26375
26921
28004
26963
25907
27071
27662
26034
25619
27588
28284
27002
27019
27921
27124
26406
27638
28101
26383
25484
26901
27774
26608
26211
27761
28222
26714
26346
27713
27649
26079
26261
27690
27510
26836
27524
27890
26997
27246
28870
28422
26165
26373
28137
27372
25989
27517
29210
27954
26790
28203
28652
26435
25674
27534
27911
26334
26682
28653
28346
26702
27235
28119
26555
25595
27499
28308
26222
25648
27792
28452
26989
26664
27422
27022
26304
27061
27599
26205
25360
26757
27567
26425
26217
27582
27180
25277
25689
27201
26273
25112
26292
27150
26140
25868
27025
27002
25654
25754
27041
26680
25238
25771
27539
27045
25163
25571
26966
26364
25717
26708
26788
25590
26088
27798
27499
25998
26185
27145
26734
26065
26528
26610
25417
25329
27111
27650
26097
25612
26807
26945
26098
26619
27321
26139
25407
26979
27856
26380
25587
26978
27529
26015
25604
27165
27470
26242
26705
28341
27462
25359
26095
27667
26724
26131
27658
27953
26601
26631
27622
27287
26500
26998
27653
27062
26407
27048
27780
27100
26459
27435
27998
26803
26352
27581
27864
26723
26892
28402
28017
26261
26729
28129
27010
25603
26756
27624
26435
26421
28015
27938
26843
27547
28443
27113
25831
27010
27950
26407
25556
27287
28258
27201
27258
28629
27760
25492
26114
28066
26950
25056
26455
28688
28030
26407
26562
26695
25574
25778
27289
26908
25329
25833
27404
26930
25656
26300
27030
25829
25259
26689
27196
26009
26041
27385
27071
25722
26292
27597
27010
26159
27068
27544
26032
25548
27426
28107
26524
26321
27883
27671
26231
26970
28179
26774
25454
26855
28108
27323
26928
27920
27983
26913
27229
28392
27750
26678
27885
29255
27730
25992
27332
28544
27041
26626
28365
28423
27320
28249
29395
28044
26430
27064
28114
27797
27505
28046
28117
27715
28402
29498
28681
26869
26901
28291
28583
27862
27896
28478
28052
27668
28905
29339
27219
26171
27977
28806
27710
28244
29722
28810
27478
28643
29736
28313
26952
27773
28403
27518
27553
28713
28503
27706
28369
28912
27609
26634
27863
28863
27685
26919
28249
28984
27638
26995
28211
28201
26609
27128
29067
28480
26724
27328
28693
28097
27317
28224
28536
27123
26704
27927
28045
26867
27062
28480
28435
27398
27563
27726
26567
26518
28264
28365
26509
26528
28139
27815
26604
27348
28345
27350
26413
27599
28586
27408
26554
27648
28314
27544
27333
27999
27740
27072
27918
28898
27882
26887
27962
28898
27816
26990
27942
28192
27176
27822
29105
27659
25762
27029
29002
28447
27444
28287
28913
28042
27894
29033
28902
27182
27082
29112
29363
27416
27461
29311
29193
28277
29261
29648
27721
27192
29108
29385
27444
27082
28891
29804
28951
28730
29620
29196
27833
28459
29792
28577
27009
28439
29880
28580
27962
29454
29549
28224
28692
29824
28460
26748
28150
29833
28613
27756
29162
29302
27634
27866
29524
28657
26586
27580
29434
28060
26442
28037
29445
28086
27540
29368
29454
26956
26379
28366
28751
27175
27238
28729
28302
27089
28117
28916
26862
25839
27988
28645
26611
26834
29189
28945
27061
27220
28146
27586
27059
27957
28200
26566
25929
27849
29166
28184
27676
28629
28227
26648
27156
28524
27457
26238
27892
29564
28361
27136
28176
28375
26779
27278
29199
28037
25694
26888
29309
28487
26739
27866
29136
27780
27090
28544
28481
26709
26923
28530
28349
27385
27686
27941
27304
27452
28467
28185
26690
26818
28587
28831
27373
26994
27877
28019
27427
27606
27996
27177
26606
28033
29202
27946
26844
28052
28790
27774
27949
29003
27875
26417
27730
29427
28510
27184
28058
28982
27950
27376
28534
28760
27402
27534
29218
28562
26020
26332
28659
28562
27291
27949
28526
27163
26736
28422
28524
26377
26132
27906
27805
26552
27264
28238
27173
26537
27612
27517
25904
25880
27451
27561
26130
26205
27806
27922
26792
27031
27721
26712
25752
26917
27768
26396
25871
27764
28495
26819
26467
28083
27625
25498
26146
28034
27090
25953
27535
28624
27375
26866
27949
27639
25998
26294
27855
27531
26442
27214
28291
27513
26769
27641
27645
26027
26004
27626
27276
25517
26183
28354
28079
26460
26979
28101
27094
26097
27201
27706
25999
25508
27609
28469
26849
26256
27366
27257
26236
26968
27978
26595
25242
26638
28047
27034
26226
27294
27463
26432
27119
27912
26140
25201
27027
27666
26200
26260
27977
28204
27126
27376
28331
27613
26235
26807
28263
27700
26153
26483
27330
26484
25970
27398
28061
26468
25732
27374
27970
26278
25832
27416
27724
26501
26676
27889
27310
26108
26968
27729
25993
24930
26590
27371
25916
25767
27062
26620
25489
26251
26955
25543
24492
25696
26413
25123
24741
26012
26031
25046
25753
26964
25846
24299
25428
26812
25616
24797
26343
27016
25607
25355
26808
26655
25002
25313
26728
26036
24802
25697
26785
26146
25945
27164
26890
24846
24674
26427
26483
25110
25510
26908
26403
25292
25972
26599
25492
25138
26634
26941
25274
24993
26606
26975
26083
26395
27158
26475
25756
26579
26883
25490
25114
26373
26248
24911
25486
27311
26977
25188
25435
26866
26207
24877
25970
27513
26155
24146
25102
26820
26448
26290
27485
27432
26347
26852
27957
27137
25723
26150
27038
26684
26656
27607
27446
26180
26419
27938
27821
26500
26774
27834
27299
26406
26983
27382
26299
26169
27876
28096
26024
25386
26945
27334
26301
26691
27616
26644
25903
27505
28470
26755
25339
26322
27123
26042
25646
26986
27077
25481
25666
27442
26644
24244
24899
26841
26083
25332
26967
27553
25969
25674
26886
26413
24955
25772
27351
26629
25671
26865
27573
26007
25336
26947
27187
25225
25065
26983
27158
25978
26670
27900
26803
25671
27098
28112
26475
25505
26936
27474
26210
26594
28550
28448
26972
27287
28083
26934
25971
27299
28012
26411
26121
28233
28682
26768
26252
27669
27928
26997
27481
28500
27684
26784
27850
28698
27556
26822
27921
28188
26957
27365
28967
28322
26681
27494
29252
28806
27702
28420
28942
27792
27770
29498
29520
27650
27629
29364
29008
27295
28115
29906
28964
27558
28722
29635
28280
27998
29649
29698
28014
27722
28740
28840
28329
28959
29811
28928
27769
28596
29836
29212
27930
27976
28520
28542
29055
29771
28843
27357
27941
29631
29427
27870
27847
28948
28923
28424
28671
28513
27499
27607
28993
28713
26849
27019
28638
28574
28155
29158
29153
27409
27374
29384
29233
26943
27043
28926
28480
27351
28829
30053
28394
27478
29121
29538
27776
27421
28880
29047
27983
28615
30188
29569
28086
28785
29747
28366
27334
29069
30170
28562
28131
30159
30347
28176
28070
30067
29750
27804
28590
30385
29267
27925
29247
30197
28979
28488
29546
29415
28317
29142
30511
29476
28293
29780
31332
30352
29199
29803
29954
28937
29255
30665
30191
28437
28794
30746
30744
29466
30065
31000
29630
28576
30155
31134
29593
29060
30712
30921
29229
29025
30189
29920
29132
30338
31580
30253
28850
29753
30627
29893
29490
30075
29729
28761
29339
30220
29305
28743
30133
30756
29303
28575
29622
29708
28522
28923
29921
28710
27605
29375
31039
29719
27955
28290
28940
28449
28245
28794
28748
28286
29030
30233
29321
27455
28042
29793
29440
28447
28989
28953
27283
27261
29403
29670
27736
27600
29143
28851
27720
28744
29634
28013
27297
29077
29610
28102
27740
28863
28901
27733
27734
28932
28903
27873
28375
29674
28753
26921
27585
28931
28161
27709
28965
29130
28109
28664
29831
28635
26648
27308
28986
28584
27765
28653
29270
28278
27893
28909
29002
27993
28118
28976
28368
27061
27556
29096
28759
27570
28542
29810
28431
27073
28359
29255
27822
27351
28834
28921
27512
27650
28657
27960
27005
28282
29554
28173
26997
28605
29591
27700
26854
28960
29604
27575
27425
29083
28311
26700
27973
29590
28163
26646
27928
28555
26734
26778
29015
28721
26655
27006
28438
27891
26947
27592
28022
27206
27173
28305
28309
27007
26937
28202
27979
26451
26470
27432
27001
26439
27387
27749
26292
26015
27898
28193
25981
25213
26668
26882
25819
26486
27725
26890
26101
27315
27779
26133
25299
26567
27281
26371
26193
27112
26820
25934
26960
28466
27326
25372
26145
27637
26976
26642
28070
28125
26353
26282
27845
27348
25452
26124
28105
27727
26663
27522
28089
26876
26846
28680
28362
25722
25526
27635
27533
26083
27035
28609
27765
26876
27888
27993
26358
26282
28109
28458
27197
27520
28885
28239
26974
27922
28970
27527
26141
27404
28572
27268
26448
27994
28754
27488
27414
29003
28746
27132
27723
28652
27004
26262
28374
29143
27502
27344
28884
28626
26952
27257
28848
28509
27027
27405
28646
27818
26608
28043
29357
27867
27084
28526
28271
26265
26702
28681
28038
26297
27094
28297
27127
26444
28057
28284
26110
25924
28118
28273
26614
27001
28508
27790
26317
27202
28608
28003
27316
27673
27182
26316
26904
27899
27624
26795
26867
27521
27284
26495
26981
28068
27251
25818
26662
27609
26290
25904
27612
27775
26327
26658
28120
27666
26115
26233
27388
27492
27060
27441
27827
27112
26673
27521
27448
25956
26070
27572
27166
25938
27039
28588
27574
26505
27967
28794
26792
25606
27125
27773
26258
25946
27190
27132
26579
27737
28563
27041
25866
27161
28057
26861
26630
28154
28320
27197
27457
28405
27738
26627
27297
28229
27445
26884
28019
28731
27968
27792
28662
28265
26782
26976
28032
27288
26283
27465
28803
27894
26919
28013
28608
27137
26596
28039
28436
27281
27472
28869
28423
27021
27736
28733
27142
25847
27484
28618
27116
26516
28064
28592
27710
27725
28326
27987
27409
27858
28272
27340
26570
27328
27781
26762
26346
27373
27431
26277
26567
27597
26852
26109
27477
28638
27694
26804
27471
27637
26579
26659
27689
27166
26034
26853
28383
28031
26818
26990
27636
27420
27422
27986
27574
26446
26887
28573
28454
26816
26894
28208
27995
27266
28100
28707
27355
26810
28650
29223
27022
26196
28099
28780
27613
28092
29456
28574
27407
28603
29537
28071
26949
28214
29394
28758
28358
28879
28453
27860
29120
30196
28291
26149
27588
29845
28910
27339
28313
29433
28587
28334
29789
29618
27416
27297
29069
29012
28244
29414
30290
28884
28108
29726
30680
29491
28864
29778
29947
28977
29064
30250
30279
29694
30400
30599
28671
27807
29660
30449
28713
28405
30318
30462
28890
29485
31236
30316
28524
29440
30487
29102
28657
30251
30299
28993
29211
29925
28945
27725
28473
29812
29356
28354
29094
30211
29321
27993
28635
29463
28623
28262
29200
29035
27930
28772
30664
29777
27495
28256
29857
28461
27427
29239
29729
27977
28326
30413
29999
28132
28476
29774
29292
28506
29418
30190
29088
28584
30216
30884
29320
28800
29884
29497
28333
29523
30999
29568
28273
29955
30956
28954
27885
29711
30364
28629
28755
30784
30355
28511
29359
31132
29890
27939
29204
31088
30355
29813
30952
30625
28923
29314
30952
30355
28693
29312
30744
30265
29642
30580
30777
29383
29492
31549
31507
28933
28274
30184
30825
29744
29865
30947
30537
29834
30926
31577
29940
28969
30273
30807
29647
29953
31661
31462
30037
30269
31094
30414
29721
30710
31384
30324
30023
31507
31911
30572
30210
30890
30025
28766
30001
31324
29873
29067
30992
31638
29545
28771
30383
30541
28762
28881
30621
30180
28338
28797
30569
30140
28860
29825
30653
29044
28480
30191
30110
28180
28637
30724
30338
28670
29108
30083
29295
28862
29913
29643
27983
28590
30833
30857
29501
29647
30145
29266
28546
29446
30199
29278
28664
29768
30359
29274
28757
29727
29962
29148
29675
30965
30289
28876
29499
30800
30129
28844
29325
30038
29275
29055
30080
29872
28473
28854
30778
30818
29086
28974
30097
29933
29558
30313
30378
29325
29419
30489
29971
28515
28820
30217
30365
29810
30169
30592
29829
29452
30507
30654
28992
28385
29738
30314
29404
29460
30485
30217
29539
30496
31301
30018
29026
30200
30679
29114
28958
30833
30971
29277
29102
30236
29956
28957
29554
30335
29384
28970
30563
31311
29812
29002
30006
29792
28238
28881
30517
29572
28324
29656
30594
29124
28448
29786
29785
27917
27546
28824
28880
28078
28698
29680
29039
28489
29540
29829
28281
27666
28949
29327
27788
27324
28944
29542
28357
28214
28983
28171
27252
28885
30326
28601
27019
28403
29585
28513
27948
28940
28700
27277
27882
29454
28649
27398
28671
30081
28992
27857
28928
29620
28320
27930
29199
29259
28209
28629
29768
29212
28099
28650
29289
28437
28212
29434
29502
28101
28131
29729
29896
28665
28638
29443
29270
29079
29851
29765
28195
27969
29687
29915
28099
27751
29206
29244
27952
28271
29357
28520
27544
28914
30086
28638
27330
28500
29401
28371
28228
29481
29281
28258
29044
30269
29354
27996
28726
29627
28725
28374
29561
29577
28239
28425
29687
28801
26697
27127
29016
29003
28330
29191
29708
28496
28109
29539
29581
27638
27281
28731
28737
27704
28255
29129
28166
27566
29064
29581
27595
26603
27981
28433
27183
27619
29728
29827
28113
27685
28155
27607
27183
28265
28746
27250
26638
28347
29262
28132
27778
28783
28199
26276
26461
27981
27538
26576
27687
28804
27761
26952
28158
28595
27082
26956
28632
28505
26750
27069
29018
28856
27327
27867
28815
27694
27378
28959
28711
26971
27636
29343
28591
27311
28105
28844
27882
27409
28561
29071
27828
27399
28836
29232
27811
27638
28989
28900
27733
28367
29586
28567
27246
28254
29327
28272
27391
28331
28710
27990
28817
30221
29300
28148
29357
30480
29418
28448
29168
29575
28884
29189
30144
29248
27561
28181
29984
29559
28108
28915
30080
28823
27821
29286
30120
28771
28766
30902
30551
27437
27100
29516
29489
27906
28926
30434
29121
27941
29141
29367
27566
27443
29305
29315
27575
27891
29502
28796
27354
28413
29679
28273
26815
27966
28926
27607
27124
28729
29183
27997
27929
28813
28272
27024
27451
28492
27814
26955
28152
29503
28621
27610
28576
28824
27213
27357
29135
28719
27283
27964
28985
28373
28176
29139
28690
27007
27292
29175
29196
27550
27578
29080
28744
27166
27593
28932
28204
26901
27681
28944
28404
27755
28550
28803
27819
27868
28721
28072
27231
28545
29455
27711
26767
28496
29283
27925
27674
28987
28751
27343
27991
29336
28278
27113
28394
29515
28453
27475
28139
28704
28171
28121
29042
29236
28304
28142
29073
28899
27887
28506
29302
28161
27816
29519
29629
27784
27999
30142
30261
28538
28168
29024
29062
28709
29326
29906
28931
28078
29176
30027
28893
28298
29442
29654
28483
28728
29981
29580
28706
29476
30004
28682
27840
29065
29950
29092
28781
29607
29218
28222
29356
30877
29085
26645
28106
30104
28414
27040
28735
29370
27783
27686
29129
29003
27835
28246
29305
28748
27752
28528
29705
28880
27875
29148
29947
28194
27517
29353
29752
28059
28195
30094
29898
28475
29390
30688
29121
27608
28954
29811
28293
28289
30685
31193
29434
29152
29914
28934
28140
29884
30605
28315
27736
30243
30924
29092
28810
30139
29884
28649
29303
30626
29871
28826
29908
30953
29740
28659
29700
30238
29092
29352
30912
30326
28623
29219
30907
30797
29926
30277
30616
29906
29746
30613
30606
29425
29430
30980
31077
29683
30105
31363
30318
29301
30745
31186
29276
29212
31255
31446
30239
30329
30807
30228
29687
30363
31119
30408
29607
30750
31954
30824
29603
30615
31284
30195
30097
30795
29740
28960
30715
31959
30371
28978
30162
31298
30386
29775
30527
30354
29130
29514
31084
30556
28660
29076
30669
30287
29577
30492
30578
28861
28841
31057
30870
28006
27773
30173
30254
28796
29807
31250
29741
28380
29954
30800
28740
27678
29566
30705
29292
28803
30441
30717
29321
29822
31510
30601
28481
29089
30752
30263
29615
30604
30913
30033
30225
30983
30008
28775
29797
30616
28927
28326
30666
31764
29971
29145
30438
30370
28739
29261
31282
30868
29058
29738
31562
30617
28812
29987
31175
29385
28891
31302
31379
28781
28874
31311
31525
30149
30050
30158
29231
29056
30223
30435
29180
29214
30866
31028
29554
29436
30626
30613
29711
30151
31022
29982
28523
29252
30674
30417
29709
30151
30331
29785
30312
30917
29511
28383
29668
30755
29635
28634
29531
30335
29780
29724
30453
29957
28711
29167
30725
30536
28990
28793
29362
28912
28727
29682
29727
28457
28532
30104
29843
27880
27961
29688
29517
28200
28622
29394
28178
27433
29316
30463
28661
27552
29187
30229
29229
28991
29724
29140
28359
29219
29841
28807
28129
29077
29745
29107
29025
29873
29450
28145
28699
30106
29014
27310
28746
30280
28587
27719
29585
29715
27681
27874
29749
29168
27305
28137
29947
29236
28175
29490
30551
29273
28650
30231
30616
28769
28166
29364
29199
27854
28500
30348
29814
28245
29274
30672
28916
27120
28732
30403
29110
28097
29356
29846
28771
28954
30210
29741
28127
28184
29197
28924
28622
29776
30471
29715
29502
30183
29621
28506
29384
30388
28800
27475
28894
30034
28992
28591
29855
29720
28071
28615
30646
29978
27732
28341
30604
29908
27562
28005
29322
28323
28064
29891
29665
27629
28070
29736
29093
27821
28004
27988
27289
27734
29171
29361
27825
27178
28599
29312
28074
27645
28641
28509
27686
28588
29428
27865
26831
28558
29623
28014
27013
28291
28767
27594
28057
29935
29506
27611
27885
29307
28570
26867
27265
28412
27938
27504
28260
28262
27463
28045
29255
28465
26822
27435
29051
28709
27646
28188
28930
28141
27742
29016
29076
27131
26941
28811
28821
27306
27837
29445
29022
28074
28866
29250
27659
26749
27878
28563
27896
28393
30078
29823
28192
28600
29822
28503
26732
27937
29330
27914
27093
28949
29658
28003
27820
29609
29422
27499
27949
29681
28848
27375
28321
29493
28775
28269
29057
28817
27446
27869
29447
29038
27707
28334
29538
28809
27887
28826
29172
27634
27464
29114
28835
26949
27453
29476
28833
26813
27442
29072
28313
27220
28173
28425
26437
25943
28142
28876
27165
26729
27872
27463
26153
26863
27992
26911
26088
27624
28339
26600
25936
27668
28126
26705
26979
28147
27006
25842
27169
28200
27196
26552
27266
27465
26754
26915
27972
27891
26578
26561
28145
28270
26700
26652
27661
27207
26869
28165
28419
26765
26640
28586
28518
26125
25810
27845
28399
27597
28196
29056
28026
27319
28675
29103
27260
26611
28191
28540
27083
27267
28957
28799
27589
28183
28987
27601
26335
27539
28564
27586
27486
29034
29254
28327
28717
29357
28077
26728
27652
28581
27455
27084
28835
29487
28097
27898
29474
29566
27980
28034
29351
28970
27991
29011
30384
29586
28383
29071
29717
28675
28105
29023
29262
28388
28656
29913
29369
27800
28380
29631
28628
27731
29093
29504
27759
27890
30228
30332
28338
28260
29476
28806
27691
28893
29946
28275
27206
29065
30159
28464
27309
28240
28449
27534
28279
29659
28574
27089
28291
29700
28394
27096
28528
29681
28571
28492
29826
29107
27376
27985
29471
29182
28252
28265
28468
28565
29237
29784
28893
27353
27577
29472
29746
28085
27958
29417
29436
28620
29257
29845
28565
28078
30015
30615
28362
27763
29994
30389
28572
28886
30356
29399
28300
29621
30403
29011
28374
29819
30720
29779
29326
30281
30231
28923
29161
30490
29554
27892
29307
30954
29267
28177
30170
30984
29355
29321
31009
30446
28402
28960
30494
29355
28134
29841
31241
29910
29174
30692
31007
29254
29009
30751
31048
29560
29568
31292
31388
30137
30624
31409
29880
28869
30428
30885
29121
29349
31522
31249
29433
29991
31303
30173
28987
30432
31092
28758
27805
30035
31158
29949
29516
30328
30182
29153
29165
29822
29208
28245
29101
30606
30126
28817
29261
29979
29128
28779
29581
29262
28244
28647
29651
29626
29436
29830
29352
28119
28446
29908
29761
28477
28888
30495
30445
29478
30120
31049
30000
28734
29471
30394
29344
28497
29875
30774
29496
29127
30598
30643
29345
29947
31084
29824
28719
30255
31353
29970
28926
29829
30242
29432
29845
31051
30383
29214
30108
31197
30065
28824
29769
30614
29590
29342
30708
30549
28722
29074
31475
31311
28899
29147
31000
30191
28912
30405
31505
29843
29184
31169
31362
28761
28258
30419
30698
29183
29598
30968
30339
29684
31092
31525
29517
28821
30487
30687
29086
29639
31712
31304
29764
30492
31349
29611
28196
29797
31108
29684
29164
31295
31871
29551
28615
30099
30006
28372
29108
30774
29830
28917
30427
30993
29207
28467
29581
29624
28621
29327
30602
29361
27415
28572
31112
30690
28696
29160
30225
29088
28712
30432
30260
27999
28202
30563
30548
28624
28471
29268
28588
28077
29417
30171
28826
28494
30409
30809
28814
28531
30248
30054
28798
29889
30795
28920
28255
30387
30939
29155
28546
29538
29870
29342
29516
30216
29716
28647
29377
30939
30204
28576
29438
30554
29183
28566
30203
30407
28800
28935
30382
29781
28136
28771
30238
29769
29167
30123
30320
29046
29299
31259
31188
29146
29056
30588
30342
29262
30059
31033
29952
29311
30875
31503
29828
29186
30435
30431
29109
29514
30688
29787
28801
30197
31184
29529
28246
29503
30346
29132
28901
30390
30607
29692
30057
30839
29984
28774
29320
30225
29439
28591
29547
30576
29888
29186
29875
29854
28310
27986
29134
29053
28163
28942
30401
29949
28826
29394
29730
28350
28217
29831
29618
27979
28472
30017
29508
28745
29990
30446
28326
27210
28962
29987
28503
28012
29723
30030
28389
28359
29701
29101
27702
28540
29525
28414
28174
29828
29930
28414
28388
29495
29191
28082
28401
29267
28617
27824
28840
29887
28822
27586
28295
28864
28094
28567
29948
29144
27547
28370
29903
29269
28268
29221
29898
28664
28209
29501
29691
28422
28457
29613
29260
28091
28418
29255
28958
28803
29716
29763
28137
27628
29306
29986
28459
27708
28875
29569
28892
28861
29647
28990
27742
28814
30205
28395
26487
28206
29613
28011
27876
29992
29841
28378
29371
30604
28804
26866
28046
29343
28186
27842
29430
29381
27781
28041
29345
28698
27120
27426
28982
29181
27952
27779
28983
28843
27709
28508
29274
27423
26517
28271
28494
26822
27346
29167
28510
27208
28264
28773
26426
25325
27616
28705
26778
26398
28482
28829
27273
27104
27991
27627
26595
26883
27818
27502
26858
27615
28477
27942
27470
27971
27618
26604
27374
28541
27439
26349
27518
28562
27909
27478
27932
27523
26612
27371
28620
27870
26683
27632
29087
28494
27415
28026
28417
27354
27456
29013
28876
27491
28157
29792
28907
26984
27502
28964
28447
27482
28261
29032
28109
27644
28846
29298
28139
27576
28209
28444
28058
28349
28871
28203
27625
28890
29937
28659
27487
28565
29241
28215
28455
29866
29244
27822
28535
29623
28540
27376
28604
30013
29403
28864
29443
29041
27922
28721
30559
30061
27925
27747
29065
29126
28642
29213
29390
28189
27900
29349
29415
27522
27345
29201
29512
28327
