12048
12127
12132
12073
12137
12171
12206
12132
12207
12240
12207
12218
12292
12337
12290
12371
12414
12473
12429
12529
12625
12673
12685
12798
12866
12842
12873
12982
13021
12975
12961
13072
13085
12988
13078
13067
13053
13010
13044
13087
13028
13004
13035
13043
12953
12932
12993
13028
12868
12930
12991
12958
12895
12896
12928
12920
12845
12911
12889
12868
12839
12859
12926
12799
12841
12851
12843
12750
12792
12808
12822
12731
12763
12742
12734
12679
12702
12709
12677
12678
12687
12712
12641
12701
12700
12689
12611
12652
12659
12640
12575
12625
12649
12556
12536
12625
12586
12516
12527
12591
12524
12465
12519
12562
12528
12443
12508
12490
12444
12411
12456
12488
12389
12417
12435
12437
12334
12393
12415
12360
12281
12338
12377
12318
12315
12347
12351
12283
12299
12348
12357
12250
12299
12315
12330
12275
12359
12364
12358
12317
12376
12382
12334
12316
12375
12335
12278
12255
12295
12299
12207
12242
12235
12214
12110
12173
12204
12178
12111
12174
12184
12154
12121
12184
12167
12141
12168
12195
12204
12121
12216
12204
12211
12167
12209
12274
12257
12198
12297
12331
12275
12347
12401
12406
12334
12440
12450
12512
12447
12543
12603
12574
12573
12634
12715
12666
12698
12817
12867
12813
12915
13016
13001
12983
13085
13085
13108
13024
13125
13140
13057
13049
13104
13139
13044
13071
13065
13086
13020
13051
13055
13066
12961
13064
13072
12983
12973
13010
13003
12924
12941
13004
12983
12933
12978
12971
12920
12897
12921
12944
12946
12881
12915
12950
12892
12868
12913
12923
12831
12908
12898
12927
12822
12868
12889
12897
12819
12870
12889
12861
12842
12861
12849
12808
12792
12840
12802
12753
12774
12796
12800
12731
12767
12762
12764
12716
12788
12776
12703
12706
12761
12773
12678
12709
12790
12744
12691
12733
12764
12692
12649
12705
12730
12677
12639
12705
12720
12622
12673
12689
12666
12613
12676
12689
12633
12597
12625
12664
12620
12596
12648
12643
12597
12616
12642
12678
12583
12649
12639
12647
12524
12572
12634
12640
12512
12567
12613
12498
12495
12568
12504
12461
12464
12496
12502
12411
12444
12482
12421
12349
12452
12429
12408
12336
12424
12421
12363
12403
12465
12477
12353
12422
12449
12419
12400
12452
12457
12434
12381
12480
12509
12469
12520
12555
12612
12549
12657
12704
12768
12690
12791
12857
12894
12845
12942
13028
12990
13028
13131
13135
13051
13081
13128
13144
13089
13101
13110
13082
13030
13104
13118
13081
13031
13074
13117
12971
13040
13075
13052
13000
13047
13034
13035
12944
13009
13037
13004
12943
13005
13003
12943
12949
12950
12964
12899
12924
12950
12948
12850
12898
12949
12923
12856
12900
12906
12859
12841
12901
12902
12825
12833
12850
12823
12778
12803
12809
12798
12727
12781
12791
12753
12747
12803
12821
12736
12751
12788
12798
12694
12768
12763
12749
12660
12724
12725
12708
12652
12701
12673
12672
12623
12642
12713
12579
12601
12616
12642
12561
12661
12625
12565
12506
12538
12572
12509
12498
12575
12576
12477
12513
12567
12559
12481
12487
12535
12535
12438
12538
12532
12452
12411
12449
12473
12461
12432
12501
12493
12336
12365
12425
12356
12338
12362
12411
12372
12353
12347
12386
12301
12265
12320
12354
12308
12343
12367
12361
12283
12321
12312
12341
12287
12393
12420
12375
12297
12368
12420
12308
12337
12341
12410
12332
12354
12432
12432
12379
12468
12484
12492
12505
12576
12656
12644
12676
12775
12868
12793
12889
12964
13008
13005
13092
13130
13180
13115
13195
13206
13198
13146
13226
13217
13172
13193
13272
13217
13167
13185
13209
13213
13093
13214
13223
13185
13119
13238
13243
13164
13200
13224
13244
13158
13183
13244
13226
13166
13156
13233
13178
13111
13210
13183
13120
13092
13174
13132
13083
13099
13122
13096
13015
13051
13112
13110
12967
13058
13052
13016
12996
13038
13003
12938
12959
12957
12957
12873
12888
12903
12863
12837
12896
12857
12846
12792
12823
12834
12773
12770
12804
12770
12732
12740
12754
12708
12663
12705
12737
12701
12684
12712
12725
12681
12601
12646
12674
12608
12635
12667
12652
12543
12578
12579
12543
12519
12568
12538
12514
12463
12527
12507
12465
12470
12512
12467
12450
12479
12513
12488
12425
12485
12494
12490
12456
12498
12531
12469
12449
12477
12479
12384
12412
12458
12436
12356
12385
12368
12393
12300
12343
12386
12320
12310
12334
12372
12275
12299
12349
12362
12337
12378
12341
12376
12308
12376
12400
12413
12401
12472
12492
12465
12477
12558
12554
12498
12567
12588
12655
12582
12702
12772
12764
12747
12816
12913
12906
12896
13024
13015
13047
13089
13191
13221
13146
13247
13296
13283
13205
13278
13284
13296
13243
13328
13384
13256
13248
13313
13347
13221
13268
13345
13277
13186
13271
13237
13210
13145
13156
13194
13155
13091
13173
13185
13104
13112
13153
13121
13053
13111
13124
13091
12995
13077
13129
13066
13000
13082
13108
13029
13005
13054
13044
12967
13017
13049
13015
12980
12998
12961
12993
12946
13004
13004
12929
12935
12990
13023
12907
12955
12956
12934
12881
12937
12938
12912
12886
12906
12910
12872
12823
12871
12884
12781
12764
12804
12767
12701
12751
12764
12745
12710
12701
12699
12667
12635
12715
12710
12649
12657
12671
12718
12601
12627
12673
12627
12585
12600
12615
12542
12505
12571
12582
12530
12486
12550
12558
12435
12512
12536
12544
12459
12515
12538
12478
12454
12510
12518
12491
12482
12537
12526
12450
12454
12473
12481
12399
12400
12441
12375
12366
12407
12389
12337
12323
12348
12353
12297
12310
12353
12374
12276
12337
12370
12361
12303
12388
12425
12399
12336
12428
12410
12434
12445
12519
12525
12462
12532
12617
12640
12598
12692
12774
12804
12799
12902
12938
12940
12970
13084
13119
13147
13141
13280
13318
13213
13288
13305
13318
13225
13284
13311
13314
13212
13290
13293
13236
13232
13272
13285
13199
13222
13233
13159
13097
13123
13113
13089
13007
13089
13039
13066
13022
13034
13090
12971
12965
12986
13013
12960
12978
13002
12977
12915
12967
12953
12915
12857
12941
12897
12852
12792
12851
12850
12763
12816
12822
12801
12714
12784
12784
12749
12699
12747
12787
12763
12684
12760
12759
12684
12701
12766
12736
12664
12682
12724
12690
12631
12675
12686
12690
12600
12665
12661
12617
12626
12648
12687
12553
12613
12601
12603
12516
12561
12595
12571
12502
12582
12585
12536
12541
12607
12610
12494
12551
12573
12548
12443
12509
12530
12501
12439
12494
12546
12498
12499
12506
12537
12447
12415
12407
12438
12310
12365
12359
12323
12258
12333
12324
12295
12225
12284
12299
12241
12189
12319
12280
12175
12204
12239
12269
12205
12225
12294
12279
12228
12290
12351
12344
12293
12391
12391
12334
12366
12406
12426
12388
12435
12491
12568
12522
12618
12653
12688
12640
12755
12817
12793
12818
12909
12962
12897
12989
13064
13083
13012
13089
13132
13139
13099
13204
13217
13130
13098
13199
13190
13129
13206
13214
13258
13163
13208
13257
13259
13193
13251
13276
13216
13178
13224
13251
13166
13186
13239
13234
13168
13187
13220
13212
13115
13162
13180
13150
13090
13186
13211
13118
13142
13207
13181
13098
13143
13155
13173
13078
13148
13124
13088
13053
13115
13135
13075
12997
13061
13094
12982
13045
13046
13072
12946
13012
13077
13072
12939
13051
13097
13045
12980
13016
13009
12938
12902
12924
12927
12853
12887
12833
12820
12818
12834
12827
12837
12825
12868
12870
12849
12842
12873
12891
12858
12832
12875
12903
12834
12844
12887
12901
12832
12908
12931
12930
12845
12949
12941
12853
12871
12952
12958
12810
12882
12890
12807
12761
12839
12779
12783
12725
12796
12787
12730
12649
12754
12737
12628
12648
12634
12631
12522
12602
12580
12580
12482
12558
12555
12530
12492
12573
12577
12524
12485
12614
12610
12534
12609
12630
12640
12547
12656
12681
12662
12604
12658
12686
12593
12611
12678
12693
12604
12718
12728
12721
12688
12764
12811
12802
12810
12894
12953
12958
12972
13103
13119
13056
13155
13250
13214
13210
13272
13292
13244
13250
13241
13308
13227
13181
13302
13306
13194
13209
13233
13279
13149
13192
13226
13179
13057
13127
13202
13132
13074
13145
13162
13035
13082
13143
13117
13018
13067
13084
13080
13001
13078
13099
13056
12987
13089
13060
13072
12983
13030
13054
12960
13006
13046
13009
12933
12993
12982
12995
12882
12964
12970
12939
12891
12945
12932
12883
12845
12900
12926
12846
12899
12933
12921
12841
12909
12918
12876
12820
12881
12903
12827
12792
12844
12872
12780
12834
12845
12848
12764
12810
12811
12818
12731
12846
12851
12767
12698
12794
12814
12676
12751
12774
12744
12670
12747
12795
12756
12669
12713
12757
12738
12671
12748
12775
12672
12678
12727
12740
12659
12698
12738
12660
12598
12643
12639
12650
12537
12587
12622
12553
12541
12609
12569
12465
12479
12588
12574
12526
12552
12572
12565
12515
12617
12624
12575
12552
12617
12652
12560
12642
12660
12672
12631
12684
12747
12737
12679
12779
12856
12867
12836
12957
12964
12937
12994
13062
13101
13074
13155
13157
13225
13177
13276
13329
13310
13221
13306
13344
13290
13257
13285
13344
13218
13258
13274
13273
13168
13220
13247
13250
13191
13203
13242
13187
13146
13213
13196
13139
13129
13230
13218
13150
13193
13212
13204
13079
13174
13173
13157
13081
13128
13158
13127
13125
13142
13174
13046
13088
13077
13137
12983
13029
13092
13027
12956
13015
13028
12990
12961
12999
13004
12902
12951
12987
12963
12906
12943
12929
12966
12881
12965
12910
12916
12872
12903
12943
12866
12832
12916
12921
12826
12827
12873
12877
12806
12824
12828
12802
12710
12777
12805
12735
12754
12795
12727
12651
12740
12721
12735
12670
12738
12731
12720
12664
12684
12729
12676
12653
12731
12752
12704
12674
12733
12717
12660
12734
12735
12725
12686
12731
12758
12715
12640
12701
12662
12625
12600
12647
12653
12560
12561
12599
12565
12532
12556
12557
12542
12443
12524
12543
12520
12471
12557
12579
12495
12555
12624
12599
12563
12576
12626
12665
12588
12653
12696
12686
12596
12763
12757
12719
12745
12820
12820
12780
12878
12939
12982
12899
12957
13066
13038
13047
13115
13197
13179
13189
13320
13332
13267
13285
13331
13327
13246
13305
13341
13301
13215
13290
13308
13279
13212
13279
13293
13210
13202
13249
13236
13174
13227
13222
13189
13129
13154
13184
13184
13130
13155
13211
13125
13096
13181
13156
13058
13128
13168
13139
13037
13129
13110
13129
13094
13139
13158
13087
13058
13099
13136
13011
13093
13087
13098
13048
13045
13062
13049
12978
13018
13039
13011
12985
13001
13031
12957
12951
13002
12987
12913
12984
12974
12962
12890
12942
12925
12914
12856
12913
12942
12894
12874
12895
12916
12807
12840
12887
12858
12753
12825
12843
12822
12721
12773
12789
12762
12714
12776
12812
12709
12680
12722
12736
12667
12674
12716
12718
12657
12726
12713
12669
12643
12680
12723
12640
12634
12643
12675
12551
12558
12608
12583
12488
12548
12558
12516
12443
12456
12497
12457
12453
12448
12472
12422
12453
12510
12501
12405
12478
12559
12562
12494
12542
12536
12559
12487
12561
12620
12555
12578
12625
12628
12590
12635
12674
12717
12657
12703
12770
12766
12736
12848
12909
12892
12874
13002
13061
12989
13037
13149
13172
13124
13210
13225
13211
13186
13179
13231
13173
13145
13233
13212
13140
13132
13190
13171
13075
13120
13175
13142
13059
13122
13117
13096
13051
13098
13110
13029
13042
13116
13082
12959
13028
13063
13044
12974
13018
13053
12980
12967
13038
13000
12998
12976
13028
13019
13022
13002
13002
13050
12950
13000
13047
12998
12936
12983
12998
12965
12910
12945
12980
12868
12865
12943
12928
12838
12883
12893
12910
12807
12866
12877
12833
12759
12831
12861
12785
12806
12850
12866
12747
12828
12845
12771
12658
12748
12765
12732
12607
12670
12695
12631
12592
12644
12649
12511
12575
12605
12624
12495
12588
12576
12581
12485
12583
12597
12556
12480
12547
12565
12498
12491
12560
12539
12466
12485
12557
12501
12425
12499
12474
12436
12386
12432
12421
12382
12330
12403
12445
12339
12397
12419
12448
12380
12424
12468
12466
12393
12428
12505
12471
12415
12488
12528
12463
12506
12566
12530
12489
12572
12629
12662
12596
12681
12698
12705
12722
12787
12869
12834
12877
12953
13018
12946
13061
13115
13140
13057
13164
13237
13203
13134
13222
13223
13151
13141
13188
13201
13111
13115
13167
13206
13125
13154
13183
13162
13098
13197
13185
13158
13139
13182
13218
13123
13111
13184
13177
13087
13138
13163
13132
13078
13100
13140
13076
13059
13087
13132
13046
13009
13101
13057
13003
13089
13063
13034
12942
13021
13067
13009
12998
13044
13078
12977
12920
12993
13004
12898
12912
12975
12948
12896
12931
12957
12819
12768
12842
12901
12876
12824
12885
12862
12793
12818
12870
12859
12759
12825
12809
12815
12700
12787
12794
12811
12735
12788
12812
12746
12717
12789
12815
12738
12740
12782
12760
12681
12694
12743
12720
12662
12719
12762
12672
12659
12695
12741
12640
12638
12731
12693
12588
12649
12684
12644
12576
12620
12653
12583
12505
12572
12571
12514
12492
12528
12554
12447
12486
12494
12501
12426
12499
12489
12507
12405
12516
12531
12480
12473
12530
12572
12447
12505
12547
12556
12488
12538
12627
12628
12554
12651
12662
12630
12647
12727
12743
12715
12765
12901
12918
12855
12946
13047
13051
13018
13110
13192
13188
13152
13227
13251
13220
13208
13266
13271
13179
13227
13230
13249
13163
13207
13245
13203
13148
13231
13239
13191
13157
13224
13226
13177
13146
13223
13221
13103
13127
13150
13196
13080
13135
13165
13122
13047
13152
13095
13097
13040
13099
13117
13033
13085
13099
13073
12976
12964
13049
13011
12932
12961
12975
12947
12925
12951
12977
12878
12903
12942
12932
12834
12891
12887
12901
12839
12865
12869
12835
12812
12879
12883
12797
12794
12855
12830
12779
12772
12815
12790
12762
12785
12801
12759
12705
12768
12762
12725
12714
12763
12797
12667
12728
12757
12771
12667
12714
12732
12676
12634
12723
12701
12672
12630
12686
12685
12578
12604
12646
12655
12544
12607
12634
12571
12525
12587
12629
12578
12535
12596
12562
12509
12502
12514
12513
12421
12458
12483
12426
12370
12377
12413
12368
12296
12335
12361
12330
12323
12361
12346
12285
12357
12380
12424
12320
12370
12375
12394
12337
12417
12428
12430
12368
12443
12467
12431
12450
12499
12526
12477
12528
12575
12581
12526
12637
12688
12682
12673
12798
12789
12789
12886
12934
12910
12907
12912
13051
13003
12928
12992
13057
13032
12986
13057
13042
13011
13010
13078
13089
12964
13024
13114
13071
13001
13039
13076
13092
13002
13068
13098
13036
13026
13079
13099
13064
13068
13107
13135
13024
13073
13066
13050
12985
13064
13043
13047
12976
13067
13083
13019
13025
13067
13061
12963
12994
13030
12999
12882
12984
12962
12928
12849
12924
12978
12900
12812
12898
12910
12853
12858
12896
12882
12773
12821
12889
12823
12772
12812
12828
12805
12715
12764
12808
12740
12719
12770
12760
12679
12727
12730
12729
12613
12705
12754
12710
12625
12707
12710
12652
12581
12648
12651
12606
12607
12631
12637
12527
12584
12608
12574
12530
12557
12576
12500
12499
12563
12574
12478
12482
12502
12539
12456
12509
12492
12479
12403
12386
12444
12423
12364
12382
12444
12346
12312
12344
12328
12264
12287
12316
12313
12249
12312
12346
12312
12265
12311
12344
12308
12277
12356
12366
12282
12323
12364
12358
12304
12380
12411
12417
12370
12473
12484
12483
12499
12563
12627
12571
12631
12722
12767
12715
12807
12847
12898
12840
12977
12994
13005
12976
13038
13098
13039
12989
13080
13041
13013
12999
13029
13037
12970
13003
13029
13010
12954
13030
13005
12979
12876
12982
12992
12915
12919
12964
12986
12913
12923
12969
12946
12886
12933
12926
12914
12860
12930
12934
12878
12854
12903
12934
12824
12895
12872
12873
12827
12866
12885
12857
12792
12857
12881
12799
12759
12851
12810
12771
12763
12818
12826
12737
12782
12817
12796
12707
12770
12783
12760
12704
12735
12736
12705
12688
12748
12757
12679
12680
12729
12713
12618
12667
12695
12655
12591
12688
12658
12602
12615
12651
12663
12593
12604
12629
12609
12566
12559
12629
12610
12529
12617
12638
12551
12503
12603
12637
12506
12562
12603
12577
12510
12531
12582
12537
12493
12566
12589
12486
12444
12517
12492
12438
12429
12499
12476
12353
12438
12454
12440
12343
12381
12432
12364
12333
12358
12397
12360
12361
12382
12401
12364
12397
12415
12415
12368
12462
12449
12440
12396
12452
12517
12492
12448
12554
12580
12501
12554
12627
12599
12539
12628
12753
12760
12720
12823
12894
12898
12872
13001
13021
13038
13061
13186
13208
13168
13236
13298
13324
13222
13273
13319
13309
13197
13309
13250
13295
13221
13319
13269
13220
13273
13296
13266
13156
13244
13267
13234
13167
13174
13235
13195
13113
13206
13201
13116
13100
13187
13131
13099
13118
13123
13118
13024
13053
13111
13074
13024
13072
13114
13045
13013
13044
13101
12976
13041
13031
13034
12928
13035
13058
12998
12912
12975
12988
12953
12927
12939
12950
12873
12867
12969
12925
12846
12861
12924
12880
12821
12877
12886
12844
12749
12830
12832
12792
12733
12808
12843
12762
12772
12771
12762
12706
12748
12771
12758
12625
12733
12731
12678
12596
12670
12680
12580
12618
12658
12633
12563
12609
12656
12642
12550
12646
12651
12597
12543
12633
12670
12583
12570
12654
12674
12584
12581
12613
12619
12490
12554
12560
12524
12486
12506
12447
12428
12340
12434
12478
12357
12380
12420
12425
12347
12395
12466
12425
12313
12425
12408
12427
12378
12415
12444
12433
12459
12475
12497
12422
12515
12556
12569
12500
12608
12660
12676
12627
12756
12800
12783
12803
12905
12956
12951
12997
13074
13075
13061
13156
13204
13189
13195
13257
13267
13242
13165
13263
13260
13187
13211
13239
13231
13142
13211
13213
13200
13102
13181
13182
13157
13072
13153
13189
13095
13100
13112
13130
13023
13049
13097
13089
12986
13012
13063
13039
12961
12995
13086
12986
12959
13010
13001
12940
12972
12992
13006
12903
12923
12974
12949
12870
12928
12967
12882
12868
12920
12934
12810
12825
12871
12873
12821
12826
12851
12840
12763
12808
12778
12776
12721
12804
12784
12761
12713
12779
12769
12684
12708
12736
12766
12675
12724
12715
12669
12609
12687
12722
12665
12605
12672
12614
12554
12594
12649
12632
12526
12608
12634
12603
12538
12597
12621
12582
12509
12589
12577
12513
12579
12575
12577
12520
12579
12596
12556
12497
12529
12576
12575
12455
12569
12536
12481
12454
12529
12509
12409
12415
12482
12449
12363
12442
12443
12405
12328
12413
12423
12377
12347
12415
12432
12320
12376
12443
12437
12375
12396
12465
12429
12376
12434
12480
12482
12450
12526
12551
12477
12551
12630
12690
12587
12684
12761
12770
12759
12864
12887
12911
12886
12987
13059
13022
13052
13157
13188
13130
13202
13205
13241
13158
13228
13225
13203
13119
13175
13238
13164
13124
13180
13188
13111
13095
13145
13119
13026
13069
13127
13106
13025
13068
13106
13071
12995
13032
13074
12988
12935
13019
13047
12930
13001
13025
13002
12934
12966
13007
12976
12866
12960
13007
12935
12909
12969
12963
12836
12926
12960
12923
12837
12890
12911
12893
12840
12874
12900
12831
12802
12844
12859
12787
12801
12807
12835
12733
12791
12800
12798
12676
12750
12813
12739
12653
12734
12740
12685
12628
12702
12691
12607
12654
12702
12683
12558
12651
12719
12647
12583
12627
12721
12567
12503
12603
12668
12528
12552
12577
12595
12466
12515
12557
12544
12512
12554
12562
12557
12480
12530
12556
12521
12522
12551
12566
12479
12507
12547
12536
12449
12485
12491
12452
12406
12454
12472
12405
12360
12407
12401
12370
12360
12444
12418
12359
12398
12443
12420
12334
12414
12464
12393
12405
12474
12460
12444
12439
12538
12526
12448
12483
12534
12559
12575
12586
12618
12641
12626
12702
12819
12772
12690
12835
12948
12823
12916
12995
13034
12958
13057
13126
13144
13119
13229
13246
13219
13219
13253
13282
13193
13247
13262
13249
13180
13214
13246
13244
13163
13207
13287
13203
13161
13180
13216
13156
13163
13222
13147
13106
13122
13148
13148
13064
13113
13193
13042
13039
13082
13134
13014
13002
13057
13085
12975
12995
13031
13083
12954
13023
13045
13034
12967
12976
13005
12966
12913
12971
12988
12928
12953
12926
12974
12853
12903
12919
12918
12852
12942
12885
12843
12798
12842
12897
12829
12810
12843
12860
12766
12787
12808
12837
12735
12764
12771
12783
12650
12763
12755
12742
12639
12730
12697
12618
12662
12676
12677
12601
12647
12631
12652
12574
12650
12639
12603
12554
12634
12641
12607
12558
12596
12595
12552
12554
12652
12630
12563
12590
12590
12631
12543
12598
12606
12517
12546
12668
12518
12484
12499
12573
12536
12442
12475
12482
12462
12392
12446
12458
12386
12339
12471
12443
12363
12385
12474
12415
12367
12418
12483
12486
12445
12507
12496
12507
12416
12540
12562
12551
12526
12585
12627
12529
12629
12658
12713
12684
12723
12799
12827
12743
12864
12972
12934
12892
13009
13068
13021
13081
13136
13152
13132
13147
13162
13185
13071
13176
13208
13155
13120
13186
13178
13106
13143
13181
13169
13092
13150
13159
13129
13087
13101
13111
13127
13009
13100
13136
13058
13016
13044
13081
13010
13005
13060
13061
12949
13006
13034
13009
12920
13028
13039
12940
12889
12941
12969
12898
12915
12956
12899
12842
12894
12932
12891
12864
12836
12908
12853
12788
12852
12837
12797
12784
12804
12848
12760
12809
12810
12825
12717
12761
12832
12783
12703
12767
12762
12704
12669
12755
12756
12655
12694
12725
12686
12592
12677
12689
12691
12599
12657
12679
12652
12598
12639
12670
12589
12610
12633
12661
12579
12584
12603
12619
12528
12572
12636
12552
12507
12573
12608
12545
12512
12544
12546
12452
12523
12546
12540
12460
12497
12527
12482
12408
12459
12447
12397
12367
12368
12406
12314
12340
12382
12404
12283
12364
12393
12365
12338
12420
12403
12365
12325
12428
12405
12372
12353
12414
12459
12419
12454
12470
12501
12443
12537
12560
12579
12555
12641
12669
12630
12672
12774
12835
12798
12853
12918
12988
12885
12999
13023
13095
13042
13146
13199
13232
13143
13225
13243
13181
13201
13261
13235
13164
13260
13235
13232
13168
13205
13237
13224
13139
13219
13235
13146
13149
13163
13201
13084
13169
13198
13174
13087
13109
13139
13145
13083
13128
13122
13064
13024
13071
13102
12983
12963
13036
13049
12957
12961
12988
12953
12929
12960
12980
12893
12860
12925
12934
12891
12875
12894
12935
12823
12835
12885
12904
12771
12861
12894
12796
12771
12851
12838
12799
12741
12827
12835
12709
12775
12816
12786
12728
12764
12795
12767
12686
12764
12815
12744
12724
12743
12791
12678
12701
12766
12775
12633
12672
12721
12659
12621
12671
12684
12640
12631
12663
12661
12590
12582
12610
12663
12582
12614
12670
12633
12583
12667
12687
12643
12578
12663
12646
12623
12600
12661
12689
12590
12638
12663
12677
12603
12657
12651
12644
12553
12580
12623
12540
12531
12543
12556
12476
12469
12515
12498
12451
12513
12523
12501
12430
12511
12559
12537
12461
12560
12591
12588
12537
12590
12653
12574
12619
12642
12671
12618
12692
12723
12743
12672
12785
12804
12848
12814
12918
12935
12936
12977
13051
13122
13049
13151
13216
13219
13155
13247
13288
13221
13238
13277
13299
13196
13223
13267
13265
13214
13203
13217
13226
13159
13178
13252
13215
13128
13170
13195
13143
13110
13171
13203
13071
13123
13177
13161
13066
13125
13133
13107
13047
13094
13093
13080
13042
13087
13114
13032
13072
13081
13121
13003
13038
13101
13036
12983
13074
13100
13052
12980
13035
13037
13004
12990
13045
13015
12884
12942
12976
12942
12859
12907
12911
12904
12826
12914
12916
12881
12860
12877
12879
12800
12817
12870
12832
12738
12778
12783
12814
12741
12738
12775
12670
12672
12685
12738
12665
12629
12622
12677
12572
12633
12587
12596
12471
12534
12547
12503
12518
12518
12547
12499
12465
12512
12550
12462
12511
12542
12526
12410
12438
12440
12434
12456
12451
12483
12393
12314
12452
12493
12357
12399
12422
12417
12340
12378
12408
12349
12300
12338
12356
12296
12285
12313
12313
12278
12232
12325
12307
12226
12274
12333
12326
12260
12304
12339
12317
12328
12346
12341
12329
12297
12411
12422
12324
12420
12451
12487
12429
12494
12565
12549
12474
12625
12690
12730
12687
12841
12866
12822
12911
12925
13022
13048
13041
13118
13047
12975
13077
13083
13063
13010
13054
13060
13009
12973
13027
12965
12988
13029
12982
13002
12931
12958
12930
12996
12893
12970
12953
12891
12885
12933
12959
12854
12905
12907
12924
12782
12852
12907
12876
12771
12840
12864
12837
12782
12799
12787
12749
12790
12807
12824
12710
12734
12765
12749
12654
12736
12735
12736
12640
12709
12711
12624
12652
12632
12668
12587
12623
12604
12617
12528
12583
12592
12601
12532
12552
12581
12530
12486
12588
12551
12508
12532
12545
12550
12448
12523
12500
12534
12482
12498
12480
12511
12514
12483
12523
12456
12429
12494
12489
12413
12444
12456
12427
12355
12400
12494
12377
12378
12365
12493
12365
12321
12376
12419
12316
12291
12372
12337
12266
12300
12346
12279
12198
12241
12237
12193
12120
12206
12280
12122
12055
12134
12128
12049
12079
12107
12100
12039
12040
12154
12094
12020
12140
12134
12092
12079
12151
12105
12088
12144
12180
12163
12080
12152
12213
12174
12182
12253
12273
12280
12280
12372
12425
12381
12454
12574
12577
12533
12689
12721
12722
12732
12867
12875
12903
12847
12931
12970
12920
12873
13008
13005
12884
12936
12969
12976
12853
12939
12959
12884
12818
12887
12902
12842
12824
12863
12865
12756
12785
12858
12812
12771
12791
12823
12764
12712
12746
12756
12731
12709
12733
12742
12663
12702
12722
12695
12646
12691
12744
12740
12578
12655
12708
12634
12632
12709
12678
12631
12554
12635
12661
12592
12640
12602
12649
12520
12609
12618
12583
12536
12571
12576
12558
12488
12534
12527
12466
12484
12508
12505
12323
12414
12497
12447
12380
12435
12520
12376
12333
12431
12453
12376
12345
12425
12404
12299
12353
12414
12396
12287
12351
12275
12327
12323
12355
12361
12316
12370
12342
12353
12305
12306
12370
12350
12263
12342
12413
12328
12348
12351
12331
12289
12221
12359
12342
12242
12260
12314
12281
12256
12271
12272
12231
12275
12254
12332
12214
12176
12229
12290
12110
12153
12179
12153
12096
12143
12202
12140
12093
12137
12189
12167
12084
12174
12186
12136
12165
12184
12191
12134
12186
12252
12252
12188
12273
12286
12326
12254
12347
12405
12387
12410
12517
12559
12533
12590
12664
12724
12666
12790
12839
12881
12849
12952
13029
13026
12991
13054
13078
12992
13040
13051
13085
12993
13038
13056
13058
13017
13017
13039
13014
12948
12988
13039
12983
12950
12980
13041
12896
12980
12969
12935
12919
12961
12948
12919
12859
12915
12923
12896
12856
12901
12930
12820
12812
12898
12881
12792
12843
12870
12826
12801
12824
12873
12817
12740
12767
12843
12746
12757
12765
12761
12667
12764
12765
12754
12636
12755
12665
12703
12679
12704
12726
12685
12631
12688
12769
12632
12662
12694
12692
12612
12628
12691
12626
12577
12661
12671
12590
12637
12633
12580
12518
12496
12548
12581
12469
12499
12503
12488
12396
12471
12509
12447
12392
12466
12552
12440
12352
12450
12443
12388
12440
12482
12455
12373
12462
12473
12446
12360
12465
12504
12439
12407
12501
12515
12403
12429
12449
12439
12318
12396
12317
12340
12273
12265
12315
12238
12203
12277
12331
12190
12236
12294
12238
12123
12162
12216
12167
12097
12200
12219
12184
12130
12228
12238
12203
12155
12243
12275
12222
12275
12316
12313
12278
12357
12392
12391
12302
12466
12520
12505
12488
12578
12648
12630
12674
12732
12765
12788
12842
12902
12936
12882
12972
13033
12981
12893
12986
13017
12976
12965
12997
13031
12915
12960
13055
12989
12919
12960
12984
12947
12902
12951
12937
12893
12895
12952
12940
12874
12875
12905
12965
12853
12856
12925
12900
12806
12887
12892
12836
12771
12896
12862
12797
12829
12855
12852
12790
12837
12850
12830
12762
12816
12816
12795
12774
12811
12849
12768
12747
12790
12800
12685
12786
12753
12724
12647
12706
12728
12696
12608
12680
12713
12648
12602
12627
12678
12587
12603
12689
12653
12550
12606
12653
12617
12547
12567
12598
12565
12498
12590
12578
12482
12472
12563
12558
12462
12493
12529
12494
12449
12485
12478
12460
12384
12447
12460
12435
12414
12479
12500
12380
12445
12494
12488
12371
12400
12458
12427
12360
12407
12426
12394
12343
12407
12370
12300
12261
12327
12324
12197
12250
12295
12264
12160
12249
12275
12218
12220
12307
12279
12230
12221
12297
12303
12242
12312
12307
12345
12257
12345
12365
12355
12312
12380
12429
12406
12409
12508
12550
12493
12593
12639
12698
12663
12745
12836
12833
12903
12927
13101
13029
13067
13127
13185
13111
13149
13210
13219
13137
13188
13195
13230
13116
13189
13185
13170
13123
13174
13177
13126
13120
13157
13191
13053
13160
13135
13089
12998
13076
13129
13067
12940
13068
13120
13032
13022
13035
13041
12983
13010
13034
13000
12956
13008
12986
12995
12967
12983
12972
12991
12945
12948
12938
12853
12907
12916
12892
12804
12842
12862
12846
12764
12805
12844
12777
12691
12760
12811
12770
12756
12786
12787
12720
12735
12760
12745
12645
12724
12733
12700
12649
12664
12705
12626
12660
12663
12661
12569
12614
12694
12613
12547
12616
12601
12624
12563
12597
12613
12586
12468
12579
12575
12477
12531
12505
12550
12493
12503
12538
12540
12475
12540
12537
12534
12483
12548
12604
12458
12453
12520
12533
12468
12485
12534
12508
12430
12456
12512
12445
12341
12441
12405
12371
12299
12366
12375
12304
12319
12414
12376
12273
12358
12361
12362
12272
12421
12418
12359
12317
12378
12398
12368
12359
12418
12433
12382
12429
12508
12494
12446
12488
12578
12593
12521
12636
12706
12649
12708
12804
12887
12883
12909
13004
13056
13017
13150
13231
13217
13184
13250
13318
13268
13240
13294
13299
13228
13270
13344
13314
13236
13290
13276
13297
13243
13286
13295
13252
13186
13268
13284
13242
13209
13286
13250
13168
13195
13227
13195
13116
13162
13177
13171
13115
13173
13210
13113
13120
13164
13108
13055
13077
13102
13106
13025
13038
13078
13066
12992
13064
13085
13043
12966
13046
13051
12966
12979
13027
13021
12929
12938
12987
12956
12888
12953
12980
12925
12844
12909
12942
12911
12919
12932
12938
12835
12866
12920
12893
12813
12885
12909
12821
12797
12837
12862
12827
12814
12847
12793
12750
12767
12810
12773
12725
12770
12774
12766
12660
12727
12729
12717
12662
12733
12717
12654
12662
12713
12714
12619
12673
12718
12706
12628
12685
12724
12685
12625
12711
12711
12645
12660
12699
12728
12660
12639
12672
12657
12576
12633
12666
12623
12523
12583
12610
12538
12504
12540
12523
12445
12458
12526
12539
12410
12477
12538
12514
12471
12550
12564
12535
12485
12580
12648
12555
12582
12698
12697
12626
12678
12755
12770
12693
12795
12855
12857
12861
12949
12996
12975
12959
13145
13195
13121
13186
13297
13316
13298
13350
13382
13385
13323
13466
13444
13386
13407
13463
13459
13391
13403
13447
13426
13338
13379
13408
13384
13293
13385
13365
13331
13232
13308
13289
13217
13227
13246
13241
13198
13188
13188
13202
13103
13155
13159
13167
13068
13117
13090
13080
13047
13029
13023
12981
12984
13056
13014
12929
12975
13005
12965
12841
12901
12941
12875
12851
12868
12908
12820
12825
12861
12857
12783
12837
12865
12855
12814
12824
12828
12836
12798
12820
12852
12757
12769
12788
12831
12704
12779
12787
12773
12715
12771
12832
12792
12736
12801
12835
12765
12707
12814
12804
12686
12761
12786
12768
12660
12755
12752
12762
12661
12759
12801
12781
12699
12755
12805
12754
12743
12793
12803
12700
12741
12785
12754
12632
12706
12730
12682
12559
12657
12661
12597
12552
12596
12594
12473
12520
12542
12519
12437
12503
12546
12495
12484
12509
12568
12494
12477
12520
12560
12482
12476
12571
12535
12444
12496
12559
12564
12491
12554
12594
12568
12585
12630
12659
12599
12652
12749
12789
12751
12834
12885
12953
12911
13016
13055
13099
13042
13179
13181
13172
13147
13246
13220
13138
13156
13188
13176
13062
13111
13153
13138
13065
13107
13139
13088
13057
13118
13129
13046
13046
13095
13099
13051
13055
13113
13063
12987
13049
13078
12982
12981
13053
13078
12964
12953
13025
13009
12912
12934
12945
12971
12895
12966
12972
12966
12904
12947
12966
12895
12890
12947
12966
12841
12927
12954
12945
12824
12901
12941
12900
12831
12892
12908
12872
12839
12865
12868
12834
12794
12858
12867
12811
12800
12867
12839
12771
12798
12801
12718
12716
12779
12785
12724
12721
12720
12734
12629
12742
12737
12720
12649
12696
12706
12697
12600
12702
12694
12597
12594
12624
12653
12562
12592
12643
12633
12514
12601
12612
12578
12483
12603
12577
12573
12497
12570
12537
12512
12436
12523
12479
12387
12468
12482
12441
12325
12386
12443
12388
12310
12386
12396
12348
12327
12364
12391
12288
12373
12417
12400
12323
12394
12408
12419
12381
12471
12437
12423
12419
12519
12556
12446
12493
12569
12586
12510
12620
12646
12703
12655
12728
12859
12831
12852
12943
13023
13029
13048
13174
13194
13177
13229
13325
13297
13252
13313
13370
13328
13251
13314
13357
13297
13281
13319
13299
13212
13275
13286
13270
13186
13191
13245
13240
13164
13226
13234
13162
13144
13213
13220
13131
13138
13188
13134
13053
13126
13153
13109
13057
13128
13130
13093
13050
13105
13124
13087
13062
13140
13116
12996
13082
13085
13094
12988
13056
13047
13060
12942
13052
13060
13026
12954
13038
13048
12963
12955
13002
12999
12899
12973
12999
12971
12882
12945
12926
12932
12815
12926
12927
12845
12882
12898
12913
12841
12897
12900
12906
12828
12890
12928
12913
12816
12882
12928
12881
12814
12916
12923
12852
12851
12877
12894
12787
12876
12854
12849
12772
12829
12847
12773
12791
12829
12817
12749
12775
12825
12843
12735
12784
12782
12756
12685
12751
12752
12707
12657
12666
12652
12627
12618
12642
12637
12555
12600
12610
12603
12520
12596
12561
12546
12552
12571
12607
12528
12506
12587
12642
12524
12574
12600
12627
12556
12606
12688
12640
12629
12684
12695
12678
12696
12766
12792
12763
12828
12927
12942
12930
12967
13127
13132
13118
13226
13292
13332
13282
13387
13392
13385
13455
13500
13464
13374
13435
13455
13433
13342
13445
13428
13398
13335
13401
13436
13328
13342
13363
13406
13324
13373
13413
13384
13291
13358
13372
13357
13265
13316
13369
13285
13297
13324
13344
13227
13257
13301
13350
13241
13284
13301
13269
13202
13271
13271
13267
13203
13287
13274
13197
13217
13221
13235
13181
13155
13172
13182
13064
13159
13145
13128
13036
13131
13159
13044
13058
13106
13095
13003
13049
13065
13076
12969
13009
13039
13049
12974
13023
13008
13011
12935
13005
12995
12935
12937
12974
12961
12876
12910
12917
12890
12864
12934
12911
12872
12800
12847
12858
12803
12793
12865
12861
12787
12812
12818
12872
12765
12854
12852
12839
12761
12842
12869
12810
12759
12826
12830
12725
12743
12777
12753
12653
12682
12693
12675
12571
12610
12659
12607
12539
12596
12635
12536
12572
12582
12629
12543
12577
12618
12607
12548
12620
12694
12608
12531
12663
12659
12626
12624
12724
12734
12654
12733
12804
12831
12755
12857
12912
12943
12930
13043
13091
13144
13162
13280
13291
13244
13323
13392
13425
13385
13455
13470
13464
13420
13400
13448
13402
13365
13393
13397
13336
13327
13360
13392
13267
13294
13355
13331
13242
13319
13331
13354
13240
13321
13328
13281
13233
13319
13271
13208
13244
13296
13318
13202
13228
13276
13225
13162
13227
13204
13185
13149
13242
13182
13124
13155
13185
13173
13070
13126
13186
13131
13056
13104
13158
13098
13033
13069
13091
13058
13016
13057
13132
12991
13007
13079
13025
12953
13004
13022
12997
12912
12940
12975
12882
12873
12929
12922
12829
12856
12906
12918
12804
12859
12868
12863
12760
12819
12828
12793
12766
12807
12813
12711
12730
12796
12785
12685
12762
12754
12722
12667
12689
12716
12708
12642
12659
12682
12678
12649
12691
12699
12633
12659
12689
12679
12580
12624
12629
12618
12513
12576
12576
12509
12471
12527
12508
12466
12439
12498
12495
12396
12463
12476
12470
12379
12428
12458
12425
12399
12468
12490
12463
12460
12495
12484
12437
12486
12552
12558
12475
12575
12602
12581
12508
12643
12689
12661
12669
12784
12833
12808
12909
12987
13047
12958
13122
13156
13219
13202
13315
13322
13327
13336
13382
13374
13329
13329
13353
13354
13277
13347
13322
13360
13296
13336
13347
13318
13219
13314
13352
13268
13266
13319
13293
13204
13253
13254
13235
13179
13229
13267
13214
13133
13244
13264
13195
13119
13190
13186
13106
13106
13161
13176
13074
13109
13164
13115
13053
13131
13161
13095
13062
13114
13105
13028
13070
13081
13100
13019
13038
13128
13057
13013
13047
13093
13039
12979
13049
13082
12991
12952
13016
13047
12934
13001
13013
12971
12899
12937
12965
12925
12853
12944
12949
12892
12840
12887
12926
12821
12836
12864
12851
12752
12802
12818
12830
12712
12799
12819
12777
12778
12819
12787
12728
12756
12803
12825
12693
12764
12797
12836
12699
12782
12797
12737
12652
12710
12755
12729
12645
12750
12689
12602
12660
12646
12639
12552
12622
12652
12632
12543
12606
12613
12583
12580
12622
12635
12551
12594
12661
12674
12562
12607
12661
12637
12578
12661
12709
12631
12598
12750
12751
12680
12721
12785
12797
12761
12834
12880
12940
12882
13003
13068
13095
13031
13232
13221
13284
13289
13364
13449
13426
13501
13576
13519
13453
13504
13492
13505
13409
13522
13516
13463
13431
13437
13453
13375
13413
13397
13426
13324
13361
13425
13377
13308
13391
13352
13299
13247
13362
13314
13269
13298
13362
13346
13210
13333
13327
13299
13191
13294
13330
13279
13215
13287
13325
13237
13231
13274
13291
13200
13245
13249
13252
13170
13258
13219
13207
13145
13236
13207
13151
13086
13138
13193
13082
13103
13112
13084
13043
13078
13082
13069
13021
13073
13089
13011
12977
13032
13033
12940
12993
12983
12973
12891
12978
12937
12962
12903
12920
12952
12891
12826
12869
12902
12861
12834
12853
12934
12816
12813
12869
12870
12762
12824
12804
12814
12754
12819
12809
12774
12747
12791
12802
12724
12762
12780
12809
12734
12767
12797
12791
12722
12768
12770
12727
12678
12743
12764
12638
12662
12658
12656
12565
12637
12627
12619
12506
12579
12597
12592
12518
12599
12605
12527
12523
12590
12558
12485
12546
12611
12573
12532
12576
12614
12609
12527
12653
12655
12678
12618
12752
12775
12747
12776
12897
12929
12866
12956
13052
13079
13043
13115
13188
13200
13185
13276
13338
13270
13329
13316
13381
13284
13344
13362
13313
13220
13301
13301
13250
13204
13247
13247
13215
13175
13210
13229
13127
13178
13183
13194
13088
13155
13151
13164
13067
13124
13102
13122
13013
13118
13134
13049
13013
13103
13090
13010
13054
13078
13060
12983
13052
13066
13032
12974
13054
13036
12989
12967
13064
13049
12933
12976
13014
12998
12897
12986
13007
12994
12911
12957
12954
12919
12879
12922
12943
12863
12859
12893
12868
12798
12839
12832
12833
12774
12801
12799
12755
12706
12773
12813
12722
12666
12728
12729
12653
12628
12710
12658
12591
12680
12645
12615
12553
12616
12647
12595
12599
12660
12607
12532
12613
12611
12583
12528
12594
12593
12587
12473
12574
12550
12526
12454
12484
12506
12427
12433
12500
12465
12355
12428
12408
12415
12267
12375
12375
12341
12302
12366
12375
12366
12347
12411
12412
12322
12364
12414
12420
12314
12379
12455
12420
12351
12456
12466
12449
12452
12509
12543
12523
12595
12618
12675
12626
12708
12759
12823
12813
12879
12951
12945
12970
13069
13163
13098
13185
13233
13237
13146
13194
13276
13261
13179
13262
13257
13243
13154
13249
13275
13182
13177
13236
13235
13096
13163
13163
13184
13093
13143
13155
13127
13029
13140
13143
13055
13012
13091
13097
13004
13031
13094
13081
12941
13015
13044
12994
12881
12973
13013
12936
12853
12907
12937
12822
12829
12896
12842
12748
12835
12817
12796
12720
12753
12798
12736
12684
12736
12769
12691
12674
12763
12775
12661
12684
12739
12740
12614
12692
12740
12641
12572
12659
12724
12613
12637
12657
12692
12598
12603
12649
12687
12593
12626
12625
12645
12509
12578
12638
12585
12540
12554
12586
12526
12492
12562
12567
12454
12521
12512
12561
12441
12472
12550
12489
12417
12496
12476
12438
12415
12456
12470
12380
12389
12427
12416
12315
12340
12364
12319
12206
12305
12274
12269
12175
12267
12262
12170
12200
12234
12266
12204
12254
12275
12254
12147
12237
12262
12226
12156
12252
12268
12207
12266
12289
12331
12190
12293
12329
12346
12276
12373
12435
12440
12418
12563
12611
12616
12598
12743
12771
12769
12849
12928
12949
12930
13033
13095
13069
13012
13119
13137
13119
13024
13140
13113
13034
13082
13082
13087
13020
13067
13089
13064
12988
13008
13063
13004
12922
13027
13050
12928
12979
13015
12989
12915
12965
12979
12938
12894
12994
12955
12921
12832
12905
12918
12878
12821
12882
12915
12816
12833
12893
12887
12807
12846
12859
12900
12774
12846
12845
12825
12788
12828
12831
12742
12782
12765
12802
12671
12722
12823
12730
12646
12734
12743
12674
12616
12699
12703
12646
12670
12698
12703
12628
12670
12677
12671
12594
12678
12707
12649
12552
12614
12648
12589
12539
12614
12580
12460
12464
12551
12547
12449
12503
12553
12501
12435
12528
12517
12498
12464
12530
12522
12468
12484
12523
12502
12397
12512
12458
12488
12390
12428
12489
12425
12363
12448
12470
12376
12349
12396
12410
12274
12355
12343
12313
12265
12292
12256
12269
12181
12259
12283
12219
12230
12259
12286
12180
12212
12281
12310
12188
12255
12306
12285
12212
12317
12364
12308
12268
12394
12394
12359
12377
12425
12473
12391
12497
12534
12561
12536
12606
12695
12685
12653
12780
12852
12851
12902
12958
12998
12962
13024
13090
13096
13014
13066
13106
13074
13006
13053
13072
12999
12980
13034
13095
12985
13014
13026
13051
12955
13039
13044
13060
12933
12991
13020
12964
12920
12995
12995
12916
12905
12987
12997
12882
12920
12928
12923
12843
12918
12916
12903
12842
12883
12932
12862
12814
12862
12859
12766
12790
12823
12824
12705
12794
12809
12779
12714
12772
12789
12743
12693
12744
12767
12685
12675
12741
12726
12624
12699
12710
12681
12580
12673
12650
12626
12568
12655
12688
12607
12576
12650
12637
12557
12581
12621
12585
12481
12597
12600
12544
12482
12551
12562
12487
12490
12505
12532
12442
12472
12507
12519
12441
12474
12525
12483
12462
12507
12555
12492
12439
12534
12545
12481
12451
12500
12476
12394
12386
12459
12377
12302
12365
12371
12345
12223
12299
12299
12217
12206
12282
12281
12188
12232
12252
12273
12194
12257
12258
12262
12240
12321
12350
12292
12215
12305
12300
12251
12312
12388
12398
12336
12391
12451
12441
12401
12527
12579
12627
12607
12696
12738
12741
12797
12863
12967
12917
13031
13071
13115
13054
13169
13219
13207
13167
13233
13249
13197
13164
13251
13259
13157
13214
13240
13259
13117
13214
13215
13198
13136
13198
13222
13157
13077
13176
13176
13103
13111
13134
13108
13044
13101
13139
13124
13031
13108
13116
13105
13031
13098
13099
13002
13021
13065
13069
12983
12960
13051
12987
12912
12968
13002
12952
12885
12977
12986
12919
12885
12926
12947
12856
12875
12926
12909
12807
12825
12889
12852
12797
12868
12831
12800
12770
12829
12834
12752
12770
12801
12819
12716
12773
12786
12759
12653
12730
12743
12704
12629
12683
12705
12649
12645
12703
12684
12578
12611
12609
12601
12534
12581
12605
12584
12492
12576
12578
12552
12493
12565
12609
12545
12560
12614
12596
12492
12552
12586
12540
12505
12568
12587
12528
12451
12499
12471
12396
12403
12467
12448
12337
12409
12399
12395
12267
12344
12356
12318
12229
12300
12366
12283
12268
12338
12313
12245
12281
12387
12333
12299
12338
12385
12386
12370
12409
12491
12413
12414
12491
12489
12500
12525
12635
12647
12572
12685
12797
12807
12789
12870
12940
12963
12930
13045
13120
13068
13118
13206
13227
13146
13223
13251
13233
13171
13212
13250
13213
13123
13233
13240
13182
13165
13205
13220
13085
13141
13198
13197
13096
13159
13144
13147
13102
13127
13154
13121
13088
13164
13186
13055
13069
13117
13140
13032
13105
13131
13086
12994
13053
13100
13058
12969
13084
13045
13028
12998
13038
13038
12964
13006
13012
13019
12885
12934
12989
12951
12847
12965
12979
12888
12877
12918
12967
12835
12852
12926
12884
12778
12854
12834
12850
12796
12838
12872
12782
12739
12836
12796
12732
12801
12800
12766
12697
12764
12760
12733
12688
12724
12750
12721
12699
12698
12724
12706
12654
12706
12691
12601
12673
12689
12697
12572
12674
12668
12632
12587
12683
12688
12639
12621
12689
12686
12590
12616
12714
12626
12526
12599
12633
12617
12555
12560
12583
12556
12501
12534
12541
12460
12483
12515
12518
12415
12415
12482
12457
12353
12441
12474
12423
12403
12470
12531
12435
12470
12512
12519
12471
12532
12579
12574
12515
12615
12689
12659
12662
12741
12806
12774
12788
12939
12913
12934
13000
13096
13127
13080
13159
13220
13277
13232
13326
13417
13377
13343
13424
13428
13374
13378
13416
13457
13356
13372
13399
13426
13288
13386
13397
13364
13318
13356
13403
13353
13322
13402
13386
13318
13332
13363
13365
13273
13328
13338
13300
13281
13330
13322
13251
13223
13299
13298
13182
13216
13250
13227
13129
13168
13159
13179
13064
13156
13148
13070
13029
13146
13144
13033
13081
13096
13102
13025
13044
13081
13064
12950
13037
13053
13018
12978
13019
13043
12972
12970
12979
13010
12915
12917
12999
12918
12854
12921
12890
12908
12814
12824
12855
12812
12768
12831
12836
12745
12785
12793
12811
12719
12791
12760
12740
12641
12722
12770
12746
12679
12709
12670
12589
12591
12688
12702
12590
12598
12644
12636
12541
12610
12631
12614
12532
12610
12596
12547
12503
12577
12556
12482
12497
12551
12491
12381
12436
12490
12431
12350
12433
12450
12405
12378
12437
12426
12370
12415
12444
12447
12340
12438
12514
12495
12381
12466
12495
12443
12457
12517
12572
12531
12518
12629
12650
12575
12651
12740
12733
12688
12786
12879
12850
12843
12931
13033
12992
13026
13121
13188
13104
13175
13241
13289
13172
13219
13244
13274
13176
13252
13203
13219
13174
13242
13258
13130
13149
13170
13141
13074
13139
13158
13084
13053
13108
13135
13068
13001
13081
13100
13043
13064
13084
13113
12992
13056
13094
13077
12990
13030
13092
13050
12984
13102
13073
13045
13033
13078
13071
12997
13009
13034
13038
12928
12993
13006
12948
12842
12927
12915
12874
12796
12891
12869
12784
12816
12841
12829
12744
12797
12844
12808
12724
12807
12817
12818
12757
12814
12843
12773
12758
12835
12826
12734
12791
12845
12827
12751
12787
12833
12758
12737
12766
12791
12720
12711
12737
12769
12709
12733
12796
12756
12692
12742
12792
12767
12694
12762
12809
12755
12699
12789
12832
12739
12742
12790
12818
12681
12730
12743
12745
12673
12700
12724
12691
12624
12639
12706
12626
12625
12636
12652
12524
12577
12599
12597
12492
12599
12599
12557
12524
12612
12640
12537
12547
12626
12647
12561
12597
12662
12664
12593
12655
12675
12662
12613
12719
12767
12752
12670
12823
12811
12811
12863
12942
12990
12942
13065
13136
13195
13146
13292
13342
13385
13358
13443
13481
13411
13425
13485
13508
13404
13473
13461
13441
13364
13451
13486
13427
13397
13462
13500
13405
13361
13439
13473
13384
13406
13436
13442
13391
13373
13419
13385
13316
13398
13393
13368
13313
13393
13366
13301
13264
13322
13313
13236
13241
13242
13228
13152
13216
13191
13178
13089
13175
13188
13155
13120
13178
13174
13091
13175
13178
13170
13096
13183
13174
13180
13091
13203
13205
13109
13069
13136
13173
13072
13109
13179
13171
13051
13099
13122
13114
13021
13113
13112
13059
13015
13060
13073
13024
13014
13067
13044
12939
12999
13040
13036
12920
12972
12975
12968
12893
12942
12987
12916
12849
12896
12933
12838
12823
12907
12907
12778
12861
12870
12809
12773
12841
12841
12780
12776
12826
12808
12713
12713
12754
12749
12637
12674
12645
12686
12544
12630
12595
12549
12453
12515
12532
12449
12433
12442
12488
12351
12370
12376
12387
12372
12358
12407
12370
12353
12424
12477
12422
12443
12534
12541
12472
12543
12603
12649
12544
12650
12700
12718
12687
12790
12850
12890
12871
12989
13043
13050
13084
13236
13270
13185
13337
13413
13444
13370
13523
13570
13596
13507
13614
13654
13568
13573
13621
13595
13550
13569
13612
13557
13514
13567
13633
13562
13515
13578
13580
13506
13474
13607
13577
13478
13509
13554
13517
13437
13475
13521
13507
13390
13505
13523
13514
13425
13502
13522
13429
13462
13509
13512
13440
13479
13494
13473
13384
13483
13496
13460
13400
13482
13454
13435
13371
13450
13424
13371
13360
13429
13385
13278
13344
13358
13309
13242
13347
13314
13258
13178
13268
13283
13166
13198
13227
13241
13091
13172
13165
13146
13066
13107
13133
13099
13018
13087
13117
13010
13032
13091
13107
13006
13013
13072
13053
12987
13010
13075
13057
12954
13012
13079
12965
12943
12996
13034
12935
12932
13009
13037
12941
12995
12999
12983
12853
12948
12940
12888
12834
12888
12895
12777
12782
12797
12823
12703
12742
12776
12724
12684
12757
12772
12720
12686
12773
12784
12727
12772
12768
12816
12759
12781
12870
12883
12816
12911
12938
12917
12887
13008
13041
13035
13016
13098
13139
13080
13153
13216
13263
13173
13331
13380
13405
13367
13489
13576
13580
13574
13699
13737
13694
13760
13849
13890
13779
13848
13890
13866
13762
13886
13848
13849
13749
13824
13806
13762
13777
13800
13821
13705
13781
13808
13825
13701
13760
13803
13766
13706
13769
13814
13700
13671
13701
13722
13600
13608
13678
13626
13510
13512
13520
13507
13418
13450
13531
13449
13378
13426
13447
13402
13398
13416
13425
13336
13374
13424
13358
13308
13348
13332
13311
13215
13287
13253
13186
13129
13179
13203
13059
13084
13077
13079
12958
13033
13068
13037
12917
13016
13031
12976
12958
13041
13042
12975
13011
13042
13005
12891
12955
12996
12999
12914
12954
12978
12976
12879
12946
12948
12871
12877
12947
12980
12839
12896
12950
12919
12820
12915
12975
12924
12882
12928
13005
12952
12961
12986
13026
12913
12949
12966
12962
12886
12936
12944
12941
12861
12950
12916
12874
12827
12875
12913
12815
12806
12865
12831
12736
12817
12838
12814
12718
12817
12830
12791
12758
12847
12881
12799
12815
12910
12929
12848
12931
12978
12976
12868
13016
13051
13066
12999
13094
13148
13124
13149
13223
13272
13209
13310
13369
13409
13369
13439
13523
13544
13529
13610
13645
13651
13627
13699
13732
13715
13714
13781
13748
13689
13719
13770
13727
13661
13727
13742
13687
13617
13700
13752
13659
13688
13709
13672
13606
13632
13652
13666
13638
13669
13668
13689
13607
13634
13678
13603
13568
13650
13625
13557
13560
13603
13602
13494
13591
13585
13597
13527
13597
13575
13578
13502
13632
13626
13539
13529
13634
13607
13551
13560
13603
13595
13507
13560
13554
13536
13490
13549
13521
13442
13488
13533
13491
13431
13452
13515
13475
13416
13480
13450
13468
13342
13408
13413
13348
13301
13352
13307
13234
13241
13210
13210
13104
13169
13152
13108
13034
13062
13077
13022
12997
13049
13022
12940
12953
12991
12998
12922
12966
12996
12965
12895
12973
12978
12964
12923
12969
12990
12897
12917
12951
12972
12855
12960
12959
12930
12804
12909
12877
12851
12777
12874
12871
12807
12784
12827
12804
12764
12788
12830
12814
12747
12817
12837
12824
12718
12824
12808
12818
12742
12832
12871
12749
12820
12876
12887
12779
12862
12928
12929
12821
12939
12975
12966
12955
13037
13110
13062
13096
13188
13250
13168
13269
13366
13388
13325
13428
13485
13507
13422
13553
13580
13564
13509
13597
13618
13484
13555
13578
13570
13507
13586
13595
13594
13491
13557
13552
13513
13472
13544
13550
13465
13490
13538
13530
13469
13484
13505
13478
13379
13489
13471
13437
13367
13445
13469
13389
13408
13420
13401
13346
13343
13403
13385
13328
13360
13408
13363
13303
13340
13388
13313
13291
13369
13340
13258
13289
13319
13297
13193
13261
13291
13266
13201
13221
13216
13168
13113
13176
13149
13100
13132
13140
13159
13060
13126
13154
13108
13041
13104
13156
13096
12994
13011
13065
13029
13047
13065
13058
12948
13011
13026
13012
12924
12977
12970
12999
12906
12950
12944
12907
12927
12951
12974
12861
12884
12926
12965
12851
12877
12922
12913
12838
12883
12897
12873
12835
12870
12884
12828
12817
12857
12880
12796
12793
12834
12827
12724
12784
12790
12768
12711
12718
12753
12697
12652
12712
12763
12638
12695
12710
12710
12614
12731
12745
12751
12643
12701
12726
12712
12677
12752
12813
12715
12747
12774
12807
12733
12812
12850
12852
12815
12879
12930
12914
12900
13045
13068
13041
13109
13156
13227
13153
13240
13330
13352
13279
13421
13453
13442
13417
13458
13507
13464
13454
13469
13507
13429
13468
13487
13450
13402
13423
13477
13426
13375
13434
13423
13383
13354
13432
13413
13322
13350
13372
13384
13237
13309
13322
13310
13232
13307
13343
13275
13184
13267
13320
13233
13251
13239
13261
13215
13228
13285
13288
13191
13258
13255
13247
13161
13237
13232
13198
13191
13217
13239
13150
13193
13210
13214
13079
13166
13153
13183
13074
13135
13167
13116
13069
13125
13126
13029
13041
13100
13083
13005
13033
13063
13044
13003
13015
13048
13002
12950
13019
12962
12943
12920
12975
12982
12909
12901
12969
12952
12853
12913
12970
12911
12810
12930
12884
12832
12793
12809
12825
12781
12838
12846
12862
12781
12818
12850
12854
12766
12851
12826
12808
12762
12820
12828
12733
12731
12786
12761
12686
12713
12770
12726
12595
12692
12673
12676
12576
12626
12666
12624
12586
12615
12697
12567
12565
12631
12647
12567
12639
12697
12649
12590
12685
12697
12650
12644
12732
12745
12661
12717
12792
12779
12731
12836
12838
12862
12850
12944
12953
12971
13002
13096
13208
13099
13215
13318
13333
13308
13372
13466
13470
13432
13464
13530
13532
13484
13536
13541
13508
13509
13555
13565
13459
13497
13557
13523
13399
13482
13530
13463
13442
13456
13518
13399
13383
13456
13462
13360
13379
13429
13463
13328
13381
13405
13418
13327
13425
13476
13368
13273
13400
13416
13293
13302
13340
13363
13239
13319
13321
13300
13200
13286
13315
13266
13173
13263
13262
13211
13176
13272
13234
13162
13182
13256
13173
13132
13192
13177
13143
13113
13153
13145
13093
13113
13143
13171
13078
13098
13137
13127
13092
13088
13143
13112
13077
13105
13143
13075
13056
13088
13106
12995
13041
13081
13092
12924
13035
13005
13022
12944
13017
13029
12992
12922
13019
13035
12945
12937
13020
12980
12936
12951
12988
12982
12912
12958
13026
12984
12902
12982
12977
12966
12894
12956
12955
12872
12899
12899
12905
12773
12828
12866
12828
12745
12815
12825
12781
12713
12777
12813
12710
12715
12754
12741
12690
12740
12814
12749
12705
12756
12808
12752
12727
12793
12847
12730
12785
12831
12855
12772
12852
12863
12838
12811
12897
12927
12902
12891
13002
13042
13028
13061
13175
13268
13196
13295
13355
13414
13348
13487
13521
13484
13435
13517
13574
13520
13505
13558
13613
13495
13535
13547
13581
13447
13503
13546
13526
13447
13509
13528
13505
13414
13531
13504
13450
13446
13502
13501
13420
13456
13489
13511
13389
13362
13455
13423
13349
13403
13429
13406
13360
13381
13412
13296
13345
13384
13428
13293
13339
13341
13326
13227
13333
13347
13296
13246
13275
13262
13208
13186
13241
13219
13090
13169
13207
13123
13053
13105
13105
13084
12989
13070
13145
12996
13014
13069
13025
12966
13028
13040
13015
12903
12977
13014
13002
12918
12986
13012
12996
12909
12941
13022
12875
12903
12931
12904
12789
12856
12858
12852
12749
12817
12816
12790
12704
12777
12768
12719
12742
12798
12769
12703
12716
12773
12776
12670
12708
12723
12681
12609
12645
12655
12608
12550
12642
12636
12540
12567
12581
12585
12509
12537
12567
12533
12458
12539
12554
12520
12512
12560
12574
12489
12532
12590
12593
12513
12585
12614
12604
12532
12591
12631
12595
12530
12638
12671
12562
12610
12672
12746
12648
12779
12781
12834
12809
12899
12983
12992
12999
13096
13131
13137
13156
13221
13274
13260
13306
13316
13346
13312
13350
13374
13358
13281
13370
13401
13309
13291
13378
13384
13311
13281
13360
13368
13259
13321
13385
13323
13256
13323
13359
13327
13233
13325
13310
13286
13264
13343
13317
13216
13293
13317
13303
13176
13233
13274
13241
13158
13217
13269
13196
13197
13209
13277
13164
13236
13248
13247
13136
13213
13226
13212
13126
13196
13221
13195
13110
13213
13218
13095
13147
13183
13182
13095
13129
13184
13120
13035
13086
13107
13078
12993
13065
13088
13030
12987
13040
13030
12974
12992
13027
12981
12911
12947
12940
12934
12890
12901
12978
12870
12819
12904
12887
12775
12837
12869
12855
12753
12814
12851
12787
12759
12846
12818
12769
12752
12824
12869
12749
12771
12775
12826
12720
12768
12771
12742
12657
12716
12719
12722
12639
12728
12743
12666
12662
12714
12735
12645
12647
12695
12679
12584
12684
12672
12672
12605
12673
12681
12639
12608
12681
12734
12616
12679
12741
12732
12665
12707
12752
12767
12701
12790
12863
12839
12777
12873
12925
12840
12865
12942
12994
12875
13019
13077
13122
13069
13207
13263
13278
13228
13383
13447
13398
13414
13529
13534
13472
13594
13646
13601
13479
13545
13598
13536
13450
13555
13551
13481
13439
13512
13503
13414
13427
13485
13436
13331
13374
13392
13371
13274
13319
13363
13286
13204
13291
13315
13223
13222
13235
13276
13160
13219
13233
13213
13101
13170
13200
13169
13093
13135
13156
13065
13058
13112
13137
13031
13074
13095
13105
12994
13058
13107
13070
12988
13084
13139
13085
13042
13101
13067
13019
13059
13084
13097
12997
13065
13121
13062
12994
13066
13087
13030
12973
13049
13064
12962
12947
12994
12964
12867
12955
12970
12950
12876
12959
12948
12907
12828
12896
12987
12831
12806
12878
12888
12761
12792
12836
12819
12713
12813
12810
12772
12703
12767
12785
12753
12691
12769
12751
12703
12679
12754
12784
12678
12735
12770
12719
12613
12718
12725
12687
12618
12656
12693
12616
12592
12648
12614
12515
12541
12639
12553
12475
12574
12578
12560
12459
12570
12580
12502
12516
12569
12561
12497
12559
12581
12613
12498
12537
12645
12666
12549
12664
12680
12686
12642
12758
12808
12712
12784
12874
12907
12846
12954
13048
13064
13014
13150
13198
13233
13167
13329
13356
13334
13342
13445
13446
13363
13436
13472
13469
13371
13431
13501
13445
13359
13448
13469
13417
13383
13430
13447
13374
13377
13421
13406
13305
13386
13422
13379
13270
13366
13344
13314
13270
13349
13359
13270
13309
13324
13335
13226
13314
13301
13259
13163
13259
13267
13247
13164
13270
13241
13197
13168
13219
13241
13135
13173
13248
13236
13126
13191
13263
13198
13128
13212
13189
13150
13095
13227
13185
13057
13121
13146
13156
13026
13118
13114
13120
12984
13090
13096
13064
12989
13072
13104
12977
13019
13089
13041
12962
13013
13023
13004
12884
12994
13005
12986
12836
12954
12978
12933
12892
12931
12919
12844
12843
12971
12924
12822
12900
12936
12884
12796
12916
12920
12909
12833
12926
12970
12850
12901
12938
12894
12782
12857
12883
12869
12740
12820
12802
12766
12725
12753
12783
12693
12701
12789
12784
12710
12784
12809
12797
12726
12798
12836
12797
12756
12842
12851
12762
12822
12818
12891
12783
12875
12939
12947
12899
12990
13026
13061
13006
13109
13186
13174
13179
13279
13314
13307
13369
13416
13503
13441
13508
13577
13612
13574
13652
13734
13652
13631
13683
13709
13654
13673
13728
13702
13588
13672
13706
13668
13580
13639
13649
13595
13523
13598
13578
13524
13504
13567
13591
13461
13512
13552
13516
13453
13498
13546
13489
13404
13503
13495
13424
13344
13420
13425
13314
13394
13410
13407
13308
13326
13353
13350
13234
13312
13312
13264
13175
13276
13271
13191
13142
13199
13187
13067
13141
13149
13118
13051
13090
13139
13117
13002
13119
13109
13074
13035
13125
13131
13007
13051
13081
13075
12954
13077
13094
13029
12953
13048
13074
12998
12935
13017
13031
12911
12943
12986
12971
12831
12963
12944
12936
12861
12920
12895
12896
12812
12891
12919
12839
12819
12888
12930
12842
12881
12935
12951
12799
12895
12923
12873
12766
12940
12927
12877
12812
12874
12912
12790
12777
12852
12835
12699
12749
12759
12758
12632
12728
12764
12728
12643
12725
12787
12711
12734
12801
12805
12684
12787
12821
12779
12760
12832
12850
12814
12787
12897
12927
12911
12928
13003
13039
12932
13025
13117
13151
13041
13184
13266
13280
13239
13397
13413
13405
13415
13521
13523
13533
13618
13646
13671
13584
13647
13722
13670
13615
13709
13701
13683
13605
13712
13694
13602
13656
13663
13665
13548
13650
13624
13599
13499
13584
13587
13575
13513
13575
13596
13539
13494
13565
13571
13456
13520
13566
13551
13471
13525
13557
13488
13444
13514
13569
13510
13483
13515
13581
13422
13483
13511
13487
13398
13449
13477
13439
13351
13432
13497
13447
13375
13480
13438
13391
13377
13447
13472
13338
13396
13398
13389
13329
13378
13383
13377
13298
13356
13394
13302
13271
13323
13329
13178
13292
13286
13285
13213
13241
13302
13225
13196
13238
13275
13233
13191
13225
13285
13144
13226
13221
13200
13131
13211
13185
13198
13096
13152
13213
13144
13000
13156
13127
13075
13055
13126
13139
13013
13070
13076
13094
12972
13061
13039
13085
12949
13050
13031
12991
12891
13032
13000
12876
12963
12988
12948
12842
12942
12908
12911
12901
12924
12920
12895
12843
12953
13012
12876
12940
12967
12983
12892
12969
13037
13047
12962
13074
13109
13099
13094
13171
13251
13196
13240
13292
13360
13270
13376
13465
13439
13433
13554
13603
13600
13584
13688
13738
13737
13757
13814
13906
13833
13862
13925
13982
13844
13953
13969
13952
13890
13913
13955
13893
13864
13913
13947
13838
13856
13904
13935
13811
13859
13890
13874
13784
13877
13901
13817
13770
13877
13848
13785
13805
13848
13827
13722
13767
13765
13794
13665
13760
13785
13727
13641
13752
13754
13679
13658
13737
13712
13627
13672
13663
13705
13595
13677
13706
13667
13601
13644
13707
13642
13543
13635
13636
13549
13567
13599
13616
13508
13526
13573
13572
13465
13555
13619
13552
13472
13541
13514
13463
13423
13499
13492
13406
13421
13506
13463
13365
13423
13501
13442
13339
13432
13394
13401
13371
13425
13436
13312
13342
13413
13382
13287
13397
13326
13351
13245
13342
13354
13355
13274
13332
13357
13262
13304
13360
13328
13252
13297
13351
13347
13242
13332
13329
13296
13231
13307
13281
13220
13195
13238
13207
13115
13170
13190
13142
13007
13086
13098
13077
13016
13083
13091
13054
12989
13099
13090
12986
13068
13088
13108
13023
13094
13147
13177
13095
13179
13240
13196
13201
13264
13274
13268
13271
13373
13424
13328
13411
13523
13545
13462
13580
13655
13608
13621
13746
13803
13754
13761
13873
13907
13829
13901
13961
13971
13865
13963
13998
13949
13858
13930
13951
13904
13870
13936
13918
13845
13860
13940
13909
13818
13884
13870
13876
13823
13878
13859
13826
13766
13842
13872
13770
13778
13867
13833
13726
13782
13845
13781
13741
13786
13811
13767
13703
13770
13787
13741
13745
13776
13784
13683
13709
13733
13729
13633
13708
13694
13687
13633
13691
13702
13656
13622
13668
13653
13569
13615
13655
13668
13511
13593
13648
13619
13498
13577
13548
13542
13481
13542
13584
13515
13497
13528
13571
13446
13531
13560
13507
13425
13484
13511
13436
13400
13476
13490
13440
13382
13439
13443
13338
13395
13398
13407
13299
13377
13428
13369
13296
13362
13394
13332
13259
13334
13385
13277
13275
13361
13351
13233
13288
13330
13343
13189
13262
13297
13277
13207
13270
13269
13177
13165
13221
13235
13152
13177
13223
13261
13085
13159
13224
13192
13123
13237
13258
13184
13214
13203
13274
13183
13239
13290
13320
13258
13317
13358
13384
13280
13422
13475
13446
13406
13532
13565
13519
13582
13684
13664
13617
13711
13779
13802
13776
13869
13951
13971
13989
14063
14096
14051
14100
14161
14199
14098
14150
14224
14126
14084
14124
14150
14115
14013
14110
14157
14043
14027
14126
14096
13983
14045
14105
14076
14009
14052
14032
14014
13921
13973
14010
14012
13935
14003
14000
13926
13940
13939
13960
13880
13937
13979
13917
13835
13914
13928
13905
13849
13933
13895
13843
13872
13873
13856
13765
13858
13891
13817
13756
13797
13823
13772
13669
13770
13759
13697
13688
13727
13691
13591
13674
13679
13672
13544
13626
13682
13646
13538
13627
13613
13579
13490
13567
13565
13516
13547
13598
13579
13471
13537
13553
13532
13453
13504
13494
13499
13393
13490
13497
13418
13396
13444
13439
13343
13387
13422
13429
13303
13375
13392
13369
13317
13390
13374
13282
13266
13395
13362
13277
13322
13352
13362
13258
13242
13322
13303
13223
13250
13288
13200
13155
13244
13216
13154
13131
13159
13178
13080
13107
13160
13154
13030
13139
13219
13174
13110
13194
13214
13198
13186
13260
13325
13176
13240
13287
13301
13215
13333
13348
13358
13305
13429
13443
13411
13405
13476
13523
13491
13551
13609
13623
13600
13706
13765
13773
13751
13846
13924
13886
13871
13958
14015
13985
14005
14078
14074
13960
14050
14065
14041
13931
14020
14071
14017
13937
14026
14015
13956
13918
13960
13970
13878
13904
13940
13899
13813
13874
13890
13835
13753
13844
13870
13786
13765
13806
13854
13714
13762
13737
13762
13652
13689
13735
13652
13585
13662
13652
13626
13560
13573
13634
13560
13565
13615
13589
13493
13573
13600
13564
13479
13560
13589
13533
13465
13528
13542
13495
13476
13521
13533
13448
13472
13492
13494
13434
13473
13456
13447
13370
13448
13424
13385
13383
13431
13425
13351
13379
13413
13426
13341
13373
13432
13382
13325
13353
13393
13354
13291
13378
13380
13328
13306
13371
13373
13259
13315
13378
13361
13278
13379
13391
13355
13275
13372
13411
13326
13301
13375
13388
13294
13299
13332
13336
13215
13277
13313
13270
13148
13287
13229
13208
13113
13182
13219
13129
13143
13193
13211
13073
13168
13208
13182
13093
13193
13241
13220
13146
13292
13276
13261
13258
13345
13383
13275
13382
13447
13419
13356
13457
13562
13521
13462
13591
13629
13626
13621
13733
13776
13734
13814
13891
13959
13867
13967
14043
14053
13997
14101
14112
14065
14047
14134
14115
14021
14040
14063
14064
13989
14041
14051
14046
13938
14002
14010
13975
13909
13978
13959
13907
13844
13962
13947
13850
13865
13894
13880
13783
13821
13883
13865
13793
13839
13843
13803
13747
13763
13821
13730
13730
13791
13775
13659
13702
13733
13740
13688
13759
13742
13733
13649
13722
13754
13677
13660
13770
13717
13630
13643
13682
13668
13589
13661
13662
13613
13564
13631
13624
13568
13542
13617
13600
13470
13526
13561
13556
13456
13529
13570
13494
13398
13518
13561
13488
13464
13532
13518
13392
13411
13449
13428
13367
13397
13407
13358
13316
13359
13369
13333
13283
13336
13365
13242
13240
13310
13285
13190
13225
13231
13258
13185
13238
13255
13242
13178
13262
13257
13218
13169
13270
13288
13176
13229
13240
13230
13155
13216
13209
13199
13144
13173
13159
13115
13108
13139
13162
13058
13071
13076
13129
13007
13070
13093
13064
13016
13094
13123
13100
13064
13152
13202
13089
13122
13151
13196
13076
13134
13201
13229
13115
13207
13258
13250
13184
13335
13374
13351
13411
13421
13523
13468
13564
13683
13715
13659
13768
13866
13867
13842
13935
13957
13972
14008
14025
14032
13941
13986
14014
14000
13871
13970
13992
13945
13873
13957
13974
13933
13883
13920
13925
13829
13850
13922
13879
13811
13910
13929
13897
13787
13842
13929
13848
13756
13845
13856
13773
13767
13826
13823
13710
13736
13787
13773
13624
13745
13753
13690
13618
13727
13706
13641
13585
13644
13692
13548
13588
13619
13666
13555
13590
13565
13596
13512
13559
13533
13567
13447
13539
13549
13448
13470
13510
13498
13372
13417
13459
13429
13310
13376
13387
13341
13277
13350
13340
13285
13289
13330
13340
13245
13305
13304
13308
13168
13240
13248
13239
13146
13207
13198
13137
13089
13203
13175
13125
13141
13190
13177
13114
13163
13211
13178
13111
13191
13239
13181
13118
13212
13227
13123
13155
13191
13212
13124
13160
13184
13173
13077
13127
13187
13156
13079
13171
13191
13097
13048
13102
13107
13011
13053
13081
13069
12955
13074
13065
13053
12974
13044
13041
12994
12971
12997
13076
12972
13012
13056
13051
12963
13044
13085
13054
12979
13098
13141
13091
13058
13179
13226
13204
13249
13341
13371
13343
13411
13534
13536
13530
13644
13721
13721
13699
13838
13900
13846
13859
13933
13978
13890
13949
13968
13956
13903
13926
13957
13888
13875
13891
13921
13880
13861
13904
13907
13790
13818
13841
13859
13748
13785
13857
13807
13755
13812
13843
13774
13718
13816
13837
13768
13790
13764
13815
13707
13741
13781
13755
13642
13665
13690
13675
13564
13669
13637
13574
13555
13631
13623
13512
13543
13563
13563
13480
13524
13566
13542
13461
13501
13500
13463
13437
13475
13507
13423
13469
13452
13456
13379
13438
13431
13373
13310
13390
13441
13338
13255
13358
13335
13304
13280
13301
13319
13226
13287
13338
13295
13202
13265
13288
13271
13194
13261
13290
13274
13176
13275
13285
13183
13252
13270
13253
13177
13233
13238
13237
13134
13239
13244
13182
13097
13202
13230
13110
13114
13170
13164
13020
13096
13136
13083
12998
13090
13048
13037
12969
13016
13060
12917
12914
12974
12957
12819
12887
12891
12849
12766
12837
12805
12794
12696
12796
12806
12733
12684
12758
12763
12673
12752
12817
12817
12769
12919
12982
12970
12912
13015
13080
13118
13107
13216
13272
13255
13299
13439
13434
13374
13501
13560
13586
13489
13631
13616
13607
13591
13635
13632
13599
13626
13663
13671
13569
13580
13622
13612
13552
13623
13619
13580
13539
13580
13616
13560
13530
13577
13552
13501
13507
13584
13548
13446
13508
13522
13525
13405
13521
13509
13469
13432
13493
13523
13438
13473
13509
13509
13396
13507
13485
13526
13428
13499
13534
13506
13444
13504
13500
13438
13416
13457
13425
13331
13364
13397
13398
13267
13362
13376
13360
13227
13379
13399
13315
13278
13336
13382
13277
13264
13346
13311
13231
13340
13294
13359
13234
13269
13283
13254
13209
13230
13225
13169
13196
13211
13205
13069
13123
13182
13099
13011
13070
13093
13046
12962
13036
13030
12971
12998
13025
13040
12923
12953
13011
12999
12900
12976
12967
12932
12896
12954
12899
12896
12908
12939
12962
12831
12845
12931
12869
12818
12865
12877
12868
12780
12810
12833
12785
12768
12826
12821
12758
12793
12838
12822
12774
12804
12833
12796
12723
12808
12839
12790
12733
12841
12815
12801
12790
12888
12897
12822
12872
12947
12938
12853
12962
12995
13026
12971
13079
13122
13104
13095
13210
13221
13151
13222
13301
13331
13301
13408
13461
13470
13418
13537
13541
13492
13473
13534
13534
13464
13460
13473
13528
13410
13437
13486
13443
13333
13420
13415
13362
13295
13346
13372
13294
13259
13306
13286
13223
13199
13319
13247
13142
13250
13302
13241
13196
13243
13269
13198
13188
13245
13268
13143
13200
13243
13215
13109
13204
13206
13184
13108
13135
13154
13092
13072
13104
13117
13010
13051
13077
13099
12999
13054
13087
13074
13003
13080
13110
13067
13033
13100
13109
13043
13028
13109
13092
13005
13050
13095
13056
12986
13044
13055
13025
12948
13036
13078
12976
12955
13025
13049
12960
12964
13008
13012
12922
12974
13029
12999
12903
13000
13018
12966
12923
12992
13012
12938
12930
13005
13066
12901
12999
13030
13027
12948
13015
13027
13033
12971
13071
13078
13011
12988
13032
12985
12949
12974
12974
12985
12832
12911
12907
12876
12757
12834
12870
12794
12734
12820
12803
12725
12792
12833
12835
12765
12816
12853
12816
12751
12836
12856
12819
12810
12890
12897
12859
12896
12943
12938
12877
12955
13012
12994
12965
13047
13099
13094
13061
13182
13196
13225
13234
13342
13412
13357
13457
13545
13567
13562
13616
13653
13699
13665
13721
13722
13713
13687
13779
13738
13651
13642
13724
13713
13665
13695
13723
13673
13600
13686
13697
13657
13625
13674
13641
13601
13591
13617
13579
13509
13527
13547
13513
13431
13485
13463
13422
13370
13397
13440
13352
13353
13353
13395
13310
13359
13377
13367
13257
13389
13392
13330
13232
13319
13377
13275
13269
13307
13359
13209
13264
13251
13266
13172
13179
13225
13189
13125
13190
13216
13174
13142
13223
13215
13134
13171
13185
13219
13181
13222
13235
13224
13140
13197
13252
13195
13157
13175
13234
13154
13124
13200
13209
13092
13117
13163
13144
13040
13139
13136
13047
13024
13113
13090
13057
13029
13110
13152
13069
13113
13126
13098
13059
13091
13154
13120
13051
13089
13119
13035
13008
13113
13107
13063
13031
13078
13073
12944
13011
13055
13002
12901
12968
12988
12913
12849
12942
12947
12863
12885
12909
12904
12798
12855
12905
12894
12804
12889
12922
12902
12820
12907
12956
12887
12842
12951
12930
12862
12935
12991
13009
12947
13004
13089
13133
13100
13240
13301
13342
13326
13430
13503
13447
13526
13603
13620
13577
13652
13705
13703
13672
13715
13778
13757
13660
13760
13761
13688
13698
13762
13745
13635
13684
13708
13724
13600
13646
13674
13655
13570
13666
13665
13603
13591
13602
13594
13532
13577
13586
13559
13490
13536
13541
13521
13440
13529
13566
13462
13427
13489
13451
13407
13413
13463
13477
13366
13379
13434
13385
13316
13366
13368
13325
13274
13294
13300
13233
13216
13259
13285
13193
13233
13255
13248
13177
13226
13246
13212
13137
13230
13216
13178
13195
13192
13185
13097
13143
13126
13133
13046
13109
13075
13103
13025
13077
13073
13008
12959
13040
13017
12969
12970
13016
13014
12925
12966
12984
12974
12858
12935
12966
12954
12839
12872
12933
12860
12854
12944
12939
12839
12894
12894
12924
12810
12909
12919
12904
12809
12898
12885
12843
12797
12842
12866
12719
12742
12762
12758
12615
12697
12716
12759
12625
12726
12775
12713
12692
12764
12808
12762
12781
12863
12918
12833
12871
12934
12925
12812
12878
12909
12910
12879
12958
12979
12964
12936
12994
13006
12931
13030
13088
13136
13051
13205
13208
13226
13179
13280
13341
13311
13292
13407
13446
13338
13399
13455
13463
13387
13459
13469
13448
13392
13442
13451
13399
13348
13428
13415
13336
13314
13355
13321
13288
13278
13336
13317
13212
13299
13293
13254
13171
13282
13345
13237
13235
13266
13322
13153
13177
13301
13246
13182
13206
13279
13253
13193
13276
13286
13246
13226
13315
13313
13228
13255
13324
13283
13227
13273
13290
13269
13210
13286
13300
13258
13181
13252
13257
13201
13190
13209
13176
13143
13139
13219
13188
13075
13158
13137
13155
13060
13173
13193
13127
13125
13175
13148
13053
13146
13144
13147
13039
13116
13170
13124
13010
13120
13133
13057
12995
13093
13068
12992
13033
13027
13051
12933
12986
13062
13049
12932
12987
13060
13014
12945
13057
13050
13007
13009
13069
13063
12943
13009
13033
13050
12903
12983
13026
12982
12919
12948
12947
12898
12875
12942
12940
12817
12849
12891
12886
12783
12883
12903
12868
12826
12869
12912
12835
12843
12889
12960
12838
12875
12946
12968
12849
12985
12985
12993
12905
13051
13041
13041
12999
13127
13158
13092
13149
13247
13312
13270
13367
13444
13455
13459
13538
13597
13651
13571
13682
13744
13727
13660
13765
13785
13694
13712
13764
13747
13640
13717
13735
13689
13603
13701
13754
13641
13614
13725
13700
13620
13641
13697
13665
13579
13640
13664
13640
13525
13604
13620
13596
13542
13603
13588
13530
13552
13626
13612
13488
13567
13563
13600
13512
13551
13579
13558
13477
13562
13544
13503
13473
13526
13515
13427
13464
