32812
33386
34557
34252
34221
35270
35190
34004
33991
34811
34454
33656
34354
35330
34827
34281
35066
35544
34563
34170
35539
36064
34761
34516
35866
35967
34654
34562
35627
35477
34777
35499
35999
34692
34096
35365
35609
34403
34886
36515
36167
34978
35297
35692
34940
34769
35936
36331
35262
35175
36476
36438
35102
35319
36818
36591
35119
35471
36716
36077
35226
36439
37551
36440
35365
36214
36589
35423
35639
37156
36893
35848
36811
38231
37643
36802
37871
38818
37857
36993
37545
37811
37117
37267
38526
38600
37523
37610
38350
37896
37417
38255
38658
37544
37370
39044
39639
38427
38177
39041
38701
37987
38941
39465
37912
37526
39400
39881
38236
37363
37742
37466
36748
37325
38240
37451
36274
36647
37296
36544
35526
35692
35960
35457
35635
36668
36649
35540
35432
36270
35652
34009
34220
35362
34986
34545
35255
34915
33354
33564
35339
35085
33039
32771
34128
34170
33204
33657
34814
34133
32885
33709
34776
33728
32890
34115
34835
33785
33669
34890
34827
33948
34469
35165
34247
33449
34640
35752
34799
33990
34960
35507
34621
34252
34759
34231
33261
34256
35822
35265
34403
35417
36378
35620
34940
35506
35591
34909
35494
36474
35582
34534
35701
37014
35994
34859
35983
36722
35386
35181
36908
37041
35529
35905
37744
37628
36423
36964
37740
36730
36267
37803
38474
37179
36995
38368
38434
37507
37791
38310
37598
37178
38435
39375
38465
37957
39115
39612
38595
37984
38356
38237
37622
38072
38975
38546
37904
38778
39860
39355
38496
38930
39278
38531
38695
39970
39849
38540
38803
40314
40041
38419
38680
39983
39510
38639
39549
40367
39216
38326
39575
40476
39381
38632
39329
39581
39027
39334
40255
39942
39195
39714
40005
38660
37724
38479
38939
38160
38214
39284
38882
37658
38506
39916
38605
36615
37257
38064
36871
36809
38379
38222
37085
37421
37807
36711
35824
36369
36731
36048
36047
36915
36762
35748
35750
36527
36285
35390
35582
36154
35612
34904
35355
36078
35888
35726
36333
35907
34418
34779
36531
36177
34372
34698
36540
36478
35296
35700
36163
34825
34258
35820
36341
34862
34760
36228
36056
34963
35688
36733
35808
34840
36029
36982
35449
34325
35858
37114
36068
35089
35759
36140
35362
35361
36163
35854
35339
36376
37360
36322
35230
36203
36894
35618
35230
36459
36461
35519
36182
37461
36962
35951
36619
37368
36617
36330
37436
37698
36613
36783
38471
38412
36610
36580
37895
37528
36696
37678
38403
37142
36735
38285
38446
36747
36693
38303
38300
37054
37596
38854
38061
37138
38405
39137
37450
36601
38284
38955
37669
38084
39624
38643
37062
37960
38961
37788
36947
38263
39159
38269
38137
38997
38427
37290
37968
39128
38502
37386
37809
38580
38318
38133
38772
38979
38219
38205
39388
39006
36761
36192
37501
37466
36490
37145
38217
37446
36785
37918
38007
35890
35219
36966
37287
35438
35202
36693
36414
34963
35225
36068
35302
34265
34678
34891
33649
33238
34594
35176
34319
33969
34155
33298
32311
33093
34090
33284
32767
34114
34646
32867
31920
33408
33823
32057
32022
33680
33208
31688
32240
33258
32667
32281
33204
33363
32456
32672
33852
33791
32762
33077
34381
33908
32418
32945
34082
33133
32426
34006
34672
32936
32556
34335
34492
32958
33158
34631
34509
33602
34351
35309
34324
33509
34610
35250
34294
33970
34929
35025
34147
34547
35576
34829
33742
34769
36135
35240
33854
34511
35377
34679
34652
35724
35318
34074
34753
36212
35559
34015
34485
35700
35340
34806
35632
36117
35212
35017
36274
36172
34331
34095
35603
35719
34688
35070
36067
35494
34825
35799
36275
34951
34343
35409
35749
34934
35390
36749
36455
35495
36024
36368
34930
34175
35755
36732
35557
35290
36612
36317
34810
35475
37410
37016
35365
35865
36846
35599
34932
36775
37608
35840
35046
36624
37148
35625
35345
36472
36170
35165
35767
36554
35531
34647
35680
36027
34422
33969
35183
34854
33293
33618
34949
34375
33186
33632
33982
32840
32452
33616
33685
32046
31690
33021
33068
31920
32169
32957
32015
30868
31732
32462
31006
30103
31480
32253
31203
30824
31714
31536
30288
30371
31124
30289
29521
31044
32520
31309
29756
30413
30849
29644
30023
32016
31757
30023
30615
32307
31537
29776
30310
31388
30636
30234
31298
31125
29642
29954
31574
31278
29954
30419
31340
30562
29958
31245
32018
30552
29913
31917
32958
31170
30122
31204
31345
30333
30914
31786
30564
29868
31660
32769
31575
30765
31564
31877
31194
31527
32491
31812
30674
31465
32470
31161
29876
31458
33013
31780
31018
32618
33107
31352
30910
32479
32430
30496
30379
31774
31623
30940
31778
32443
31732
31840
33154
32696
30782
31030
32694
32208
30901
32064
33704
32564
31219
32618
33551
31444
30035
31763
33060
31884
31407
32673
32832
31939
32407
33166
32188
31299
32270
32576
31101
31075
32708
32682
31648
32169
33037
32386
31597
32210
32818
32074
31559
32400
32879
31935
31437
32095
31486
29768
30270
31810
30807
29317
30583
31960
30472
28778
29539
30320
29374
29035
29903
29539
28236
28664
29977
29115
27405
28030
29225
28299
27624
28999
29330
27603
27426
29002
28795
27304
27506
28544
28233
27595
28265
28807
27851
27416
28706
29341
28274
27700
28419
28519
27899
28381
28947
27774
27036
28571
29883
29059
28044
28502
29068
28615
28504
29383
29487
28173
27905
29587
30023
28282
27882
29158
29073
28250
29038
29931
28993
28474
29984
30238
28055
27628
29677
29983
28562
28852
29750
28673
28004
29729
30523
28592
27535
29104
30118
29233
29198
30337
30046
28925
29296
29979
29159
28401
29252
29851
29116
29325
30843
30922
29742
30035
30971
29660
27866
29051
30808
29826
28938
30301
30991
30061
30161
31169
30458
28940
29579
31065
30644
29776
30363
30745
29948
29924
30922
30604
29380
29839
31122
30507
28989
29471
31151
31048
30005
30521
31070
29706
28832
30151
30846
29448
29160
30990
31245
29281
28950
30514
30454
29154
29734
30831
29819
29039
30408
30849
29012
28276
29722
29927
28346
28373
29569
28699
27195
27849
28951
28297
27342
27400
27016
26113
26914
28470
27720
25838
26136
27623
27237
25952
26310
26831
25796
25479
26848
26859
24870
24466
26452
27092
25575
25112
25824
25261
24464
25458
26320
25280
24811
26187
26599
25324
25188
26358
26226
25284
26149
27523
26650
25379
26287
27191
25997
25209
26679
27727
26990
27067
28118
27495
26250
26995
28014
26771
25495
26803
28048
26793
26036
27523
28144
26815
26590
27935
27689
25985
26326
28103
28002
26908
27389
28313
27949
27768
28646
28287
26587
26700
28362
28275
27067
27611
28795
28258
27809
29176
29644
27902
27305
28813
28985
27555
27918
29330
28697
27602
28414
29044
27892
27136
28074
28600
27632
27478
28981
29468
28310
28188
29117
28194
26534
27644
29343
27906
26335
27954
29499
28124
26965
28363
29253
27979
27728
29225
29286
27902
28065
29367
29090
28053
28585
29106
28046
27818
29112
28982
27635
28404
30479
30138
28423
28831
29965
29089
28332
29625
30093
28465
28158
29810
30073
28846
28717
29248
28611
27631
27981
28595
27760
26939
27843
28576
27512
26742
27723
28257
27462
27478
27919
26607
25361
26615
27954
26604
24891
25598
26526
25497
24949
26108
26368
25275
25444
26606
25881
24166
24770
26289
25722
24895
25853
26287
25125
25176
26809
26622
24745
24868
26517
26377
25588
26936
28370
27114
25810
27105
28138
26737
25874
27152
27770
26892
27080
28062
27585
26968
27937
28385
27042
26331
27422
27887
26838
26844
28213
28040
26695
27449
29297
28346
26279
27373
29140
27914
27102
28921
29495
27906
27805
29236
28978
27496
27775
29126
29167
28793
29540
30011
29112
28627
29415
29425
28308
28357
29538
29557
28677
29076
30239
29887
28858
29287
29973
29156
28369
29086
29640
28698
28415
30044
30785
29597
29611
30929
30203
28755
30083
31473
30033
29436
31214
31426
29777
29638
30907
31069
30178
30173
30967
30726
29868
30483
31822
31280
29990
30696
31574
30480
30074
31350
31371
30300
30983
32445
31799
30299
30774
31791
31176
30694
31603
31669
30284
30150
31651
31803
30467
30456
31444
30981
29906
30346
31055
30030
29086
30098
30746
29405
28606
29539
29808
28835
28831
29398
28478
27653
28938
29677
27788
26640
28368
29179
27495
27271
28767
28053
26299
27191
28678
27212
25305
26398
27590
25979
25054
26850
27624
26100
25858
27507
27600
26112
26385
27697
27074
25964
26936
28162
27482
26814
27668
27750
26415
26475
27863
27577
26275
26846
28252
27904
27152
27801
27962
26634
26378
27856
28213
26883
26756
28036
28060
27281
27943
28756
27699
26601
27571
28550
27667
27222
28421
28625
27341
27443
28945
28707
27165
27598
28934
28166
27258
28680
29725
28084
26841
28204
28875
27364
27420
29402
29372
27845
28472
30223
29922
28804
29316
29723
28550
28405
30244
30806
29151
28768
30531
30716
28809
28546
29973
29886
28965
29731
30690
29777
29386
31034
31284
29047
28638
30915
31421
29805
30135
31546
30547
29289
30667
31860
30482
29283
30340
31206
30421
30258
31106
30699
29763
30493
31478
30545
29609
30780
31576
30399
30378
32034
31845
30168
30519
31973
31119
29300
29943
31374
30596
29562
30605
31460
30282
29661
30910
30668
28304
28034
30042
30124
28640
28866
29496
28197
27342
28512
28641
26698
26021
27484
28068
27023
26857
27570
26954
26117
27188
27987
26425
25526
27288
27888
25838
25506
27408
27270
25631
26031
27287
26562
25251
25869
27029
26435
25610
26604
27702
26885
26069
27002
27302
26053
26337
27906
27439
26165
27143
28666
28171
27340
27972
28231
27225
27140
28297
28278
27014
27086
28478
28400
27142
27416
28372
27850
27539
28776
28981
27468
27374
28799
28905
28282
28802
28950
27532
26837
28308
29291
27897
26936
28441
29563
28308
27210
28028
28530
27653
27646
28689
28483
27622
28194
29148
28538
27721
28426
28880
28051
28356
29757
29343
27884
28402
29842
29278
27884
28321
29142
28590
28717
30227
30265
28603
28547
30149
29928
28335
28887
30533
30035
29007
29982
30664
29183
28602
30241
30662
28919
28307
29624
30192
29408
29385
30084
29781
29421
30394
30919
29716
28866
29771
30454
29823
29818
30720
30380
29367
30051
31288
30396
29103
30316
31591
30346
29687
31139
31322
29774
29814
31144
30517
28755
29139
30414
29584
28322
29401
30772
29586
28223
29422
30055
28088
27463
29103
28785
26977
27842
29823
29009
27622
28807
29710
27942
26882
28443
29107
27438
26996
28478
28485
27132
27334
28221
27483
26753
28118
29219
28167
27768
29316
29933
29029
28951
29658
29231
28339
28986
30075
29504
28822
30035
31105
29747
28249
29148
30140
29219
28894
30013
29874
28601
29013
30368
29665
28123
28860
30023
28923
28058
29329
29762
28233
28012
29597
29358
27403
27574
29334
29116
27914
28719
30054
29452
28801
29706
29812
28282
27843
29061
29401
28556
28795
29712
29088
28164
29206
30480
29835
29051
29767
29902
28749
29004
30405
29975
28811
29646
30754
29526
28182
29339
30457
29691
30072
31799
31181
29101
29384
30852
30162
28771
29646
31049
30463
29623
30342
30887
30200
30286
31580
31420
29865
30032
31590
31459
30118
30367
31470
30748
29678
30912
32039
30523
29505
31119
31918
30483
30327
31830
31766
30840
31692
32607
31329
30163
31306
32141
30889
30482
31937
32220
31077
31108
31844
30998
29824
30582
31271
30023
29617
31033
31028
29329
29193
30404
29831
28213
28680
29851
28690
27044
27886
29278
28422
27432
28626
29060
27198
26812
28320
27452
25077
25992
28746
28262
26014
26409
27648
26434
25346
26749
27427
25828
25515
27123
27300
26282
26623
27203
26215
25547
26865
27689
26352
25760
27319
27928
26517
25885
26769
26747
25756
26179
27357
27059
26633
27694
28170
26660
25724
26966
27819
26901
26657
27486
26984
25734
26380
27997
27755
26544
26974
27872
27375
27155
28105
28046
26853
27065
28418
28209
27002
27281
28205
27768
27071
27785
28599
27887
27330
28320
28544
27178
27322
28986
28446
26606
27614
29728
28972
27586
28544
29179
27651
26961
28370
28668
27195
27560
29755
29767
27993
28188
29467
28416
26871
28293
29903
28478
27480
29215
29975
28399
28114
29628
29299
27527
28183
29897
29025
27766
29016
30063
28926
28455
29697
29637
28024
27947
29343
29393
28296
28577
29722
29110
27969
28931
29667
27785
26828
28850
29650
27821
27909
30321
30348
28427
28954
30522
29073
26963
28078
29297
27425
26325
28215
28986
27396
27080
28278
27734
26306
27110
27984
25997
24624
26461
27480
25443
24306
25975
26744
25185
24832
26319
26315
24893
25127
26373
25601
23836
24100
25106
24642
24437
25499
25522
24389
24564
25397
24465
23339
24569
26142
25470
24440
25311
26164
24935
24013
25354
26018
24378
23846
25485
25743
24428
25074
26657
25679
24095
25179
26658
25878
25118
26335
26935
25626
25393
26763
26585
25248
26003
27723
26726
24585
25190
26694
26305
26385
27449
26778
25973
27499
28466
26853
25601
26339
26978
26647
26730
27652
28135
27450
26958
27683
27952
26972
26676
27427
27454
27000
27773
28861
28011
26782
27830
28714
26893
25971
28067
28837
26975
26941
28810
28705
27605
28239
29039
28337
27719
28560
29446
28817
28099
29005
29699
28596
28207
29615
29399
27540
28148
29858
28694
27360
28992
30235
28802
28124
29664
29780
27938
28136
29709
28790
27287
28620
30226
29325
28374
29181
29384
28285
28299
29379
28957
27416
27729
29471
29107
27387
28033
29284
27678
26335
28079
28743
26441
25812
27599
27512
25777
25664
26303
25502
24582
25454
26494
25552
24419
25277
26150
25207
24586
25377
24955
23375
24011
25706
24820
23374
24574
25888
24483
22960
23852
24696
23732
23563
24789
24567
23241
23801
25323
24641
22984
23644
25258
24937
24116
24831
25265
24038
23752
25579
26004
24037
23661
25347
25375
24236
24998
26121
25164
24465
25709
26060
24535
24214
25689
26078
25245
25735
26741
25955
25226
26604
27295
25344
24148
25989
27409
26171
25316
26130
26103
25398
26161
27051
25796
24441
25665
27177
26337
25508
26563
27164
26266
26096
26850
26131
24633
25401
27212
26888
25812
26501
27303
26413
25891
27055
27327
25837
25507
26862
27054
25907
25987
27083
26873
26210
27096
27821
26589
25718
26893
27739
26937
26872
28136
28272
27382
27651
28137
27038
26332
27941
29023
27518
26762
28564
29393
27887
27400
28771
28803
27592
28338
29646
28367
27052
28501
29735
28358
27304
28535
29233
28128
27993
28893
28044
26535
27367
29047
28539
27259
27722
28142
26840
26256
27430
27486
25816
25539
26970
26775
25106
25318
26623
25885
24477
25089
25907
24790
24172
25660
26246
24700
24123
25114
24850
23750
24442
25243
23801
22931
24571
25205
23163
21981
23174
23585
22558
23204
24894
24223
22569
23086
24322
23794
22859
23259
23561
22903
23261
24719
24662
23267
23522
25047
24427
22228
22203
23654
23423
22750
24028
25219
24164
23428
24819
24916
22654
22478
24715
24666
22927
23708
25324
24139
22784
24214
25158
23415
22833
25074
25978
24295
24094
25802
25694
24261
24691
25908
25310
24192
24830
25802
25180
24627
25484
25735
24667
24558
25696
25611
24529
25014
26043
25142
24286
25788
27081
25825
24819
26208
26795
25074
24746
26265
26056
24898
25910
27448
26795
25666
26106
26439
25608
25589
26936
27247
25904
25806
27690
27787
25545
25353
27222
27052
25922
26958
27774
26207
25543
27061
27520
26539
26754
27735
27276
26214
26787
27912
27247
26313
27453
28562
27372
26473
27858
28437
27018
26986
28183
27397
26305
27736
29202
28004
26510
27089
27663
26767
26653
27655
27286
26038
26459
27415
26205
24615
25628
26845
25740
25282
26772
26617
24630
24579
25885
25081
23528
24292
25529
24622
23597
24664
25636
24439
23509
24469
24365
22422
22521
24751
24504
22095
22364
24538
24236
22754
23518
24594
23441
22510
23755
24291
22978
23078
24650
24514
23532
23942
24231
23224
22958
24215
24687
23485
23074
24537
25348
24106
23371
24528
24830
23651
24190
25865
25275
23869
24750
26039
25135
24181
25161
25406
23928
24068
25734
25351
24175
25524
27009
25586
24404
25965
26616
24714
24490
26647
26389
23855
24108
26295
26128
25108
25868
26314
25220
24867
26052
26525
25240
24468
25647
26495
25621
25357
26583
26599
25333
25755
26826
25636
24375
25708
26967
25792
24941
26241
26583
24961
25008
26606
26006
24432
25460
27233
26442
24992
25684
26586
25754
25306
26470
26859
25603
25405
26893
26871
25267
25668
27343
26845
25825
26909
27380
25515
25020
26986
27602
26327
26303
27297
26737
25540
26266
27435
26356
25111
26491
27904
26562
25209
26227
26708
25477
25826
27325
26451
24849
25590
26529
25233
23910
24611
25299
24381
23917
24876
25128
24187
24213
25234
24819
23249
23194
24139
23801
23109
23884
24649
23707
23237
24865
25201
22915
22434
24380
24148
22325
22943
24426
23931
23517
24263
23770
22283
22380
23568
23566
22691
23038
24287
24351
23760
24290
24606
23275
22873
24867
25604
23816
23606
25388
25309
23860
23860
24451
24033
23450
23754
24441
24270
23460
23797
24951
24419
23274
24277
25067
23541
23394
25397
25242
23354
23881
25709
25145
23512
23897
24844
24366
24464
26108
26342
24394
23917
25833
26091
24150
24242
25997
25413
24026
25069
25970
24616
24327
25985
26103
24651
24619
25577
25326
24626
25291
26032
24998
24252
25905
27048
25207
23765
25231
26069
24870
25251
26704
25702
24462
25955
27192
25752
24549
25592
26425
25764
25907
27105
26880
25672
26281
27891
27326
25609
26012
27083
26268
25806
27310
27803
26345
26324
28141
27974
25822
25640
27164
27037
26132
26955
27671
26232
25316
26537
26726
24807
24256
25808
26004
24387
24421
26096
25878
24253
24501
25545
24513
23096
23957
24880
23615
22863
24187
24485
22987
23072
24723
24038
21786
22287
24063
23262
22216
23533
24205
22657
22075
23390
23482
21969
22018
23483
23354
22238
22898
24264
23617
22399
23175
23972
22883
22550
24070
24299
22801
22960
24686
24365
22612
22985
24219
23257
22333
23913
24963
23590
23191
24837
25222
24148
24461
25420
24570
23533
24668
25608
24308
23686
25098
25520
24392
24361
25359
25026
23932
24430
25523
24902
23918
24535
25327
24815
24514
25312
25320
24388
24984
26373
25671
24188
24963
26428
25487
23973
24976
26226
25132
24376
25619
25912
24545
24516
25780
25454
24394
25199
26075
24726
23797
25393
26411
25000
24568
26390
26753
24891
24506
25948
25995
24992
25690
26623
25407
24571
26145
27043
25578
24830
26164
26587
25246
25099
26253
26109
25484
26264
26816
25693
25003
26085
26612
25378
24944
26281
26772
25656
25643
26999
26458
24512
25093
26748
25680
24308
25634
26568
25095
24632
26266
26111
23728
23237
24811
24820
23681
24410
25673
24535
23103
24116
24800
22985
22230
24159
24683
22722
22599
24697
24822
23150
23139
23922
22906
21899
23227
24362
23286
22712
23662
23707
23163
23846
24297
22916
21817
23034
24441
23462
21967
22778
24340
23798
22629
23257
23784
22817
23001
24343
23764
22415
23444
25021
24010
22520
23533
24676
23617
23058
24357
24475
22970
23079
24687
24563
23220
23508
24596
24292
23782
24518
24850
23842
23703
24901
24893
23730
24057
25375
25093
23912
24266
25120
24375
23763
25112
25869
24331
23670
25301
25549
24052
24744
26298
25055
23840
25290
25944
24370
24009
25478
25619
24424
24902
26360
25686
23952
24458
26094
25507
23864
24358
25515
24905
24511
25755
25996
24436
24156
25616
25428
23647
23868
25619
25635
24859
25673
26270
24947
24350
25683
26048
24766
24634
26009
26315
25204
25139
26382
26580
25692
25616
25814
24997
24616
25733
26045
24728
24681
26278
26424
25301
25743
26806
25575
23778
24585
25688
24498
24100
25812
25854
23648
22897
23927
23795
22709
22980
23516
22439
21672
22831
23596
22564
21949
22673
22633
21578
21647
22731
22503
20892
20563
22051
22411
21189
21290
22251
21397
20391
21485
22105
20583
20139
21890
22546
21473
21446
22446
22258
21644
22572
23619
23357
23738
25100
24950
23838
24515
26320
26577
25774
26248
27299
26821
25934
26546
27302
26447
25615
26503
27189
26282
25898
26641
26430
25531
26069
27132
26326
25037
25913
27006
25999
25394
26779
27263
25950
25787
27027
26695
25279
25729
26981
26407
25631
26809
27654
26140
25179
26718
27559
26114
25634
27041
27164
25856
26119
27112
26372
25766
26939
27293
25757
24969
26050
26807
26054
25929
27555
28077
26195
25459
27116
27123
25181
25670
27465
26487
25150
26571
27749
26673
26575
28203
27575
25098
25791
28306
27608
25917
27300
28781
27444
26668
28284
28459
26358
26211
28096
27958
26558
27266
28335
27156
26476
28197
28981
27425
26816
28091
28276
27045
27444
29103
28770
27252
27549
28482
27636
26677
27820
28900
27710
26587
27368
27804
26854
26603
27255
26565
25192
25863
27280
26641
25695
26565
27063
25602
24724
25895
26501
25495
25534
26641
26204
25060
25481
26229
25545
24663
24786
24801
24359
24742
25917
26379
25929
25966
26617
26272
25322
25772
26848
26655
26347
27364
27852
26310
25371
26822
27571
26003
25581
27283
27532
26340
27106
28360
27006
25744
27228
28151
26434
25561
27201
27783
26270
26264
27726
27205
25829
26542
27719
27006
26109
26873
27534
26865
26917
28100
27927
26383
26267
27586
27535
26356
26747
27829
27343
26836
28000
28680
27486
27069
28549
28545
26509
26501
28352
28081
26870
28023
29155
27573
26703
28610
29191
26998
26514
28625
28862
27009
27362
29075
28172
26647
28078
29662
28042
26122
27145
28567
28058
28092
29458
29358
28153
28553
29604
28809
27568
28390
29578
28856
28219
29239
29785
28940
28774
29615
29345
28154
28445
29610
29251
28250
28969
30290
29622
28358
29139
29929
28715
28304
29642
29463
27920
28311
29610
28743
27654
28967
29626
27209
25663
27555
28886
27232
26339
27812
28017
26306
26173
27327
26633
25475
26564
27180
25295
24750
26679
27048
25507
25111
25767
25639
25083
25443
26226
25734
24496
24861
26246
25669
24130
24754
25659
24443
24006
25426
25245
23619
24182
26085
25661
24030
24619
25864
25134
24694
26134
26352
24462
24242
26380
26793
24990
24861
26436
26464
25708
26494
27028
25672
25065
26351
26828
25736
25165
25671
26099
26139
26421
26617
26025
25716
26666
27158
25954
25086
26000
26674
26140
26418
27366
26812
25937
26976
28099
26845
25462
26578
27583
26323
25847
27258
27439
26392
27012
28284
27284
25649
26476
27772
26733
25724
27210
28498
27210
26190
27503
27816
25789
25434
27476
27793
26295
26716
28384
27868
26559
27396
28239
26746
25773
27176
27901
26932
27464
29283
28981
27452
27680
28512
27795
26943
27815
28784
28076
27538
28660
29340
28450
28093
28843
28459
27334
28093
29276
28180
27121
28358
29425
28669
28195
28871
28720
27704
28088
29178
28563
27365
27954
29046
28387
27379
27923
28089
26752
26612
28050
27850
26159
26355
27954
27548
25940
26164
26868
25777
25136
26511
26822
24934
24418
25941
26053
24706
24791
25658
24996
24114
25078
25890
24644
23951
25367
25889
24274
23433
24482
24906
24105
24344
25278
24646
23708
24673
25810
24823
23471
24055
25005
24671
24823
26092
26210
25036
25208
26662
26462
25023
25478
26783
26314
25873
27041
27245
25784
25725
27224
26986
25384
25706
27085
26558
25533
26552
27664
26545
25635
26912
27568
26101
25473
26638
26873
26070
26744
27854
27033
26278
27474
27713
25562
24764
26873
27819
26274
26128
27601
27201
26009
26877
27941
26863
25824
26893
27773
26754
26321
27593
28108
27243
27117
27669
26945
25853
26715
28036
27317
26295
27483
29004
28161
26890
27867
28828
27763
27486
29229
29919
29040
29668
31634
31585
30068
30209
30956
30048
29609
31190
31780
30380
30284
31512
31041
29895
30602
31685
31121
30193
30817
31907
31204
29790
30275
31505
31028
30307
31193
31521
30524
30964
32048
30893
29713
30999
32138
31181
30256
30747
31063
30264
29858
30519
30726
29837
29649
30689
30453
28750
28732
29954
29593
28910
29962
31265
31995
33667
35553
35050
33320
33534
34718
34221
33173
33462
33614
32445
32108
33219
33066
31552
31645
32978
32720
31824
32900
34074
33003
32272
33484
33598
31798
31267
32728
33154
31869
31730
33007
32950
31785
31890
32678
32033
30885
31478
32773
32552
31840
32254
32704
32102
31763
32277
31784
30346
30675
32174
31926
30902
31750
33044
32106
30708
31511
32222
30881
30515
32114
32230
30779
31119
32551
31912
30605
31308
31917
30368
29459
30955
31845
30635
30397
31899
31979
30709
31092
32030
30742
29470
31241
32905
31286
30027
31954
33315
31808
30716
31546
31472
30565
31803
33217
31445
29778
31535
33336
32348
31373
32338
32699
31593
31805
33097
32547
31201
31956
33428
32860
31723
32388
33046
32224
32310
33872
33931
32361
32341
33803
33656
32396
32774
33742
33036
32224
33239
34182
33262
32815
34403
35270
33993
33160
33785
33907
33465
34225
35088
34295
33800
35018
35406
33940
33367
34621
34994
33885
33929
34913
34263
33170
34041
35029
33722
32432
33551
34177
32325
31606
33265
33555
31973
32065
33628
33061
31077
31376
32674
31830
30783
31714
32313
31446
31466
32339
31347
29396
29661
31262
31201
29996
30069
30901
30393
29738
30756
31042
29039
28357
30267
30675
28996
29319
31009
30212
28664
29727
31068
30001
29073
30385
31014
29517
29272
30903
30929
29630
30176
31591
30822
29275
30008
31328
30684
30196
31325
31661
30664
30644
31463
30949
29767
30270
31567
31238
30105
30705
32236
31780
30413
31190
32133
30848
30410
32026
31924
30201
30934
33092
32418
30444
31090
32467
31503
30660
32082
32695
31132
30938
32672
32872
31685
31855
32672
32243
31641
32365
32873
31774
31243
32630
33237
31850
31371
32680
32592
31036
31582
33290
32699
31556
32313
32828
31775
31541
32776
32858
31587
31850
33305
33089
32009
32795
34234
33493
32070
32863
33939
32848
31995
33186
33861
32873
32706
33785
33474
32017
32150
33379
33322
32552
32928
33528
32634
32073
33657
34432
32407
31221
32723
33356
32143
32429
33673
32571
30875
31776
33090
32112
30987
31776
32127
30817
30678
32042
31835
30564
30992
31743
30139
28496
29868
31360
30202
29656
31165
31247
29714
29958
31325
30545
28740
29085
30082
29097
28141
29356
30388
29397
28798
29926
29991
28336
28174
29715
29865
28908
29639
31151
30517
29085
29647
30506
29545
29016
30202
30380
29096
29375
30769
30501
29843
30756
31260
30031
29291
30435
31374
30513
29860
30920
31450
30209
29695
30744
30549
29292
30169
31638
30502
29439
30968
32003
30723
29951
30972
31379
30434
30394
31382
31242
30253
30593
31762
31399
30249
30653
31242
30395
30333
31667
31524
30190
30767
32289
31596
30116
30791
32119
31560
30412
30914
31908
31087
30036
31224
32319
30930
30048
31447
31941
30998
31568
32394
31095
30343
31629
31943
30745
30478
31352
31727
31441
31587
31970
31355
30442
30975
31978
31160
29952
30978
32138
31093
30606
32080
32363
30831
30801
32351
31947
30213
30973
32610
31748
31019
32618
33055
31266
31061
32727
32594
31061
31311
32373
31645
30600
31481
32453
31425
30663
31867
32194
30396
29752
31260
31759
30605
30700
31853
31247
29956
30587
31273
29788
28811
30388
31131
29415
29031
30605
30227
28373
28815
30458
29674
27906
28508
29529
28408
27966
29663
30117
28603
28260
29162
28588
27183
27718
29090
28518
27206
27836
29134
28401
27145
27956
28713
27483
27096
28498
28418
26942
27602
29550
28937
26988
27448
29017
28615
27620
28275
28858
27713
27345
29056
29572
27988
28013
29706
29100
27283
28513
30591
29282
27415
28638
30167
29313
28339
28826
28844
28367
29506
30435
28535
27045
29008
31013
29964
28642
29473
29939
28743
28750
30048
29631
28450
29478
31023
29941
28204
29021
30237
29402
29018
30375
30558
29255
29550
31009
30456
28833
29107
30188
29782
29178
30030
30634
29466
28888
30380
30889
29100
28568
30333
30836
29505
29437
30211
29592
29327
30788
31216
29659
29014
30237
30716
29629
29486
30685
30624
29512
30024
31297
30302
28575
29608
31290
30131
28798
30317
31782
30610
29800
31254
31484
29617
29790
31472
30496
28806
30215
32083
31210
30226
31219
31228
29387
29257
30892
30437
28416
28678
30322
29731
28372
29307
30200
28479
27207
28534
29127
27429
27022
28666
28613
26846
26975
28299
27622
26383
27197
27590
25800
25419
27343
27591
26052
26245
27579
26929
25520
26335
27454
26134
24988
26289
27363
26515
25882
26315
25981
24967
25420
26651
26294
25145
25378
26172
25675
24888
25441
26043
25559
25534
26536
26739
25844
25989
27362
27301
25779
25622
26456
26078
25873
27222
27504
25789
25632
27710
28233
26633
26096
26906
26857
26355
27098
27644
26268
25475
27288
28485
26749
25480
27023
28125
27284
27531
28549
27211
25536
26877
28633
27403
25768
26876
28112
27048
26565
27932
28149
27034
27561
29057
28386
26716
27308
28549
27653
26780
28007
28773
27623
27249
28467
28405
26944
27139
28732
28728
27431
27542
28660
28313
27518
28485
29173
27717
27188
28999
29524
28082
28436
30114
29538
28138
28928
29983
28973
27940
28911
29876
29169
28900
30102
30443
29553
29748
30676
29873
28593
29605
30661
29058
28037
29969
31272
29856
29043
30338
30463
28849
29068
30602
30060
28909
29771
30479
29345
29095
30644
30577
28516
28305
29964
29619
27592
27646
29307
29136
27802
28014
28799
28164
27214
27453
27733
26792
26520
28247
28989
27220
26484
27747
27480
26164
27154
28119
26181
25125
27136
28009
26250
25502
26701
26899
25970
26566
27726
26808
25625
26497
27325
26323
25765
27137
27961
26879
26247
26841
26837
26507
27439
28504
27869
26870
27460
28225
27594
27032
27471
27379
26513
26773
28138
28270
27261
27415
28530
28473
27336
27071
27930
28290
28198
28711
28706
27552
27531
29098
29508
28647
29267
30460
29269
27776
29404
31237
29484
27472
29020
30564
29234
28890
30718
30596
28815
29435
31251
30166
27879
28580
30399
29953
29462
30615
30740
29615
30184
31607
30575
28792
30116
32095
30937
29555
30794
31624
30588
30436
31300
30904
30152
30881
31958
31792
30945
30998
32017
32109
31381
31831
32268
30947
30518
32247
32434
30476
30608
32649
32629
31434
32059
32826
31610
30727
32156
33143
31690
30788
32211
33102
32311
32239
33053
32382
31325
32649
33967
32219
30596
31719
32554
31487
31157
32260
32287
30927
30695
31760
31692
30290
29983
31025
30982
30109
30814
31523
30049
29109
30364
30521
28622
28235
29944
30184
28625
28243
28826
28262
27708
28872
29782
28583
27683
28789
29162
27515
26734
27500
27223
26395
27532
28673
27187
25939
27291
28140
26592
25480
26500
27454
27207
27449
28029
27120
26059
27018
28179
27082
25721
26568
27353
26218
26064
27872
28320
26904
26696
27742
27356
26150
26739
27820
27023
26180
27276
28128
27022
26365
27462
27393
25545
25548
27575
27827
26387
26536
27742
27316
26563
27566
28088
26544
25933
27404
27699
26304
26492
27828
27326
26464
27669
28394
26537
25369
27073
28062
26431
25930
27633
27729
26033
26124
27602
27180
25809
26608
27955
26896
25752
27150
28399
27124
26112
27207
27251
25363
25500
27612
27505
25965
26810
28640
27967
26393
26937
27768
26766
26149
27146
27225
25925
26149
27869
27771
26338
26851
28054
26995
25889
27311
28287
26585
25682
27346
28018
26539
26271
27686
27675
26364
26498
27219
26493
26014
26823
26619
25172
24892
25747
25569
24687
25140
26016
25216
24297
25387
26560
25465
23975
24484
25235
24294
23592
24348
24586
23788
24045
25237
24828
23362
23732
24839
23974
22865
23875
24848
23721
22939
24261
24763
23077
22404
23625
23863
23093
23671
24599
23675
22705
23633
24058
22633
22435
24194
24383
22838
23184
24747
24137
22964
24182
25319
23793
22680
24232
24863
23061
22922
25020
25237
23897
24398
25419
24105
22869
24550
25857
24010
22848
24636
25530
24109
24197
26223
25907
23644
24142
26139
25281
23823
25277
26551
24999
24256
26198
26601
24296
23868
25868
25899
24284
25095
27131
26453
24814
25630
26687
25464
24776
26208
26379
24624
24844
26902
26956
25608
25781
26617
26308
25831
26529
27182
26229
25195
26056
27141
26509
25964
26857
26831
25549
26014
27456
26777
25730
26861
27918
26861
25853
26526
26982
26249
26307
27352
27044
25621
26056
27978
27598
25436
25676
27212
26778
26518
27790
27212
25148
25725
27755
27213
25516
25853
26846
26483
26289
27255
27312
25791
25282
26286
26149
24819
24802
25775
25569
24715
24985
25363
24370
23814
25015
25225
23118
22180
23910
24525
22984
22917
24012
23043
21862
23112
23963
22148
20860
22342
23552
22526
22131
23458
23472
21679
21378
22768
22377
20445
20692
22434
22256
21206
21837
22635
21886
21657
22953
22882
21046
21116
23235
23541
21965
21996
23389
23054
22039
22966
23448
21419
20871
23334
23772
21471
21774
24190
23716
21923
23014
24620
23308
21877
23222
24192
22681
22322
24270
24671
23167
23223
24540
24119
22969
23804
24819
23671
22958
24438
25140
23782
23239
24219
24027
22999
24005
25385
24064
22612
23979
25271
24030
23224
24675
25194
23713
23627
25208
24927
23163
23457
25169
25122
24078
24327
24877
24308
23863
24665
25422
24871
24478
25515
26142
25235
24747
25209
24839
24202
25134
25902
24704
24224
26031
26914
25409
24505
25521
25916
25051
25412
26666
26136
24957
25808
27146
26234
24817
25634
26765
25974
25465
26482
26704
25759
25850
26728
26304
25297
25760
26580
26170
25959
26614
26146
24601
24751
26378
26047
24159
24373
25815
25027
23554
24482
25746
24702
23909
25358
25958
24365
24037
25574
25382
23725
24279
25876
25142
23993
24958
25486
23861
22976
24311
24886
23426
23025
24588
25000
23843
23897
24870
24016
22569
23779
26006
26192
26152
27615
28205
27058
26817
28023
28212
27288
27471
27992
26867
25804
26932
28086
26932
25886
27307
28293
26783
26035
27457
27764
26416
26582
28131
27997
26658
26682
27450
27193
26768
27464
28230
27719
27092
27513
27690
27200
27647
28291
27100
26026
27495
28570
27128
26720
28460
28718
27369
27350
28095
27397
26486
27611
29119
28224
26595
27328
28931
28284
27084
28067
28692
27059
26777
28677
28832
27375
27842
29355
28819
27448
27864
28593
27842
27498
28620
28880
27651
27702
29316
29045
27106
27510
29439
28887
27355
28233
29353
28146
27333
28556
28949
27621
27101
27838
28107
28097
29114
29880
28749
27805
29049
29907
28385
27405
28708
29063
27750
28384
30170
29390
27986
28937
29823
28657
28023
29376
30109
28926
28395
29576
29853
28289
27842
29265
28953
26717
26835
28700
28363
27286
28151
28571
27065
26644
27974
27634
25683
25776
27355
26958
25619
26354
27542
26470
25285
26137
26422
24774
24344
25972
26159
24421
24592
26713
26700
24717
24483
25605
25002
23393
23753
25295
25237
24501
25245
25916
24846
24218
25390
25766
24805
25379
26686
25697
24391
25640
27109
26290
25472
26500
26787
25372
25420
26855
26428
25173
25970
27145
26320
25425
26318
26865
25899
25674
26609
26311
25071
25840
28032
27800
25641
25567
26854
26192
25186
26146
26579
25195
25025
26294
26173
25448
26243
26955
26095
25765
27209
27778
26169
25557
27281
27925
26285
25684
27105
27370
26109
26372
27463
26617
25595
26629
27591
26814
26229
26923
27118
26322
26546
27806
27924
26948
26787
27367
27214
26650
26931
27467
27227
26932
27641
28453
27804
26959
27797
28144
26636
26557
28195
27793
26415
27542
28931
27682
26853
28540
29242
27563
27055
28482
28570
27363
27972
29267
28277
27136
28449
29220
27122
25640
27174
28255
26925
26516
27779
27311
25482
25602
26789
26052
24675
25415
26522
25604
25005
26587
27597
26502
26144
27382
26873
24648
24912
26883
26244
24378
25051
26480
25695
24832
26006
26288
24297
23640
25073
25033
23714
24294
25543
24550
23292
24256
25234
24564
24692
26431
26762
25092
24852
26477
26557
25034
25024
26157
25722
24452
24743
25499
24945
24630
25427
25469
24705
24904
25650
25334
24666
25249
25934
24828
23502
24321
25750
25170
24104
24960
25760
24745
24497
25719
25550
24238
24640
25805
24826
23238
24124
25464
24665
24228
25741
26016
24123
23735
25545
25767
24285
24737
26173
25377
24620
26361
27055
24983
24340
25975
25996
24455
24459
25460
25284
24748
25597
26548
25717
24800
25765
26517
25196
24164
25158
25755
24843
25016
26414
26138
24905
25705
27061
25778
24239
25843
27207
25359
24605
26809
27304
25297
25179
26817
26196
24278
24985
26756
26065
24903
26132
27260
25971
25445
27406
27375
24299
23948
26789
26895
24819
25606
27414
26368
25180
26366
26979
25582
24926
26067
26632
25381
24570
25578
26070
25007
24771
25274
24085
22862
24018
24486
22712
22683
24419
23917
22551
23267
23803
22286
21353
22551
23343
22166
21442
22744
23741
22737
21915
22662
22583
21117
21259
22710
22351
21092
21609
22563
21864
21274
22332
22638
21376
21652
23623
23730
22210
22482
23940
23605
22616
23311
23966
22938
22555
23996
24400
22763
22479
24436
24917
23143
22645
23780
23568
22548
23512
24870
23740
22369
23488
24514
23183
22313
23553
23770
22405
22925
24457
23542
22308
23647
24898
23815
22885
23669
23955
23066
23407
24781
24375
22838
23394
25243
24751
22825
23212
24618
24001
23307
24442
24906
23939
24318
25909
25812
24796
25652
27268
27059
26130
26714
27602
26798
25980
26942
27519
26142
25241
26347
27252
26604
26487
27648
27602
26160
26179
27219
26454
25295
26476
27570
26351
25907
27408
27608
26479
26942
28045
26945
25427
26601
28106
27064
26302
27691
28183
26907
26790
27963
27623
26090
26192
27418
27300
26576
27303
28351
27699
26872
27728
27964
26263
25803
27383
27537
26042
26260
27769
27216
25706
26305
26898
24996
24072
26136
26802
24657
24382
26368
26019
23744
23582
24763
24315
23523
24557
25188
23581
22768
24290
24883
23458
22928
23873
23776
22763
23319
24488
23549
22195
23439
25189
24041
22144
22826
23731
22519
22206
23758
23762
22399
22966
24454
23699
22057
22576
23874
23512
22966
23914
24459
23315
23000
24695
25174
23624
23689
25330
24866
23405
24298
25577
24483
23645
25048
25756
24411
23852
24998
25342
24366
24483
25631
25333
24243
24781
25806
25130
24240
25070
25753
24884
24850
26404
26794
25732
25736
26580
25916
24670
25251
26086
25150
24784
26264
26712
25359
25208
26582
26384
24955
25662
27315
26551
25125
25935
26975
26115
25780
27369
27557
25550
25394
27304
27351
26229
27154
28311
27147
26256
27352
27489
25884
25710
27216
27282
26074
26736
28491
28087
26685
27120
27862
26809
26055
27512
28638
27604
27079
28312
28603
27469
27507
28585
28056
26600
27077
28473
28181
27635
28668
29265
28027
27397
28278
27655
25702
26412
28359
27070
24889
26094
28041
27076
25722
26680
27281
25946
25566
26526
25886
24547
25549
27005
25709
24084
25109
26087
24604
23599
24983
25635
23991
23402
25108
25837
24673
24218
24784
24487
23709
24107
24674
23894
23517
24980
25845
24634
23980
25083
25118
23774
24176
25486
24678
23602
24573
25223
23978
23383
24530
24858
23922
24449
25917
25458
24293
25163
26414
25416
23932
24538
25663
25368
25071
25824
26093
25372
25292
25849
25137
23997
24846
26292
25846
25255
26555
27407
25963
25186
26760
27286
25488
25100
26865
27068
25751
26378
27704
26660
25525
26755
27585
26247
25462
26621
27219
26310
26403
27758
27617
26338
26802
28124
27216
25605
26599
28028
26953
26185
27683
28461
27541
27612
28573
27764
26268
27147
28617
27594
26308
27531
28890
28110
27595
28838
28879
26957
26645
28412
28779
27640
28042
29417
28809
27622
28703
29778
28276
27194
28711
29415
27689
27430
29614
29964
27995
27863
29381
28837
27407
28560
30004
28600
27382
28778
29654
28475
27871
28363
27653
26537
27694
29206
27951
26259
26774
27486
26919
26744
27210
26440
24978
25291
26543
26096
24878
25409
26717
26338
25158
25242
25326
24210
24007
25351
25501
23958
23538
24686
24795
23746
23704
24255
23753
23205
23987
24629
23735
23296
24620
24998
23230
22530
23838
24044
23002
23629
24876
23973
22910
24030
24704
23209
22764
24752
25391
23658
23497
25043
24546
23033
23935
25563
24681
23100
23835
25075
24355
23691
24714
25245
24374
24349
25398
24963
23416
23699
24931
24449
23719
24800
25567
24257
23483
24787
25072
23516
23761
25690
25478
24215
25282
26563
25176
24127
25721
26328
24239
23529
25532
26217
24770
24841
26192
25716
24796
25827
26480
24840
23693
25035
26110
24992
24359
25660
26252
25406
25639
26791
26058
24390
25132
26858
26168
24818
25598
26536
25623
25309
26828
26726
24456
24489
26721
26642
25055
25752
27272
26600
25668
26683
26994
25293
25004
26648
26497
24931
25765
27925
27547
26047
26748
27827
26712
25718
26930
27829
26741
26326
27489
27231
25500
25644
26984
26204
24875
26098
27196
25464
24455
26182
26748
24904
24318
25507
25093
23597
24394
25656
23944
22244
23949
25764
24404
22639
23097
23468
22549
23048
24691
24205
22614
23138
24395
23566
22297
23083
24057
23227
22505
23169
23317
22463
22635
23696
23330
22033
22141
23048
22865
22353
22900
23443
22797
22576
23727
23807
22108
21888
23667
23959
22649
22874
23850
23247
22999
24514
24800
22863
22077
23524
24071
22992
23253
24715
24258
22797
23548
25102
24090
22278
23126
24591
23776
23075
24199
24563
23608
23947
25164
24394
22726
23366
24831
24257
23507
24566
25011
23664
23678
25733
25751
23375
23247
25413
25377
23643
24077
25494
24793
23971
25319
26087
24593
24019
25620
26026
24266
23983
25942
26528
25316
25383
26269
25453
24574
26016
27089
25657
25037
26660
27043
25585
25462
26565
26044
24881
25886
27087
25809
24953
26762
27896
26451
25680
27075
27440
25885
25738
27161
27098
26098
26578
27370
26598
25704
26152
26486
26011
26281
27312
27188
25998
26044
27317
27044
25508
25799
27091
26559
25799
26793
26945
25025
24538
26285
26697
25389
25278
26045
25374
24299
25057
25966
24708
23585
24939
26020
24506
23131
23974
24433
23331
23369
24510
24022
23044
23975
24836
23312
21825
22879
24102
23324
22745
23324
22796
21505
22224
23892
23067
21046
21659
23389
22750
21574
22524
23405
22302
21714
22964
23207
21771
21694
22882
22506
21580
22425
23155
22078
21848
23417
23548
21711
21221
22541
22830
21850
22189
23477
22927
21594
22558
24091
22951
21409
22588
23725
22455
22066
23799
24033
22568
23010
24705
23921
22089
23078
24685
23475
22376
23792
24598
23618
23826
25215
24681
23048
23684
25165
24398
23419
24700
25687
24486
23888
25212
25416
23875
23878
25496
25405
23924
24247
25903
26023
25310
25806
26118
24983
24564
25599
25484
24068
24489
26392
26368
24931
24966
25768
25334
24783
25725
26479
25463
24950
26504
27329
25817
24867
26012
26431
25306
25538
26856
26214
24793
25562
27086
26601
25414
25716
26071
25405
25850
27259
26799
25232
25560
26790
26100
24774
25444
26366
25511
25042
25847
25228
23408
23712
25517
25289
23621
23499
24324
23964
23240
23829
24530
23467
22394
23396
23957
22161
21399
23148
23536
21778
21734
23131
22470
21152
22110
22893
20933
19413
20917
22052
20771
20506
22016
21713
20116
20836
22522
21394
19196
19987
22061
21684
20514
21177
21773
20756
20614
22064
21685
19339
19217
20963
20773
19873
21090
22219
21175
20719
22148
22021
19823
19734
21837
21962
20623
21339
22640
21587
20660
22298
23238
21388
20400
22084
22862
21488
21452
23069
22851
21348
21930
23402
22626
21183
21975
23086
22132
21434
22665
23247
22241
22174
23162
22611
21463
22445
23418
21923
21236
23074
23615
21923
21952
23980
23886
21960
22394
23985
22906
21462
22961
24621
23826
22880
23244
23177
22486
22832
24055
24335
23274
22804
23815
24107
23102
23233
24140
23474
22769
24060
24860
23458
22977
24657
25082
23588
23603
25025
24512
23042
23955
25388
24301
23285
24717
25494
23897
23177
24549
24733
23303
23600
24915
23971
22542
23515
24613
23382
22186
23088
23745
22702
22399
23348
23028
21759
22071
23100
22314
20935
21484
22442
21721
21224
22432
22925
21442
20679
21807
22013
20559
20380
21730
21774
20677
20868
21741
21248
20459
20958
21345
20553
20120
20712
20894
20434
20827
21674
21201
20510
21665
22780
21423
20025
21254
22304
20770
19704
20936
21713
21153
21425
22215
21343
20101
21024
22207
21299
20775
22250
22878
21683
21557
22845
22484
20735
20966
22387
21846
20673
21398
22300
21625
21420
22609
22468
20603
20350
22071
22428
21129
21284
22948
23079
21913
22066
22657
21632
20803
22030
22910
21509
20466
21623
22397
21490
21346
22190
21663
20875
22027
22611
21026
20792
22466
22356
20993
21492
22629
21911
20896
21850
22983
21866
20566
21892
23649
22581
20931
21798
22503
20954
20759
22767
22848
21024
21192
22821
22559
21093
21123
21921
21726
21541
22386
22616
21368
21154
22921
23089
21019
21195
23478
23137
21308
22042
23176
21821
21084
22758
23319
21713
21272
22373
22077
20784
21335
22544
21667
20531
21489
22154
20617
19603
20672
20918
19549
19656
20934
20341
19145
19791
20469
19384
18509
19240
19683
18844
18683
19670
19499
17996
18053
19730
19492
17453
17539
19235
18875
17522
18228
19204
17726
16477
18116
18944
16868
16483
18575
18240
16436
17543
19139
18150
17946
19866
19783
17261
16618
18332
18760
17584
17893
19403
19255
18173
18398
18722
17800
17636
19189
19686
18237
18051
19789
20048
18544
18605
19923
19134
17421
18391
20108
19256
18518
20348
21358
19596
18640
20004
20147
18451
18755
20724
20381
18702
19396
21051
20412
19314
20339
20761
18942
18760
20981
21066
19052
19439
21483
21142
19671
20270
21230
20321
19784
21058
21318
19610
19314
21051
21283
19716
19562
20581
20212
19646
20965
21780
20404
20013
21577
21762
20383
20320
21350
21232
20437
20856
21765
21248
20407
21382
22545
21332
20173
21969
23373
21684
20847
22490
22599
20885
21292
23136
22408
20224
20694
22644
22490
21384
21801
22409
21925
22101
23161
22518
20806
21483
23480
23167
21949
22708
23326
21729
20815
22073
22497
21241
21005
21904
21519
20380
20980
22218
21455
20281
21193
21928
20164
18773
20117
21081
19767
19382
20791
20623
19067
19523
20936
19678
17583
18677
20677
19793
18547
19553
20096
18849
18751
20152
19753
17881
18184
19805
19342
18225
19181
20150
19000
18363
19915
20401
18732
18631
20400
20155
18483
19099
20824
20520
19731
20561
21125
20308
20269
21356
21080
19527
19713
21412
21405
20067
20279
21086
20079
19158
20646
21801
20420
19616
21019
21618
20602
20525
21407
20985
20068
21010
22304
21533
20687
21864
22901
22042
21332
21996
22012
21079
21561
22662
21722
20412
21677
23563
22926
21428
21838
22597
22009
21998
23152
22921
21317
21352
22788
22443
21061
21793
23134
22246
21520
23293
24216
22105
20943
22855
23892
22393
21918
23085
22758
21808
23146
24296
22725
21980
23755
24123
22328
22055
23622
23838
22728
23180
24622
24021
22492
23347
25024
23852
21912
23050
24731
23838
23316
24540
24035
22078
22892
25314
24399
21743
22604
24791
23762
22561
24098
24382
22157
21834
23544
23152
21160
21018
22199
22101
21170
21543
22533
21717
20420
21418
22399
20475
18971
20744
22097
20586
19752
21032
21154
19849
20140
21154
19944
18349
19338
20470
19518
19328
20698
20592
19329
19340
19752
19060
18614
19564
20284
19621
19358
20467
20860
19629
19358
21040
21575
19923
19346
20502
20389
19076
19531
21178
20902
19651
20391
21286
19890
19050
20498
20892
19391
19437
21170
21294
20171
20508
21319
20601
20062
21031
21092
19445
19288
21190
21701
20473
20506
21347
20467
19464
20766
21676
19991
19278
21352
22270
20560
19789
20915
20765
19267
19717
21404
20879
19324
19845
21068
20513
19953
21269
21994
20722
20468
21951
21988
20558
20869
22283
21481
19920
21096
22492
20931
19886
21540
21848
20000
20308
22518
22279
20230
20211
21608
21525
20721
21274
21983
21173
20743
22075
22539
20855
20013
21389
22223
21248
20909
21892
21845
20853
21285
22360
21541
19868
20074
21283
21187
20729
21360
21544
20476
20274
21063
20112
18374
19200
20525
19120
18051
19739
20565
18922
18463
19825
19074
16622
17052
19157
18467
16925
18115
19268
17660
16690
18375
18721
16548
16420
18595
18380
16545
17256
18682
17480
16190
17177
17757
16509
15994
17003
17190
16236
16508
17784
17507
16261
16395
16993
16263
15648
16832
17881
16859
16009
17347
18128
16475
15870
17811
17980
15721
15864
17957
17458
15985
17179
18594
17465
16741
18319
18535
16303
16058
18104
17879
15972
16701
18739
18024
16227
16950
18190
17437
17402
19212
19105
16782
16535
18458
18670
17294
17334
18476
18589
18102
18461
18828
17980
17774
19747
20963
19309
18032
19006
19317
18472
19169
20158
18943
17918
19126
19994
19200
18880
19565
19381
18654
19462
20739
20133
19212
20162
20988
19646
18544
19815
20883
19807
19311
20747
21184
19717
19488
21040
20915
19100
19361
20994
20494
19323
20329
21500
20700
20231
21355
21195
19367
19442
21282
21212
19923
20661
21929
20863
19819
21318
22259
20356
19137
20689
21592
20277
19854
20866
20470
19248
19786
20468
18900
17568
18958
20054
18535
17693
19246
19785
18256
17816
18754
18155
16888
17916
19059
17376
16040
17574
18582
17215
16567
17646
17587
16274
16659
18014
17289
15837
16755
18427
17838
16641
17359
17927
16616
16115
17384
17304
15638
15890
17866
17751
15946
16103
17494
17156
16418
17198
17304
15861
16171
18493
18827
17077
17097
18515
17842
16248
17122
18563
17542
16582
18184
19627
18800
17719
17683
17318
16769
17741
19031
18400
17463
18317
19019
17742
16922
18250
18858
17635
17840
19474
19224
18188
19287
20489
19114
17641
18649
19676
18876
18782
20126
20046
18684
19071
20471
19934
18615
19138
20255
19930
19404
20092
20422
19111
18583
20444
21446
19727
18924
20517
20918
19709
20253
21501
20488
19505
20878
21520
19597
18481
20046
21095
19809
19206
20721
21275
19923
19841
21462
21406
19909
20261
21252
20421
20222
21902
22318
21171
21386
22351
21480
20104
20910
22340
21802
20799
21558
22554
21928
21391
22201
21877
19900
19795
21755
21983
20598
20995
22336
21391
19907
21067
22215
20407
19089
20570
20986
19235
19567
21750
21421
19684
20332
21497
20025
18451
19761
20986
19315
18141
19999
21183
19456
18436
19668
19565
17936
18399
19404
17871
17140
19363
20468
19038
18204
18596
18559
18146
18221
18574
18390
17653
17863
19311
19483
18084
18075
19052
18713
18614
19643
19042
17181
17618
19522
19353
18024
18341
19218
18678
18142
19160
19928
18840
18121
19374
19897
18441
18276
19980
19926
18497
19375
21000
19921
18477
19485
20485
19547
18861
19609
19808
19077
19540
20733
20194
19023
19814
21147
20345
18911
19497
20633
20168
19766
20720
20987
19864
19831
21105
20610
18802
19427
21282
20821
19947
21081
21573
20270
20468
22351
21904
19382
19205
21220
21614
20812
21420
21969
20584
19921
21494
21813
19670
19076
21100
21758
20236
20130
21500
21265
20399
21450
22329
20752
19656
21329
22332
20724
20179
21853
22257
21218
21650
22755
21939
20855
22012
22956
21411
20580
22267
23142
21962
21537
22291
21822
20513
20829
21905
21161
19675
20297
21926
21338
19682
20086
20785
19548
19180
20709
20524
18733
19258
21157
20450
18560
19098
20200
19040
18206
19652
20105
18455
18277
19658
19246
17893
18361
19225
18423
17674
18555
18918
17449
16995
18872
19753
18229
17523
18826
19129
17967
18321
19663
18968
17652
18672
20080
19007
17765
18933
19686
18180
17957
19898
20049
18313
18616
20433
19904
17947
18313
19803
19415
18842
19979
20299
18592
18078
19719
19996
18382
18472
20185
20147
19053
19618
20374
19316
18840
20444
21046
19407
18762
20013
20321
19676
20505
21412
20137
19161
20510
21374
20167
19480
20495
20887
19978
20105
21327
21002
19620
20150
21600
20660
19038
20216
21579
20164
19468
21288
21746
20253
20469
21966
21273
19312
19577
21219
21099
19990
20622
21852
20921
19670
21070
22412
20938
19957
21372
21651
20139
20490
22397
22130
20471
20723
21684
20857
20131
21342
21952
20555
20126
21619
22078
21138
21282
21856
20660
19496
20794
21992
20649
19677
21004
21664
20385
19828
20671
20599
19757
20245
20793
19465
18625
19975
20643
19126
18285
19314
19528
18366
18547
19758
19108
17549
18159
19607
18672
17168
18279
19250
17329
16335
18409
19233
17388
16954
18494
18437
17044
17301
18315
17711
16902
17730
18188
16707
16176
18210
19152
17214
16192
17566
17959
16973
17582
18689
17633
16711
18171
18982
17349
16711
18453
18894
17451
17807
19144
18045
16757
18131
19205
17689
16542
17682
18586
17900
17882
19076
19091
17866
18045
19319
18753
17285
18166
19683
18906
18248
19549
19655
17868
17981
19942
19495
17170
17416
19502
19363
18043
18841
20068
19034
18105
19382
19957
18351
17855
19439
19719
18261
18487
20121
19778
18383
18935
19786
18400
17254
18886
20275
18965
18225
20048
21067
19802
19330
20391
20138
18971
19741
20798
19660
19282
21484
22426
20555
19664
20971
21110
19615
19857
21649
21600
20278
20926
22405
21343
19748
21203
22487
20498
19675
21820
21807
19551
20139
22473
22340
21060
21011
20900
20025
19805
20430
20506
19669
19484
20459
20657
19578
19249
19782
19332
18535
19199
19799
18446
17477
18955
20167
18897
17619
18223
18503
17690
18171
19313
18261
16564
17302
18825
18220
16988
17452
17945
17145
17238
18330
17799
16482
17135
18430
17715
16555
17288
18015
17104
17042
18748
19064
17360
17051
18555
18440
16847
17271
18974
18561
17232
17923
18998
18186
17657
18991
19604
18337
17756
18775
19225
18579
18813
19772
19298
18151
18632
19431
18248
16915
17924
19358
19080
18896
19794
19590
18356
18837
20308
19494
17813
18842
20368
19285
18644
20365
20805
19045
18784
20256
19984
18363
18821
20471
20222
19360
20274
20970
19511
18838
20864
21733
19562
18590
20263
20646
19325
19847
21542
21045
19820
20789
21714
20302
19574
21156
21485
19715
19922
22186
22199
20514
21098
22468
21103
19748
21761
23300
21538
20919
23118
23565
21693
21558
22977
22590
21372
22279
23450
22184
21088
22347
23048
21625
21121
22545
22733
21396
21920
23596
22941
21385
22119
23489
23008
22288
22878
22989
21926
21784
22844
22808
21523
21595
23176
23191
21551
21378
22392
21890
20834
21518
22341
21223
20472
21928
22442
20589
20351
22411
22245
20151
20641
22143
20742
19244
20744
21733
19929
19050
20708
21089
19529
19993
21839
20899
18972
20192
22115
20680
18576
19622
21007
19846
19345
20949
21039
19413
19950
21978
21314
19063
19504
21197
20610
19839
21245
21873
20266
19888
21550
21602
19702
19435
21077
21448
20294
20481
21884
21319
19705
20711
22321
20793
19351
21216
22437
20933
20731
22256
21913
20709
21435
22084
20614
19708
21164
21893
20436
20232
22147
22586
21211
21129
21937
20916
19561
20834
22438
21352
20281
21632
22685
21852
21599
22594
22384
21071
21347
22524
21949
20835
21757
23067
22110
20958
22295
23413
21945
21078
22477
22941
21805
21959
22964
22133
20927
21923
23018
22018
21545
23181
23718
21994
21582
23176
23294
21867
21990
23110
22659
21878
23026
24014
22717
21738
22790
23199
21941
21536
22546
22738
22142
22813
23772
22789
21615
22627
23821
22874
21977
23091
23454
21654
21183
22820
22912
21299
21324
22562
21986
20489
20885
21776
20833
19980
21011
21593
20329
19806
21077
21196
19442
18798
19568
19415
19119
20383
21082
19537
18642
19997
20541
18862
17865
19044
20104
19483
18829
19187
19200
18857
19719
20682
19649
18342
19083
19857
19024
19061
20568
20655
19497
19908
21067
20184
18723
19562
20671
19600
19027
20534
21056
19801
19929
21520
21199
19438
19732
20947
20108
19383
21215
22553
21132
20167
21564
22137
20735
20555
21916
21682
20413
21340
23257
22616
20889
21380
22227
20897
20116
21874
22751
21035
20333
21847
22311
21362
21695
22644
21916
21168
22594
23549
21755
20551
22250
23636
22770
22133
22857
22885
22075
22549
23495
22536
21397
22809
24487
23142
21336
22481
23715
22591
22467
23930
23325
21811
22948
24722
24028
22910
23637
24092
23075
23066
24486
24533
23208
23333
24552
24203
23138
23725
24715
24260
23971
25146
25599
24068
23349
24816
25375
23835
23389
24792
24983
23760
23856
24537
23523
22709
24123
25059
23531
22343
23331
23836
22788
22895
24065
23455
22160
22844
23793
22498
21007
21912
23212
22587
21903
22560
22447
20984
20979
22461
21700
19388
20112
22228
21331
20074
21570
22245
20398
19948
21499
21193
19141
18949
20377
20552
19859
20222
20690
19956
19767
20926
20912
19300
19157
20779
21128
20145
20614
21891
21357
20391
21306
22069
20761
19962
21296
21632
19804
19697
22122
22592
20363
19894
21739
21787
20346
21259
22867
21557
20105
21598
22833
21400
20536
21826
21844
20064
20379
22200
21614
20187
21338
22735
21538
20532
21979
22668
21109
20914
22763
22863
21262
21576
23011
22205
20707
21555
22707
21698
20958
22279
22768
21134
20874
22882
23226
21425
21491
23318
23005
21331
22092
23763
22823
21497
22841
24162
22943
22003
23154
23389
22042
22470
23935
22990
21660
23099
24682
23541
22107
22866
23756
22848
22183
23147
23613
22632
22692
24256
24070
22259
22626
24051
23111
22155
23610
24185
22551
22413
24151
23844
21721
21739
23624
23902
22856
23188
24057
23007
21906
23384
24552
22665
21218
22390
22566
20983
21262
22586
21843
21051
22184
22318
20374
19643
21085
21561
20244
20090
21445
21379
20207
20823
22133
20920
18950
19785
21238
20212
19364
20572
20834
19394
19288
20357
19556
17781
18404
20191
19696
18193
18993
20733
20203
19158
20381
20913
18773
18197
19993
19497
17700
19209
21445
20044
18365
19967
21049
18978
17962
19969
20532
18243
17881
20377
20999
19346
19558
21033
20165
18730
20037
21235
19528
18658
20702
21507
19679
19143
20626
20576
19299
20254
21854
20628
19157
20528
21879
20712
19637
20526
21122
20288
20315
21685
21719
20082
19838
21456
21773
20538
20697
21623
20917
20325
21725
22416
20687
19884
21723
22356
20441
20061
21620
21408
20530
21839
22583
20645
19906
21821
22204
20298
20135
21733
21471
20304
21428
22557
20986
20126
22014
22741
20889
20160
21661
22191
21044
21109
22503
22461
21456
21926
22646
21287
20054
21530
22801
21588
21269
23021
23219
21647
21605
22512
21586
20211
21129
22560
21986
21312
22471
23131
21642
20847
22296
22603
20512
19839
21532
21885
20420
20408
21705
21348
20156
20669
21306
20014
19134
20254
20585
19059
18744
20078
20035
18901
19407
20376
19328
18252
19367
19918
18387
18218
19970
19942
18428
18744
19800
18585
16994
18117
19555
18517
17766
19124
19457
17831
17635
19285
19384
18083
18688
20094
19043
17488
18722
20408
19294
17822
18928
19979
18819
18363
19645
19384
17582
18062
20395
20464
18885
19378
20649
19588
18413
19474
19897
18516
18749
20562
20501
19228
19315
19760
19015
18299
19037
20033
19404
18398
19382
20608
19419
18257
19543
20116
18828
19304
20721
19592
18518
20176
21140
19542
18622
19844
20796
20245
19836
20402
20515
19663
19678
20716
20126
18376
19032
20954
20543
19441
20238
20808
19809
19840
21361
21355
19759
19489
20278
19826
19223
20483
21832
21230
20772
21935
21904
19712
19022
20793
21358
20115
20271
21339
20506
19455
20741
22016
20914
19858
21063
22126
21059
20368
21671
22360
21341
21264
22572
22281
20522
20502
21569
21082
20568
21795
22406
21020
20236
21098
20995
19665
19989
21280
20617
19428
20233
21062
19920
19302
20660
20678
18542
18411
20336
19921
18107
18773
20002
18890
17944
18971
19602
18744
17899
17928
18327
18259
18132
18824
19286
18651
18519
19195
18723
17703
18423
19553
19006
18721
20144
20702
19314
18738
19836
19940
18881
19426
20769
19854
18207
19003
20553
19862
18794
19833
20571
19505
19791
21471
20809
18859
19493
21358
21058
19843
20223
20780
20126
20210
21552
21646
20409
20587
21865
21285
19704
20260
21771
21447
20813
21869
22362
20809
20372
22307
22853
20953
20546
22211
22127
20508
21089
22785
22261
21302
22389
23191
21985
21242
22248
22620
21735
22106
23411
22650
20813
21238
22877
22439
21027
21712
23145
22679
21986
22939
23475
22311
21939
23189
22999
21177
21330
22838
22412
21634
22849
23497
22033
21651
23317
23331
21350
21381
23102
22802
21791
23079
24147
22528
21667
23443
23901
21750
21161
23030
23353
21741
22085
24047
23814
22291
22761
23617
22187
20855
22127
23091
21583
20885
22482
22943
21452
21075
21957
21310
19686
20093
21654
21272
19997
20576
21755
21121
20142
20658
20710
19473
19767
21293
20644
18921
19672
21341
20423
18760
19679
20929
19816
19029
20203
20271
18732
18944
20639
20341
18771
19063
20020
19189
18443
19577
19981
18307
17913
19888
20546
18981
18552
19703
19617
18643
19440
20781
19890
18673
19868
21035
19673
18731
20456
21424
19903
19374
20437
19929
18729
19694
21028
19927
18399
19242
20635
20307
20018
20883
20885
19891
20340
21853
21530
19765
19595
20704
20722
20315
21050
21576
20649
20268
21547
21777
20168
20052
21850
22124
20853
20938
21830
21335
20782
21626
21718
20191
19935
21610
22024
20638
20729
22388
22156
20498
20933
22253
21083
19661
21262
22744
21452
20924
22387
22223
20681
21250
22804
21996
20422
21227
22414
21462
20922
22263
22544
21375
21952
23593
22432
19858
20564
22901
22184
20314
21406
23212
22125
20561
21519
22363
21107
20801
22392
22390
20606
20903
23003
22716
20836
21451
22825
21230
19564
21142
22377
20737
20249
22325
22535
20253
19875
21381
20898
19484
20487
21484
19644
18433
19974
20653
19340
19236
20523
20107
18353
18517
19929
19350
17788
18253
19656
19385
18457
18754
18928
17884
17649
18725
18714
17636
18185
19846
19343
17450
17780
19161
18417
17352
18319
19004
17925
17650
18938
18997
17612
17541
18544
18356
17986
19151
19938
18832
18334
19654
20082
18797
18467
19591
19779
18907
19068
19720
19069
18527
19674
20404
19125
17966
18630
19358
18723
18637
20162
20380
18256
17920
20259
20148
17674
18423
20742
19661
18354
20242
21341
19806
19647
21209
20285
17638
18100
20531
20360
19133
20447
21921
20600
19421
20761
21184
19197
18826
20734
20870
19603
20515
22033
20926
19599
20770
21672
20378
19910
21286
21133
19257
19591
21810
21894
20519
21050
22073
20782
19372
20648
22062
21064
20286
21391
21617
20335
20484
22055
21875
20384
20806
22174
21599
20660
21465
22147
21426
21221
22059
21793
20287
19907
20595
20316
19712
20807
22327
21695
20386
21056
21709
20433
20195
21955
21915
19874
20019
22119
21903
19858
19860
21076
20455
19494
20219
20285
18587
18381
20146
20180
18330
18129
19487
19468
18590
19151
19788
18693
18018
19091
19505
18528
18345
19202
19197
18625
19195
19810
18689
17748
18954
19846
18159
16763
18154
19226
17977
17777
19437
19415
17937
18411
19901
19217
17767
18497
19529
18565
18062
19479
19856
18427
18286
19527
19089
17543
17955
19594
19695
18905
19479
20460
19650
18736
20003
20709
18695
17841
19893
20401
18597
18972
20919
20347
18910
19793
20639
19168
18140
19439
20220
19131
19184
20945
21060
19623
20045
21476
20400
18739
20248
21941
20271
19050
20916
21737
19920
19533
21169
20768
18704
19379
21703
21178
19227
19890
21558
20994
20137
21284
21666
19801
19340
21290
21688
20025
20208
22138
21908
20075
20261
21586
21145
20287
21196
21813
20251
19457
21331
22285
20549
19938
21500
21499
20249
21330
22764
21303
20146
21922
22966
21263
20221
21457
22014
20842
20511
21232
21049
20974
22289
22891
21559
20651
21445
21847
20948
20790
21652
21337
20077
20540
22267
21953
20028
19909
20793
20066
19519
20785
21070
19303
18799
20346
20425
18559
18240
19707
20089
19605
20026
20112
18820
18538
19934
19923
18116
17872
19424
19593
18438
19005
20527
19611
17698
18631
20445
19190
17443
18861
20196
18853
18582
20274
19984
18290
18830
20352
19690
18174
18680
20109
19910
19016
19389
19962
19353
19164
20225
20056
18516
18920
20521
19889
18652
19717
20771
19571
18831
20235
20786
19370
19098
20468
20340
18810
19183
21100
21164
19991
20510
21322
20106
19299
20721
21172
19343
19059
21194
21715
20207
20385
21773
20951
19489
20660
21930
20702
20274
22073
22343
20601
20435
21930
21996
20852
21177
22240
21536
20349
21038
21999
21144
20595
22034
22429
20650
20547
22392
22260
20812
21416
22561
21462
20227
21396
22618
21754
21094
22082
22439
21403
21343
22473
22202
20933
21305
22240
21506
21133
22833
23509
21545
20595
22114
22601
21258
21363
23019
23058
21729
21963
22964
22182
21237
22362
23072
21252
19970
21386
22256
20868
20343
21288
20971
20060
20620
20984
19563
18771
20221
21136
19906
19384
20672
20985
19741
19496
20267
19666
18410
19008
20068
19255
18453
19445
19947
18736
18419
19616
19129
17014
17140
18995
18702
17386
18451
19979
18890
17561
18508
19159
17917
17646
19006
18816
17232
17811
19705
19264
17807
18513
19452
18074
17136
18908
19930
18317
17893
19780
20332
19284
19470
20253
19381
18235
19084
20244
19345
18174
18995
20070
19425
18885
19750
19552
18018
18577
20439
19837
18328
19058
20059
19293
18868
19815
20047
19329
19567
20389
19793
18417
18826
20583
20535
19131
19652
20988
20121
19049
20026
20183
18254
18055
20262
20806
19461
19821
21214
20465
19286
20574
21489
19548
18551
20521
21411
19732
19065
20360
20650
19891
20710
21900
20870
19711
20574
20988
19505
18999
20690
21533
20328
19888
20939
21044
20173
20520
21458
20746
19503
20113
21106
20476
20034
21053
21309
20138
20147
21570
21358
19584
19555
21133
21310
20333
20553
21292
20672
20141
21194
21365
19391
18627
20214
20639
19357
19649
20877
20001
18727
19789
20822
19310
17715
18423
19252
18504
18384
19573
19533
18324
18492
19221
17907
16342
17482
18784
17452
16672
18450
19153
17420
16846
18291
18336
16697
16790
18309
18040
16745
17167
18321
18091
17488
17800
17780
17128
17567
18635
18113
16782
17150
18474
18310
17444
17704
17789
16765
16998
18752
18620
16644
16811
18867
19006
17718
17993
18939
18343
17421
18046
18725
17839
17479
19233
20286
18793
17788
19070
19586
18249
18203
19506
19141
18088
18955
20049
18994
17761
18532
19207
18142
17833
19345
20023
19204
19181
19957
19429
18359
19078
20306
19659
18590
19212
19960
19004
18205
19209
19773
18865
19044
20163
19555
18732
19967
20451
18515
17992
20237
21326
19817
18576
18938
19434
19350
19555
19898
19418
18988
19733
20189
19145
18432
19323
19875
19235
19605
21087
20938
19400
19315
20256
19581
18418
19451
20744
19689
18793
20187
21246
20408
20130
21005
20330
18717
19531
21033
19770
18427
19955
21091
19754
19639
21871
21866
18879
17967
19794
19940
18605
19409
20880
19692
18177
19272
20149
18509
17560
18935
19177
17379
17349
19305
19179
17256
17405
18750
17870
16441
17564
18797
17596
16834
18001
18117
16871
17065
18139
17480
16431
17554
18647
17092
15801
17330
18505
16970
15973
17471
18071
16651
16876
18615
18073
16434
17222
18624
17706
16694
17908
18652
17172
16572
18221
18852
17403
17131
18684
18677
16908
16702
17786
17434
16795
17976
18805
17417
16738
18489
19412
17974
17319
18475
18730
18026
18582
19095
17919
17524
18911
19160
17799
17442
18276
18312
17883
18638
19498
18788
18153
19114
19624
18236
17269
18270
19047
18587
19040
20220
19583
18163
19080
20928
19986
17837
18492
20109
19361
18694
20151
20547
18976
19051
20839
20524
18584
18810
20575
20494
19270
19704
20797
20178
19520
20817
21521
19839
18892
20309
20868
19266
18797
20286
20446
19241
19921
21253
19858
18318
20025
21284
19459
18979
21125
21324
19633
20161
21652
20288
18392
19764
21242
19605
18805
20823
21331
19635
19838
21425
20430
18035
18304
20056
19606
18161
18922
20252
19038
17591
18872
19474
17105
16407
18715
18791
16496
16950
19253
18754
17028
17846
18939
17452
16415
17809
18149
16551
16520
17622
17109
16640
17669
17663
16174
16044
17511
17722
16247
16070
17866
18442
16866
16172
17355
17763
16832
17094
18459
18137
16665
17160
18795
18136
16497
17225
18267
17295
17239
18681
18150
16660
17685
19214
18083
16714
17821
18649
17197
16726
18570
19044
17305
17127
18863
18643
16449
16035
17368
17577
17212
18057
18564
17507
17151
18246
18286
17022
16908
17929
17922
17032
17273
18295
18199
17762
18609
18996
17250
16030
17378
18379
17326
17171
18630
18660
17534
18217
19443
18031
16191
17526
19232
17949
16975
18720
19578
18101
17973
19683
19282
17183
17770
19821
19054
17426
18628
20168
19074
18106
19496
20217
18897
18721
20019
19577
18160
18950
20467
19792
18828
19673
19879
18318
18204
20185
20591
18970
19098
20895
20561
19051
20254
22053
20330
18281
19980
21293
19007
18139
20762
21621
19477
18704
19717
19186
17802
18540
19771
18621
17461
18891
20114
18756
17598
18445
18484
16990
17272
18922
18132
16079
16861
18965
18203
16251
16959
18054
16569
15755
17578
18133
16368
16100
17502
17274
16024
16317
16914
16071
15775
17418
18274
16689
15903
17727
18475
16442
15569
16931
16788
15583
16846
18349
16976
16162
18254
19483
18057
16865
17098
17026
16553
17235
18259
17726
17018
18191
19287
17914
16502
17878
19458
18400
17197
18121
18898
18142
18228
19507
18902
17106
18047
20019
19140
18091
19729
20473
18606
18050
19642
19619
17831
17810
19612
20020
18682
18404
19587
19577
18587
19212
20036
18682
17928
19583
20011
18487
18828
20302
19639
18826
20105
20663
19064
18410
19997
20767
19392
18801
20117
20571
19520
19509
20493
19870
18510
19264
20624
20011
19521
20858
21467
20324
20040
21078
20856
19538
19819
20909
20243
19282
20485
21832
20689
19272
20160
20871
19546
19121
20421
20167
18622
19362
21424
21003
19274
19584
20397
19353
18914
20624
21032
18991
18457
20176
20424
19072
19188
20119
19324
18160
19036
19996
18613
17326
18471
19354
17886
16791
17805
18316
17476
17776
18664
17743
16855
18098
18989
17681
16574
17208
17512
16573
16533
17711
17706
16472
16679
18103
17667
16061
16671
18041
17227
16527
17592
17279
15374
15675
17743
17872
16462
16252
16990
16975
16433
16708
17398
16792
15989
17274
18360
16543
15146
16695
17557
16379
16869
18705
17966
16111
16971
18319
16703
15199
16991
18353
16903
16697
18620
18530
16887
17398
18737
17776
16520
17783
18954
17514
16584
18166
19027
17799
17529
18784
18465
16700
16881
18519
18439
17344
17647
18152
17140
16633
18016
18376
16881
17101
18828
18079
16266
17560
19819
19067
17543
18168
18469
16914
16829
18966
19188
16982
16816
18954
19187
17479
17117
17779
17421
17192
18504
19172
17731
16968
18305
18842
17493
16972
17982
18048
17039
17432
18667
17938
16436
17523
19760
19212
17293
17657
18455
17415
17461
19153
18812
17157
17837
19427
18775
17632
18554
19493
18594
18141
19094
18844
17279
17412
18933
18690
17309
17657
18615
17744
16756
17731
18513
17295
16528
17552
17689
16257
16214
17673
17607
16424
16878
17720
16595
15624
16751
17279
15692
15001
16350
16566
15226
15528
16764
15968
14922
15903
16391
14753
13925
15323
16073
15110
15249
16899
16965
15327
15339
16919
16501
14682
15176
16606
15820
15254
17061
17821
16134
15619
16950
16702
14929
14860
16136
16038
15292
16198
17423
16571
15445
16363
17071
15655
14942
16484
17190
15900
15822
17522
17705
16539
17233
18383
16703
15003
16734
18118
16369
15991
18512
18962
16760
16613
18343
17630
15505
16184
17929
16955
15798
17508
18864
17241
16010
17302
17843
16566
16886
18403
17522
15891
17165
19019
17901
16315
17393
18440
17331
17182
18699
18223
16368
17087
19025
18500
17022
17348
18137
17819
17684
18465
18513
17181
16734
18054
18450
17081
16863
18348
18627
17593
18032
19254
18246
16395
17102
18713
17990
16951
18151
18877
17749
17965
19204
18118
16676
18199
19781
17982
15871
16932
18408
17719
17434
18195
17295
15888
16680
17514
16019
14634
15488
16535
16090
15694
16583
17068
15766
15066
16691
17264
15182
14663
16632
16820
15454
16032
16912
15476
14662
16413
16911
14580
13643
15438
15901
14279
14279
15688
15326
14583
16097
17198
15283
13721
15171
16119
14673
14458
16098
16043
14916
15799
16972
15462
13569
14492
16070
15656
15353
16398
16256
14826
15148
16834
16545
14709
14720
16332
16581
15642
15852
16736
16348
15836
16831
17115
15566
15430
17122
16900
15257
16073
18072
17351
15687
16538
17485
15793
14923
17141
18221
16224
15572
17602
18171
16810
17159
18521
17543
16107
17422
18575
16899
16075
17916
18688
17462
17282
18449
18629
17707
17385
17506
16841
16437
17762
18995
17920
16707
17796
18605
17322
17087
18548
18304
16760
17175
18531
18037
17200
18271
18991
17723
17458
19063
18996
17101
17242
19221
19229
17652
17718
18675
18159
17555
18437
18737
17507
17543
19300
19437
17823
17888
19345
19042
17983
18970
19964
18558
17694
19267
19893
18069
16985
18041
18677
17865
17682
18375
17940
17022
17791
18828
17498
15724
16654
18234
17355
16063
16786
17527
16834
16966
18299
17572
15056
15095
17255
17319
15977
16379
17186
16254
15683
16937
17092
15241
14914
16468
16423
15322
16215
17473
16324
15135
16228
16872
15534
15438
17421
17691
15747
15647
17532
17560
16215
16882
18281
17316
15883
16961
18297
17378
16874
18530
19099
17334
16691
17959
17721
16191
16983
18790
17956
16575
17819
19184
18121
17370
18767
19137
17525
17598
19147
18510
17133
18335
19891
18927
17642
18098
18260
17274
17384
18553
18207
16988
17992
20176
19635
17613
18351
20092
18987
17779
19385
19956
17621
17023
19215
19712
18037
17698
18651
18508
17920
18712
19554
18713
18026
19013
19413
18200
18081
19534
19311
17725
18492
20270
19124
17171
18085
19606
18664
17391
18210
19083
18393
18336
19527
19392
17979
18262
19801
19235
17427
17988
19472
18687
17758
18987
19673
18458
18319
19788
19727
18333
18762
20148
19471
18210
19152
20324
19216
18195
19263
19751
18227
17617
19052
19649
18441
18078
19050
18883
17892
18529
19459
18129
16790
17954
18754
17529
17485
18688
17833
16480
17856
19296
17367
15104
16190
17761
16606
15585
16890
17659
16768
16998
18283
17432
15351
15717
17061
16007
14810
16250
17360
15844
14989
16584
17124
15344
14809
16313
16502
15213
15701
17599
17549
16262
16709
17468
16198
15343
16782
17487
16209
16244
17921
17809
16475
17229
18407
16759
15192
17069
18613
16973
16344
18276
18480
16636
16694
18302
18008
16484
16682
17597
16973
16530
17811
18407
17165
16816
18151
18204
16617
16726
18532
18501
16837
17189
19169
18946
17149
17508
18765
17929
17244
18733
19261
17536
17165
18970
19197
17566
17743
19313
18988
17948
18654
19037
17621
17419
19171
19478
17984
17729
18704
18493
17637
18289
19258
18433
17559
18600
19344
18011
17046
18118
18884
18405
18952
20114
19308
17849
18306
19056
17973
17187
18758
20166
19295
18568
19485
19739
18704
18880
20112
19343
17317
17734
19537
19169
17966
18713
19538
18372
17855
19613
20020
17751
17004
18571
18415
16841
17566
19218
18338
17124
18488
19211
16891
15729
17626
18002
16007
16249
18192
17542
15861
16577
17418
15970
15198
17051
18010
16394
15945
17671
17688
15608
15081
16110
15661
14510
15440
16830
15997
15124
16432
17360
16160
15598
16839
16705
14640
14369
16055
16111
14953
15792
17459
16751
15297
16125
17065
15966
15857
17618
17391
15387
15762
17698
17438
16078
16316
16659
15523
15176
16783
17526
16265
15890
17166
17368
16289
16276
17108
16898
16187
16855
18121
17653
16461
17287
18478
17168
16181
18085
18824
16925
17005
18672
17668
16374
18190
19516
17665
16608
18446
19135
17368
17266
18903
18193
16370
17497
19502
18461
16842
18161
19460
18034
17466
19466
19922
17985
17958
19886
19335
16930
17103
18969
18755
17770
18754
19582
18318
18058
20024
20092
17450
16962
19321
19725
17957
18374
20110
19252
17628
18547
19605
18335
17675
19588
20650
19264
19020
20759
20806
19085
19104
20283
19364
17833
18831
19888
18374
17636
19242
19525
18042
18136
19343
18776
17324
17556
18579
18222
17357
17941
18892
18130
17205
18171
18532
16684
16177
18003
18173
16540
17134
19247
18746
16896
17528
18683
17114
15745
17307
18213
16398
15868
17889
18384
16783
16759
18042
17442
16211
17274
18417
17108
16358
18048
18682
16964
16420
17969
18284
17001
17320
18801
18307
17006
17704
18861
18059
16953
17624
18431
17851
17668
18574
18393
17081
17565
19734
19842
17765
17376
18655
18576
17837
18248
18407
17699
18115
19391
18963
17575
18002
19179
18602
17840
18989
19822
18381
17516
19089
