28887
28388
26190
28798
28772
28306
26469
29012
28730
27930
26879
29190
28779
26741
27729
29076
28752
26481
28896
28997
28648
26624
29215
28976
28550
27017
29514
28985
27426
27495
29352
28948
26665
28853
29235
28780
26563
29189
29098
28678
26854
29413
29020
27983
27370
29493
29074
27011
28568
29455
29093
26748
29313
29442
29051
26988
29630
29455
28737
27461
29881
29408
27580
28339
29809
29423
27052
29530
29798
29323
27228
29933
29709
29272
27610
30064
29737
28360
28107
30246
29799
27560
29584
30174
29739
27498
30175
30159
29706
27895
30410
30148
29184
28348
30525
30082
28109
29405
30447
30037
27644
30226
30382
29905
27919
30473
30288
29746
28246
30589
30296
28434
28953
30521
30169
27737
30142
30509
30076
27867
30489
30349
29901
28090
30614
30194
28869
28404
30512
29887
27512
29265
29842
29237
26774
29225
29191
28660
26688
29159
28781
27795
26859
29120
28617
26591
27625
28793
28405
26079
28561
28706
28245
26188
28831
28591
28080
26541
29080
28557
26884
27078
28909
28552
26285
28579
29001
28666
26400
29138
29067
28654
26926
29459
29071
27909
27442
29566
29087
27118
28742
29621
29165
26914
29549
29626
29129
27187
29830
29530
28862
27762
29990
29550
27650
28434
29889
29481
27236
29655
29795
29450
27445
29979
29855
29431
27928
30246
29912
28500
28431
30363
29996
27757
29838
30388
29931
27759
30374
30366
29902
28086
30559
30299
29284
28492
30773
30375
28238
29702
30704
30327
28122
30541
30681
30292
28315
30894
30639
29952
28726
31015
30583
28887
29352
30942
30461
28174
30470
30727
30317
28206
30772
30569
30157
28419
30806
30552
29189
28836
30818
30352
28183
30025
30671
30292
27985
30616
30547
30083
28264
30787
30569
29722
28672
30890
30503
28498
29608
30788
30409
28134
30560
30682
30165
28086
30529
30218
29495
27906
30181
29480
27711
27836
29398
28870
26570
28697
29024
28621
26413
28991
28829
28345
26683
29037
28681
27455
27040
29100
28593
26512
28142
28959
28521
26263
28820
28807
28345
26421
29062
28810
28127
27049
29189
28884
26995
27925
29303
28930
26663
29117
29324
29015
26927
29515
29510
28932
27529
29840
29519
28027
28114
29935
29491
27306
29384
29864
29495
27320
29895
29778
29408
27516
30040
29822
28761
28103
30240
29863
27845
29194
30174
29819
27636
30031
30161
29744
27904
30463
30299
29628
28453
30715
30387
28656
29238
30771
30360
28129
30406
30692
30277
28289
30771
30681
30146
28666
31007
30622
29357
29063
31027
30630
28461
30350
30924
30493
28328
30943
30891
30498
28653
31168
30898
29963
29177
31280
30872
28940
30118
31188
30816
28634
31052
31161
30727
28851
31275
31174
30642
29330
31569
31158
29529
29919
31475
31151
28960
31191
31482
31084
29067
31449
31417
30937
29408
31701
31364
30243
29695
31660
31179
29112
30645
31308
30746
28299
30725
30582
29948
28026
30308
29936
29131
28058
30070
29576
27862
28635
29871
29385
27260
29530
29721
29276
27363
29855
29586
29224
27763
30068
29696
28252
28236
30037
29671
27514
29594
29943
29572
27473
29981
29981
29577
27909
30311
30010
29014
28429
30452
29977
27989
29438
30326
29935
27697
30215
30147
29851
27913
30332
30030
29377
28214
30399
30028
28261
28979
30235
29857
27672
29935
30103
29636
27740
30207
29987
29545
28020
30373
29994
28642
28475
30304
29904
27738
29725
30241
29846
27628
30184
30062
29645
27855
30346
30063
29181
28296
30457
29979
27999
29240
30284
29918
27658
30072
30164
29768
27767
30376
30113
29537
28211
30534
30064
28490
28806
30407
30025
27775
29992
30361
29962
27891
30390
30261
29804
28165
30564
30213
28987
28580
30581
30158
28021
29738
30442
30064
27863
30424
30428
30004
28176
30672
30417
29589
28606
30781
30355
28459
29523
30661
30183
27835
30185
30221
29692
27598
29974
29683
28932
27460
29626
29150
27483
27590
29226
28835
26562
28633
28996
28582
26385
28989
28913
28371
26707
29102
28808
27672
27054
29129
28742
26650
28214
28945
28597
26297
28844
28886
28442
26570
29066
28853
28120
26979
29266
28775
27017
27780
29051
28727
26412
28793
29080
28634
26520
29064
28872
28358
26802
29245
28775
27307
27107
29121
28681
26400
28403
29004
28545
26265
28895
28807
28371
26490
28994
28751
27803
26865
29231
28681
26620
27997
29038
28612
26349
28879
28954
28561
26469
29233
28959
28350
26926
29351
28944
27175
27745
29369
28884
26554
28962
29228
28780
26702
29300
29228
28719
27071
29482
29192
27872
27549
29647
29159
26996
28810
29572
29080
26843
29404
29470
29049
27220
29728
29505
28626
27655
29897
29405
27600
28604
29831
29480
27086
29590
29759
29431
27382
30044
29840
29188
27809
30311
29819
28324
28546
30341
29865
27686
29944
30386
29919
27706
30343
30358
29865
27969
30525
30118
28783
28084
30184
29451
27157
28728
29463
28925
26473
28988
29021
28486
26574
29074
28863
28071
26991
29320
28753
26959
27755
29123
28801
26490
28798
29056
28727
26593
29285
28979
28573
27046
29355
29009
27539
27550
29404
28982
26802
28834
29333
28954
26792
29471
29407
28985
27175
29697
29447
28459
27815
29852
29480
27404
28906
29856
29416
27123
29626
29808
29291
27394
29987
29796
29036
27845
30171
29667
28009
28634
30183
29698
27439
29739
30041
29670
27468
30110
30044
29494
27935
30384
30061
28711
28553
30479
30099
27892
29833
30364
29996
27843
30480
30404
29999
28123
30655
30347
29481
28591
30755
30322
28267
29495
30607
30241
27874
30377
30509
30087
28113
30575
30368
29786
28423
30728
30375
28740
29076
30689
30166
28023
30285
30587
30144
28019
30567
30494
30000
28340
30698
30418
29210
28713
30819
30364
28304
29968
30582
30267
27947
30546
30609
30135
28207
30797
30512
29645
28576
30760
30220
28294
29092
30286
29694
27315
29484
29542
28993
26836
29276
29030
28388
26861
29236
28785
27218
27273
29057
28563
26347
28458
28933
28509
26253
28889
28752
28323
26484
29000
28698
27572
26845
29025
28617
26545
28043
28932
28548
26256
28830
28958
28397
26528
29129
28872
28240
26924
29284
28899
27155
27817
29265
28819
26359
28881
29034
28626
26579
29123
29013
28460
26844
29333
28889
27515
27317
29177
28817
26601
28642
29148
28710
26523
29081
29146
28614
26819
29427
29078
28164
27364
29563
29158
27096
28345
29415
29061
26638
29270
29369
28941
26911
29536
29401
28743
27341
29826
29407
27619
28110
29712
29312
26970
29434
29737
29288
27131
29773
29760
29224
27576
30063
29800
28504
28149
30231
29807
27671
29520
30174
29742
27511
30154
30120
29684
27807
30418
30107
29318
28369
30611
30181
28268
29388
30602
30241
27868
30388
30567
30205
28165
30834
30593
29997
28534
31031
30596
28963
29092
30865
30465
28135
30253
30569
30095
27872
30377
30157
29562
27766
30068
29541
28309
27627
29534
29145
26977
28464
29256
28879
26570
29077
29152
28733
26773
29287
29092
28412
27217
29544
29050
27178
28093
29373
28927
26643
29054
29255
28787
26773
29404
29223
28714
27144
29560
29162
27696
27706
29584
29163
27009
29102
29525
29147
26897
29559
29431
28960
27237
29648
29424
28259
27621
29705
29263
27152
28650
29654
29162
26779
29289
29462
29073
26998
29590
29397
28845
27447
29822
29360
27639
28210
29810
29337
26943
29448
29636
29223
27120
29749
29620
29157
27451
29865
29574
28189
27950
30006
29577
27293
29418
29938
29579
27415
30039
29862
29546
27736
30208
30005
29099
28108
30447
29934
27899
29250
30348
29949
27552
30087
30309
29857
27888
30537
30366
29763
28422
30861
30400
28723
29107
30842
30383
28093
30472
30771
30281
28208
30804
30838
30299
28596
31191
30698
29619
29170
31258
30829
28624
30504
31106
30727
28473
31055
31118
30580
28702
31188
30803
30030
28763
30909
30266
28222
29083
30199
29639
27142
29505
29598
29158
27069
29602
29355
28834
27271
29660
29267
27742
27736
29541
29116
26896
29046
29495
29059
26885
29435
29319
28904
27208
29658
29325
28244
27589
29749
29282
27276
28778
29691
29253
27042
29590
29668
29319
27366
29972
29728
28980
27790
30147
29655
27824
28570
30056
29595
27239
29660
29896
29411
27401
29981
29732
29276
27661
30096
29756
28293
28075
29989
29482
27245
29322
29832
29363
27093
29707
29684
29248
27441
30029
29802
28809
27939
30117
29698
27683
29060
30097
29639
27262
29851
30006
29570
27562
30207
29947
29409
27985
30342
29826
28155
28617
30169
29739
27426
29758
30081
29714
27455
30172
30005
29499
27843
30370
29924
28547
28153
30319
29845
27508
29417
30161
29721
27445
30117
30041
29571
27716
30228
30002
29079
28028
30413
29956
27830
28995
30246
29860
27348
30065
30124
29708
27443
30078
29761
29190
27434
29778
29227
27384
27592
29335
28744
26351
28562
28896
28370
26102
28741
28678
28084
26279
28888
28515
27312
26612
28848
28315
26061
27857
28647
28226
25803
28480
28523
28036
26055
28724
28437
27741
26431
28827
28400
26455
27306
28774
28309
25928
28467
28679
28340
26199
28903
28743
28142
26498
29094
28611
27032
27094
29013
28517
26254
28366
28879
28493
26157
28851
28785
28246
26464
29069
28662
27637
26780
29123
28642
26433
27947
28952
28507
26134
28810
28938
28481
26395
29094
28954
28203
26874
29423
28970
27029
27690
29303
28851
26506
28978
29199
28702
26521
29268
29165
28630
26943
29551
29089
27735
27321
29432
29110
26715
28809
29422
28967
26568
29250
29242
28890
26925
29516
29190
28267
27372
29666
29162
27034
28329
29436
29132
26677
29311
29495
29007
26931
29569
29422
28733
27391
29780
29324
27612
28068
29789
29336
26868
29382
29597
29273
27022
29660
29586
29053
27220
29722
29357
27952
27360
29491
28916
26571
28234
28957
28400
26040
28538
28535
27997
25920
28515
28231
27299
26227
28557
28014
26061
27119
28376
27910
25475
28032
28258
27694
25681
28382
28188
27638
26048
28556
28073
26343
26570
28459
28020
25654
27885
28341
27926
25736
28363
28324
27796
26031
28631
28264
27043
26441
28654
28243
26024
27704
28552
28120
25807
28433
28495
27980
25928
28672
28410
27621
26381
28765
28374
26400
27228
28671
28285
25856
28339
28678
28127
26032
28701
28612
28073
26396
28928
28498
26960
26998
28895
28512
26212
28408
28862
28549
26179
28884
28909
28373
26551
29241
28910
27818
27121
29314
28832
26664
28154
29206
28794
26422
29020
29180
28713
26670
29328
29183
28579
27099
29650
29221
27389
27875
29512
29103
26670
29122
29544
29062
26845
29591
29574
29020
27292
29865
29571
28219
27794
30024
29557
27273
29261
29954
29530
27227
29933
30021
29583
27637
30306
30002
29174
28104
30568
30021
27951
29137
30390
29988
27465
30081
30093
29617
27416
29878
29613
28887
27242
29488
28955
27186
27387
29074
28601
26227
28494
28780
28373
26166
28777
28750
28185
26496
28967
28625
27465
26909
29052
28673
26357
28112
28899
28460
26136
28818
28817
28288
26364
28930
28719
27962
26786
29080
28661
26638
27729
29067
28579
26237
28800
29028
28558
26365
29072
28955
28272
26794
29179
28813
27245
27247
29126
28675
26291
28597
28918
28516
26284
28907
28910
28361
26499
29058
28793
27678
26949
29100
28733
26589
28131
29138
28625
26308
28866
29018
28462
26537
29239
28987
28331
26932
29332
28963
27045
27750
29264
28800
26363
28898
29174
28682
26561
29195
29070
28610
26891
29471
29085
27574
27436
29536
28996
26733
28719
29337
28879
26598
29313
29261
28717
26815
29454
29156
28244
27369
29644
29204
27055
28400
29507
29151
26649
29346
29488
29012
26945
29669
29453
28754
27340
29858
29411
27708
28018
29750
29292
26902
29255
29669
29154
26877
29546
29279
28639
26780
29227
28736
27326
26816
28900
28356
25943
27882
28424
27997
25506
28245
28152
27729
25626
28299
28035
27068
26037
28351
27860
25835
26929
28100
27726
25276
27922
28011
27498
25386
28139
27904
27301
25817
28360
27808
26148
26421
28172
27788
25339
27733
28188
27702
25383
28216
28097
27641
25841
28378
28078
26754
26192
28407
27938
25651
27457
28267
27894
25431
28133
28140
27663
25695
28400
28114
27235
26010
28565
28052
26006
26953
28364
27933
25390
28107
28184
27872
25718
28428
28199
27671
26003
28690
28244
26661
26669
28709
28258
25804
28129
28694
28188
25824
28636
28630
28136
26209
28866
28587
27443
26688
28972
28570
26390
27925
28926
28433
25969
28749
28777
28363
26297
29008
28771
28141
26657
29184
28761
26926
27572
29167
28738
26278
28847
29063
28578
26517
29183
29084
28634
26781
29492
29078
27671
27368
29473
28987
26625
28800
29378
29049
26566
29323
29391
28939
26931
29666
29315
28411
27375
29811
29277
27109
28401
29594
29153
26604
29283
29301
28784
26480
29120
28724
28002
26391
28742
28270
26378
26710
28415
27939
25455
27843
28106
27639
25493
28204
28048
27548
25715
28271
27895
26525
26147
28332
27797
25454
27392
28165
27752
25349
28077
28053
27649
25555
28317
28116
27174
26131
28539
28054
25977
27094
28455
27982
25512
28219
28355
27971
25803
28486
28273
27803
26137
28760
28183
26606
26736
28561
28210
25747
28032
28560
28098
25832
28543
28505
27975
26206
28855
28454
27402
26645
28947
28477
26280
27921
28931
28466
26071
28791
28787
28415
26288
29118
28831
28050
26850
29278
28819
26940
27805
29232
28868
26386
28956
29241
28834
26552
29305
29192
28576
26972
29548
29127
27631
27487
29568
29088
26821
29011
29451
28978
26692
29442
29437
28964
27004
29780
29463
28375
27519
29837
29411
27239
28718
29811
29358
26873
29613
29726
29345
27234
30064
29826
29215
27776
30308
29927
28003
28676
30360
29951
27500
29947
30277
29816
27632
30385
30211
29734
28032
30618
30252
28783
28443
30634
30135
27743
29758
30356
29814
27270
29919
29755
29206
27012
29493
28992
27991
26924
29190
28697
26545
27794
28963
28466
26039
28635
28822
28369
26216
28897
28731
28168
26711
29049
28680
26934
27298
29036
28631
26275
28639
29064
28649
26461
29068
29033
28459
26778
29261
29002
27665
27305
29432
29043
26833
28628
29401
29029
26699
29391
29377
28906
26850
29582
29260
28416
27233
29591
29129
27130
28112
29444
28994
26550
29155
29353
28891
26714
29364
29214
28599
27120
29561
29219
27505
27736
29517
29134
26763
29089
29526
29176
26860
29580
29492
29068
27190
29822
29589
28357
27729
30012
29571
27223
28994
29968
29496
27017
29835
29877
29419
27353
30029
29756
29087
27843
30319
29823
27727
28614
30139
29632
27246
29759
29924
29453
27301
30028
29893
29207
27572
30105
29777
28131
28087
30157
29678
27202
29390
29922
29457
27045
29850
29858
29322
27418
30068
29804
28780
27878
30223
29708
27456
28968
30124
29604
27078
29834
29961
29491
27338
30143
29763
29049
27603
29997
29425
27299
27772
29226
28695
26127
28566
28667
28142
25816
28556
28300
27752
26056
28461
28181
26619
26269
28492
28047
25611
27657
28429
27937
25518
28335
28231
27864
25878
28519
28167
27264
26324
28648
28207
26120
27339
28657
28158
25663
28425
28637
28174
25962
28837
28530
28024
26496
29050
28639
26835
27086
29057
28550
26121
28489
28976
28492
26184
28978
28886
28299
26483
29190
28820
27407
26991
29211
28762
26396
28330
29160
28706
26306
29037
29082
28601
26521
29329
29033
28247
27019
29453
29057
27027
28013
29461
29051
26553
29168
29395
29028
26807
29459
29385
28768
27155
29845
29372
27697
27697
29717
29334
26859
29111
29577
29133
26868
29659
29505
29072
27194
29872
29556
28349
27707
30064
29499
27214
28881
29972
29448
27047
29768
29915
29379
27252
30104
29832
28995
27655
30278
29744
27787
28520
30144
29715
27225
29802
30077
29631
27398
30196
29990
29492
27824
30429
30030
28439
28350
30457
29966
27478
29788
30339
29881
27439
30210
30090
29542
27497
29998
29567
28333
27304
29498
28891
26635
28045
28981
28468
25952
28587
28764
28272
26105
28906
28640
27980
26555
28945
28621
26752
27351
28923
28499
26045
28550
28934
28426
26249
28968
28901
28376
26629
29216
28887
27450
27123
29258
28841
26501
28594
29275
28914
26566
29285
29244
28930
26893
29690
29297
28478
27395
29762
29260
27184
28491
29649
29249
26780
29473
29637
29136
27060
29820
29546
28983
27559
29916
29621
27915
28230
30021
29559
27202
29626
29997
29596
27421
30102
30025
29609
27828
30387
30159
28911
28346
30610
30113
27898
29727
30563
30159
27729
30567
30540
30132
28101
30768
30561
29722
28615
31062
30571
28568
29608
30941
30565
28142
30751
30903
30454
28381
31074
30850
30268
28711
31261
30866
29222
29301
31224
30697
28409
30662
31027
30662
28345
31162
31084
30603
28656
31398
31026
29849
29223
31424
30929
28714
30344
31288
30836
28389
31047
31158
30640
28639
31261
31065
30223
29042
31336
30949
28919
29642
31061
30525
27960
30284
30460
29803
27402
30049
29763
28984
27162
29633
29123
27539
27416
29383
28897
26589
28754
29116
28749
26395
29142
29073
28552
26644
29256
28921
27874
27068
29373
28886
26723
28111
29240
28857
26373
29089
29197
28670
26687
29410
29160
28468
27157
29618
29174
27409
27943
29520
29133
26649
29200
29474
29030
26751
29490
29346
28823
27137
29756
29242
27863
27492
29627
29187
26846
28903
29452
29103
26740
29510
29381
28948
27028
29797
29504
28479
27532
29900
29476
27404
28597
29832
29460
26995
29618
29917
29394
27341
30019
29940
29274
27925
30359
29927
28169
28605
30308
29883
27513
29918
30325
29856
27636
30330
30211
29739
27978
30528
30274
28907
28478
30680
30134
27965
29812
30561
30109
27722
30451
30541
29994
28105
30699
30428
29570
28494
30856
30377
28324
29452
30800
30326
27804
30561
30749
30280
28159
30846
30592
30094
28567
31045
30607
28971
29151
31001
30556
28160
30546
30979
30492
28192
30959
30766
30253
28348
30945
30411
29066
28307
30432
29779
27283
28919
29559
29066
26577
29222
29103
28657
26601
29259
28993
28162
26902
29368
28823
26927
27811
29202
28719
26324
28766
29011
28509
26354
29150
28999
28373
26773
29281
28877
27322
27313
29267
28842
26473
28761
29217
28763
26451
29193
29207
28735
26826
29511
29074
28037
27279
29563
29014
26829
28427
29474
28923
26540
29273
29290
28824
26757
29420
29181
28420
27127
29678
29100
27247
28018
29512
29077
26728
29228
29453
29038
26806
29582
29417
28919
27243
29835
29445
28008
27834
29950
29436
27039
29294
29775
29409
27076
29802
29808
29334
27364
30171
29815
28778
27859
30275
29814
27622
29100
30168
29738
27267
29982
30176
29692
27561
30228
30146
29341
27962
30529
30084
28270
28686
30422
29959
27573
29999
30338
29979
27615
30360
30274
29806
28021
30571
30256
28822
28515
30631
30186
27764
29919
30541
30042
27683
30362
30416
29998
27939
30593
30336
29495
28403
30785
30315
28230
29366
30671
30237
27652
30322
30314
29739
27436
30088
29586
28900
27122
29575
29047
27185
27365
29083
28622
26147
28562
28858
28512
26125
28779
28754
28259
26312
28912
28636
27393
26821
29062
28569
26231
28153
28905
28457
25995
28793
28785
28329
26395
29036
28709
27920
26754
29259
28733
26677
27778
29149
28679
26217
28821
29126
28654
26508
29218
29044
28471
26864
29512
29044
27441
27357
29372
28907
26501
28736
29202
28827
26449
29120
29105
28632
26711
29338
29010
27935
27198
29575
29026
26853
28471
29415
28989
26501
29324
29360
28953
26905
29667
29363
28741
27295
29830
29449
27530
28303
29815
29467
27062
29546
29852
29419
27178
29964
29867
29227
27627
30273
29885
28346
28133
30288
29894
27475
29667
30250
29745
27459
30242
30238
29639
27765
30406
30153
29151
28349
30670
30213
28106
29577
30621
30207
27796
30506
30637
30103
28101
30881
30573
29925
28563
31142
30633
28833
29338
30946
30649
28143
30597
30956
30593
28276
31116
30891
30374
28734
31256
30941
29549
29106
31273
30734
28416
30280
30727
30207
27631
30149
30096
29450
27315
29808
29492
28474
27395
29579
29140
26976
28188
29379
28909
26525
29141
29279
28759
26642
29381
29168
28569
27105
29718
29196
27492
27865
29543
29151
26755
29167
29447
29033
26902
29631
29449
29020
27194
29756
29518
28345
27749
29921
29518
27211
29119
29786
29412
26990
29652
29623
29222
27116
29881
29461
28701
27391
29794
29312
27381
28282
29575
29158
26725
29234
29469
28976
26878
29560
29440
28841
27274
29779
29397
27765
27821
29727
29284
26844
29217
29697
29231
26892
29690
29618
29139
27263
30021
29643
28502
27868
30170
29608
27372
29056
29993
29451
27064
29799
29832
29382
27307
29963
29787
29057
27760
30192
29671
27759
28545
30055
29656
27172
29757
30003
29587
27369
30150
30033
29398
27732
30443
29946
28440
28263
30481
29953
27557
29846
30372
29999
27600
30495
30391
29896
28044
30687
30380
29409
28530
30927
30350
28143
29574
30603
30172
27618
30267
30194
29667
27364
30039
29592
28718
27144
29615
28902
27057
27509
29097
28665
26110
28564
28823
28353
26159
28893
28639
28131
26407
28955
28583
27191
26809
28995
28444
26173
28159
28742
28356
26025
28775
28691
28207
26362
29037
28778
27856
26730
29192
28653
26561
27943
29146
28666
26232
28957
29009
28558
26399
29132
28854
28347
26807
29315
28859
27078
27405
29182
28710
26284
28732
29015
28628
26362
28999
28975
28475
26696
29248
28955
27712
27200
29412
29022
26742
28661
29573
29049
26748
29485
29518
29007
27048
29784
29493
28689
27463
29920
29496
27378
28427
29800
29421
26857
29486
29735
29262
27147
29957
29684
29068
27594
30165
29685
28061
28103
30152
29648
27209
29592
29970
29507
27151
29946
29914
29447
27573
30189
29856
28694
28033
30353
29874
27510
29330
30167
29776
27335
30034
30122
29672
27605
30418
30053
29298
28020
30551
30093
28127
28921
30472
30053
27592
30151
30426
29964
27630
30416
30243
29604
27779
30320
29778
28152
27880
29812
29132
26499
28673
29139
28535
26108
28747
28642
28147
26127
28830
28471
27302
26397
28781
28283
25964
27577
28681
28138
25688
28424
28544
27961
25869
28692
28437
27746
26224
28824
28379
26485
26987
28647
28184
25667
28226
28483
28154
25872
28559
28535
28040
26115
28889
28493
27076
26580
28872
28373
25946
27920
28703
28179
25728
28540
28491
28057
26041
28868
28399
27547
26559
29008
28414
26280
27557
28843
28345
25778
28549
28783
28393
26160
28966
28875
28227
26638
29344
28885
27046
27435
29356
28854
26433
28965
29350
28908
26484
29532
29400
28938
27115
29779
29473
28165
27657
30015
29592
27085
29058
29913
29558
27001
29899
29962
29536
27360
30193
29971
29158
27910
30522
30013
27951
28998
30512
30088
27520
30285
30575
30045
27823
30673
30566
29962
28328
31056
30657
28936
29013
31056
30640
28104
30553
31089
30608
28291
31187
31021
30594
28605
31284
30951
29911
29036
31372
30905
28505
30173
30943
30390
27761
30323
30289
29666
27409
29978
29565
28857
27385
29762
29273
27315
27980
29458
28995
26568
29138
29337
28847
26723
29527
29352
28821
27074
29773
29269
27864
27676
29779
29284
26968
29186
29648
29273
26855
29639
29672
29133
27258
29891
29635
28702
27738
30105
29661
27528
28964
30001
29611
27124
29856
29940
29496
27267
29964
29760
29054
27622
30211
29673
27862
28289
30018
29602
27079
29665
29953
29489
27206
30036
29835
29336
27596
30131
29830
28476
27968
30268
29796
27438
29448
30110
29674
27254
30097
29958
29520
27537
30257
30011
29111
28088
30439
29989
27872
29017
30280
29840
27364
30058
30130
29734
27494
30333
30107
29564
27948
30544
30045
28352
28571
30496
30041
27523
29997
30426
29950
27577
30360
30391
29766
27992
30696
30301
29046
28491
30877
30303
28062
29823
30735
30294
27729
30574
30615
30093
27989
30783
30543
29671
28337
30701
30182
27959
28780
30065
29445
26729
29265
29271
28709
26470
29138
28951
28287
26641
29233
28704
27198
27082
29095
28613
26230
28452
28896
28500
26228
28861
28850
28389
26571
29120
28822
27728
26956
29261
28737
26475
28065
29139
28731
26285
28987
29027
28691
26474
29259
29093
28353
27001
29531
29093
27193
27773
29454
28965
26459
29006
29228
28771
26534
29312
29253
28584
26913
29496
29096
27477
27335
29499
28960
26544
28830
29322
28979
26581
29355
29407
28950
26883
29645
29266
28292
27423
29900
29287
27112
28591
29761
29455
26955
29671
29839
29469
27295
30097
29860
29173
27724
30420
29855
28037
28512
30271
29905
27476
29926
30288
29830
27483
30376
30307
29693
27952
30612
30177
28917
28329
30635
30112
27723
29728
30504
30047
27690
30427
30461
29976
27993
30701
30430
29597
28391
30884
30320
28288
29433
30708
30249
27788
30521
30664
30236
28053
30809
30559
30067
28484
30991
30486
28782
28769
30654
30091
27451
29700
30007
29339
26824
29447
29172
28608
26668
29162
28726
27474
26894
29125
28519
26226
28031
28857
28418
25986
28670
28743
28247
26249
29046
28577
28015
26645
29097
28551
26645
27467
28934
28572
26078
28638
28884
28473
26238
29054
28826
28414
26633
29300
28909
27314
27246
29323
28859
26410
28750
29218
28781
26443
29259
29154
28726
26742
29497
29164
28041
27188
29538
29037
26813
28254
29462
29041
26512
29270
29441
28989
26889
29676
29410
28844
27369
29888
29423
27652
28165
29761
29446
26935
29539
29893
29497
27235
30162
29918
29462
27724
30359
30052
28717
28252
30491
30053
27697
29796
30363
30015
27679
30459
30364
29919
28000
30638
30461
29518
28482
30946
30475
28278
29708
30951
30521
27956
30689
30873
30435
28221
31094
30849
30330
28738
31213
30869
29084
29481
31281
30898
28465
30818
31204
30847
28547
31377
31242
30708
28882
31521
31212
29914
29331
31660
31144
28812
30696
31457
30936
28332
31108
30964
30412
28217
30742
30296
29382
27996
30374
29760
27662
28581
29853
29323
26840
29410
29655
29205
26946
29694
29588
28928
27335
29964
29506
27878
27913
29954
29480
27127
29387
29819
29418
27079
29894
29727
29273
27361
30082
29684
28632
27881
30196
29714
27527
29175
30183
29701
27402
29965
30012
29563
27554
30284
29994
29229
27916
30324
29771
27851
28630
30294
29649
27239
29779
30003
29511
27413
30120
29939
29398
27762
30266
29783
28274
28106
30218
29758
27406
29612
30165
29733
27362
30073
30070
29584
27622
30383
30081
29036
28121
30408
29951
27801
29329
30455
29938
27478
30252
30335
29867
27736
30500
30282
29595
28219
30579
30274
28487
28892
30611
30150
27755
30202
30561
30110
27933
30644
30520
29907
28198
30792
30393
29105
28702
30923
30372
28061
30005
30850
30345
27904
30734
30659
30229
28276
30913
30657
29725
28684
31017
30550
28413
29517
30791
30232
27679
30219
30185
29641
27414
29911
29534
28868
27242
29556
29043
27270
27478
29197
28639
26178
28585
28962
28540
26172
28944
28850
28367
26541
29077
28787
27513
26935
29110
28681
26509
28164
29011
28557
26115
28874
28910
28430
26451
29139
28827
28148
26942
29334
28920
26975
27867
29277
28784
26363
29003
29111
28744
26552
29190
29119
28562
26942
29405
29026
27460
27434
29362
28891
26547
28802
29320
28780
26535
29184
29078
28668
26831
29353
29151
28043
27284
29571
29072
26966
28454
29461
29076
26586
29374
29393
29011
26909
29666
29477
28854
27402
29913
29469
27535
28303
29996
29377
26998
29559
29765
29374
27211
29904
29748
29214
27553
30101
29714
28279
28015
30279
29659
27304
29466
30060
29652
27320
30018
29939
29496
27602
30315
29996
29057
28029
30440
30012
27810
29129
30315
29914
27495
30187
30328
29857
27805
30548
30243
29699
28205
30724
30301
28650
28914
30574
30225
27737
30247
30549
30123
27923
30645
30364
29905
28058
30657
30078
28696
28070
29947
29362
27022
28697
29186
28733
26306
28885
28945
28406
26347
29018
28639
27869
26671
29050
28619
26574
27603
28927
28536
26058
28642
28851
28382
26296
28962
28754
28206
26683
29224
28733
27082
27221
29280
28673
26384
28615
28995
28646
26339
29134
29074
28494
26747
29284
28977
27909
27221
29503
28906
26768
28382
29361
28876
26500
29141
29285
28783
26744
29419
29189
28534
27209
29635
29145
27380
28103
29551
29125
26725
29294
29503
29082
27013
29633
29501
29068
27352
30023
29624
28137
27976
30077
29610
27359
29481
30005
29704
27329
30028
30050
29617
27775
30377
30075
29172
28365
30571
30189
28156
29498
30547
30171
27868
30490
30613
30181
28095
30790
30604
30030
28538
31173
30646
28909
29330
30995
30636
28265
30692
30992
30629
28370
31164
31011
30551
28804
31370
31016
29716
29227
31355
31007
28662
30747
31431
30905
28500
31279
31209
30827
28942
31621
31284
30381
29330
31665
31172
29191
30247
31381
30841
28338
30717
30704
30039
27782
30341
30011
29289
27614
30062
29421
27753
27928
29648
29126
26869
29143
29489
29059
26942
29506
29435
28971
27203
29777
29436
28227
27683
29883
29359
27165
28872
29700
29296
26909
29576
29611
29121
27147
29875
29492
28853
27671
29985
29576
27630
28455
29904
29427
27033
29602
29832
29368
27190
29876
29591
29029
27451
29988
29515
27973
27830
29836
29380
27034
29305
29725
29302
27080
29703
29678
29214
27339
29922
29661
28619
27791
30110
29627
27501
29000
29868
29521
27117
29786
29945
29469
27465
30150
29925
29284
27970
30348
29922
28176
28766
30213
29907
27484
29941
30269
29838
27730
30370
30155
29814
28110
30561
30232
28887
28557
30727
30213
27993
29953
30591
30209
27818
30521
30547
30038
28157
30859
30511
29631
28593
30968
30475
28506
29692
30804
30434
28107
30638
30777
30363
28342
30980
30700
30136
28698
31123
30621
29033
29222
30958
30461
27986
30104
30386
29770
27410
29871
29552
28929
27060
29435
29056
27714
27114
29195
28765
26511
28213
29001
28557
26330
28912
28836
28375
26498
29120
28835
27993
26913
29189
28623
26780
27738
29084
28631
26304
28776
28969
28517
26420
29125
28839
28342
26913
29338
28855
27338
27413
29255
28754
26578
28709
29211
28760
26603
29154
29117
28693
26886
29402
28989
27960
27227
29355
28924
26829
28317
29270
28893
26604
29088
29103
28690
26702
29375
29240
28458
27206
29655
29101
27364
28026
29592
29094
26849
29199
29463
29131
26996
29698
29481
29081
27288
29843
29538
28165
27949
29917
29489
27282
29322
29843
29515
27152
29823
29789
29361
27592
30148
29822
28955
27968
30232
29818
27725
29062
30098
29776
27431
30067
30170
29670
27739
30399
30166
29479
28167
30478
30079
28518
28775
30459
30127
27669
30073
30430
30025
27856
30522
30443
29890
28200
30647
30357
29096
28623
30684
30262
28079
29821
30560
29971
27567
30155
29982
29367
27279
29739
29303
28285
27038
29189
28675
26587
27639
28854
28325
25924
28441
28559
28092
26022
28642
28432
27903
26409
28861
28425
26851
26911
28702
28273
25977
28203
28556
28194
25983
28603
28557
28051
26321
28767
28488
27464
26708
28935
28492
26354
27953
28848
28414
26142
28689
28740
28359
26414
29002
28728
28095
26784
29022
28739
26972
27614
29034
28585
26325
28627
28872
28487
26385
29006
28769
28393
26686
29194
28864
27482
27280
29243
28870
26598
28694
29202
28851
26610
29246
29138
28774
26983
29507
29219
28347
27442
29698
29276
27192
28586
29616
29250
26895
29462
29611
29176
27213
29770
29611
28964
27654
30033
29623
27987
28386
29992
29670
27309
29659
30007
29524
27434
30068
29929
29437
27752
30375
29981
28675
28287
30323
29924
27618
29586
30300
29819
27475
30235
30186
29719
27816
30447
30111
29346
28248
30591
30169
28204
29258
30507
30044
27663
30234
30367
30018
27841
30467
30220
29626
28007
30302
29739
28042
27935
29734
29099
26632
28739
29063
28528
26275
28966
28773
28233
26488
28975
28629
27601
26832
28992
28593
26461
27996
28905
28512
26105
28782
28812
28457
26430
29081
28860
28207
26970
29163
28846
27049
27621
29180
28771
26422
28859
29200
28840
26737
29315
29273
28761
27227
29612
29311
27910
27639
29690
29253
26987
29119
29611
29191
26951
29541
29565
29028
27209
29798
29448
28512
27698
29891
29485
27462
28807
29879
29469
27146
29730
29829
29466
27499
30101
29955
29377
28013
30270
29976
28268
28766
30374
29994
27669
29908
30446
29941
27804
30385
30312
29855
28123
30597
30225
29024
28634
30705
30221
28019
29866
30581
30123
27856
30503
30483
30069
28126
30628
30436
29643
28534
30738
30346
28405
29416
30650
30272
27850
30426
30600
30161
28038
30685
30518
29996
28374
30892
30445
28875
28969
30813
30403
28010
30239
30645
30189
27995
30637
30535
30111
28259
30739
30384
29128
28475
30514
29914
27652
29095
29696
29156
26585
29057
29028
28440
26377
28897
28531
27825
26568
28873
28316
26530
27250
28667
28282
25887
28394
28568
28192
25972
28708
28522
27969
26362
28915
28490
27053
26861
28846
28450
26192
28315
28781
28451
26173
28815
28782
28376
26540
29160
28831
27865
27106
29259
28829
26718
28154
29146
28773
26377
29005
29127
28591
26653
29211
28979
28336
26921
29338
28918
27143
27604
29301
28865
26513
28846
29275
28757
26613
29353
29202
28709
27032
29650
29228
28052
27548
29687
29233
26978
28993
29596
29235
26885
29509
29556
29194
27270
29806
29652
28895
27753
30085
29640
27696
28739
30004
29583
27157
29738
29882
29398
27379
30042
29787
29358
27729
30190
29787
28186
28416
30213
29794
27389
29744
30194
29722
27504
30167
30160
29697
27805
30458
30043
29007
28256
30478
30055
27851
29562
30377
29954
27659
30273
30346
29926
27913
30566
30320
29554
28323
30714
30243
28350
29169
30608
30175
27727
30167
30375
29813
27532
30077
29739
29059
27169
29559
28903
27187
27129
28976
28432
26060
28108
28663
28195
25874
28618
28484
28095
26110
28697
28383
27376
26630
28861
28383
26172
27681
28645
28253
25870
28498
28616
28113
26206
28863
28626
27974
26691
29116
28636
26900
27453
29043
28650
26260
28757
29074
28667
26567
29199
29007
28576
26958
29377
29047
27687
27297
29410
28916
26722
28633
29265
28839
26577
29212
29213
28757
26935
29503
29280
28411
27433
29740
29295
27225
28458
29726
29357
26898
29525
29675
29353
27252
29906
29716
29119
27727
30188
29863
28168
28450
30294
29854
27527
29884
30326
29909
27662
30411
30326
29796
28051
30721
30363
29167
28637
30754
30376
28041
29972
30758
30314
27950
30683
30695
30205
28231
30927
30645
29886
28677
31167
30621
28700
29639
31026
30632
28223
30789
30964
30618
28408
31097
30934
30455
28838
31329
30913
29405
29445
31327
30823
28600
30762
31243
30847
28544
31228
31161
30688
28785
31324
30963
29833
28922
30992
30398
27973
29332
30161
29567
27015
29520
29523
28931
26836
29507
29161
28448
27171
29478
29015
27213
27858
29325
28976
26461
28969
29228
28810
26610
29379
29234
28673
27006
29528
29205
27809
27455
29539
29049
26834
28845
29366
28987
26694
29403
29313
28882
27006
29582
29304
28400
27425
29792
29297
27261
28460
29623
29155
26723
29373
29427
29017
26820
29592
29327
28760
27327
29810
29323
27694
27979
29703
29261
26926
29262
29701
29293
27024
29788
29591
29239
27448
30064
29672
28428
27928
30213
29700
27584
29373
30158
29712
27408
30151
30176
29759
27744
30444
30139
29393
28227
30560
30149
28167
29153
30533
30117
27641
30276
30501
30013
27976
30513
30318
29865
28298
30787
30353
28832
28896
30807
30282
27951
30226
30670
30160
27879
30596
30462
30015
28234
30841
30529
29380
28644
30914
30471
28304
29885
30760
30329
28007
30573
30753
30273
28252
30897
30649
29911
28577
30923
30412
28536
29104
30439
29932
27340
29602
29769
29246
26895
29402
29141
28511
26831
29243
28947
27501
27119
29279
28759
26440
28459
29001
28609
26274
29034
29001
28566
26613
29208
29010
28058
27179
29420
28867
26901
28123
29248
28913
26570
29143
29225
28888
26862
29447
29273
28822
27323
29812
29424
27800
28148
29903
29400
27072
29403
29793
29316
27173
29855
29749
29173
27491
30040
29680
28403
27919
30013
29660
27362
29234
29956
29592
27166
29888
29900
29488
27633
30224
29930
29206
28117
30467
30055
28160
29065
30452
30042
27694
30191
30414
30017
27918
30585
30411
29893
28404
30742
30476
28878
28872
30863
30394
28082
30338
30701
30384
28139
30770
30759
30291
28539
30921
30656
29547
28935
31049
30630
28527
30067
30924
30538
28208
30819
31002
30561
28557
31111
31040
30281
29024
31390
30962
29189
29858
31345
30948
28585
30981
31350
30838
28813
31390
31257
30739
29096
31516
31221
29805
29523
31454
30876
28510
30355
30762
30211
27645
30232
29987
29391
27414
29863
29549
28519
27581
29773
29263
27291
28534
29555
29141
26757
29376
29491
29024
27010
29636
29416
28819
27417
29876
29389
27762
28106
29789
29326
26962
29354
29637
29293
27048
29676
29574
29085
27416
29858
29580
28168
27811
30058
29445
27150
29141
29700
29272
26979
29613
29550
29098
27166
29775
29455
28589
27504
29832
29285
27344
28333
29592
29175
26723
29378
29560
29022
26987
29603
29516
28895
27407
29920
29500
27869
27915
29851
29359
27144
29263
29695
29315
27025
29779
29667
29162
27384
29990
29664
28574
27961
30141
29699
27516
29135
29996
29607
27148
29816
29895
29535
27489
30121
29938
29240
27979
30472
29982
28097
28816
30375
29993
27604
30076
30342
29911
27725
30366
30299
29779
28133
30588
30360
28811
28732
30735
30325
27975
30067
30583
30218
27854
30539
30522
29991
28048
30570
30153
29035
27990
30182
29509
27281
28323
29379
28847
26384
28836
28955
28439
26338
28966
28710
28133
26672
29064
28664
26883
27281
28967
28484
26156
28432
28819
28375
26134
28848
28700
28248
26434
29002
28652
27334
26881
28983
28503
26350
28157
28830
28432
26150
28797
28772
28352
26414
29064
28761
27816
26747
29174
28632
26724
27672
28954
28524
26055
28589
28811
28329
26297
28834
28701
28190
26671
29017
28719
27015
27200
29049
28616
26304
28545
28982
28541
26296
29035
28947
28441
26639
29168
28935
27809
27164
29348
28930
26782
28412
29302
28899
26468
29116
29255
28778
26773
29433
29248
28629
27254
29758
29250
27517
28196
29677
29296
26877
29347
29679
29233
27031
29825
29579
29092
27447
29937
29624
28174
28028
30046
29633
27326
29451
30052
29598
27279
29977
30012
29547
27683
30262
29976
28982
28114
30426
29856
27848
29263
30228
29828
27312
30005
30044
29446
27347
29833
29472
28650
27181
29457
28861
27036
27362
28986
28506
25986
28420
28695
28171
26021
28578
28530
28034
26172
28739
28382
27015
26622
28776
28283
26055
27964
28552
28212
25820
28536
28578
28022
26112
28608
28452
27669
26505
28820
28385
26402
27459
28730
28394
25955
28521
28651
28229
26081
28788
28619
28124
26612
28903
28588
27010
27174
28930
28537
26196
28454
28896
28452
26214
28829
28744
28355
26593
29110
28860
27696
27083
29298
28848
26696
28300
29157
28831
26479
29126
29235
28859
26898
29421
29345
28514
27422
29730
29286
27397
28240
29764
29315
26898
29366
29718
29253
27123
29817
29674
29113
27603
29983
29678
28225
28115
30223
29764
27450
29634
30123
29688
27421
30122
30157
29680
27788
30359
30168
29134
28262
30514
30138
28072
29431
30517
30172
27717
30394
30621
30141
28126
30763
30581
30021
28544
31009
30559
28833
29367
30873
30495
28072
30419
30716
30227
27869
30425
30164
29481
27551
29886
29451
27955
27387
29437
28870
26615
28435
29037
28609
26260
28940
28910
28412
26546
29071
28827
27897
26918
29180
28803
26694
27769
29087
28597
26203
28757
28934
28548
26360
28984
28866
28197
26752
29207
28874
27189
27368
29161
28827
26395
28728
29082
28654
26418
29037
28972
28512
26758
29172
28857
27704
27078
29187
28809
26459
28245
29030
28576
26211
28877
28924
28453
26453
29093
28862
28165
26914
29207
28876
26916
27787
29230
28741
26362
28927
29166
28685
26598
29242
29093
28560
26999
29454
29124
27609
27490
29440
28998
26762
28927
29390
28990
26674
29412
29321
28910
27048
29542
29340
28253
27486
29678
29321
27225
28668
29656
29177
26867
29484
29585
29118
27064
29803
29518
28958
27549
29991
29567
27782
28348
29951
29535
27059
29642
29876
29493
27299
29962
29912
29281
27662
30211
29797
28476
28026
30197
29729
27290
29230
29706
29233
26693
29227
29135
28555
26474
29129
28671
27699
26641
28879
28400
26308
27416
28617
28180
25714
28276
28446
28008
25963
28548
28378
27832
26220
28757
28344
26632
26892
28652
28253
25919
28165
28606
28126
25886
28639
28478
27960
26239
28741
28445
27290
26679
28904
28452
26212
27971
28780
28399
26009
28652
28644
28210
26196
28893
28564
27800
26636
28996
28538
26563
27507
28880
28418
25961
28505
28801
28250
26233
28841
28661
28121
26571
28995
28660
27099
27128
29130
28660
26303
28513
28947
28580
26394
29059
28951
28487
26652
29304
28965
27900
27137
29400
28960
26747
28320
29248
28896
26395
29127
29192
28834
26729
29356
29229
28551
27219
29647
29214
27352
28001
29586
29122
26715
29219
29565
29081
26958
29596
29472
28970
27203
29817
29409
28109
27758
29828
29443
27120
29167
29850
29406
27024
29822
29733
29354
27425
29959
29840
28823
27875
30184
29709
27621
28752
29985
29459
26959
29428
29528
28920
26594
29182
28869
28118
26543
28982
28397
26718
26872
28593
28156
25745
28036
28450
27924
25710
28307
28268
27779
25961
28440
28074
27000
26277
28507
28078
25860
27571
28393
27945
25622
28193
28282
27819
25845
28438
28148
27422
26239
28568
28167
26258
27149
28631
28169
25792
28280
28493
28081
25908
28559
28377
27805
26222
28759
28384
26778
26737
28749
28299
25934
28049
28621
28136
25892
28513
28529
28005
26211
28789
28443
27477
26651
28949
28513
26268
27738
28790
28415
26066
28684
28779
28335
26240
28960
28789
28174
26807
29184
28798
26975
27546
29198
28765
26363
28790
29142
28715
26486
29214
29065
28533
26907
29403
29071
27772
27413
29425
29075
26786
28752
29432
28983
26702
29368
29419
28935
27043
29549
29399
28517
27456
29847
29401
27344
28617
29845
29453
26955
29622
29829
29353
27291
29967
29827
29316
27795
30170
29843
28109
28387
30213
29717
27390
29674
30077
29644
27252
29989
29686
29084
27214
29579
29162
27713
27058
29215
28714
26366
28101
28898
28309
25921
28545
28566
28166
26089
28822
28483
27744
26513
28993
28471
26610
27385
28842
28473
26036
28509
28827
28275
26229
28913
28735
28219
26544
29113
28722
27195
27111
29102
28746
26345
28582
29131
28729
26377
29083
29118
28550
26708
29303
28941
27806
27045
29217
28860
26724
28105
29168
28712
26333
28914
29020
28526
26545
29167
28948
28300
26961
29344
28906
27075
27692
29270
28766
26428
28839
29212
28750
26544
29241
29097
28655
26944
29429
29078
27728
27361
29499
29044
26838
28749
29390
28986
26566
29273
29321
28804
27002
29450
29234
28382
27254
29704
29160
27129
28375
29551
29078
26680
29273
29470
29006
26816
29512
29447
28785
27285
29763
29359
27677
27893
29680
29231
26908
29179
29678
29173
26946
29625
29542
29038
27208
29742
29494
28292
27659
29884
29401
27129
28936
29633
29153
26701
29234
29287
28609
26470
29100
28667
27897
26555
28873
28260
26387
27123
28500
27996
25490
27976
28307
27783
25574
28213
28133
27521
26006
28392
28023
26465
26477
28447
27974
25575
27795
28291
27796
25560
28270
28165
27791
25862
28523
28123
27110
26315
28614
28153
25980
27544
28525
28074
25678
28326
28440
27957
25917
28532
28356
27651
26381
28701
28366
26508
27112
28602
28158
25847
28141
28517
28075
25872
28547
28409
27912
26299
28761
28410
27117
26804
28849
28509
26224
28218
28795
28428
26023
28748
28742
28266
26379
28961
28734
27801
26877
29194
28735
26622
27998
29140
28810
26375
29022
29209
28761
26551
29294
29103
28556
27011
29482
29088
27370
27712
29366
28996
26621
29019
29477
28936
26740
29472
29402
28947
27094
29698
29424
28102
27598
29761
29326
27065
28867
29553
29150
26796
29493
29501
29100
27055
29728
29472
28609
27610
29949
29502
27477
28423
29772
29391
26904
29502
29639
29177
27008
29657
29386
28703
27103
29443
28948
27221
27182
28981
28462
26072
28202
28484
28086
25701
28350
28216
27751
25848
28428
28163
26972
26294
28442
27989
25776
27366
28269
27893
25512
28080
28252
27725
25703
28279
28097
27371
26142
28535
28043
26181
26926
28454
28064
25566
28047
28408
27914
25720
28478
28326
27735
26170
28617
28264
26889
26644
28719
28229
25910
27957
28581
28070
25721
28495
28440
27870
25860
28502
28374
27229
26394
28713
28308
26083
27521
28599
28165
25715
28372
28610
28119
25945
28737
28448
27865
26399
28807
28495
26687
27127
28808
28463
25931
28484
28873
28400
26203
29043
28911
28439
26594
29183
28950
27477
27089
29328
28865
26514
28432
29094
28731
26266
29023
29056
28525
26578
29316
29094
28086
26979
29412
28990
26980
28070
29398
28941
26452
29065
29363
28831
26629
29509
29245
28752
27125
29653
29408
27617
27809
29769
29355
26876
29264
29706
29216
26943
29688
29638
29109
27236
29918
29465
28342
27602
29863
29345
26940
28500
29158
28713
26048
28669
28728
28071
26039
28638
28450
27559
26258
28666
28198
26283
27007
28459
28017
25573
28132
28429
27934
25732
28420
28281
27685
26045
28575
28234
26773
26657
28633
28214
25875
28000
28553
28048
25748
28491
28529
27946
25975
28701
28476
27345
26475
28884
28423
26317
27732
28857
28438
25984
28569
28729
28331
26084
28827
28728
27951
26425
28950
28514
26681
27220
28925
28510
25952
28532
28941
28411
26106
28927
28894
28338
26549
29114
28852
27453
27007
29298
28827
26467
28408
29184
28707
26298
29147
29151
28657
26571
29409
29133
28189
27133
29555
29152
27027
28220
29463
29104
26520
29237
29400
28938
26660
29461
29420
28783
27223
29643
29371
27657
27767
29727
29284
26763
29098
29592
29066
26695
29482
29531
28942
26942
29724
29418
28128
27447
29821
29372
26991
28826
29757
29250
26803
29586
29700
29123
27059
29765
29555
28710
27393
29914
29566
27375
28173
29686
29174
26501
29026
29196
28516
26150
28832
28618
28015
26188
28725
28275
26624
26346
28508
27930
25416
27722
28282
27802
25409
28179
27965
27518
25584
28367
27983
26891
26013
28471
28009
25611
27193
28315
27842
25218
28056
28185
27758
25524
28396
28111
27427
25877
28546
28102
26165
26728
28484
28088
25460
28055
28386
27941
25530
28412
28304
27739
25774
28536
28171
26669
26187
28535
28065
25566
27741
28410
28022
25453
28325
28401
27855
25769
28527
28279
27365
26156
28789
28228
26033
27366
28595
28251
25636
28454
28561
28057
25794
28673
28492
27837
26188
28945
28523
26704
27004
28983
28495
25875
28385
28826
28309
25954
28848
28720
28162
26181
28997
28707
27332
26694
29154
28665
26148
28155
29084
28628
25909
28904
29005
28452
26187
29093
28823
28060
26677
29401
28915
26699
27770
29319
28812
26060
28964
29166
28701
26346
29264
29107
28532
26751
29488
29040
27368
27367
29540
29041
26454
28835
29427
28961
26479
29464
29346
28816
26662
29432
29041
27716
26744
29099
28552
26112
27607
28536
28039
25255
28093
28130
27615
25301
28202
27926
27118
25593
28269
27793
25668
26432
28119
27594
24956
27582
27974
27474
25107
27926
27899
27361
25461
28269
27866
26221
25986
28242
27750
25330
27544
28226
27757
25325
28184
28268
27767
25741
28650
28311
27307
26344
28808
28364
26038
27502
28755
28167
25622
28360
28654
28153
25864
28739
28597
27883
26313
28922
28614
26767
27212
28991
28612
26005
28528
28991
28464
26111
29020
28909
28291
26448
29126
28833
27507
26992
29388
28754
26376
28346
29142
28697
26071
29030
29002
28516
26389
29181
28915
27934
26735
29237
28741
26557
27658
29108
28599
26013
28670
28997
28429
26158
29065
28930
28208
26550
29157
28718
26900
27037
29071
28518
25896
28455
29004
28373
25916
28863
28894
28309
26341
29100
28791
27432
26707
29187
28666
26320
28044
29007
28582
25879
28814
28814
28418
26079
29001
28817
27884
26446
29072
28616
26442
27207
28792
28261
25462
28182
28452
27813
25447
28261
27971
27418
25510
28220
27712
26010
25720
27966
27342
24838
27108
27620
27168
24722
27554
27546
27032
24916
27768
27530
26395
25511
27961
27626
25338
26793
27891
27508
24829
27688
27841
27379
25130
28072
27944
27229
25737
28373
27996
26136
26728
28500
28092
25359
28094
28508
28034
25604
28591
28461
27886
26066
28782
28514
27000
26576
29052
28466
26017
28174
29023
28520
25972
28901
29016
28483
26301
29138
28912
27962
26940
29476
29042
26950
28116
29609
29180
26553
29411
29748
29207
26912
29873
29552
28902
27270
30061
29703
27996
28172
30251
29701
27248
29712
30202
29712
27239
30191
30084
29538
27588
30363
30053
28729
28113
30555
30048
27638
29552
30481
29991
27335
30242
30364
29942
27690
30554
30333
29579
28230
30820
30382
28272
29292
30816
30369
27750
30507
30768
30323
27961
30806
30729
30050
28295
30924
30400
28551
28276
30308
29587
26987
29180
29568
28933
26401
29183
29064
28495
26482
29137
28853
27771
26754
29210
28716
26333
27956
29083
28505
25890
28780
28896
28380
26178
29030
28727
28007
26552
29114
28614
26688
27251
29056
28600
26031
28618
29056
28509
26183
29130
29104
28414
26738
29398
29043
27484
27120
29488
28957
26395
28629
29294
28796
26278
29182
29239
28619
26533
29378
29130
28098
26979
29471
29041
26784
28101
29390
28942
26327
29079
29332
28763
26545
29342
29250
28580
26930
29521
29241
27445
27561
29634
29090
26511
29027
29449
28946
26625
29506
29454
28813
26894
29688
29366
28039
27394
29756
29346
26834
28718
29638
29142
26526
29511
29602
29047
26839
29697
29439
28647
27337
29891
29496
27331
28402
29926
29378
26675
29588
29829
29300
26881
29878
29757
29138
27355
30138
29767
27929
27945
30085
29661
27033
29391
29978
29423
26902
29859
29760
29041
26924
29669
29139
27822
26818
29174
28624
26156
27676
28751
28197
25470
28362
28451
27771
25519
28340
28171
27257
25858
28385
27988
25934
26614
28302
27862
25151
27902
28208
27687
25419
28242
28173
27502
25735
28432
28010
26427
26072
28491
27934
25479
27809
28371
27966
25332
28437
28345
27752
25713
28496
28307
27112
26207
28723
28248
25889
27315
28628
28142
25403
28276
28495
28040
25745
28641
28494
27749
26220
28841
28468
26513
26811
28825
28285
25803
28377
28839
28292
25911
28858
28822
28332
26349
29219
28934
27528
26960
29431
28890
26332
28492
29261
28819
26268
29097
29180
28701
26565
29281
29202
28234
27007
29534
29129
26924
28046
29495
29056
26336
29196
29428
28845
26566
29497
29221
28655
26891
29571
29226
27391
27494
29504
29029
26353
28914
29459
28912
26526
29409
29413
28761
26770
29652
29336
27973
27290
29768
29235
26748
28520
29593
29075
26274
29248
29367
28821
26391
29348
28916
28037
26476
29026
28380
26249
26966
28528
28066
25338
27967
28212
27756
25366
28255
28073
27432
25582
28345
27967
26287
26086
28357
27845
25282
27555
28193
27663
25119
28026
28106
27569
25406
28248
28033
26920
25967
28458
27983
25628
27133
28404
27881
25144
28115
28296
27755
25427
28463
28324
27505
25911
28711
28220
26197
26687
28559
28026
25475
28080
28418
27980
25507
28475
28266
27678
25858
28588
28284
26741
26249
28737
28216
25749
27804
28522
28133
25546
28408
28448
27928
25824
28797
28374
27465
26236
28881
28334
26159
27238
28734
28301
25523
28432
28635
28087
25714
28836
28543
27866
26201
28840
28461
26577
26705
28888
28395
25661
28328
28849
28318
25781
28729
28724
28158
26098
28902
28630
27254
26536
29101
28492
26003
27831
28799
28405
25592
28735
28766
28317
25947
28946
28705
27916
26400
29107
28665
26439
27364
29080
28536
25646
28685
28967
28392
25858
28941
28748
28096
26040
28944
28413
26582
26338
28561
27971
25188
27633
28132
27577
24902
27871
27722
27188
25031
28008
27603
26367
25442
28019
27507
25025
26541
27833
27344
24454
27541
27742
27173
24811
27846
27526
26760
25223
27910
27508
25341
25972
27875
27368
24526
27348
27866
27247
24771
27794
27786
27178
25142
28129
27669
26073
25571
28105
27621
25025
27095
27963
27409
24630
27837
27746
27179
24948
28079
27715
26679
25415
28134
27670
25326
26540
28115
27616
24746
27770
28033
27467
25125
28128
27945
27200
25418
28401
27895
26053
26124
28389
27837
25128
27745
28307
27806
25260
28309
28224
27689
25608
28584
28174
26887
26097
28675
28210
25611
27590
28662
28226
25347
28448
28595
28055
25798
28709
28568
27646
26156
28942
28492
26324
27178
28948
28440
25593
28564
28821
28309
25932
28912
28918
28175
26422
29246
29018
27242
27057
29535
28992
26364
28731
29417
28895
26311
29375
29444
28871
26702
29653
29397
28260
27313
29880
29404
26799
28367
29615
28960
25900
28883
28828
28183
25794
28766
28429
27585
25987
28676
28173
26172
26590
28507
27995
25260
28004
28329
27848
25401
28341
28364
27632
25669
28523
28231
26695
26163
28681
28183
25547
27669
28521
27980
25375
28381
28416
27880
25655
28647
28356
27348
26218
28790
28401
26001
27227
28732
28244
25446
28349
28681
28082
25654
28676
28584
27773
26074
28828
28321
26533
26647
28830
28325
25612
28108
28612
28085
25608
28471
28533
27833
25816
28701
28348
27023
26246
28842
28271
25784
27641
28614
28179
25468
28455
28670
28110
25893
28833
28713
27777
26367
29066
28591
26505
27221
28955
28470
25716
28616
28907
28457
26009
28999
28784
28162
26334
29169
28847
27106
26853
29288
28758
26174
28521
29163
28676
26050
29157
29122
28436
26345
29286
29033
27868
26864
29457
28959
26670
28124
29445
28932
26202
29176
29406
28795
26391
29448
29320
28469
26933
29679
29137
27093
27537
29299
28634
25801
28425
28715
28028
25458
28382
28288
27623
25548
28414
27984
26419
25950
28315
27780
25232
27288
28122
27653
24995
28048
28032
27521
25262
28191
27939
26829
25827
28352
27824
25603
26816
28234
27734
24979
27870
28052
27594
25233
28165
28105
27313
25672
28377
28054
26127
26331
28411
27922
25256
27766
28396
27799
25228
28276
28137
27595
25502
28439
28000
26686
25941
28493
27948
25469
27252
28327
27801
25142
28174
28229
27686
25503
28397
28205
27295
25987
28713
28141
26081
26948
28623
28190
25446
28277
28594
28036
25665
28670
28574
27964
26130
29007
28557
26883
26789
29079
28571
25884
28310
29021
28507
25978
28984
28934
28316
26285
29188
28873
27699
26749
29383
28919
26533
28052
29221
28800
25946
29114
29222
28689
26317
29272
29128
28417
26829
29557
29109
27063
27624
29541
29091
26379
29125
29480
28995
26450
29546
29480
28853
26919
29771
29392
27840
27332
29831
29318
26678
28711
29511
28879
26005
28942
28879
28137
25901
28703
28347
27185
25969
28469
27928
25638
26742
28215
27640
24866
27815
28035
27482
25159
28096
27846
27204
25552
28194
27827
25953
26219
28162
27712
25079
27661
28136
27568
25122
28043
28024
27458
25495
28213
27922
26568
25996
28375
27921
25531
27406
28341
27896
25214
28156
28291
27783
25490
28502
28137
27257
25937
28602
28095
25966
26880
28529
28063
25301
28169
28518
27944
25627
28645
28488
27681
25969
28705
28327
26545
26511
28755
28179
25674
28137
28696
28230
25672
28707
28693
28059
26136
28928
28662
27471
26617
29249
28712
26306
27833
29018
28521
25789
28852
28905
28373
26129
29058
28896
28086
26654
29311
28884
26891
27474
29323
28839
26141
28841
29296
28756
26286
29263
29180
28472
26685
29558
29095
27495
27167
29585
29039
26408
28650
29415
28927
26262
29335
29349
28743
26575
29524
29214
28126
27073
29669
29208
26838
28138
29502
29016
26194
29104
29277
28579
26066
28933
28566
27785
26001
28737
28162
26193
26354
28337
27782
25146
27657
28171
27557
25050
28054
27944
27340
25315
28195
27842
26451
25795
28278
27837
25262
27256
28225
27670
24945
28016
28122
27490
25326
28311
27982
27006
25822
28465
27976
25815
26835
28419
27925
25108
27997
28353
27740
25324
28346
28179
27520
25725
28478
28068
26242
26270
28427
27910
25314
27679
28281
27775
25186
28258
28158
27500
25538
28308
28130
26728
26012
28444
28004
25522
27240
28300
27919
25073
28195
28261
27779
25472
28469
28227
27474
25930
28612
28276
26083
26868
28703
28182
25413
28230
28644
28013
25613
28727
28568
27916
26086
28826
28517
26814
26571
28905
28362
25797
28183
28812
28329
25661
28780
28776
28139
26117
28976
28716
27560
26580
29200
28654
26305
27765
29149
28635
25805
28821
29039
28485
26170
29242
29050
28227
26564
29393
28900
26853
27298
29173
28613
25808
28292
28736
28070
25471
28452
28263
27456
25526
28167
27882
26281
25680
28133
27546
25006
27003
27851
27304
24634
27590
27648
27078
24960
27856
27559
26463
25283
27972
27515
25216
26399
27902
27363
24638
27565
27860
27302
24911
27959
27807
27082
25343
28103
27711
25935
25999
28169
27669
25064
27570
28135
27594
25043
28029
27984
27446
25357
28158
27885
26479
25775
28326
27781
25289
27071
28147
27635
24917
28001
28183
27524
25280
28177
28057
27065
25753
28372
28051
25833
26677
28428
27916
25151
28047
28376
27859
25438
28477
28361
27626
25974
28771
28350
26580
26462
28829
28342
25627
28112
28732
28235
25636
28729
28715
28089
26129
29003
28700
27456
26583
29221
28674
26279
27872
29150
28651
25910
28970
29058
28485
26210
29175
29115
28215
26724
29452
29086
27043
27602
29515
29055
26325
29067
29521
29034
26482
29509
29405
28864
26935
29845
29426
27817
27427
29843
29234
26620
28659
29360
28674
25906
28752
28689
28042
25701
28621
28278
27075
25970
28575
27986
25650
26973
28332
27855
25057
27956
28162
27636
25351
28281
28082
27305
25733
28413
28040
26125
26395
28412
27906
25191
27786
28321
27822
25300
28286
28303
27664
25770
28611
28301
26837
26305
28777
28276
25795
27725
28642
28150
25382
28317
28386
27896
25681
28492
28330
27254
26075
28673
28192
25955
27009
28507
28131
25332
28225
28563
27902
25570
28485
28457
27742
25996
28658
28388
26474
26559
28697
28244
25564
28045
28666
28150
25570
28571
28591
27948
25954
28743
28471
27114
26359
28855
28397
25926
27721
28825
28349
25643
28655
28798
28278
26023
28931
28795
27854
26512
29085
28688
26525
27271
29017
28540
25873
28565
29063
28464
26070
29132
29075
28448
26496
29324
29103
27346
27127
29517
29038
26359
28788
29492
28975
26284
29394
29285
28680
26471
29360
28877
27607
26456
29068
28408
25967
27353
28535
28012
25202
28122
28163
27625
25327
28251
28035
27284
25753
28378
28015
25978
26460
28320
27877
25207
27817
28286
27754
25349
28325
28245
27606
25747
28560
28301
26740
26287
28793
28228
25714
27811
28701
28220
25531
28548
28618
28027
25898
28810
28543
27528
26398
28994
28570
26242
27479
28893
28386
25736
28644
28847
28295
25994
28886
28850
28077
26420
29266
28797
26955
27132
29200
28806
26103
28660
29218
28715
26223
29161
29140
28523
26554
29370
29178
27753
27206
29731
29085
26726
28578
29639
29176
26507
29491
29611
29090
27003
29899
29663
28734
27488
30103
29635
27585
28433
30121
29613
26964
29730
30099
29463
27180
30134
29932
29147
27581
30266
29826
28136
28090
30302
29815
27219
29545
30234
29749
27234
30112
30191
29589
27648
30409
30140
28983
28101
30482
30065
27743
29417
30421
30011
27322
30188
30358
29688
27343
30099
29739
28807
27195
29638
28989
26863
27411
29089
28511
25702
28299
28630
28075
25779
28638
28488
27797
26035
28784
28398
26944
26438
28760
28308
25673
27911
28613
28126
25613
28509
28554
27948
25826
28641
28424
27355
26347
28721
28326
25973
27395
28699
28252
25636
28415
28638
28171
25959
28827
28605
27905
26382
28962
28540
26709
26983
28929
28461
25772
28348
28724
28257
25817
28741
28645
27931
26161
28787
28572
27147
26613
28999
28442
26052
27990
28839
28441
25873
28712
28899
28276
26216
29119
28906
27940
26752
29260
28846
26748
27798
29214
28786
26259
28976
29238
28689
26407
29279
29199
28477
26869
29508
29196
27474
27507
29621
29153
26670
29082
29642
29175
26726
29660
29615
29089
27177
29948
29674
28472
27781
30238
29852
27435
29258
30321
29915
27405
30258
30367
29852
27789
30636
30381
29526
28195
30734
30306
28294
29000
30651
30206
27536
30195
30424
29817
27348
30005
29751
28922
27133
29572
29112
27347
27031
29193
28690
26121
28355
28946
28402
25910
28797
28750
28120
26163
28860
28698
27543
26630
29005
28507
26295
27742
28873
28423
25878
28547
28745
28247
26096
28929
28737
28043
26647
29113
28747
26857
27381
29164
28744
26215
28716
29105
28581
26291
29109
29123
28380
26677
29236
28993
27480
27032
29256
28774
26393
28328
29059
28588
26086
28836
28952
28338
26289
28963
28778
27871
26709
29190
28805
26681
27696
29194
28706
26163
28788
29086
28571
26378
29089
29005
28229
26724
29373
29013
27263
27395
29374
28943
26435
28830
29255
28766
26352
29245
29228
28562
26659
29379
29138
27842
27202
29534
29120
26842
28586
29579
29146
26568
29460
29542
28971
26861
29788
29574
28595
27426
29881
29477
27485
28292
29839
29370
26759
29425
29680
29115
26699
29457
29180
28380
26619
29051
28682
26960
26761
28812
28251
25764
27954
28570
27987
25541
28339
28321
27783
25709
28481
28241
26998
26243
28541
28081
25801
27332
28436
27993
25434
28232
28364
27793
25643
28447
28309
27516
26156
28692
28214
26349
26873
28618
28154
25637
28238
28573
27986
25790
28521
28520
27876
26068
28686
28462
26965
26544
28785
28317
25905
27923
28533
28170
25664
28481
28492
27942
25852
28672
28532
27417
26485
28855
28419
26239
27429
28738
28259
25662
28372
28586
28088
25823
28708
28511
27736
26213
28872
28455
26691
26994
28904
28463
25941
28478
28861
28391
25985
28852
28806
28204
26326
29002
28694
27306
26737
29153
28646
26255
28132
29007
28597
26076
29018
29069
28490
26454
29227
28947
28002
26849
29288
28910
26881
27786
29302
28801
26220
28906
29152
28682
26430
29142
29037
28393
26772
29298
28998
27304
27176
29182
28584
26000
28290
28605
28069
25511
28346
28233
27489
25664
28180
27778
26585
25746
28110
27587
25267
26902
27976
27453
24836
27669
27828
27198
25100
27895
27637
26816
25503
27950
27548
25624
26259
27928
27430
24933
27428
27789
27264
24979
27781
27738
27093
25362
27963
27663
26163
25881
28062
27600
25110
27351
27976
27460
25052
27849
27866
27339
25361
28153
27863
26740
25808
28218
27753
25582
26943
28176
27673
25151
27876
28100
27494
25391
28201
27997
27262
25912
28471
28068
26185
26674
28413
27931
25478
27988
28381
27934
25552
28385
28321
27812
25906
28574
28313
26905
26495
28672
28275
25836
27799
28629
28159
25638
28493
28566
28044
26028
28812
28636
27555
26575
29002
28615
26468
27604
29005
28573
25958
28745
28931
28365
26119
28923
28791
28086
26631
29165
28700
27001
27258
29188
28655
26155
28694
29113
28697
26264
29133
28998
28382
26536
29010
28758
27298
26535
28776
28207
25639
27373
28235
27715
25082
27846
27767
27164
25029
27741
27542
26574
25383
27793
27407
25360
26207
27747
27189
24573
27323
27618
27124
24829
27677
27616
26865
25123
27740
27473
25791
25717
27899
27378
24944
27301
27840
27425
25020
27812
27832
27194
25285
28014
27737
26575
25739
28167
27676
25289
26992
28050
27549
24998
27836
27943
27472
25254
28151
27971
27064
25765
28323
27841
25877
26684
28326
27836
25307
27945
28211
27738
25395
28405
28083
27617
25821
28579
28117
26620
26407
28641
28124
25669
27905
28563
28013
25636
28489
28502
27900
25843
28648
28385
27259
26362
28740
28354
26035
27502
28671
28251
25661
28484
28629
28134
25900
28755
28569
27817
26362
29003
28583
26717
27168
29022
28565
25992
28631
28977
28558
26122
29038
29036
28350
26561
29228
28946
27553
27118
29388
28849
26408
28503
29263
28758
26173
29122
29096
28538
26351
29117
28747
27611
26423
28747
28112
25952
27010
28310
27793
25073
27788
27981
27346
25085
27893
27746
27041
25409
27907
27602
25870
26052
27976
27539
24999
27497
27868
27347
24989
27887
27821
27133
25255
27961
27715
26309
25769
28069
27625
25204
27095
28055
27535
24996
27930
27940
27371
25289
28161
27857
26995
25769
28159
27772
25672
26683
28175
27693
25126
27912
28168
27615
25316
28212
28077
27364
25659
28491
28049
26328
26293
28415
27962
25395
27853
28396
27900
25396
28360
28307
27686
25890
28631
28248
27019
26372
28794
28250
25949
27757
28744
28238
25614
28446
28637
28006
25934
28707
28521
27689
26425
28820
28589
26401
27090
28822
28349
25784
28385
28766
28250
25911
28840
28662
28075
26369
29068
28698
27128
26936
29205
28736
26200
28455
29111
28642
26132
29121
29103
28563
26521
29326
29052
27947
27003
29422
29010
26660
28071
29371
28749
26167
28960
29063
28281
26053
28786
28391
27610
25975
28566
28012
26092
26447
28186
27686
25097
27612
27955
27485
25102
27881
27866
27249
25448
28196
27816
26442
25941
28196
27775
25342
27355
28152
27715
25146
28072
28052
27615
25432
28239
28065
27003
25937
28447
27942
25833
27034
28326
27883
25337
28061
28297
27730
25441
28266
28109
27381
25838
28404
28047
26233
26376
28303
27872
25349
27786
28249
27752
25405
28240
28238
27621
25812
28430
28236
26882
26350
28755
28217
25921
27771
28761
28219
25709
28451
28593
27990
25914
28646
28481
27691
26368
28837
28525
26470
27446
28915
28485
25868
28639
28816
28367
26236
28961
28909
28159
26553
29119
28853
27204
27169
29311
28871
26375
28737
29283
28804
26333
29201
29219
28655
26670
29426
29228
28013
27252
29715
29234
26970
28514
29635
29183
26653
29509
29656
29207
27097
29884
29707
28955
27654
30096
29766
27824
28423
30034
29507
26962
29438
29636
28924
26485
29176
28869
28008
26204
28731
28351
26720
26406
28586
28052
25580
27816
28314
27909
25454
28294
28297
27724
25708
28460
28243
27114
26219
28584
28161
25931
27273
28533
28037
25499
28239
28406
27924
25773
28586
28445
27657
26254
28871
28519
26650
27140
28850
28459
25943
28462
28805
28244
25926
28695
28709
28074
26266
28897
28586
27191
26719
28987
28519
26093
28125
28907
28405
25977
28785
28876
28334
26332
29046
28844
27892
26870
29296
28894
26714
27906
29232
28805
26232
29060
29274
28803
26568
29365
29227
28624
27023
29603
29302
27507
27745
29737
29299
26711
29213
29746
29176
26791
29697
29634
29053
27131
29895
29616
28250
27696
29974
29546
27269
28992
30029
29453
26950
29794
29864
29391
27369
30032
29930
29051
27847
30339
29892
27918
28789
30341
29873
27360
29937
30285
29808
27558
30354
30209
29551
27804
30343
29966
28274
28086
29953
29294
26717
28820
29236
28560
26081
28798
28673
28093
26083
28768
28498
27245
26565
28845
28396
26141
27628
28785
28231
25776
28535
28691
28126
26137
28896
28624
27991
26580
29019
28710
26724
27441
29127
28616
26199
28770
29120
28701
26358
29160
29080
28534
26874
29452
29050
27626
27241
29488
29036
26545
28664
29331
28798
26331
29231
29201
28581
26676
29263
29108
28084
27141
29541
29101
26955
28318
29491
29037
26527
29310
29546
29024
26886
29617
29503
28788
27470
29995
29606
27821
28213
30086
29559
27211
29613
30024
29551
27222
30135
30031
29450
27719
30339
30038
28659
28139
30467
29970
27692
29573
30426
29820
27383
30203
30322
29693
27694
30400
30258
29320
28185
30631
30212
28055
29201
30613
30174
27691
30359
30624
30017
27913
30692
30579
29869
28368
30839
30575
28886
28960
30875
30463
27987
30376
30751
30152
27687
30419
30177
29434
27393
29810
29375
28028
27228
29301
28786
26472
28152
28985
28606
26060
28801
28855
28374
26322
28933
28858
27973
26796
29134
28782
26787
27646
29096
28636
26215
28752
29053
28541
26394
29071
28985
28479
26767
29347
28983
27483
27350
29418
28877
26547
28841
29318
28791
26447
29218
29136
28625
26662
29235
29026
27798
26975
29308
28913
26570
28145
29239
28678
26197
28929
29077
28605
26451
29248
29077
28288
26872
29328
29123
27200
27771
29444
29069
26594
29167
29469
29047
26738
29533
29528
28853
27237
29848
29530
28159
27826
30069
29626
27213
29326
30091
29545
27167
29954
30015
29375
27488
30215
29915
28909
28029
30310
29894
27719
29063
30266
29807
27280
30012
30195
29656
27509
30338
30169
29484
28087
30456
30190
28319
28814
30557
30021
27588
30031
30356
29817
27449
30212
29991
29242
27446
29836
29365
27839
27222
29164
28639
26231
28023
28784
28173
25664
28472
28444
27844
25942
28507
28246
27352
26343
28624
28269
26212
27299
28652
28112
25621
28305
28581
28050
25878
28647
28537
27832
26235
28797
28451
26674
26826
28801
28391
26040
28415
28922
28398
26099
28860
28765
28241
26456
29015
28770
27481
26933
29102
28685
26337
28103
28978
28524
26017
28846
28879
28405
26244
29036
28805
27938
26677
29143
28773
26736
27634
29205
28674
26226
28893
29183
28576
26441
29270
29096
28539
26885
29520
29156
27590
27500
29567
29272
26811
29102
29668
29214
26868
29610
29706
29082
27172
29855
29674
28582
27848
30148
29664
27437
29099
30101
29645
27148
29946
30146
29507
27413
30190
30021
29313
27914
30424
29999
28047
28719
30474
29904
27494
30048
30440
29856
27615
30390
30311
29673
27965
30610
30286
28774
28373
30498
29884
27311
29288
29737
29043
26438
29099
28936
28232
26229
28756
28504
27414
26405
28661
28213
26036
27348
28556
28094
25578
28248
28452
27895
25778
28539
28271
27583
26064
28497
28176
26364
26717
28503
28093
25529
28088
28439
27984
25640
28433
28373
27804
25955
28609
28282
26985
26457
28776
28216
25774
27818
28538
28017
25564
28404
28371
27821
25819
28535
28316
27322
26201
28615
28150
26076
27222
28634
28074
25552
28203
28482
28011
25810
28627
28545
27789
26304
28884
28543
26844
27037
29005
28576
26083
28559
29052
28573
26248
29182
29147
28623
26754
29499
29260
28021
27460
29797
29407
27060
28935
29876
29399
26908
29740
29892
29317
27247
30013
29774
28989
27725
30199
29867
27672
28774
30282
29778
27257
29930
30246
29681
27546
30360
30219
29516
27926
30488
30181
28551
28530
30594
30187
27702
30054
30582
30132
27737
30497
30463
29886
27986
30651
30252
28995
28062
30161
29598
27088
28517
29535
28701
26068
28786
28781
28098
25949
28672
28436
27678
26355
28759
28356
26379
27004
28699
28169
25590
28183
28502
27934
25715
28526
28399
27756
26030
28621
28185
26769
26409
28644
28107
25698
27864
28533
28007
25615
28481
28496
27882
25948
28619
28290
27314
26378
28717
28218
25990
27493
28575
28155
25523
28413
28436
27880
25669
28545
28321
27659
26161
28690
28306
26396
26875
28697
28253
25766
28276
28624
28163
25908
28737
28649
28036
26288
28931
28658
27163
26823
29090
28640
26225
28305
29084
28575
26200
29038
29097
28530
26465
29340
29044
28081
27069
29429
29007
26930
28157
29512
29067
26509
29313
29472
28927
26784
29534
29534
28654
27300
29785
29473
27732
27865
29920
29451
26960
29437
29830
29420
27077
29970
29915
29338
27586
30225
29979
28751
28118
30455
29991
27664
29525
30402
29896
27446
30314
30333
29823
27692
30458
30287
29328
28088
30344
29807
27686
28457
29818
29157
26408
28965
29038
28487
26097
28801
28593
27905
26349
28854
28436
26843
26827
28918
28364
25948
28265
28849
28277
25978
28774
28707
28187
26392
28990
28746
27590
26870
29180
28680
26424
28080
29116
28646
26203
29000
29098
28570
26489
29345
29098
28379
27096
29500
29165
27238
27880
29552
29064
26527
29101
29357
28836
26568
29383
29244
28605
26923
29520
29198
27708
27449
29645
29143
26710
28927
29563
29006
26645
29473
29511
28960
27022
29701
29454
28449
27515
29856
29442
27279
28731
29871
29412
26926
29626
29916
29351
27153
30009
29804
29026
27678
30152
29753
27912
28404
30164
29693
27169
29649
30042
29560
27180
30022
29965
29314
27549
30193
29885
28400
28009
30295
29773
27372
29452
30141
29726
27175
30105
30165
29523
27582
30263
30046
29135
28022
30341
29963
27881
28985
30402
29887
27301
30031
30060
29533
27201
29790
29532
28605
26979
29342
28778
26979
27070
28964
28418
25823
28252
28645
28069
25657
28547
28417
27825
25923
28578
28383
27078
26514
28712
28283
25901
27759
28634
28145
25617
28408
28508
27999
25848
28730
28537
27586
26411
28831
28465
26506
27369
28867
28450
25877
28574
28825
28332
26057
28851
28669
28066
26397
29038
28633
27108
26981
28971
28435
26089
28328
28782
28328
25979
28772
28685
28134
26271
28934
28678
27521
26747
29030
28596
26331
27945
28986
28546
26017
28788
28995
28496
26330
29089
28979
28268
26869
29332
29003
26968
27634
29379
28865
26414
29027
29350
28872
26539
29388
29271
28723
26975
29480
29201
27686
27503
29659
29113
26795
28942
29542
29098
26786
29571
29581
29015
26918
29773
29491
28497
27593
29867
29522
27296
28677
29941
29442
26996
29684
29899
29428
27272
30128
29916
29132
27761
30255
29899
28079
28507
30308
29796
27371
29848
30203
29608
27321
29981
29813
29037
27047
29451
28963
27529
26901
28982
28403
26053
27999
28683
28188
25666
28384
28465
27859
25843
28559
28333
27386
26366
28734
28276
26223
27253
28660
28200
25645
28310
28619
28046
25863
28614
28507
27780
26264
28782
28415
26815
26911
28877
28384
26013
28391
28846
28355
26031
28877
28844
28265
26369
29030
28781
27564
26846
29114
28628
26331
28024
28964
28465
25994
28780
28891
28308
26267
28948
28786
27974
26694
29078
28735
26810
27560
29131
28712
26209
28810
29084
28639
26350
29176
29079
28448
26821
29305
29053
27498
27403
29387
29017
26607
28856
29356
28916
26549
29373
29315
28806
26854
29515
29372
28233
27317
29736
29290
27092
28570
29593
29190
26649
29455
29618
29130
27033
29667
29608
28788
27480
29882
29535
27692
28169
29930
29415
26996
29482
29920
29421
27060
30066
29970
29366
27592
30238
29958
28486
28177
30351
29896
27507
29605
30411
29829
27360
30256
30322
29712
27706
30482
30189
29141
28132
30446
29937
27577
28674
29838
29123
26385
28976
29000
28316
26064
28744
28609
27783
26258
28647
28405
26551
26765
28694
28173
25724
28101
28594
28027
25767
28530
28478
27869
26039
28611
28337
26987
26444
28675
28242
25939
27771
28635
28143
25665
28444
28507
28004
25852
28750
28456
27557
26423
28815
28457
26454
27316
28844
28387
25775
28450
28698
28130
25852
28694
28479
27848
26100
28762
28332
26637
26686
28766
28353
25804
28206
28751
28197
25847
28674
28641
28095
26112
28814
28518
27406
26569
28915
28523
26143
27844
28864
28464
25892
28737
28912
28440
26257
29148
28864
28140
26795
29290
28968
26955
27584
29310
28926
26274
28999
29228
28715
26419
29358
29251
28666
26815
29483
29232
27698
27467
29656
29270
26776
29024
29684
29210
26623
29636
29630
29082
27090
29853
29656
28571
27638
29990
29665
27427
28818
30124
29668
27064
29853
30066
29526
27430
30269
30147
29439
27946
30419
30093
28272
28629
30439
30016
27455
30046
30356
29891
27509
30338
30147
29471
27594
30051
29664
28132
27402
29469
28862
26372
28160
28922
28330
25848
28633
28596
28068
26007
28783
28512
27691
26435
28919
28486
26341
27407
28834
28384
25837
28544
28840
28285
26105
28873
28697
28178
26455
29117
28758
27136
27149
29169
28659
26249
28699
29165
28727
26328
29189
29190
28605
26784
29463
29207
27965
27292
29555
29128
26815
28457
29447
28922
26486
29186
29303
28737
26700
29483
29182
28362
27178
29606
29222
27271
28052
29613
29174
26650
29336
29644
29073
26919
29708
29609
28911
27244
29874
29575
28040
27836
29982
29572
27062
29332
29952
29491
27054
29839
29859
29325
27271
30030
29832
28763
27828
30256
29782
27556
28957
30110
29674
27108
29892
29943
29498
27333
30101
29926
29209
27703
30184
29878
28092
28406
30218
29787
27196
29765
30211
29689
27322
30230
30015
29462
27663
30297
29980
28640
28145
30413
29948
27606
29546
30336
29850
27283
30148
30238
29617
27534
30236
29959
28792
27604
29962
29285
26946
27880
29227
28602
25807
28500
28738
28167
25773
28586
28355
27697
26094
28663
28300
26480
26662
28667
28150
25687
28069
28511
28018
25608
28507
28428
27800
25904
28689
28379
27079
26490
28841
28359
25993
27791
28731
28244
25716
28609
28662
28107
26012
28809
28755
27757
26434
28919
28532
26643
27354
28977
28443
25778
28519
28774
28295
25885
28711
28692
28032
26273
28897
28547
26961
26831
29022
28497
25990
28245
28887
28335
25874
28838
28821
28314
26236
29114
28824
27618
26833
29207
28807
26540
28125
29214
28690
26143
28989
29127
28582
26317
29254
29100
28329
26855
29447
29182
27227
27716
29510
29067
26553
29080
29438
28958
26579
29538
29428
28834
26935
29582
29381
27852
27461
29719
29302
26780
28902
29676
29173
26642
29617
29602
29092
26879
29759
29514
28571
27489
29894
29489
27291
28455
29857
29406
26780
29547
29855
29213
26897
29918
