15685
15642
15548
15434
15366
15316
15224
15120
15057
14997
14887
14771
14696
14618
14500
14396
14343
14286
14187
14101
14060
13999
13892
13800
13751
13680
13570
13487
13448
13381
13279
13212
13181
13121
13036
12992
12975
12911
12811
12752
12721
12654
12571
12532
12507
12434
12355
12338
12360
12377
12435
12591
12797
13003
13253
13587
13944
14273
14619
15011
15384
15703
16020
16360
16663
16905
17142
17388
17577
17699
17820
17953
18032
18053
18087
18132
18118
18058
18027
18022
17976
17900
17863
17845
17779
17688
17631
17580
17481
17366
17285
17197
17052
16899
16790
16686
16549
16426
16350
16270
16150
16052
16015
15982
15924
15899
15929
15951
15945
15977
16056
16104
16108
16138
16201
16228
16225
16262
16327
16343
16320
16324
16338
16301
16238
16210
16186
16104
16007
15954
15912
15829
15738
15684
15623
15511
15401
15334
15253
15118
14985
14899
14803
14674
14575
14522
14442
14324
14238
14197
14124
14008
13921
13868
13777
13650
13563
13512
13428
13324
13274
13260
13207
13135
13109
13108
13064
13004
12989
12986
12932
12859
12826
12795
12715
12636
12614
12612
12603
12650
12791
12975
13173
13440
13794
14166
14516
14895
15316
15713
16060
16419
16799
17125
17385
17649
17917
18113
18245
18383
18513
18567
18568
18595
18631
18609
18552
18528
18507
18434
18353
18320
18288
18208
18121
18071
18010
17894
17774
17691
17597
17456
17325
17238
17137
16993
16877
16819
16751
16651
16584
16568
16539
16491
16490
16535
16558
16557
16597
16661
16676
16660
16685
16738
16754
16745
16770
16804
16787
16754
16767
16789
16760
16713
16703
16695
16638
16581
16572
16554
16481
16412
16386
16339
16234
16143
16097
16026
15908
15815
15768
15697
15588
15509
15471
15400
15289
15212
15173
15102
15002
14938
14898
14818
14716
14661
14630
14553
14453
14394
14350
14262
14163
14106
14055
13960
13864
13820
13780
13691
13604
13562
13512
13425
13363
13361
13358
13336
13374
13507
13672
13850
14102
14432
14762
15081
15449
15860
16241
16591
16961
17334
17636
17882
18143
18398
18582
18717
18864
18998
19064
19098
19152
19195
19182
19156
19167
19176
19138
19102
19108
19101
19047
19001
18995
18970
18891
18817
18778
18711
18594
18492
18423
18327
18196
18097
18035
17949
17846
17793
17775
17725
17656
17637
17652
17632
17596
17607
17644
17646
17642
17691
17757
17776
17782
17829
17875
17867
17848
17861
17862
17819
17783
17787
17770
17697
17628
17593
17534
17431
17347
17298
17219
17096
16994
16924
16821
16681
16577
16511
16412
16284
16199
16145
16049
15933
15869
15829
15740
15630
15567
15514
15411
15298
15236
15186
15091
14996
14956
14916
14822
14727
14674
14608
14493
14391
14337
14268
14160
14083
14056
14010
13927
13873
13861
13819
13738
13688
13671
13616
13527
13480
13469
13431
13389
13425
13538
13672
13843
14111
14453
14800
15167
15601
16053
16459
16847
17259
17654
17982
18282
18596
18874
19077
19253
19439
19584
19660
19734
19833
19900
19914
19936
19985
20000
19968
19961
19989
19987
19945
19920
19901
19822
19690
19572
19457
19281
19068
18889
18726
18526
18320
18169
18044
17894
17759
17696
17654
17577
17506
17482
17457
17398
17364
17394
17427
17420
17427
17485
17528
17529
17556
17616
17636
17602
17585
17597
17576
17517
17482
17476
17432
17353
17307
17282
17210
17110
17051
17011
16921
16806
16737
16689
16595
16488
16428
16380
16285
16185
16131
16083
15995
15912
15875
15830
15733
15639
15585
15513
15395
15302
15267
15216
15122
15052
15025
14970
14873
14809
14785
14723
14620
14551
14512
14430
14315
14238
14184
14085
13964
13887
13832
13736
13627
13564
13518
13428
13323
13261
13202
13095
12994
12953
12922
12871
12868
12957
13089
13229
13439
13746
14079
14400
14761
15167
15541
15863
16195
16539
16822
17044
17269
17495
17654
17755
17862
17960
17992
17981
17994
18009
17963
17880
17825
17771
17661
17536
17458
17388
17276
17162
17094
17027
16914
16798
16711
16597
16426
16259
16129
15980
15785
15608
15475
15326
15147
15007
14921
14825
14718
14665
14670
14669
14658
14698
14773
14815
14830
14884
14962
14997
15006
15046
15091
15078
15040
15039
15038
14984
14915
14885
14855
14771
14678
14629
14575
14474
14379
14330
14268
14157
14055
13996
13921
13804
13708
13651
13573
13466
13398
13378
13335
13256
13206
13181
13114
13022
12979
12966
12904
12808
12746
12695
12597
12483
12416
12364
12266
12164
12114
12078
12001
11928
11910
11895
11833
11768
11733
11671
11546
11423
11341
11242
11092
10967
10910
10858
10797
10811
10919
11055
11214
11471
11822
12185
12546
12964
13419
13823
14176
14541
14902
15197
15450
15719
15975
16154
16286
16431
16554
16601
16620
16663
16689
16651
16599
16582
16549
16462
16381
16347
16306
16222
16152
16117
16054
15943
15850
15790
15694
15555
15444
15361
15235
15071
14945
14858
14746
14617
14539
14499
14435
14371
14373
14414
14427
14437
14502
14584
14619
14643
14715
14787
14801
14805
14852
14890
14878
14872
14912
14938
14920
14915
14948
14953
14907
14873
14869
14827
14726
14630
14556
14446
14301
14191
14117
14013
13882
13789
13726
13631
13518
13447
13399
13313
13208
13145
13100
13014
12917
12866
12820
12721
12610
12537
12466
12357
12256
12204
12155
12070
12003
11981
11946
11873
11821
11813
11784
11715
11670
11671
11661
11644
11693
11818
11964
12134
12392
12724
13053
13375
13748
14146
14494
14809
15155
15495
15760
15983
16225
16455
16614
16733
16867
16980
17021
17038
17075
17087
17040
16986
16963
16913
16807
16716
16671
16609
16502
16421
16389
16338
16250
16184
16144
16057
15912
15786
15689
15554
15393
15275
15188
15066
14931
14855
14822
14763
14698
14694
14722
14724
14725
14770
14817
14819
14813
14848
14883
14879
14884
14932
14962
14941
14926
14942
14935
14884
14848
14845
14805
14708
14627
14576
14491
14368
14274
14211
14120
14007
13940
13909
13839
13740
13686
13655
13576
13478
13425
13384
13287
13167
13086
13015
12896
12772
12699
12633
12526
12430
12390
12346
12257
12183
12155
12110
12017
11944
11920
11886
11820
11791
11826
11871
11924
12061
12292
12552
12833
13189
13604
13992
14348
14742
15165
15533
15850
16178
16494
16737
16934
17147
17347
17478
17573
17688
17782
17805
17805
17838
17863
17834
17800
17806
17792
17719
17649
17615
17564
17476
17407
17371
17306
17197
17112
17066
16990
16875
16791
16740
16654
16538
16465
16427
16352
16255
16209
16195
16144
16083
16079
16099
16081
16054
16077
16119
16129
16143
16207
16267
16273
16275
16316
16341
16313
16292
16316
16320
16268
16225
16223
16198
16128
16083
16077
16040
15958
15905
15889
15844
15774
15739
15729
15674
15584
15527
15496
15419
15313
15243
15185
15078
14951
14871
14808
14702
14593
14540
14498
14414
14332
14301
14269
14192
14122
14101
14065
13972
13887
13846
13790
13700
13647
13658
13675
13695
13794
13985
14197
14426
14733
15107
15467
15807
16189
16593
16938
17234
17550
17866
18111
18312
18534
18744
18879
18974
19093
19204
19255
19283
19341
19382
19360
19329
19337
19337
19290
19252
19255
19234
19154
19079
19036
18963
18841
18738
18674
18575
18426
18306
18230
18125
17989
17898
17853
17783
17692
17643
17626
17577
17519
17520
17551
17546
17537
17579
17627
17621
17603
17632
17672
17674
17683
17739
17782
17773
17770
17805
17819
17776
17738
17737
17709
17631
17570
17543
17482
17383
17313
17271
17187
17060
16969
16917
16832
16719
16648
16604
16518
16408
16338
16285
16186
16072
16005
15960
15877
15785
15740
15705
15626
15546
15518
15488
15405
15326
15292
15244
15141
15044
14986
14909
14791
14707
14687
14666
14631
14658
14770
14908
15068
15311
15627
15940
16248
16615
17021
17384
17715
18077
18443
18742
18998
19267
19517
19690
19818
19962
20089
20147
20179
20241
20288
20271
20245
20254
20247
20189
20133
20114
20077
19995
19932
19911
19868
19778
19704
19665
19591
19467
19369
19303
19197
19052
18944
18873
18774
18656
18591
18566
18506
18432
18412
18419
18389
18353
18367
18397
18382
18354
18367
18387
18366
18355
18401
18443
18429
18415
18446
18463
18425
18385
18372
18330
18241
18175
18152
18106
18015
17943
17909
17849
17747
17669
17621
17535
17418
17341
17298
17217
17112
17048
17009
16926
16819
16748
16689
16588
16485
16435
16395
16304
16211
16174
16145
16068
15992
15954
15897
15783
15678
15624
15557
15448
15360
15312
15238
15122
15033
14997
14953
14891
14879
14929
14988
15067
15238
15493
15752
16018
16357
16746
17111
17458
17840
18231
18563
18856
19162
19442
19641
19796
19968
20117
20195
20245
20318
20370
20359
20340
20346
20322
20241
20162
20121
20064
19969
19895
19858
19793
19682
19593
19535
19441
19305
19194
19111
18984
18819
18694
18607
18487
18347
18261
18218
18155
18095
18094
18118
18103
18087
18125
18181
18201
18223
18290
18355
18374
18397
18462
18503
18482
18468
18499
18510
18460
18414
18404
18371
18298
18249
18237
18189
18092
18012
17956
17863
17739
17649
17581
17470
17330
17230
17159
17054
16934
16865
16819
16729
16627
16570
16523
16426
16316
16245
16181
16079
15977
15915
15839
15710
15594
15534
15467
15354
15250
15189
15112
14996
14905
14862
14798
14701
14643
14643
14647
14659
14754
14932
15116
15315
15597
15941
16269
16594
16972
17370
17720
18042
18389
18723
18980
19192
19415
19613
19735
19822
19921
19989
19983
19961
19971
19963
19903
19847
19828
19789
19701
19626
19590
19532
19428
19338
19271
19163
19015
18897
18809
18679
18521
18416
18356
18264
18156
18107
18093
18044
17988
17994
18033
18035
18025
18061
18106
18100
18088
18129
18180
18184
18194
18257
18315
18319
18327
18372
18393
18359
18334
18343
18323
18255
18203
18185
18135
18037
17961
17920
17852
17757
17701
17674
17599
17490
17420
17380
17301
17205
17157
17133
17064
16972
16915
16867
16773
16673
16621
16578
16486
16389
16337
16276
16165
16057
15992
15917
15799
15697
15640
15568
15458
15379
15360
15342
15317
15367
15507
15663
15829
16078
16401
16717
17028
17396
17801
18173
18518
18890
19261
19561
19807
20057
20292
20452
20573
20717
20848
20906
20929
20967
20984
20945
20901
20889
20859
20776
20702
20672
20632
20545
20466
20425
20361
20248
20150
20082
19985
19847
19732
19655
19558
19442
19372
19346
19286
19197
19158
19158
19129
19087
19089
19110
19094
19070
19097
19142
19144
19138
19181
19231
19234
19231
19266
19287
19253
19223
19241
19243
19192
19147
19139
19111
19036
18976
18953
18904
18814
18745
18707
18641
18545
18486
18458
18388
18285
18216
18176
18094
17983
17913
17856
17744
17610
17524
17456
17338
17202
17112
17038
16930
16828
16784
16752
16683
16622
16609
16589
16521
16453
16418
16373
16303
16275
16319
16382
16450
16590
16823
17085
17355
17687
18082
18460
18810
19188
19576
19902
20177
20473
20769
20994
21163
21341
21505
21595
21647
21724
21796
21808
21799
21821
21827
21775
21719
21701
21668
21581
21494
21446
21384
21273
21171
21108
21017
20872
20739
20639
20515
20361
20244
20172
20079
19959
19883
19848
19789
19720
19707
19729
19713
19679
19696
19743
19753
19747
19787
19844
19858
19859
19901
19942
19924
19890
19892
19885
19828
19767
19745
19713
19641
19584
19569
19532
19450
19385
19354
19294
19191
19112
19062
18973
18839
18741
18691
18614
18508
18443
18409
18328
18214
18134
18067
17952
17813
17712
17629
17505
17372
17288
17222
17115
17006
16945
16888
16781
16674
16614
16549
16448
16375
16367
16356
16310
16309
16393
16500
16613
16803
17087
17386
17675
18018
18416
18794
19139
19512
19902
20236
20521
20813
21096
21307
21463
21628
21783
21870
21916
21976
22021
22001
21958
21948
21933
21868
21797
21770
21744
21673
21608
21587
21548
21451
21350
21275
21169
21012
20874
20782
20672
20529
20420
20356
20269
20156
20089
20069
20020
19943
19911
19924
19918
19895
19915
19954
19950
19927
19952
19992
19989
19975
20005
20039
20023
19994
19999
20000
19954
19906
19894
19865
19787
19719
19698
19660
19565
19480
19437
19370
19259
19171
19121
19037
18908
18807
18743
18648
18515
18417
18354
18258
18139
18069
18028
17943
17826
17752
17704
17609
17493
17422
17357
17241
17116
17041
16968
16846
16726
16659
16593
16480
16374
16317
16249
16139
16055
16042
16047
16054
16137
16318
16527
16747
17037
17404
17772
18126
18516
18932
19292
19596
19915
20242
20508
20721
20948
21163
21297
21378
21473
21560
21584
21574
21590
21598
21542
21471
21436
21396
21310
21221
21157
21068
20928
20798
20709
20601
20447
20303
20192
20054
19874
19722
19620
19506
19372
19286
19254
19209
19148
19132
19151
19133
19096
19113
19165
19182
19185
19238
19303
19314
19305
19345
19403
19422
19432
19482
19524
19509
19484
19491
19480
19412
19342
19305
19250
19147
19063
19024
18960
18845
18749
18698
18620
18502
18406
18343
18253
18130
18041
17980
17879
17742
17645
17583
17486
17370
17302
17257
17164
17057
17004
16971
16895
16811
16772
16738
16656
16568
16519
16460
16349
16240
16178
16112
16009
15940
15954
15993
16027
16120
16298
16505
16725
17018
17383
17739
18073
18446
18849
19210
19530
19868
20211
20487
20705
20928
21140
21277
21360
21454
21541
21563
21548
21556
21551
21480
21388
21337
21291
21201
21108
21051
20985
20866
20745
20658
20551
20402
20270
20180
20070
19918
19792
19711
19608
19474
19376
19324
19254
19170
19139
19157
19155
19138
19170
19238
19272
19279
19323
19390
19417
19422
19463
19506
19493
19463
19474
19491
19464
19427
19425
19416
19352
19280
19246
19199
19099
19003
18946
18868
18745
18646
18595
18523
18410
18327
18287
18220
18118
18051
18022
17956
17855
17785
17732
17628
17496
17407
17342
17238
17120
17051
17005
16917
16813
16752
16700
16600
16492
16428
16362
16250
16136
16062
15985
15878
15810
15824
15867
15917
16043
16272
16533
16800
17135
17547
17957
18338
18750
19186
19567
19885
20207
20527
20773
20957
21142
21318
21421
21476
21547
21612
21613
21579
21573
21570
21519
21453
21428
21409
21347
21282
21251
21206
21111
21025
20979
20913
20789
20667
20578
20462
20306
20179
20105
20020
19910
19838
19804
19742
19657
19622
19642
19646
19630
19658
19721
19747
19752
19804
19874
19890
19874
19893
19927
19917
19888
19893
19901
19857
19802
19784
19759
19681
19605
19569
19517
19416
19328
19287
19235
19139
19058
19018
18957
18854
18773
18729
18656
18539
18442
18375
18278
18148
18052
17984
17877
17743
17657
17592
17477
17345
17268
17216
17122
17013
16953
16912
16828
16735
16686
16632
16523
16414
16355
16297
16203
16133
16129
16134
16118
16159
16299
16479
16672
16942
17303
17676
18032
18429
18878
19312
19707
20115
20529
20875
21147
21414
21661
21820
21919
22034
22141
22177
22164
22168
22174
22127
22058
22026
22001
21928
21849
21817
21788
21715
21640
21597
21530
21405
21287
21208
21105
20950
20808
20712
20604
20464
20357
20298
20221
20117
20059
20051
20024
19976
19968
19991
19976
19933
19931
19954
19942
19918
19947
20008
20030
20031
20065
20103
20090
20059
20062
20062
20007
19942
19919
19892
19815
19744
19717
19672
19575
19489
19443
19367
19235
19116
19033
18921
18768
18642
18558
18448
18311
18214
18152
18052
17918
17821
17758
17659
17535
17449
17382
17265
17129
17039
16973
16873
16772
16721
16678
16584
16483
16429
16373
16271
16174
16119
16046
15921
15801
15720
15626
15502
15406
15363
15314
15250
15249
15338
15452
15583
15809
16137
16487
16847
17275
17745
18174
18566
18984
19407
19763
20070
20387
20687
20907
21073
21246
21397
21475
21524
21599
21652
21631
21587
21570
21533
21442
21354
21307
21250
21152
21067
21025
20968
20870
20790
20741
20655
20521
20406
20321
20205
20057
19950
19881
19784
19669
19608
19588
19535
19459
19430
19424
19375
19316
19316
19345
19343
19339
19389
19450
19464
19469
19512
19550
19542
19531
19549
19544
19482
19423
19396
19333
19209
19098
19029
18940
18817
18721
18660
18563
18421
18315
18256
18168
18046
17959
17904
17810
17693
17621
17569
17464
17331
17242
17170
17052
16922
16841
16768
16646
16519
16443
16378
16277
16189
16154
16113
16021
15934
15889
15828
15725
15636
15583
15500
15372
15266
15203
15120
15013
14962
14981
15004
15033
15154
15371
15608
15862
16196
16593
16974
17349
17771
18207
18583
18916
19259
19580
19823
20023
20234
20419
20532
20618
20723
20799
20809
20808
20837
20840
20783
20724
20691
20629
20518
20419
20352
20253
20109
19987
19900
19784
19624
19486
19378
19233
19060
18930
18839
18718
18585
18510
18471
18397
18316
18296
18312
18295
18277
18316
18379
18408
18438
18516
18591
18612
18631
18691
18732
18720
18712
18743
18757
18722
18690
18683
18641
18548
18470
18422
18343
18226
18140
18085
17992
17862
17770
17721
17637
17520
17439
17385
17291
17179
17115
17075
16991
16890
16837
16798
16711
16608
16551
16503
16411
16320
16270
16213
16114
16027
15987
15929
15813
15710
15662
15605
15507
15428
15391
15332
15237
15172
15154
15128
15100
15150
15292
15457
15649
15933
16292
16644
16996
17406
17846
18239
18603
18996
19383
19691
19951
20226
20485
20673
20821
20976
21097
21139
21153
21190
21200
21148
21096
21080
21043
20961
20902
20891
20854
20764
20684
20637
20558
20433
20327
20248
20132
19977
19854
19767
19649
19510
19421
19371
19293
19200
19160
19149
19096
19036
19037
19070
19077
19082
19132
19192
19213
19232
19296
19353
19355
19355
19394
19414
19378
19347
19357
19343
19276
19220
19203
19156
19057
18978
18941
18880
18782
18713
18672
18587
18467
18392
18348
18260
18136
18048
17982
17877
17761
17702
17661
17567
17456
17395
17354
17272
17184
17141
17093
16990
16889
16832
16764
16647
16544
16486
16412
16294
16198
16151
16086
15982
15902
15863
15798
15706
15669
15701
15744
15810
15980
16245
16519
16805
17170
17591
17991
18381
18810
19244
19612
19940
20289
20622
20877
21087
21308
21502
21617
21701
21800
21866
21862
21843
21851
21838
21775
21720
21704
21665
21579
21514
21486
21428
21328
21247
21191
21094
20953
20841
20757
20634
20479
20364
20286
20172
20034
19950
19903
19821
19730
19701
19699
19660
19616
19629
19663
19659
19656
19706
19753
19747
19742
19779
19798
19766
19747
19775
19781
19733
19700
19705
19684
19624
19593
19599
19569
19490
19433
19405
19339
19237
19165
19111
19011
18878
18785
18719
18616
18496
18427
18380
18289
18186
18131
18090
18006
17910
17853
17793
17684
17581
17529
17465
17351
17249
17191
17122
17008
16912
16869
16816
16727
16663
16639
16587
16494
16427
16399
16342
16254
16205
16195
16162
16128
16181
16312
16448
16611
16871
17203
17534
17888
18312
18758
19153
19521
19910
20286
20594
20872
21155
21391
21539
21658
21790
21880
21899
21910
21946
21946
21884
21830
21819
21792
21724
21676
21661
21616
21533
21477
21449
21377
21257
21164
21089
20967
20819
20717
20641
20520
20377
20285
20223
20128
20035
19999
19979
19916
19852
19842
19842
19804
19777
19802
19821
19793
19774
19804
19823
19799
19792
19826
19836
19804
19794
19819
19812
19759
19726
19720
19667
19566
19491
19443
19353
19232
19157
19111
19018
18896
18820
18767
18667
18552
18487
18434
18332
18220
18158
18102
17997
17892
17838
17779
17672
17570
17513
17438
17312
17202
17146
17079
16967
16880
16842
16783
16690
16631
16611
16552
16449
16379
16344
16272
16166
16099
16057
15968
15853
15798
15793
15779
15788
15896
16079
16271
16504
16831
17207
17567
17935
18351
18762
19111
19440
19799
20135
20404
20645
20888
21080
21196
21291
21390
21433
21407
21384
21385
21347
21264
21206
21174
21098
20978
20888
20823
20715
20578
20485
20414
20280
20104
19967
19856
19702
19531
19403
19288
19131
18976
18881
18798
18675
18567
18523
18488
18415
18368
18387
18415
18413
18436
18511
18575
18594
18633
18714
18762
18754
18761
18799
18801
18759
18744
18755
18721
18647
18609
18603
18552
18465
18414
18384
18309
18210
18153
18117
18036
17937
17880
17830
17729
17615
17547
17485
17387
17297
17254
17203
17101
17007
16957
16894
16786
16694
16640
16560
16431
16325
16267
16184
16059
15962
15901
15805
15671
15569
15493
15369
15215
15115
15061
14982
14900
14897
14961
15028
15131
15338
15619
15908
16226
16614
17026
17403
17781
18197
18595
18929
19250
19588
19880
20088
20286
20506
20682
20787
20881
20989
21051
21049
21049
21069
21046
20972
20916
20883
20806
20691
20612
20566
20482
20372
20304
20252
20147
20014
19921
19833
19693
19536
19428
19338
19211
19098
19055
19031
18973
18939
18971
19010
19013
19035
19110
19176
19199
19245
19335
19394
19403
19435
19503
19530
19498
19478
19486
19462
19401
19372
19374
19335
19271
19252
19255
19205
19124
19080
19042
18946
18831
18762
18706
18605
18490
18407
18321
18193
18075
18008
17934
17809
17689
17618
17545
17431
17335
17289
17228
17131
17065
17044
17001
16914
16847
16809
16731
16613
16531
16486
16407
16299
16233
16205
16142
16061
16036
16052
16051
16071
16188
16379
16582
16821
17150
17525
17877
18237
18653
19073
19439
19794
20170
20506
20763
21001
21249
21451
21583
21708
21845
21929
21944
21961
21997
21990
21935
21907
21913
21878
21802
21758
21740
21674
21573
21512
21470
21374
21242
21142
21056
20927
20786
20692
20609
20480
20347
20270
20209
20111
20036
20032
20039
20005
19987
20024
20056
20045
20051
20099
20123
20100
20095
20132
20148
20127
20135
20174
20171
20122
20102
20111
20076
20002
19960
19935
19865
19767
19712
19676
19590
19480
19407
19345
19230
19101
19022
18953
18838
18719
18646
18575
18458
18347
18286
18215
18097
17992
17931
17855
17734
17638
17596
17534
17429
17353
17318
17250
17146
17082
17057
16991
16888
16824
16790
16715
16613
16557
16522
16437
16332
16282
16265
16222
16202
16281
16423
16567
16754
17040
17377
17706
18068
18498
18931
19316
19704
20124
20513
20837
21148
21460
21706
21866
22012
22171
22279
22328
22388
22465
22491
22463
22450
22454
22412
22333
22290
22272
22209
22122
22079
22054
21977
21873
21805
21739
21615
21478
21389
21308
21181
21056
20986
20918
20809
20714
20670
20621
20530
20464
20451
20424
20357
20320
20337
20339
20303
20295
20332
20340
20312
20319
20368
20384
20364
20375
20410
20398
20350
20332
20327
20269
20185
20142
20106
20013
19906
19853
19810
19718
19618
19562
19502
19383
19256
19175
19093
18967
18848
18769
18673
18526
18393
18301
18183
18021
17895
17825
17738
17622
17547
17519
17455
17351
17280
17239
17157
17048
16987
16948
16859
16747
16686
16649
16569
16479
16444
16424
16353
16266
16225
16189
16106
16030
16020
16031
16027
16076
16233
16444
16671
16965
17348
17743
18108
18506
18951
19363
19716
20069
20427
20722
20949
21171
21387
21532
21616
21711
21813
21852
21846
21866
21892
21858
21787
21753
21737
21678
21603
21570
21537
21448
21349
21296
21242
21133
21014
20927
20814
20643
20484
20378
20260
20104
19982
19923
19860
19770
19724
19739
19738
19706
19709
19751
19762
19738
19751
19792
19789
19756
19766
19799
19778
19723
19705
19706
19660
19598
19579
19569
19509
19431
19390
19343
19238
19123
19048
18958
18813
18673
18581
18478
18326
18189
18098
17994
17852
17739
17672
17575
17432
17313
17228
17109
16955
16845
16776
16668
16532
16449
16411
16343
16254
16212
16192
16114
16003
15932
15870
15757
15627
15547
15485
15383
15284
15243
15202
15103
15000
14945
14882
14778
14700
14686
14681
14660
14703
14849
15034
15235
15519
15892
16270
16632
17039
17491
17908
18279
18664
19056
19381
19646
19923
20198
20394
20528
20671
20793
20835
20833
20851
20860
20807
20733
20697
20656
20561
20466
20418
20359
20247
20140
20082
20006
19864
19721
19617
19491
19319
19168
19060
18929
18766
18640
18566
18480
18376
18328
18335
18321
18288
18310
18375
18403
18413
18470
18547
18572
18574
18623
18685
18691
18673
18696
18721
18690
18656
18672
18685
18641
18591
18578
18544
18446
18343
18277
18192
18057
17945
17883
17800
17669
17558
17489
17394
17262
17168
17114
17022
16893
16807
16759
16675
16563
16496
16451
16354
16235
16165
16114
16010
15885
15807
15743
15633
15513
15440
15372
15254
15137
15073
15006
14890
14788
14745
14702
14624
14586
14637
14718
14812
14993
15280
15597
15916
16301
16753
17187
17582
18000
18435
18809
19127
19456
19779
20024
20204
20392
20569
20671
20732
20816
20890
20895
20871
20878
20884
20833
20769
20745
20713
20629
20545
20506
20450
20335
20225
20164
20086
19952
19824
19724
19589
19406
19246
19132
19001
18849
18749
18706
18647
18574
18564
18605
18618
18606
18642
18715
18756
18777
18841
18919
18941
18937
18970
19010
18996
18968
18985
19000
18962
18918
18914
18892
18811
18727
18677
18595
18450
18320
18236
18129
17979
17860
17798
17718
17603
17525
17495
17430
17321
17246
17203
17119
17004
16932
16890
16802
16683
16609
16564
16478
16371
16304
16251
16150
16040
15989
15954
15875
15785
15732
15669
15560
15464
15424
15379
15294
15247
15292
15371
15459
15630
15910
16220
16528
16901
17346
17779
18180
18612
19070
19478
19830
20193
20557
20846
21068
21297
21517
21660
21750
21854
21942
21951
21916
21911
21907
21849
21778
21754
21731
21659
21584
21556
21524
21440
21355
21305
21235
21114
20998
20916
20802
20632
20488
20398
20291
20149
20042
19981
19902
19802
19748
19737
19696
19633
19621
19653
19658
19647
19689
19762
19796
19810
19864
19927
19936
19924
19949
19969
19933
19878
19853
19813
19717
19627
19587
19535
19430
19345
19318
19273
19176
19092
19049
18981
18864
18771
18721
18642
18519
18427
18372
18278
18147
18055
17999
17901
17769
17680
17615
17500
17362
17278
17218
17112
16990
16921
16873
16780
16685
16643
16605
16511
16407
16348
16292
16200
16131
16125
16126
16113
16158
16299
16470
16654
16923
17289
17669
18032
18440
18894
19315
19690
20077
20470
20798
21061
21326
21576
21747
21861
21982
22087
22118
22114
22138
22160
22122
22068
22057
22053
22001
21942
21928
21909
21831
21743
21688
21613
21485
21362
21273
21154
20979
20821
20711
20591
20441
20330
20272
20193
20086
20021
20005
19964
19897
19875
19891
19879
19856
19889
19948
19958
19943
19970
20014
20012
19993
20014
20041
20017
19981
19985
19983
19923
19851
19821
19774
19667
19566
19514
19451
19351
19271
19229
19156
19032
18927
18865
18778
18655
18564
18510
18415
18272
18158
18076
17948
17783
17663
17578
17456
17314
17227
17172
17075
16959
16894
16850
16757
16646
16571
16495
16366
16232
16148
16066
15938
15817
15743
15661
15535
15429
15391
15378
15373
15445
15628
15857
16105
16435
16849
17267
17668
18109
18579
19003
19380
19777
20177
20500
20752
20999
21229
21379
21468
21564
21647
21654
21618
21602
21577
21497
21407
21365
21326
21237
21144
21096
21042
20931
20815
20732
20624
20457
20298
20173
20020
19821
19646
19512
19356
19178
19050
18979
18895
18795
18757
18777
18774
18757
18797
18870
18901
18913
18977
19065
19100
19111
19166
19234
19249
19244
19276
19296
19245
19173
19142
19104
19014
18930
18894
18839
18722
18615
18557
18480
18354
18249
18186
18096
17963
17855
17791
17702
17584
17509
17477
17411
17312
17248
17209
17123
17009
16938
16886
16781
16644
16547
16468
16346
16215
16130
16045
15902
15748
15641
15536
15386
15243
15157
15076
14968
14905
14937
15017
15121
15312
15617
15966
16319
16729
17198
17644
18044
18459
18893
19271
19583
19898
20215
20452
20621
20799
20976
21082
21133
21199
21260
21252
21204
21180
21156
21074
20972
20909
20845
20722
20586
20488
20376
20203
20027
19892
19743
19539
19341
19187
19023
18828
18670
18577
18486
18379
18324
18334
18333
18308
18328
18394
18432
18448
18512
18610
18668
18694
18757
18845
18889
18909
18964
19022
19014
18978
18981
18987
18937
18871
18847
18819
18740
18664
18633
18590
18493
18404
18367
18317
18219
18137
18094
18023
17904
17807
17752
17669
17542
17444
17386
17297
17178
17099
17057
16971
16845
16754
16689
16581
16451
16369
16306
16199
16081
16017
15973
15890
15811
15810
15855
15898
15996
16200
16460
16730
17056
17470
17901
18295
18706
19162
19591
19958
20325
20703
21019
21256
21486
21723
21893
21988
22080
22174
22209
22196
22205
22226
22191
22118
22081
22068
22009
21923
21878
21843
21749
21630
21545
21452
21294
21116
20980
20847
20674
20516
20416
20315
20170
20043
19975
19913
19828
19778
19790
19799
19777
19786
19842
19876
19877
19912
19986
20025
20022
20051
20114
20138
20121
20129
20157
20143
20102
20093
20092
20038
19961
19925
19896
19814
19723
19680
19639
19548
19454
19404
19347
19234
19129
19076
19012
18893
18787
18732
18663
18548
18449
18392
18307
18176
18072
18009
17913
17778
17684
17629
17535
17405
17318
17260
17157
17037
16990
17000
16999
17024
17158
17373
17603
17872
18231
18634
19018
19414
19860
20298
20666
21007
21361
21674
21905
22115
22340
22519
22619
22708
22813
22871
22859
22850
22862
22832
22747
22682
22651
22582
22466
22379
22326
22243
22137
22073
22033
21942
21816
21727
21652
21528
21379
21272
21181
21047
20915
20845
20794
20709
20640
20637
20646
20619
20607
20650
20693
20699
20723
20796
20856
20869
20897
20959
20984
20958
20947
20967
20951
20887
20845
20824
20764
20675
20625
20595
20514
20406
20345
20308
20222
20103
20020
19945
19812
19662
19559
19471
19340
19210
19134
19057
18926
18796
18717
18633
18503
18392
18334
18253
18116
18000
17941
17870
17760
17677
17641
17587
17508
17478
17516
17559
17615
17769
18015
18274
18552
18913
19328
19715
20086
20504
20937
21318
21669
22044
22406
22692
22934
23182
23392
23511
23592
23693
23766
23780
23804
23869
23898
23860
23829
23838
23827
23771
23735
23741
23720
23654
23606
23587
23531
23424
23334
23263
23138
22966
22829
22730
22608
22477
22409
22382
22329
22275
22273
22293
22275
22251
22280
22322
22315
22301
22333
22368
22362
22361
22411
22456
22452
22452
22488
22497
22456
22429
22444
22433
22371
22321
22303
22250
22154
22090
22057
21982
21868
21786
21730
21628
21497
21419
21379
21294
21185
21126
21093
21013
20915
20866
20831
20740
20631
20568
20513
20409
20307
20260
20210
20105
20012
19981
19958
19915
19921
20014
20134
20255
20441
20709
20986
21255
21575
21941
22279
22578
22899
23243
23535
23772
24017
24256
24420
24529
24649
24760
24797
24788
24808
24835
24810
24767
24767
24775
24731
24676
24661
24642
24571
24490
24444
24384
24277
24179
24122
24044
23915
23800
23727
23633
23502
23407
23366
23306
23215
23165
23161
23131
23074
23053
23059
23023
22965
22958
22985
22972
22937
22946
22982
22975
22952
22974
23004
22977
22934
22936
22945
22908
22866
22862
22847
22774
22695
22654
22592
22474
22361
22288
22194
22059
21955
21904
21834
21723
21638
21595
21523
21408
21321
21267
21171
21039
20947
20888
20787
20662
20583
20527
20426
20311
20252
20226
20176
20143
20196
20305
20415
20564
20803
21083
21350
21641
21992
22347
22664
22993
23355
23685
23950
24212
24494
24729
24892
25046
25204
25301
25333
25374
25432
25439
25398
25385
25398
25366
25302
25279
25281
25243
25183
25159
25138
25059
24956
24895
24844
24741
24618
24531
24439
24300
24168
24092
24022
23914
23819
23781
23741
23665
23622
23641
23658
23642
23652
23706
23733
23710
23703
23734
23736
23702
23700
23727
23710
23656
23644
23665
23645
23595
23585
23592
23545
23470
23439
23424
23358
23268
23215
23166
23065
22958
22895
22825
22705
22589
22527
22468
22371
22290
22261
22219
22129
22054
22018
21956
21848
21758
21708
21629
21509
21421
21374
21295
21182
21110
21076
21007
20911
20856
20824
20750
20651
20604
20599
20582
20588
20684
20838
20993
21190
21480
21817
22136
22462
22834
23202
23512
23813
24143
24437
24653
24857
25082
25259
25365
25465
25583
25653
25664
25685
25726
25717
25657
25625
25626
25587
25515
25484
25481
25428
25339
25285
25252
25174
25068
25001
24953
24858
24746
24674
24606
24488
24367
24301
24245
24149
24062
24033
24012
23960
23931
23963
23989
23971
23976
24024
24039
24004
23996
24029
24032
23992
23976
23997
23987
23941
23926
23940
23912
23849
23823
23821
23773
23693
23649
23617
23530
23416
23341
23274
23155
23024
22943
22878
22775
22678
22630
22583
22496
22417
22384
22343
22255
22178
22138
22074
21974
21902
21875
21818
21719
21648
21618
21557
21461
21395
21363
21296
21196
21141
21123
21065
20974
20923
20902
20846
20777
20762
20772
20740
20698
20713
20755
20777
20830
20974
21162
21343
21567
21872
22191
22474
22779
23140
23487
23781
24080
24406
24682
24879
25064
25262
25406
25482
25558
25645
25676
25655
25658
25683
25661
25596
25560
25551
25508
25445
25419
25399
25319
25210
25136
25072
24957
24826
24735
24645
24506
24368
24280
24198
24087
24001
23973
23944
23878
23839
23859
23870
23846
23844
23877
23882
23850
23849
23889
23895
23858
23852
23884
23886
23857
23869
23909
23900
23853
23834
23824
23758
23664
23610
23566
23470
23358
23292
23245
23161
23074
23030
22991
22907
22824
22785
22733
22634
22544
22499
22441
22343
22268
22245
22202
22116
22054
22033
21983
21894
21835
21811
21746
21637
21558
21515
21446
21359
21316
21298
21237
21155
21122
21111
21050
20969
20933
20915
20858
20800
20804
20839
20865
20932
21087
21275
21454
21677
21979
22284
22540
22811
23127
23423
23671
23927
24200
24414
24553
24690
24841
24943
24989
25045
25114
25126
25085
25070
25079
25044
24979
24951
24938
24869
24769
24709
24664
24566
24439
24349
24265
24135
23999
23910
23820
23683
23554
23481
23413
23313
23237
23219
23198
23142
23119
23155
23180
23169
23188
23248
23279
23277
23309
23373
23396
23378
23392
23434
23435
23402
23405
23435
23417
23368
23358
23366
23322
23252
23223
23202
23128
23038
22987
22939
22844
22742
22684
22623
22519
22427
22386
22331
22228
22139
22093
22035
21936
21859
21827
21769
21670
21600
21571
21512
21415
21345
21303
21218
21099
21023
20982
20904
20800
20743
20715
20651
20575
20551
20548
20502
20453
20473
20530
20576
20659
20834
21049
21240
21456
21744
22048
22321
22612
22950
23266
23520
23772
24045
24275
24442
24611
24799
24937
25011
25097
25204
25257
25254
25265
25287
25259
25196
25168
25157
25097
25011
24964
24931
24845
24741
24683
24633
24528
24406
24328
24260
24149
24035
23965
23892
23779
23687
23655
23622
23552
23507
23518
23519
23480
23464
23495
23508
23485
23492
23534
23541
23509
23510
23545
23540
23495
23483
23498
23473
23428
23431
23455
23423
23353
23317
23294
23224
23141
23106
23075
22992
22904
22865
22825
22727
22620
22558
22488
22374
22278
22244
22209
22134
22074
22053
22003
21900
21815
21768
21690
21572
21489
21445
21369
21257
21182
21145
21072
20973
20919
20894
20826
20737
20698
20686
20628
20548
20517
20501
20436
20364
20351
20364
20360
20395
20524
20694
20856
21066
21368
21700
22016
22361
22755
23127
23439
23748
24073
24347
24554
24761
24980
25140
25231
25325
25432
25487
25495
25528
25578
25584
25563
25585
25619
25588
25521
25488
25464
25387
25286
25223
25161
25046
24922
24841
24759
24629
24507
24444
24386
24286
24198
24155
24104
24017
23958
23950
23922
23852
23813
23822
23806
23754
23737
23763
23760
23725
23730
23768
23766
23736
23754
23801
23803
23773
23783
23805
23771
23714
23696
23679
23601
23501
23442
23390
23295
23206
23170
23131
23044
22968
22942
22905
22819
22738
22690
22615
22489
22383
22321
22235
22112
22019
21964
21875
21746
21652
21596
21510
21402
21343
21318
21251
21157
21107
21083
21012
20919
20873
20844
20762
20665
20616
20576
20489
20399
20363
20329
20250
20192
20209
20239
20241
20295
20453
20646
20833
21078
21402
21725
22010
22322
22681
23015
23308
23626
23963
24240
24458
24687
24918
25071
25165
25278
25395
25442
25442
25468
25508
25495
25457
25460
25465
25409
25341
25319
25298
25223
25135
25080
25013
24889
24761
24675
24578
24431
24295
24207
24104
23961
23849
23793
23722
23617
23550
23537
23503
23439
23416
23434
23417
23366
23361
23396
23396
23373
23395
23439
23437
23413
23431
23457
23425
23367
23347
23337
23276
23203
23177
23150
23066
22975
22924
22863
22758
22668
22629
22572
22459
22355
22293
22207
22076
21969
21911
21838
21738
21670
21640
21577
21473
21405
21374
21299
21190
21120
21075
20983
20862
20781
20715
20598
20463
20381
20324
20228
20130
20089
20063
19992
19916
19883
19845
19754
19664
19616
19553
19446
19372
19369
19376
19375
19445
19616
19819
20023
20294
20636
20969
21275
21621
21997
22325
22607
22913
23229
23481
23678
23884
24078
24198
24274
24376
24473
24496
24482
24495
24503
24446
24369
24335
24302
24217
24130
24085
24026
23913
23800
23722
23619
23460
23309
23195
23056
22875
22723
22620
22504
22365
22273
22238
22188
22116
22090
22106
22086
22033
22020
22033
22008
21958
21955
21982
21970
21947
21978
22028
22026
21999
22008
22017
21971
21919
21911
21896
21834
21780
21768
21739
21658
21577
21532
21467
21357
21271
21230
21163
21050
20966
20928
20863
20764
20702
20678
20608
20490
20404
20347
20240
20097
19999
19931
19820
19686
19599
19539
19435
19313
19239
19175
19056
18927
18849
18783
18678
18580
18535
18484
18379
18282
18243
18208
18147
18135
18210
18314
18420
18600
18876
19169
19455
19797
20192
20561
20891
21242
21605
21906
22155
22423
22689
22875
23003
23152
23305
23396
23444
23513
23573
23569
23539
23541
23534
23464
23375
23323
23261
23141
23016
22930
22830
22678
22537
22440
22321
22155
22014
21921
21809
21661
21548
21485
21404
21293
21227
21208
21168
21110
21110
21161
21182
21180
21221
21283
21296
21285
21317
21361
21348
21306
21298
21296
21246
21192
21190
21186
21124
21059
21045
21031
20971
20918
20910
20884
20799
20724
20696
20652
20568
20503
20474
20409
20293
20201
20148
20064
19949
19873
19831
19742
19609
19517
19461
19369
19257
19194
19161
19087
18993
18941
18903
18818
18722
18675
18632
18532
18424
18364
18305
18202
18119
18110
18117
18105
18153
18308
18505
18711
18986
19344
19707
20048
20421
20830
21197
21505
21817
22137
22397
22594
22801
23012
23153
23237
23338
23443
23482
23476
23495
23513
23471
23406
23382
23366
23297
23211
23163
23107
22994
22873
22786
22679
22515
22353
22234
22106
21940
21795
21704
21605
21474
21387
21362
21324
21257
21239
21274
21287
21271
21294
21351
21365
21341
21353
21390
21386
21365
21395
21450
21458
21439
21459
21492
21474
21436
21434
21433
21377
21320
21318
21317
21265
21218
21215
21193
21116
21051
21036
21002
20913
20831
20787
20718
20606
20522
20477
20401
20279
20183
20125
20040
19929
19864
19839
19780
19695
19650
19619
19529
19405
19324
19261
19152
19033
18972
18925
18824
18713
18661
18631
18574
18549
18616
18729
18847
19038
19342
19686
20022
20397
20827
21238
21602
21977
22375
22717
22986
23251
23529
23747
23893
24039
24192
24282
24318
24372
24439
24450
24421
24419
24425
24372
24289
24245
24209
24115
23996
23916
23844
23724
23600
23530
23460
23338
23217
23142
23055
22921
22803
22748
22693
22600
22529
22512
22486
22428
22409
22445
22460
22435
22445
22498
22518
22503
22523
22571
22574
22542
22550
22587
22583
22554
22565
22586
22552
22493
22475
22467
22408
22337
22310
22284
22205
22128
22103
22073
21989
21914
21893
21862
21785
21720
21698
21650
21548
21463
21422
21360
21261
21191
21158
21090
20978
20898
20863
20794
20692
20627
20585
20495
20375
20302
20257
20168
20061
20001
19958
19867
19772
19746
19760
19761
19791
19906
20067
20227
20437
20736
21055
21345
21659
22024
22370
22662
22966
23305
23599
23820
24043
24284
24466
24574
24682
24806
24873
24881
24900
24929
24904
24837
24801
24786
24718
24619
24559
24512
24406
24270
24171
24083
23945
23790
23678
23567
23405
23244
23136
23033
22900
22794
22751
22709
22631
22570
22555
22529
22466
22431
22441
22428
22380
22368
22402
22413
22389
22396
22434
22434
22404
22414
22451
22441
22395
22383
22383
22326
22247
22216
22203
22136
22042
21991
21948
21854
21757
21710
21668
21578
21485
21430
21358
21233
21117
21052
20974
20848
20738
20680
20606
20489
20396
20348
20270
20150
20063
20025
19961
19861
19798
19772
19705
19602
19544
19516
19441
19337
19282
19254
19177
19078
19030
19006
18942
18875
18870
18892
18893
18929
19058
19230
19395
19602
19887
20185
20455
20757
21120
21472
21774
22085
22425
22723
22956
23190
23437
23624
23737
23854
23981
24043
24040
24051
24066
24013
23917
23860
23834
23769
23675
23616
23569
23470
23351
23273
23198
23073
22937
22843
22748
22601
22453
22354
22253
22115
22005
21959
21912
21832
21780
21779
21762
21710
21695
21729
21743
21721
21733
21781
21790
21756
21762
21810
21818
21786
21787
21810
21784
21723
21701
21700
21644
21562
21523
21493
21409
21315
21269
21226
21126
21023
20977
20931
20832
20743
20713
20674
20580
20494
20453
20389
20273
20180
20137
20068
19947
19848
19798
19725
19617
19547
19520
19453
19340
19266
19227
19144
19026
18950
18893
18790
18675
18617
18582
18505
18425
18417
18451
18469
18516
18656
18841
19012
19220
19508
19808
20070
20353
20688
21003
21255
21514
21812
22073
22264
22452
22655
22800
22870
22941
23029
23062
23033
23018
23020
22974
22894
22849
22829
22762
22659
22594
22551
22460
22340
22255
22176
22039
21883
21772
21668
21513
21362
21277
21209
21107
21026
21012
21000
20947
20916
20942
20953
20921
20916
20961
20986
20971
20990
21056
21095
21094
21123
21185
21201
21169
21170
21196
21169
21106
21089
21100
21060
20990
20965
20952
20881
20790
20749
20721
20643
20548
20494
20441
20340
20248
20223
20202
20129
20068
20062
20048
19984
19929
19913
19870
19770
19685
19640
19564
19439
19346
19301
19227
19118
19055
19040
18986
18894
18850
18839
18777
18691
18670
18700
18707
18727
18844
19028
19208
19422
19726
20066
20374
20689
21059
21421
21720
22013
22344
22641
22863
23074
23306
23487
23586
23676
23786
23842
23823
23807
23815
23779
23689
23621
23588
23521
23424
23376
23372
23324
23232
23174
23132
23024
22877
22772
22686
22551
22404
22320
22262
22164
22063
22023
22006
21953
21907
21917
21925
21880
21851
21895
21943
21948
21970
22036
22076
22067
22080
22134
22154
22123
22115
22142
22134
22085
22064
22069
22024
21942
21907
21903
21847
21765
21738
21737
21681
21596
21554
21528
21444
21341
21290
21247
21152
21049
21001
20965
20891
20825
20807
20772
20680
20596
20556
20500
20402
20328
20299
20246
20149
20083
20064
20014
19925
19878
19876
19835
19757
19730
19754
19750
19737
19801
19933
20059
20201
20431
20716
20976
21235
21560
21913
22223
22515
22847
23174
23430
23655
23906
24122
24248
24345
24467
24558
24579
24593
24639
24650
24603
24571
24576
24546
24463
24404
24382
24325
24226
24158
24121
24039
23911
23816
23750
23635
23486
23387
23321
23217
23103
23047
23018
22945
22863
22839
22835
22787
22742
22763
22793
22770
22748
22779
22802
22776
22769
22813
22836
22804
22791
22832
22857
22832
22822
22843
22818
22741
22690
22672
22615
22519
22456
22422
22341
22224
22146
22103
22025
21928
21882
21856
21778
21681
21634
21603
21520
21424
21378
21339
21249
21159
21118
21071
20973
20890
20863
20829
20751
20692
20681
20644
20555
20486
20463
20415
20323
20257
20231
20169
20063
19997
19978
19931
19861
19846
19877
19883
19881
19951
20083
20206
20341
20564
20842
21102
21378
21726
22101
22435
22758
23122
23478
23768
24035
24324
24572
24731
24868
25024
25134
25162
25178
25218
25225
25180
25158
25185
25187
25146
25136
25167
25159
25110
25091
25099
25058
24976
24918
24868
24756
24607
24501
24418
24287
24138
24042
23971
23865
23761
23717
23685
23605
23522
23490
23461
23395
23354
23377
23395
23364
23349
23387
23409
23381
23373
23407
23410
23361
23334
23340
23306
23230
23187
23176
23121
23025
22966
22935
22854
22738
22666
22615
22508
22374
22291
22231
22123
22002
21935
21884
21787
21685
21636
21588
21490
21396
21354
21304
21204
21119
21092
21054
20966
20895
20871
20825
20728
20654
20628
20579
20489
20434
20422
20375
20291
20251
20255
20218
20143
20110
20102
20038
19949
19916
19913
19862
19793
19779
19783
19739
19680
19665
19651
19582
19515
19511
19523
19510
19539
19664
19828
19988
20201
20493
20795
21076
21394
21764
22109
22404
22716
23059
23357
23594
23833
24073
24244
24354
24481
24607
24653
24640
24655
24684
24658
24602
24592
24601
24556
24493
24476
24467
24399
24310
24265
24219
24116
24004
23939
23867
23741
23622
23554
23475
23343
23229
23173
23107
22997
22916
22888
22842
22762
22727
22752
22757
22730
22742
22788
22799
22781
22806
22853
22847
22801
22792
22812
22796
22762
22775
22797
22751
22679
22654
22632
22548
22454
22406
22355
22253
22157
22112
22055
21946
21848
21790
21708
21576
21470
21422
21361
21263
21200
21192
21156
21071
21013
20995
20943
20861
20825
20823
20776
20689
20638
20616
20558
20483
20457
20455
20407
20344
20333
20332
20274
20201
20179
20165
20100
20032
20019
20005
19937
19879
19880
19872
19812
19761
19756
19728
19647
19585
19567
19519
19423
19360
19355
19338
19301
19327
19425
19523
19626
19812
20071
20316
20557
20868
21224
21543
21845
22200
22567
22866
23127
23409
23672
23854
23998
24159
24285
24322
24334
24375
24394
24353
24313
24314
24294
24223
24173
24170
24139
24054
23987
23959
23897
23782
23687
23626
23529
23391
23289
23221
23107
22966
22880
22823
22718
22599
22543
22520
22460
22390
22384
22408
22396
22379
22417
22471
22482
22488
22541
22582
22559
22536
22554
22554
22495
22445
22440
22418
22349
22300
22296
22267
22196
22156
22159
22126
22043
21986
21962
21896
21789
21717
21677
21596
21488
21431
21407
21332
21227
21167
21129
21038
20933
20883
20845
20754
20657
20616
20580
20493
20413
20389
20355
20269
20201
20199
20190
20130
20088
20097
20082
20011
19960
19954
19917
19830
19770
19750
19693
19603
19565
19569
19523
19434
19388
19375
19318
19230
19184
19156
19076
18980
18949
18950
18919
18904
18974
19089
19194
19339
19575
19844
20093
20377
20743
21120
21453
21799
22188
22550
22844
23126
23421
23657
23810
23953
24100
24184
24200
24228
24275
24266
24208
24187
24201
24174
24110
24079
24067
24008
23929
23896
23873
23786
23671
23598
23531
23411
23278
23194
23115
22983
22852
22768
22679
22553
22456
22421
22378
22289
22223
22213
22193
22139
22121
22153
22164
22140
22152
22206
22220
22184
22176
22192
22158
22090
22068
22070
22018
21936
21904
21897
21841
21765
21737
21720
21642
21546
21499
21462
21376
21281
21229
21174
21067
20966
20916
20854
20741
20650
20620
20573
20473
20389
20352
20290
20184
20101
20053
19973
19861
19792
19765
19695
19588
19538
19540
19509
19451
19438
19446
19402
19331
19313
19318
19270
19196
19163
19132
19038
18933
18885
18847
18759
18678
18661
18644
18573
18511
18506
18489
18420
18363
18351
18322
18251
18215
18246
18279
18304
18408
18607
18823
19046
19349
19718
20069
20406
20799
21222
21589
21908
22252
22598
22872
23094
23328
23540
23666
23744
23837
23910
23908
23885
23899
23905
23861
23823
23831
23825
23768
23727
23736
23716
23640
23581
23557
23494
23378
23282
23223
23127
22981
22863
22787
22684
22554
22467
22413
22315
22187
22112
22081
22019
21945
21931
21945
21918
21885
21911
21951
21940
21917
21942
21969
21943
21913
21928
21933
21880
21832
21837
21831
21779
21740
21744
21720
21636
21564
21536
21481
21379
21303
21267
21194
21081
21008
20974
20898
20788
20723
20689
20606
20493
20424
20380
20286
20170
20100
20041
19925
19791
19711
19638
19506
19374
19304
19235
19112
18997
18944
18885
18779
18698
18679
18640
18542
18469
18451
18408
18314
18250
18237
18193
18101
18040
18018
17962
17873
17827
17814
17750
17642
17582
17559
17490
17397
17358
17341
17273
17196
17197
17245
17277
17343
17502
17711
17918
18173
18521
18895
19244
19625
20070
20502
20869
21227
21603
21927
22170
22403
22650
22835
22936
23027
23128
23167
23143
23140
23163
23141
23084
23069
23083
23048
22977
22943
22926
22855
22755
22694
22648
22547
22425
22347
22271
22141
22007
21927
21852
21731
21614
21561
21520
21435
21358
21332
21290
21200
21138
21130
21102
21032
20997
21009
20991
20937
20926
20962
20960
20919
20919
20952
20927
20857
20827
20825
20777
20705
20680
20673
20611
20520
20473
20440
20354
20257
20220
20190
20103
20007
19956
19895
19777
19657
19585
19501
19368
19252
19188
19105
18971
18867
18820
18751
18634
18545
18501
18424
18304
18224
18186
18110
17996
17927
17895
17821
17720
17673
17653
17581
17484
17437
17407
17321
17220
17174
17134
17031
16917
16862
16810
16700
16591
16536
16473
16360
16269
16249
16230
16184
16200
16320
16469
16621
16848
17163
17485
17793
18154
18573
18964
19312
19681
20063
20376
20626
20889
21147
21324
21443
21580
21713
21768
21777
21813
21841
21797
21724
21692
21660
21570
21477
21435
21389
21287
21188
21138
21071
20948
20833
20764
20669
20511
20367
20272
20158
20003
19883
19811
19711
19574
19487
19456
19399
19318
19295
19317
19301
19268
19301
19374
19396
19385
19420
19479
19481
19459
19479
19498
19455
19399
19394
19389
19330
19267
19249
19219
19135
19064
19044
19002
18898
18805
18757
18680
18554
18457
18407
18330
18213
18132
18089
18001
17868
17773
17722
17637
17525
17461
17427
17343
17229
17165
17128
17040
16929
16874
16837
16743
16636
16590
16555
16466
16367
16315
16257
16140
16030
15982
15927
15812
15714
15675
15624
15534
15490
15524
15561
15584
15678
15868
16072
16275
16557
16921
17273
17606
17994
18412
18778
19098
19445
19800
20087
20327
20588
20833
20990
21100
21234
21354
21397
21404
21436
21453
21401
21338
21319
21289
21200
21118
21087
21036
20925
20825
20771
20683
20535
20407
20321
20200
20031
19894
19800
19671
19500
19374
19300
19198
19077
19021
19021
18990
18943
18954
19000
19001
18985
19025
19081
19081
19066
19101
19144
19131
19105
19126
19144
19104
19065
19080
19082
19024
18974
18969
18939
18852
18778
18740
18666
18539
18436
18376
18282
18143
18038
17974
17879
17755
17673
17618
17513
17381
17309
17273
17188
17073
17011
16975
16888
16775
16708
16655
16549
16431
16368
16314
16209
16111
16073
16029
15934
15854
15827
15780
15672
15586
15558
15509
15412
15342
15320
15266
15171
15125
15149
15181
15234
15393
15650
15926
16223
16606
17054
17482
17898
18370
18861
19288
19667
20060
20434
20723
20957
21200
21415
21540
21624
21726
21799
21800
21792
21822
21828
21770
21719
21717
21695
21618
21554
21529
21474
21364
21278
21234
21151
21011
20893
20807
20682
20520
20404
20330
20216
20071
19982
19938
19856
19753
19710
19703
19655
19596
19596
19617
19591
19559
19583
19611
19586
19566
19603
19632
19602
19582
19622
19652
19627
19613
19642
19639
19574
19524
19514
19469
19366
19287
19249
19174
19058
18984
18946
18856
18722
18632
18575
18469
18336
18257
18204
18097
17967
17892
17843
17744
17630
17565
17501
17377
17247
17168
17091
16963
16847
16791
16731
16622
16536
16516
16486
16406
16341
16318
16266
16161
16079
16036
15951
15819
15725
15683
15615
15523
15499
15558
15631
15733
15942
16235
16532
16857
17273
17738
18168
18583
19045
19506
19890
20232
20593
20927
21178
21398
21641
21848
21975
22080
22205
22293
22310
22322
22364
22372
22320
22279
22278
22248
22169
22113
22095
22042
21944
21873
21828
21734
21597
21494
21412
21272
21098
20977
20885
20749
20596
20501
20431
20318
20207
20166
20149
20092
20041
20053
20069
20028
19987
20002
20019
19991
19980
20022
20047
20019
20008
20044
20057
20019
20003
20026
20008
19934
19884
19866
19805
19695
19613
19554
19440
19290
19190
19129
19027
18900
18829
18788
18700
18595
18543
18503
18399
18272
18193
18119
17990
17855
17773
17692
17561
17438
17373
17308
17203
17118
17084
17027
16908
16805
16747
16660
16526
16422
16362
16264
16121
16022
15969
15875
15742
15658
15619
15546
15455
15430
15462
15482
15525
15680
15923
16182
16486
16891
17340
17758
18183
18660
19130
19532
19907
20295
20636
20891
21126
21378
21577
21687
21781
21894
21954
21943
21946
21987
21988
21933
21897
21890
21841
21749
21690
21666
21598
21490
21418
21367
21259
21118
21022
20943
20800
20627
20502
20396
20248
20099
20014
19944
19828
19717
19668
19633
19565
19515
19522
19522
19478
19459
19502
19536
19520
19526
19580
19602
19569
19560
19594
19593
19547
19531
19548
19510
19422
19370
19352
19286
19186
19130
19097
19009
18894
18827
18781
18679
18556
18480
18409
18278
18138
18049
17961
17817
17675
17593
17504
17357
17227
17163
17092
16969
16864
16808
16724
16590
16487
16440
16372
16260
16178
16138
16058
15929
15834
15778
15678
15544
15460
15409
15317
15215
15195
15238
15276
15353
15550
15826
16101
16412
16821
17275
17698
18122
18586
19025
19383
19715
20065
20361
20562
20739
20937
21085
21146
21198
21275
21310
21286
21278
21301
21277
21198
21147
21130
21069
20966
20899
20861
20768
20629
20526
20436
20281
20093
19951
19825
19648
19458
19326
19223
19087
18961
18906
18868
18789
18728
18733
18737
18698
18685
18738
18785
18788
18815
18897
18948
18940
18948
19001
19025
18998
18994
19027
19022
18976
18962
18978
18942
18859
18814
18790
18710
18600
18541
18502
18403
18275
18195
18127
18001
17864
17782
17711
17591
17469
17403
17335
17203
17067
16983
16890
16744
16610
16526
16423
16270
16144
16079
15998
15871
15773
15719
15626
15481
15369
15303
15204
15071
14989
14953
14888
14813
14817
14892
14968
15082
15314
15629
15946
16292
16727
17196
17625
18046
18504
18944
19307
19644
20001
20319
20550
20754
20974
21147
21238
21321
21430
21493
21479
21462
21468
21434
21349
21288
21251
21165
21036
20941
20881
20775
20630
20523
20439
20297
20117
19979
19865
19707
19541
19437
19355
19228
19101
19043
19012
18950
18905
18931
18970
18967
18977
19040
19092
19094
19112
19181
19229
19220
19230
19286
19312
19286
19284
19324
19327
19277
19252
19265
19234
19155
19109
19092
19025
18918
18849
18798
18692
18562
18485
18433
18331
18209
18137
18076
17961
17836
17767
17700
17576
17448
17370
17295
17177
17073
17028
16975
16871
16784
16751
16697
16591
16506
16466
16392
16267
16177
16132
16052
15936
15872
15869
15859
15864
15973
16175
16384
16620
16960
17374
17773
18174
18638
19118
19536
19920
20321
20701
21001
21260
21527
21751
21884
21990
22117
22206
22225
22238
22278
22285
22233
22187
22175
22141
22069
22017
21991
21921
21796
21691
21622
21515
21360
21227
21120
20978
20815
20708
20643
20539
20414
20337
20282
20184
20077
20032
20019
19983
19953
19975
20000
19974
19951
19991
20039
20046
20066
20135
20181
20170
20172
20217
20235
20197
20173
20183
20160
20089
20042
20026
19967
19863
19792
19756
19673
19549
19468
19423
19330
19202
19120
19060
18949
18827
18766
18723
18625
18508
18440
18380
18265
18141
18071
18003
17883
17766
17704
17639
17527
17431
17391
17337
17231
17142
17098
17029
16916
16840
16834
16833
16835
16925
17115
17330
17571
17907
18320
18721
19114
19566
20041
20456
20824
21207
21581
21884
22142
22417
22666
22828
22948
23087
23199
23230
23232
23258
23260
23196
23133
23118
23089
23011
22945
22915
22857
22746
22653
22595
22507
22375
22271
22202
22096
21952
21843
21768
21654
21511
21420
21369
21275
21163
21111
21094
21038
20967
20952
20963
20936
20909
20944
20992
20986
20970
21006
21045
21031
21018
21051
21066
21019
20976
20981
20967
20896
20843
20836
20797
20705
20628
20583
20499
20368
20265
20200
20102
19971
19882
19821
19712
19572
19484
19429
19327
19201
19130
19080
18977
18853
18782
18734
18643
18546
18500
18458
18356
18246
18185
18117
17994
17882
17825
17754
17627
17518
17465
17401
17296
17227
17224
17216
17190
17239
17390
17572
17777
18077
18462
18843
19214
19643
20117
20550
20942
21352
21756
22086
22369
22675
22967
23177
23339
23520
23686
23776
23828
23899
23945
23925
23896
23900
23882
23812
23756
23749
23728
23661
23610
23600
23561
23466
23385
23338
23256
23126
23024
22957
22848
22694
22575
22498
22391
22266
22195
22161
22096
22025
22011
22027
22007
21978
22000
22038
22031
22015
22040
22063
22031
21994
21998
21988
21924
21874
21878
21870
21817
21777
21777
21753
21679
21616
21583
21511
21381
21267
21187
21073
20917
20798
20716
20592
20437
20334
20269
20159
20024
19947
19903
19810
19694
19626
19576
19475
19356
19286
19232
19133
19031
18982
18935
18845
18769
18743
18704
18613
18532
18499
18452
18366
18307
18297
18267
18198
18174
18223
18282
18347
18505
18764
19039
19319
19672
20086
20470
20819
21199
21594
21929
22217
22523
22817
23032
23195
23372
23532
23617
23666
23741
23801
23798
23781
23795
23789
23733
23688
23687
23665
23586
23517
23498
23459
23367
23283
23230
23141
23001
22885
22803
22682
22519
22397
22322
22225
22113
22057
22041
21988
21916
21901
21920
21903
21876
21907
21965
21982
21994
22065
22146
22170
22178
22221
22259
22242
22214
22216
22199
22128
22065
22046
22011
21932
21877
21870
21840
21766
21706
21671
21593
21464
21363
21309
21234
21129
21067
21038
20959
20843
20773
20740
20666
20567
20514
20481
20400
20301
20246
20200
20096
19971
19894
19832
19732
19642
19609
19573
19483
19393
19348
19291
19191
19113
19093
19065
19010
19013
19110
19233
19363
19574
19876
20192
20503
20867
21276
21645
21968
22316
22678
22979
23229
23495
23750
23926
24048
24183
24308
24366
24393
24449
24501
24495
24473
24486
24485
24421
24351
24323
24283
24194
24116
24080
24018
23895
23777
23698
23603
23468
23356
23284
23189
23065
22981
22939
22870
22775
22733
22741
22719
22676
22681
22726
22739
22735
22778
22837
22844
22835
22875
22925
22920
22895
22906
22914
22870
22825
22834
22838
22789
22744
22744
22724
22648
22583
22561
22513
22412
22327
22283
22214
22101
22016
21972
21895
21780
21705
21668
21595
21500
21455
21440
21379
21286
21237
21217
21153
21066
21026
21002
20923
20828
20783
20751
20674
20593
20558
20522
20436
20352
20319
20287
20221
20194
20253
20332
20396
20516
20722
20948
21167
21441
21780
22104
22391
22707
23057
23357
23598
23856
24130
24336
24478
24632
24785
24868
24904
24974
25056
25080
25072
25098
25124
25090
25038
25028
25022
24966
24905
24886
24853
24761
24671
24621
24553
24436
24328
24254
24151
23997
23865
23787
23704
23598
23532
23519
23481
23411
23383
23404
23402
23375
23391
23440
23453
23442
23475
23535
23552
23544
23574
23616
23603
23570
23576
23582
23530
23459
23424
23383
23292
23201
23154
23095
22987
22894
22856
22803
22698
22609
22568
22508
22410
22343
22325
22283
22204
22159
22152
22101
22003
21935
21893
21808
21696
21633
21602
21529
21426
21370
21339
21262
21175
21147
21135
21069
20989
20953
20919
20831
20740
20701
20662
20583
20529
20553
20606
20654
20759
20954
21173
21384
21648
21981
22304
22592
22906
23249
23541
23773
24022
24292
24503
24654
24819
24985
25084
25134
25209
25288
25302
25277
25288
25314
25286
25238
25236
25241
25192
25129
25114
25106
25057
25009
25006
24989
24918
24846
24808
24746
24632
24525
24453
24359
24227
24130
24086
24023
23934
23891
23896
23878
23832
23825
23854
23844
23805
23809
23845
23840
23808
23819
23848
23823
23772
23766
23777
23742
23697
23698
23704
23660
23606
23595
23579
23507
23432
23391
23326
23204
23098
23046
22981
22869
22772
22712
22629
22509
22425
22386
22323
22225
22162
22136
22072
21967
21895
21856
21777
21670
21603
21561
21481
21386
21344
21326
21267
21192
21161
21145
21086
21015
20988
20965
20891
20818
20792
20757
20678
20613
20595
20561
20475
20405
20384
20351
20283
20247
20267
20285
20290
20354
20493
20642
20797
21021
21304
21572
21824
22122
22453
22747
23008
23292
23577
23797
23976
24169
24348
24453
24516
24595
24660
24666
24658
24690
24715
24688
24666
24695
24713
24683
24660
24676
24673
24626
24592
24588
24556
24479
24423
24403
24351
24256
24181
24133
24051
23943
23873
23831
23756
23663
23624
23620
23576
23510
23490
23496
23470
23437
23455
23485
23469
23448
23478
23512
23494
23466
23476
23476
23421
23363
23345
23313
23234
23173
23159
23127
23054
23000
22980
22933
22847
22779
22736
22655
22541
22466
22431
22365
22272
22217
22192
22133
22055
22013
21985
21911
21816
21762
21727
21654
21572
21532
21502
21435
21369
21346
21317
21235
21152
21108
21055
20959
20875
20839
20795
20712
20651
20640
20611
20538
20489
20483
20456
20395
20362
20357
20312
20229
20186
20186
20158
20110
20114
20158
20178
20207
20315
20473
20619
20782
21017
21287
21528
21770
22060
22347
22578
22791
23031
23248
23396
23521
23663
23773
23827
23878
23952
23993
23980
23978
24010
24015
23980
23971
23997
23989
23942
23923
23934
23907
23847
23815
23794
23721
23619
23555
23510
23421
23309
23237
23186
23093
22992
22939
22896
22815
22736
22708
22690
22648
22625
22646
22661
22635
22626
22665
22688
22664
22654
22685
22695
22667
22663
22693
22687
22635
22601
22601
22569
22502
22465
22451
22399
22323
22287
22279
22233
22164
22136
22129
22076
21994
21944
21902
21816
21726
21690
21663
21593
21516
21481
21446
21373
21312
21299
21275
21203
21143
21128
21094
21017
20958
20935
20881
20786
20721
20699
20647
20561
20514
20499
20447
20369
20337
20334
20282
20194
20151
20142
20094
20030
20023
20046
20038
20036
20105
20212
20302
20415
20601
20813
20999
21196
21444
21690
21891
22097
22343
22576
22762
22944
23146
23306
23401
23496
23610
23678
23690
23719
23777
23797
23779
23787
23816
23802
23752
23732
23734
23695
23632
23610
23607
23558
23495
23478
23474
23419
23343
23297
23241
23133
23023
22961
22905
22811
22730
22708
22695
22655
22642
22682
22714
22709
22722
22776
22809
22801
22819
22875
22898
22873
22870
22899
22895
22856
22846
22856
22822
22758
22728
22723
22679
22613
22588
22578
22523
22453
22429
22413
22351
22284
22266
22250
22185
22119
22098
22073
22011
21963
21956
21932
21865
21811
21793
21753
21673
21623
21622
21603
21549
21526
21538
21516
21453
21416
21408
21361
21280
21237
21222
21168
21092
21058
21047
20997
20930
20901
20885
20824
20750
20722
20709
20666
20641
20683
20746
20790
20871
21028
21205
21365
21555
21794
22027
22226
22448
22718
22968
23175
23397
23638
23830
23966
24113
24275
24384
24443
24515
24592
24614
24600
24610
24630
24605
24560
24561
24586
24575
24549
24569
24599
24575
24535
24534
24528
24464
24386
24340
24282
24181
24092
24053
24000
23902
23831
23819
23800
23746
23720
23738
23741
23710
23706
23742
23753
23731
23744
23789
23796
23773
23784
23815
23800
23758
23757
23777
23755
23712
23710
23727
23701
23659
23655
23648
23584
23510
23477
23439
23359
23288
23267
23242
23174
23111
23082
23033
22940
22864
22832
22779
22688
22621
22595
22547
22466
22413
22396
22346
22258
22202
22183
22134
22067
22045
22046
21999
21925
21889
21871
21809
21732
21699
21681
21620
21547
21515
21490
21421
21354
21332
21302
21227
21165
21150
21118
21032
20962
20950
20932
20878
20854
20884
20910
20921
20987
21122
21267
21411
21617
21893
22159
22401
22679
22982
23237
23458
23713
23977
24179
24343
24529
24711
24828
24909
25014
25111
25148
25166
25226
25280
25279
25279
25324
25357
25344
25339
25378
25400
25372
25354
25372
25360
25301
25260
25252
25214
25134
25079
25050
24985
24890
24829
24799
24729
24628
24563
24529
24468
24396
24371
24374
24345
24310
24325
24360
24355
24341
24371
24408
24396
24378
24405
24433
24419
24403
24420
24424
24391
24366
24368
24343
24271
24213
24190
24147
24068
24009
23979
23918
23821
23761
23740
23683
23591
23534
23505
23432
23332
23271
23229
23144
23042
22988
22956
22890
22813
22779
22755
22686
22614
22591
22568
22496
22427
22404
22375
22305
22246
22225
22191
22119
22061
22040
21997
21910
21842
21813
21764
21683
21636
21628
21589
21518
21479
21469
21415
21322
21262
21233
21169
21084
21045
21040
21015
21004
21072
21192
21305
21438
21640
21875
22090
22315
22584
22847
23062
23274
23520
23748
23919
24085
24272
24418
24499
24577
24679
24746
24761
24782
24826
24835
24805
24806
24838
24836
24800
24796
24818
24799
24754
24751
24765
24724
24654
24621
24601
24527
24426
24359
24299
24194
24083
24023
23976
23897
23828
23809
23787
23726
23681
23686
23684
23647
23632
23664
23678
23653
23651
23688
23700
23673
23666
23681
23654
23585
23548
23546
23514
23455
23433
23436
23403
23348
23327
23313
23245
23158
23120
23100
23035
22957
22922
22888
22803
22711
22663
22613
22519
22431
22391
22349
22269
22207
22181
22130
22033
21956
21917
21850
21743
21664
21624
21561
21470
21411
21387
21332
21246
21199
21187
21139
21058
21006
20976
20908
20818
20776
20762
20710
20644
20622
20611
20554
20480
20440
20396
20305
20221
20186
20149
20069
20000
19988
19981
19949
19950
20014
20086
20143
20252
20437
20630
20806
21020
21276
21506
21699
21919
22161
22361
22518
22695
22881
23005
23080
23170
23257
23285
23278
23299
23324
23297
23253
23248
23246
23195
23136
23126
23121
23077
23039
23041
23031
22975
22913
22872
22806
22694
22601
22557
22495
22397
22328
22306
22271
22209
22174
22171
22141
22086
22068
22080
22054
22005
21997
22024
22022
21999
22015
22050
22048
22028
22041
22059
22030
21995
22006
22019
21978
21928
21913
21895
21835
21782
21769
21739
21659
21590
21560
21510
21413
21330
21284
21218
21117
21045
21012
20952
20856
20790
20758
20688
20577
20498
20450
20363
20253
20192
20155
20074
19978
19933
19910
19847
19770
19738
19720
19656
19581
19543
19499
19406
19317
19281
19246
19171
19107
19086
19052
18972
18908
18886
18834
18734
18656
18625
18585
18526
18520
18576
18626
18669
18771
18931
19084
19228
19429
19676
19897
20102
20350
20614
20826
21009
21215
21409
21530
21617
21730
21838
21896
21940
22016
22078
22082
22074
22092
22080
22008
21948
21938
21913
21845
21794
21781
21744
21665
21605
21571
21498
21381
21290
21231
21142
21022
20938
20887
20807
20709
20657
20638
20580
20501
20465
20459
20425
20386
20401
20436
20435
20430
20461
20487
20465
20444
20466
20478
20444
20417
20430
20433
20392
20363
20369
20346
20273
20216
20197
20153
20074
20026
20011
19959
19874
19829
19822
19774
19686
19629
19598
19528
19431
19370
19323
19234
19132
19078
19040
18964
18880
18844
18819
18750
18673
18637
18594
18497
18402
18362
18325
18251
18193
18177
18142
18059
17990
17956
17895
17794
17721
17693
17648
17582
17562
17593
17612
17627
17709
17850
17978
18101
18287
18524
18744
18958
19226
19513
19754
19977
20237
20495
20689
20841
20999
21137
21216
21278
21366
21431
21432
21432
21469
21489
21463
21448
21469
21466
21418
21383
21380
21342
21259
21198
21161
21077
20945
20841
20768
20663
20535
20451
20400
20316
20215
20169
20157
20112
20052
20038
20042
20004
19956
19953
19964
19937
19904
19913
19930
19911
19900
19939
19974
19969
19969
20000
20007
19968
19939
19938
19905
19827
19770
19751
19704
19616
19558
19534
19476
19386
19330
19303
19233
19129
19069
19040
18967
18871
18824
18802
18737
18657
18622
18597
18522
18439
18402
18371
18292
18212
18180
18142
18053
17973
17948
17920
17848
17788
17773
17739
17658
17596
17578
17538
17456
17409
17416
17406
17379
17418
17526
17632
17745
17939
18197
18443
18686
18992
19327
19614
19874
20169
20466
20695
20885
21094
21286
21412
21509
21628
21729
21770
21794
21848
21888
21872
21856
21879
21881
21826
21773
21757
21723
21647
21591
21576
21533
21445
21375
21332
21249
21127
21033
20965
20864
20748
20684
20655
20593
20516
20491
20491
20452
20399
20394
20409
20388
20367
20397
20436
20428
20418
20454
20491
20482
20476
20509
20523
20484
20451
20455
20445
20396
20363
20364
20339
20269
20219
20205
20160
20075
20014
19982
19914
19812
19750
19718
19643
19542
19491
19472
19412
19334
19306
19294
19220
19122
19069
19027
18941
18849
18803
18764
18685
18608
18576
18532
18436
18352
18325
18287
18203
18136
18110
18072
18016
18015
18089
18176
18264
18414
18635
18856
19068
19334
19650
19942
20208
20508
20828
21106
21347
21602
21851
22032
22166
22311
22446
22519
22566
22644
22716
22729
22724
22746
22760
22732
22707
22714
22703
22636
22571
22543
22498
22410
22335
22293
22226
22113
22021
21965
21882
21764
21674
21617
21533
21425
21359
21330
21272
21192
21163
21171
21151
21114
21123
21156
21151
21132
21155
21185
21162
21129
21139
21149
21109
21063
21059
21051
21002
20966
20974
20965
20904
20853
20843
20817
20747
20695
20686
20653
20574
20516
20487
20426
20337
20286
20272
20225
20142
20086
20050
19968
19856
19785
19735
19639
19523
19453
19402
19311
19210
19155
19114
19035
18964
18946
18926
18852
18775
18737
18684
18582
18499
18475
18455
18415
18428
18524
18636
18746
18919
19171
19432
19688
19999
20360
20691
20982
21292
21612
21872
22085
22321
22563
22739
22866
23011
23152
23226
23267
23336
23400
23407
23393
23410
23418
23372
23323
23314
23297
23235
23180
23165
23138
23066
23000
22967
22911
22809
22721
22668
22589
22470
22379
22327
22248
22140
22070
22040
21982
21907
21880
21886
21855
21806
21810
21848
21848
21833
21860
21897
21883
21850
21857
21867
21829
21787
21791
21796
21761
21728
21731
21720
21660
21605
21586
21545
21462
21396
21370
21320
21226
21154
21117
21053
20955
20888
20856
20795
20710
20664
20650
20597
20514
20466
20432
20346
20233
20161
20107
20007
19890
19819
19766
19671
19573
19529
19496
19416
19340
19320
19302
19237
19180
19169
19149
19088
19054
19084
19117
19131
19195
19334
19488
19642
19862
20155
20450
20731
21054
21409
21715
21971
22243
22519
22727
22888
23066
23241
23348
23410
23494
23579
23611
23617
23652
23682
23659
23623
23623
23620
23572
23523
23510
23479
23387
23294
23238
23169
23057
22960
22901
22823
22705
22616
22574
22515
22422
22360
22333
22279
22197
22149
22136
22095
22037
22026
22050
22040
22013
22029
22069
22068
22049
22069
22093
22065
22029
22040
22056
22023
21986
21987
21980
21924
21867
21847
21819
21752
21699
21679
21632
21538
21458
21412
21341
21234
21161
21133
21083
20997
20937
20909
20848
20763
20717
20695
20632
20545
20497
20467
20393
20302
20253
20215
20126
20026
19979
19948
19875
19795
19756
19717
19635
19561
19540
19513
19435
19366
19341
19301
19218
19156
19154
19150
19120
19139
19233
19333
19427
19587
19822
20058
20286
20569
20896
21192
21464
21776
22111
22398
22644
22903
23146
23315
23438
23575
23695
23749
23770
23812
23839
23809
23766
23756
23740
23682
23635
23628
23605
23535
23479
23463
23424
23332
23249
23194
23107
22976
22871
22800
22698
22564
22467
22411
22334
22238
22185
22164
22111
22048
22038
22059
22047
22016
22023
22042
22021
21996
22024
22066
22072
22070
22099
22123
22098
22072
22082
22074
22013
21958
21943
21911
21831
21763
21729
21670
21571
21500
21475
21426
21342
21293
21282
21236
21153
21100
21071
21002
20908
20854
20819
20737
20631
20569
20529
20449
20359
20318
20293
20227
20146
20105
20075
20008
19944
19924
19899
19828
19770
19758
19731
19654
19590
19569
19532
19453
19395
19380
19345
19279
19246
19253
19231
19175
19163
19211
19256
19306
19431
19618
19800
19992
20260
20574
20858
21127
21443
21776
22061
22323
22618
22901
23111
23283
23467
23626
23716
23784
23864
23906
23883
23853
23855
23843
23790
23752
23751
23726
23655
23599
23575
23521
23423
23341
23288
23199
23072
22973
22899
22787
22653
22567
22505
22402
22282
22212
22177
22119
22057
22047
22059
22039
22016
22040
22070
22055
22035
22055
22070
22042
22024
22056
22081
22059
22043
22059
22048
21992
21950
21948
21927
21867
21824
21809
21762
21682
21626
21596
21529
21429
21359
21313
21232
21125
21053
21004
20917
20808
20740
20692
20606
20511
20467
20436
20357
20265
20211
20160
20067
19983
19950
19913
19829
19752
19721
19675
19582
19507
19480
19434
19345
19281
19263
19223
19148
19103
19091
19042
18950
18892
18868
18815
18743
18726
18756
18766
18781
18878
19040
19199
19373
19624
19922
20203
20489
20826
21167
21455
21728
22033
22316
22530
22722
22926
23086
23165
23224
23301
23342
23320
23297
23298
23264
23184
23129
23113
23066
22979
22915
22880
22809
22705
22633
22579
22475
22332
22219
22125
21993
21851
21759
21692
21590
21483
21432
21407
21356
21312
21325
21349
21327
21307
21334
21357
21338
21328
21364
21389
21362
21345
21370
21375
21337
21315
21327
21306
21234
21185
21175
21136
21063
21023
21018
20975
20895
20844
20813
20740
20644
20591
20552
20463
20349
20277
20227
20142
20052
20011
19980
19906
19827
19791
19753
19670
19585
19537
19481
19383
19296
19253
19194
19086
18998
18960
18905
18816
18760
18747
18703
18617
18564
18551
18505
18424
18380
18366
18310
18229
18200
18208
18185
18158
18199
18290
18369
18465
18637
18855
19062
19292
19594
19916
20200
20483
20805
21109
21348
21571
21811
22006
22124
22228
22352
22442
22477
22513
22567
22580
22543
22520
22524
22485
22400
22333
22281
22190
22074
21995
21942
21844
21712
21613
21530
21399
21248
21144
21065
20948
20827
20758
20705
20615
20528
20495
20476
20428
20401
20438
20475
20465
20464
20511
20552
20559
20589
20654
20684
20664
20666
20705
20712
20678
20671
20688
20656
20581
20536
20514
20446
20337
20253
20192
20100
19999
19952
19928
19854
19759
19707
19675
19601
19519
19488
19464
19390
19309
19272
19230
19144
19065
19027
18977
18881
18799
18758
18698
18598
18521
18485
18430
18344
18287
18263
18200
18096
18029
18003
17945
17855
17809
17800
17757
17700
17701
17741
17757
17776
17876
18040
18209
18406
18678
18986
19272
19570
19922
20278
20591
20899
21230
21528
21758
21974
22209
22400
22510
22598
22692
22739
22723
22709
22718
22695
22637
22605
22599
22555
22472
22418
22384
22303
22177
22072
21984
21860
21716
21611
21521
21391
21255
21173
21112
21015
20914
20858
20815
20742
20679
20668
20659
20610
20579
20617
20666
20676
20701
20772
20825
20830
20847
20899
20919
20883
20859
20867
20850
20803
20784
20789
20755
20683
20642
20630
20576
20493
20444
20405
20317
20211
20157
20122
20044
19956
19917
19893
19827
19756
19729
19700
19617
19530
19486
19437
19344
19258
19213
19154
19058
18989
18968
18925
18837
18770
18738
18679
18583
18521
18496
18434
18334
18268
18241
18187
18115
18097
18124
18138
18167
18275
18441
18605
18793
19068
19398
19715
20043
20428
20822
21166
21492
21834
22142
22374
22583
22803
22980
23076
23155
23253
23316
23322
23329
23360
23357
23305
23265
23244
23179
23073
22995
22951
22878
22773
22697
22641
22550
22434
22354
22289
22174
22031
21925
21838
21712
21580
21505
21452
21365
21285
21267
21266
21235
21216
21245
21266
21243
21233
21273
21299
21276
21267
21300
21314
21290
21288
21320
21319
21274
21246
21251
21221
21153
21117
21102
21040
20944
20881
20842
20761
20656
20589
20538
20447
20343
20284
20244
20162
20069
20021
19981
19896
19804
19754
19701
19601
19509
19464
19408
19302
19203
19143
19073
18968
18887
18853
18801
18708
18635
18596
18528
18427
18362
18333
18274
18197
18180
18226
18267
18316
18452
18659
18861
19077
19370
19711
20032
20353
20728
21117
21457
21776
22121
22446
22696
22914
23144
23332
23438
23523
23624
23686
23677
23665
23687
23681
23622
23575
23568
23541
23479
23441
23433
23388
23301
23234
23187
23098
22977
22890
22824
22715
22580
22486
22418
22313
22191
22117
22066
21977
21883
21845
21828
21783
21748
21772
21807
21800
21793
21829
21851
21826
21813
21841
21850
21816
21801
21828
21832
21795
21775
21784
21757
21687
21638
21616
21553
21447
21367
21320
21248
21156
21104
21072
20995
20895
20833
20790
20711
20621
20576
20539
20454
20356
20304
20257
20164
20073
20031
19984
19884
19795
19762
19717
19622
19551
19535
19501
19420
19361
19345
19305
19222
19163
19134
19068
18965
18900
18875
18821
18751
18744
18796
18843
18910
19072
19306
19540
19792
20122
20499
20854
21207
21605
22010
22361
22692
23045
23371
23621
23839
24063
24241
24340
24425
24531
24597
24595
24589
24612
24610
24561
24529
