6134.5
7264.6
8202.3
7165.2
6545.4
7481
7757
7029.1
7264.1
8005.4
7315
6307.1
6965.9
7668.1
6709
6278.4
7662.9
8281.7
7173.9
7035.8
8376.4
8294.5
6826.3
7082.7
8407.4
7994.2
7260.5
8293
8987
7958.3
7562.5
8504.8
8438.6
7369.3
7630.8
8602.2
8073
7333.9
8478.1
9550
8399.9
7452.9
8803.8
9650.1
8102.3
7248.8
8583.1
9052.2
8034.2
8463.9
9833.6
9404.1
8584.5
9715.5
10676
9363.4
8280.3
9526.6
10539
9363.5
8583
9858.6
10733
10010
9824
10531
10024
9015
9869.5
10999
10027
9226.2
10732
11941
10937
10182
10923
10716
9611.3
10474
11735
10272
9027.6
11087
12847
11496
10276
11164
11422
10272
10368
11489
10867
9487.3
10218
11664
11124
10066
10553
11069
10330
10010
10836
10856
9478.2
8998.8
10155
10673
9897.4
9711.5
9977.8
9031.3
8157.5
9169.4
9975.8
8850.8
8273.2
9432.3
9698.4
8426
8082
8872.4
8604
7661.3
8071.1
8673.8
7463.1
6351.9
7516
8908.4
8289.9
7334.8
7797.4
8200.5
7705
7933.3
8615.1
7911.1
6984.8
7731.9
8545.7
7721.1
6990.8
7745.7
8224.9
7495.2
7392
8413.9
8603.8
7736.1
7721
8426.7
8006.3
7158.4
7850.4
8948.3
8490.3
7888.2
8735.4
9208.7
8069.2
7602.6
8834.4
9224.9
7917
7486
8673.8
9240.7
8775.8
8940.3
9289.6
8542.5
8136.9
9322.2
10023
8977.7
8581
9933.9
10314
8957.2
8702.8
9777.5
9672.1
8938.4
9638.9
10618
10055
9206.3
9547.4
9859.6
9395.4
9674.4
10625
10224
9029.1
9438.9
10607
9891.6
8420.1
9111.7
10709
10283
9055.1
9617.9
10700
10106
9388.7
10221
10255
8516.8
8437.2
10434
10760
9663.4
10057
10648
9759.9
9737.9
11230
11274
9637.5
9273.2
10455
10742
9987.7
10230
11073
10444
9294.3
9923.6
11054
10268
8946.4
9414.6
10311
9831.6
9365.2
9852.6
9660.5
8646.1
8829.8
9916.3
9546.8
8227.7
8229.2
8668.8
7932.3
7718.1
8980
9343.9
8179.6
7932.2
8774.7
8271.5
6859.5
7210.2
8394.9
7733
6670.9
7840.2
9372.6
8563.7
7379.2
8270.6
8983
7562.4
6707.2
7935.8
8497.7
7480
7469
8648.2
8525.9
7601.3
8136.9
8745.4
7501.8
6906.6
8578.7
9171.9
7502.5
7316.1
9261.4
9684
8217.3
7770.2
8388
8151.9
7763.7
8683.7
9343.3
8259.6
7491.8
8511.7
9183.1
8324.2
8009.3
8992.4
9206.1
8413.1
8693.3
9700.5
9341.9
8444.7
8943.2
9616.4
8807.6
8400.9
9727
10031
8574.4
8838.3
10534
9849.7
8095.6
9014.1
10777
10123
9023.5
9963.6
10604
9202.1
8624.3
10102
10513
9131.1
9054
10518
10581
9409.5
9539.1
10348
9887.2
9418.3
10346
10743
9607.2
9445.3
10979
11416
10139
9740.5
10622
10753
10395
10999
11242
10120
9861.7
11074
11214
9985.4
9681.7
10572
10949
10594
10664
11027
10665
10170
10733
11472
10975
10306
10869
11295
10415
9945.5
10664
10690
9678.6
9645.7
10605
10369
9142.1
9178.8
9966.6
9448
8549.7
9108.5
9890.2
9228.1
8580.1
9330.1
9544.2
8283
7995.9
9035.6
8884.2
8004.3
8407.2
8750.6
7814.7
7577.8
8451.4
8287.6
7313.3
7597.1
8623.6
8367.6
7173.5
7073.2
7932.7
7714.8
6749.4
7209.8
8174.9
7304.5
6229
7207.4
7991
7008.9
7025.2
8590.7
8556.8
7121.3
7461.3
8865.2
8194.3
6619.8
7279.1
8698.8
8228.4
7605.3
8380.8
8609.5
7898.8
8218.4
9106.8
8639.7
7691.3
8215.8
9286.6
8912.1
7881.7
8254.8
9365.6
9143.1
8427.6
9125.6
9802.2
8928
8556.8
9592.1
9680.8
8739.8
9200
10476
10207
9412
10070
10624
9522.5
8922.9
10015
10232
8904.6
9074.2
11047
11533
10342
10348
11088
10149
9127.9
10329
11200
9786.2
9261.1
10947
11563
10348
10063
10908
10678
9821.7
10329
11153
10441
9728.5
10593
11395
10934
10571
10951
10888
10197
10102
10582
10500
10157
10808
11791
11339
10212
10424
11084
10650
10449
11182
10900
9539.3
9527.9
10710
10558
9314.8
9192.9
9639.9
8955.5
8348.6
9176.8
9597.1
8360.5
7701.1
8751.3
9201.9
8117
7618.1
8286
8315.8
7680.9
8015.7
8670.9
7995.5
7283.4
8294.5
9179.3
7990.4
6853.4
7631.8
8146.1
7357
7536.1
8453.6
7710.3
6557.3
7354.4
8466.8
7731.2
6761
7379.3
8090.4
7774.3
7946.9
8669.4
8213.6
7370.6
8005.4
8891.4
8281.5
7662.9
8468.2
8811.5
7798.4
7858.6
9261.8
9068.4
7529
7859
9517.7
9333.3
7939.4
8139
9296.2
9231.7
8719.8
9275.7
9649.6
8688.1
8329.1
9680.2
10254
8864.9
8217.5
9503.6
10172
9292.9
9177.3
10246
10365
9577.7
9713.5
10183
9492.4
8930
9875.9
10559
10021
10121
10789
10266
9662.7
10466
11084
10345
9774.2
10423
11135
10785
10067
10145
10702
10858
11148
11822
11388
10185
10662
11958
11469
10695
11937
12969
11599
10551
12008
12863
11243
10569
12071
12388
11295
11734
12863
12161
11055
11508
12012
11329
10980
11599
11612
10821
10953
11799
11501
10587
10735
10939
9871.5
9330.4
10483
10757
9156
8830.2
10621
11333
10258
9923.4
10472
9936
9061.4
9637.9
10037
8585.6
7719.3
9069.1
9927.5
8795.7
8287
9382.1
9339.2
7955
8319.2
9798.2
9256.3
8021.5
8688.1
9441.2
8529.7
8001.7
8913.3
9260.6
8453.1
8286.9
9117.9
9250.1
8387.6
8438.5
9710.8
9855.5
8694.9
8818.1
9899
9439.1
8480.6
9058.7
9554
8821.5
9033.3
10434
10430
9163.8
9175.1
10214
10122
9304.2
9574.3
10192
9608.6
9078.4
10057
10949
10389
9983.1
10602
10359
9073.5
9145.4
10334
10229
9435.1
9910.1
10705
10280
9828
10500
10804
10118
10274
11185
10858
9996.9
10437
11038
10223
9392
9963.7
10561
10306
10630
11568
11245
10071
10212
11164
10855
9985.2
10325
10859
10282
10114
11231
11545
10340
10033
11240
11651
10854
10723
11243
11003
10598
11237
11696
10725
10074
11116
11814
10802
10151
10844
10735
9732.2
10280
11451
10450
8946.3
9884
11307
10303
8877.7
9675.8
10564
9463.5
8771.2
9792.8
9977.8
8823.2
8943
10094
9434.3
7666.9
7897.2
9287.2
9015.9
8145.1
8880.7
9611
8475.6
7596
8584.3
8775.5
7017.7
6609.5
8282
8710.2
7829.2
8260.9
9015.1
8141
7374.9
8055
8321.8
7540.1
7611.1
8780.3
9090.4
8287.6
8270.2
9141.8
9002.6
8254.4
8969
9904.7
8613.4
7141.7
8196.6
9374.5
8634.5
8550.9
9774.5
9504.7
8191.5
8618.4
9869.8
9417
8341.2
8848.3
9697.4
9120
8690.1
9711.6
10338
9663.9
9686.2
10783
10614
9286.7
9491.3
10648
10131
9102.4
9972.7
11166
10515
9666.8
10348
10824
9957.5
9701.7
10720
10840
9717.5
9761.4
11149
11257
10141
10362
11238
10421
9480.3
10537
11499
10744
10414
11257
11342
10713
10938
11476
11090
10529
10741
10738
9946.1
9922.9
11153
11659
10806
10405
10887
10690
10057
10534
11072
10111
9245.2
9730.1
9776.3
8741.2
8764.9
10160
10385
9081.7
8757.5
9539
9175.9
8034.2
8293.6
9264.9
8815.9
7888.1
8362.7
8781.4
7783.6
7489.6
8617.4
8542.3
7189.8
7450.3
8928.2
8626
7229.6
7564.3
8624.8
7983
7101.7
7883.9
8377.6
7222.6
6747.9
7799.2
7993.3
7043.1
7239.8
8269.6
7877.6
6909.2
7545
8428.3
7674.8
7081.9
8086.4
8749.9
7998.3
7415.3
7806.8
8154.9
8091.9
8373.4
8826.9
8446.1
7822.5
8444.2
9421.3
8744.4
7590.7
8194.3
9064
8427.6
8138.4
8915.2
8588.8
7519.3
8270.6
10051
9977.6
8469.2
8061.7
8658.5
8870.8
9215.2
9954.8
9793.5
9025
9283
9829.8
8954.5
7993.9
8957.1
10352
10124
9555.4
10056
10142
9138
9180.5
10520
10386
8785.9
8997
10813
10704
9063.7
9304.9
10725
10446
9521.9
9994.6
10420
9559.7
9281.5
10406
10737
9760.8
9793.6
10852
10609
9516.1
9678.6
10363
9816.6
9002.9
9439.6
10008
9378.4
8846
9509.1
9882.2
8992.6
8461.6
8988.2
8783.8
7887.8
8509.6
9674.8
8785.5
7370.5
7944.3
8881.5
8252.5
7677.1
8369.1
8544.5
7577.6
7447.8
8337.2
8251.1
7429.9
7647.8
8236.4
7777.5
7393.3
8156.5
8579.3
7813.8
7444
8029
7974.2
7100.3
7141.6
8001.2
8028.2
7607.6
8027.3
8384.8
7612.5
7088.2
7978.4
8686.8
7911.1
7380.6
8455.6
9174.1
8228.2
7824.2
8691
8163.5
6713
7526.9
8873.9
7720.3
6871.6
8589.9
9578.1
8325.4
7788.9
8718.3
8699.8
7709.1
7937.4
8917.6
8654.7
8018.7
8764.5
9650.2
9087
8517
9194.8
9395.8
8395
8331.9
9452.8
9331.5
8107.4
8283.4
9468.3
9329.9
8545
9072.4
9767.9
8994.5
8336.5
9111
9454.7
8507.1
8459.9
9768.6
10040
9022.5
8906.9
9641.6
9480.2
9078.4
9892.5
10497
9510.9
8901.4
9936.6
10485
9585
9375.2
10384
10318
9086.4
9071
9831.5
9182.1
8273.4
9116.5
10225
9661.4
8647.1
8759.2
9050
8530.9
8191.1
8542.8
8564.2
8173.2
8453.6
8948.2
8224.5
7229.6
7749.4
8415.4
7708.6
7561.1
8746.4
8640.8
7068.7
7057.1
8519.4
8437.3
7000.8
6891.1
7777.3
7583.3
7055.7
7610.4
7883
6943.7
6695
7713.9
7859.2
6739.1
6376.2
7137.6
7445.6
7090.2
7343.1
8007.5
7706.7
7045.2
7584
8245.1
7398.7
6697.3
7763.4
8515.4
7732.7
7736.8
8919.9
8670.1
7330
7774.2
9220.4
8632.8
7243.2
8178.6
9705.5
8818.8
7509.5
8178.6
8965
8503.2
8614.3
9621.2
9364.2
8135.7
8467.3
9751.5
9482.6
8488.6
8894.6
9681
9323.2
9227.7
10251
10124
8517.7
8562
10099
9770.8
8494.6
9213.5
10343
9861.8
9577.8
10133
9685.1
8722
9132.1
10174
10077
9313.8
9602.4
10699
10766
10068
10512
11312
10511
9663.7
10660
11221
9871.9
9485.2
11020
11425
10260
10384
11563
10934
9379.6
9768.7
10643
9609.6
8875.9
10152
10651
9130.4
8519.5
9680.7
9774.5
8515
8575.8
9267.2
8230.4
7333.3
8586.1
9406.3
8223.5
7573.7
8425.7
8626.8
7713.2
7472.3
8238.9
8462.5
7701.1
7537.7
8536.7
8854.8
7933.5
7621.4
8055.2
7648.6
7022.7
7456.6
7772.7
7155.2
7180.1
8103
8000.4
6961.1
7086.7
8150
8171.3
7534.6
7781
8071.2
7491.7
7586.1
8759.8
8930.5
7934.7
7954.5
8943.6
8779.7
7919.5
8496.6
9523.3
8808.7
7806.5
8764
10071
9491.9
8510.8
8991.8
9448.3
8783.8
8787.9
9695.8
9376.5
8289.2
8915.4
10342
9680.4
8098
8647.7
9859.8
9244.7
8864.7
10189
10461
9084
9076.8
10479
10499
9526.6
9826
10483
9811.4
9414.3
10469
10756
9560.8
9399.8
10444
10398
9650.5
9997.6
10725
10501
10035
10366
10689
9988.2
9533.9
10686
11568
10359
9402
10719
11743
10908
10661
11423
10994
10192
11010
11918
10957
9756.7
10177
10815
10444
10418
10885
10321
9555.9
10285
11095
10154
8919.4
9227.6
9910.3
9528
9103.8
9623.9
9890.4
9058
8623.2
9327.4
9208.7
7924.6
8048.1
9418.6
9266.1
8331.5
8868.9
9428.8
8548.3
8177.9
8976.5
8930.3
7932.1
7760.2
8464.7
8711
8311
8375.1
9127.8
9405.6
9056.2
9156.1
9334
8559.2
7961.4
8877.3
9776.5
9140.7
8678.4
9821.5
10510
9435.9
9071.3
10266
10044
8540.8
9097
10391
9441.8
8720.5
10247
10844
9442.1
9394.6
10987
10729
8788.9
8875.7
10701
10695
9252.2
9523.8
10908
10701
9794
10318
10775
9831.6
9767.4
11053
10935
9829.5
10463
11648
10992
10145
10859
11199
10215
10316
11819
11666
9731
9451.7
10996
11371
10643
10958
11691
11205
10480
10950
11433
10683
10155
10996
11702
11273
10898
11108
10947
10698
11442
12102
11273
10492
11321
12140
11436
10873
11616
11647
10463
10553
11545
10870
9719.4
10265
10909
10310
10101
10641
10206
9159.9
9433.9
10496
10205
8900.9
8999.6
10281
9760.8
7820
8065.4
9814
9488.1
8246.5
8670.8
8869.3
7708.1
7883.2
9412.7
9290.4
7979.4
8049.4
8695.4
8094.8
7701.3
8911.3
9504.9
8250.2
7712.1
8754.8
8980.5
8059.3
7865
8306
8202.5
8286.9
9220.1
9311.2
7982.8
7648.9
8903.4
9283.2
8361.9
8201.6
8860.4
8725.8
8293.3
8946.7
9541.2
8746.6
8188.7
9164.7
9902.7
9267.2
8836.1
9409.1
9742.5
9502.3
9664.8
10244
10151
9257.2
9122.1
10151
10172
8940
9285.2
10894
10605
9339.2
9931.5
10911
10245
9914.9
11060
11259
9730.3
8908.9
9773.1
10555
10377
10574
11472
11412
10572
11023
11818
10550
9204.5
10532
11884
10798
10103
11255
11483
10510
11009
12253
11322
9571.4
10244
11777
11356
10768
11663
11964
11110
11253
12135
11597
10357
10645
11607
11232
10501
11060
11599
10655
10032
11022
11079
9327.9
9087.8
10603
10356
9043
9711.5
10655
9555.1
8698.4
9526
9633.4
8446.2
8412.6
9582.7
9436.1
8123.4
8250.3
9536.9
9440.2
8347.5
8358.6
8746.4
7981.2
7413
8424.2
9165.7
8189.7
7509.4
8444.6
8991.7
8215.9
8084.5
8867.8
8417.9
7356.2
8182.2
9489.3
8726.5
7885
9098.8
10006
8863.6
8076.8
8984.5
9236.1
8098.4
8053.2
9166.5
8909.6
7815.5
8387
9845
9869.6
9115.4
9247.4
9417.1
8780.2
8686
9349.9
9116
8415.6
9098.1
10192
9650.4
8622.7
9062.9
9843
9428.9
9030
9720.8
10048
9235.1
9093.2
10223
10540
9561.4
9382.2
10193
10085
9479.8
10190
11129
10570
9933.3
10566
10972
10367
10263
11027
11099
10464
10647
11160
10648
10262
11207
11818
10805
9973.6
10705
11286
10699
10693
11645
11862
11501
11871
12238
11524
10766
10987
11278
11114
11354
11821
11381
10659
11229
12235
11579
10290
10805
11806
10906
9876.6
10685
11088
9747.5
9378.1
10830
11251
9937
9257.2
9760.7
9868
9531.3
9972.1
10518
9660.9
8562
9141.1
9982.5
9081.4
8147.6
9010.4
9622.3
8695.7
8405.7
9109.1
8776.9
8075.4
8744.9
9448.3
8552.7
7506.6
8000.9
8987
9043.9
8838.7
9056.7
8833
8047.6
8231.4
9237.4
8804.9
7443.2
7932.8
9199.1
8636.4
8002.5
9090.1
9523.7
8435.6
8473.2
9627.5
9096.2
7608.9
8175.1
9696.2
9146.8
7838.2
8604.3
9903.7
9160.5
8281.8
9480.3
10297
8939.3
8461.6
10114
10460
8994.4
9222.2
10789
10533
9532.9
10248
10913
9648.1
8777.4
10003
10784
9740.7
9479.1
10750
10970
10033
10257
11054
10266
9291.5
10380
11457
10360
9563.3
10661
11290
10730
10893
11593
11227
10486
10901
11696
11351
10486
10649
11387
11197
10678
11161
11522
10836
10821
11821
11710
10726
11177
12405
12058
11071
11596
12332
11475
10776
11713
12255
11323
10992
11693
11366
10334
10747
11613
10793
10002
11197
11848
10373
9756.1
10895
11008
10054
10167
10697
10083
9373.8
9822.6
10120
9121
8462.1
9348
9943.5
8977.9
8484.4
9615
9975.6
8770
8642.4
9667.5
9255
8140.1
8670.8
9727.5
9422.3
8752.3
8830.2
8792.5
8473.3
8956.2
9776.7
9305
8113.4
8491.5
10073
10003
8518.9
8663.8
9966.4
9613.2
8665.8
9463.8
10267
9222.1
8633.6
9961.9
10610
9327.7
8630.7
9516.9
9895.1
9396.6
9746.7
10368
9682.3
9006.7
9774.5
10388
9670
9173.3
9829.1
10201
9736.5
9908.7
10781
10663
9805.6
9969.2
10697
10286
9569.2
10233
11020
10442
10035
10727
10894
10271
10487
11220
10692
9666.5
10167
11180
10876
10511
11291
11579
10675
10374
11049
11060
10489
10810
11541
11373
11072
11673
11977
11019
10499
11483
12033
11104
10653
11531
11843
10973
10758
11488
11432
10844
11417
12170
11292
10370
11299
12135
11354
11085
12021
11720
10243
10371
11589
10943
9604.8
10445
11285
9741.1
8962.2
10454
10843
9653.9
9726.9
10552
9912.6
8907.2
9363.5
9982.9
9229.3
8506.8
9287.4
10113
9495.3
8992.6
9777.9
9721.6
8210.5
8125.4
9468.8
9037.9
7583
8231.7
9667.1
9177.9
8371.7
9178
9629.7
8441.8
7888.2
8854.5
9071
8243.6
8697.2
10024
9778.2
8791.4
9270.2
9957.1
9056.9
8438.9
9745.3
10584
9431
8903.8
10122
10444
9274.1
9110.6
10113
9967
9016.4
9489.2
10454
9633.5
8444.9
9268.9
10603
10162
9408.9
10080
10405
9540.4
9842.9
11139
10637
9303.4
10031
11469
10873
9663.3
10247
11126
10480
10013
10849
11112
10381
10529
11455
11498
10956
10867
10801
10465
10659
11475
11721
10923
10578
11567
12161
11390
11105
11854
11797
11234
11907
12445
11228
10500
11780
12473
11238
10588
11531
11681
10702
11121
12513
12013
10535
11158
12767
12287
11089
11840
12518
11375
11346
13035
12857
10972
10849
11955
11532
10435
10783
11446
10929
10624
11340
11225
9968.6
9964.4
11345
11249
9549
9197.9
10236
10209
9617.4
10218
10670
9645.5
8945.3
9497.1
9642.2
9024.8
8999
9508.1
9421.7
8941.6
9286.8
10155
9832
8717.4
9022
9953.8
9090.2
8040.7
9149.4
9980
8907.6
8807
10022
9771
8944.3
9750.6
10551
9606.9
8614.9
9156.5
10025
9856.6
9497.4
9981.4
10326
9673.7
9572.9
10680
10597
9037.4
9132.9
10656
10550
9681.5
10326
10964
10151
9789.5
10702
10841
9861.1
9780
10602
10624
10356
11205
11909
10889
10067
11212
11828
10342
9946.6
11669
11756
9967.2
10275
12063
11684
10537
11542
12377
10544
9145.4
10743
12043
10896
10506
11984
12240
11104
11126
11729
10954
10134
11212
12505
11891
11012
11734
12315
11236
10713
12043
12490
11230
11323
12604
12126
11141
12002
12817
12179
12081
13005
13075
12205
11875
12271
12349
11758
11606
12364
12438
11595
11848
12633
11768
10780
11623
12126
11013
10794
11892
11722
10539
10753
11593
10944
10122
10957
11463
10121
9452.2
10604
11011
10008
9777.7
10428
10063
9111.2
9423.2
10139
9500.2
8847.7
9835.5
10761
9875.4
8883.5
9393.2
9760.5
9032.8
9005.8
9686.5
9201.2
8414.2
9092.5
9888.9
9326.2
8884.2
9644.6
10018
9229.4
8857.6
9447.7
9581.4
9065
9327.6
10212
10072
9322.3
9654.2
10284
9736.5
9364.2
10303
10680
9760
9760.7
11010
11237
10222
9774.5
10271
10733
10752
10738
10754
10309
9932.8
10656
11230
10011
8880.3
9874.8
10903
10418
10498
11417
10848
9646.9
10514
12094
11366
9803.2
10386
11519
10998
10789
11826
11714
10558
10917
11959
11116
9804.1
10756
12236
11708
11043
11923
12096
10773
10654
12085
12215
10824
10543
11698
12244
11884
11996
12433
12058
11636
12185
12275
11132
10931
12272
12513
11260
11286
12635
12703
11858
12244
12863
11906
11021
12000
12798
11799
11231
12226
12524
11588
11542
12247
11542
10271
10895
12126
11456
10423
11105
11806
10908
10133
10582
10508
9621.1
9982
11053
10501
9381.4
9949.5
10808
9987.6
9314.3
10374
10586
8820.6
8450.7
10095
10050
8403.6
8761.9
10378
9966.3
8624.5
9017.5
9838.9
9200.6
8736.8
9685.1
10017
8917.4
8775
10105
10414
9562.7
9857.6
10680
9800.2
8688.7
9558.5
10339
9370.2
9268.3
10833
11036
9630.2
9523.3
10560
10177
9085.7
9633.5
10491
9558.1
8858.1
10264
11319
10305
9779.9
10937
10861
9098.7
9157.2
10832
10536
9197
10196
12053
11582
10278
10780
11511
10664
10166
11105
11281
10256
10382
11516
11145
9919.7
10414
11589
11115
10461
11393
11859
10621
10234
11529
11868
10765
10595
11547
11681
11140
11394
11691
10944
10716
11934
12462
11364
10858
11859
12308
11608
11710
12559
12023
10804
11495
13130
12656
11074
11389
12395
11932
11649
12309
11932
11085
11905
13100
12547
11441
11492
11743
11267
11131
11633
11384
10524
10938
12161
11535
9515
9284.5
10716
10899
9910.6
9997.9
10570
9622.7
8632.6
9796.7
10734
9109.9
8021.3
9359.8
9724.9
8432.4
8745.8
9755.1
8742.6
7831.7
8941.9
9516
8322.6
7684.4
8514
9017.9
8633.4
8776.6
9434.3
9294.5
8817.1
9030.2
9208.1
8769.8
8755
9560.6
9861.6
9073.5
8585.6
9256.8
9897.8
9599.8
9423.5
9890.6
9633.4
8707
9038.2
10105
9784.9
8960.8
9653
10680
10139
9450.3
10291
10788
9659.9
9235
10276
10354
9493.3
10026
11148
10565
9604.3
10315
10869
9586.1
8920.9
10302
10942
9751.6
9471.2
10590
10783
10331
11005
11667
10741
9886.5
10709
11314
10258
9737.2
11011
11770
10980
10742
11496
11111
9918.2
10310
11424
11031
10483
11414
11957
10895
10530
11720
11766
10537
11135
12589
11783
10727
11882
12559
11290
10982
12245
12304
11117
11165
12206
12048
11121
11442
12389
12046
11240
11657
12282
11742
11225
11965
12587
11642
10610
11171
11924
11369
10810
11122
10998
10358
10685
11395
10882
10160
10726
11172
10222
9660
10410
10313
9187.1
9562.4
10644
9726.8
8408.9
9262.9
10432
9612.8
8443.7
8753.3
9151.1
8579.9
8599.1
9530.3
9405.6
8264.1
8425.8
9720.7
9637.4
8566.3
8871.4
9475.4
8594.1
8330.5
9774
9990.5
8439.6
8280
9613
9509.4
8278.5
8446
9362.1
9051.4
8620.7
9567.9
10130
8941.7
8362.9
9697.4
10149
8559
8005.3
9405.9
9748.4
8739.4
9339.8
10930
10282
8515.3
9014
10552
10006
8744.9
9308.3
10036
9442.6
9540.8
10535
10328
9773.8
10555
11059
9958.4
9229.7
10188
10960
10357
10072
10823
10941
10191
10334
11222
10893
9801.3
10063
10888
10389
9775.9
10531
11229
10902
10927
11581
11376
10584
10842
11604
11286
10681
11331
12200
11621
10742
11160
11674
11089
10814
11628
11953
11386
11629
12573
12252
11206
11589
12428
11602
10693
11711
12471
11344
10925
12221
12490
11347
11382
12244
11442
10394
11649
12616
10963
10178
11859
12320
10929
10863
11803
11111
9601
9700.6
10707
10400
9284.4
9565.9
10821
10641
9426.5
9463.6
10012
9480.3
9262.4
10003
9753.8
8744.8
9095.7
9935.4
9358.6
8724
9536.1
10059
9034.9
8381.6
9246.8
9638.6
8504.4
8124.9
9654.7
10686
9877.3
9190.1
9550.8
9439.7
8748.2
8958.6
9571.3
9223.9
8846.9
9477.3
9803.6
9196.8
9318.2
10254
9807.4
8522.9
9128.9
10532
9899.9
8747.2
9572.1
10682
10090
9655.5
10657
10673
9246.9
9459.6
10892
10482
9608.2
10651
11431
10383
9902.2
10795
10840
9932.2
10175
11310
11193
10110
10329
11616
11511
10224
10047
10570
10180
10098
11426
12012
10786
10392
11804
12159
10693
10372
11768
12045
10911
10834
11583
11322
10930
11491
11610
10759
10567
11516
12019
11351
10938
11655
12094
11483
11336
11889
11221
9992
10678
11906
11358
10954
12103
12471
11468
11522
12593
12161
10701
10857
11900
11588
11034
11669
11851
10858
10738
11685
11332
9948.5
10131
11238
10860
10181
11039
11480
10125
9420.8
10324
10435
9361.8
9311.2
10139
9792.5
8833.9
9262.8
10161
9691.5
9103.9
9823.5
10110
8825.5
8120
9100.1
9536.5
8660.7
8709.9
9806.5
9690.9
8747.6
8992.8
9701.6
9161.3
8408.2
8975.6
9570.4
8942.9
8621.4
9385.8
9703
9339.4
9638.2
10213
9674.4
8662.5
8712.5
9392
9450.5
9215.6
9538.3
9855.7
9443.3
9221.9
9803.6
9725.3
8699.9
8841.9
10136
10082
8960
9332.4
10672
10427
9315
9636
10376
9680.2
9088
10095
10700
9650.7
9205.3
10294
10601
9640.9
9724.5
10764
10433
9376.1
9854.7
10718
10091
9614.7
10658
11359
10729
10302
10457
10019
9727.7
10939
11819
10586
9587.9
10642
11444
10521
10035
10973
11174
10272
10484
11324
10655
9819.2
10828
11956
11483
11038
11628
11476
10405
10570
11559
11085
10186
11111
12183
11144
10051
11062
12107
11333
10654
11522
12033
10992
10696
12282
12847
11204
10580
11818
11788
10629
11199
12060
10719
9655.5
10997
11942
10727
9751.1
10261
10310
9455.9
9682
10711
10242
8996.1
9398.9
10353
9351.3
7927.8
8705.4
9900.6
9338.7
9009.5
9972.6
9870.8
8541.8
8512.8
9516.2
9161.1
8005
8222.2
8965.2
8598.2
8411.6
9265.5
9330.8
8357.6
8301.2
8885.1
8413.1
7674.9
8202.8
9190.9
9144.2
8430.6
8613.2
9623.2
9497
8496.9
8999.4
9954.2
8867.1
7887.2
9219.3
10004
8838.1
8603
9516.7
9261.4
8777.9
9697.4
10261
9153.7
8328.8
9207
10178
9892.7
9608.5
10158
10111
9279.1
9669.6
10792
9932.6
8517.9
9840.7
11531
10359
9331.6
10765
11278
9604.2
9325.9
11018
11073
9418.8
9588.5
11079
10686
9613.4
10590
11762
10805
9895.9
10829
11090
9414.5
8744.9
10191
10776
9585.4
9570.3
11331
11731
10484
10593
11527
10647
9644.4
10651
11157
9981.6
10127
11758
11875
10861
10981
11404
10679
10171
11011
11435
10536
10462
11842
12256
11230
11003
11739
11457
10624
11172
11951
11136
10480
11556
12297
11389
11007
12081
12247
11123
11302
12462
11966
10777
11382
12371
11476
10416
11084
11294
9911
9872.4
11481
11250
9617.4
10034
11455
10860
9656.2
10080
10415
9220.7
8675.8
9899.8
10444
9255.5
8772.9
9711
9702.2
8624.8
8870.9
9970.9
9512.2
8441.6
9094.7
10020
9042.9
8056.4
9011
9771.7
8767.8
8324.8
9484.1
9649.9
8541
8861.8
9835.5
8968.7
8025.6
8958.2
9535.1
8485.8
8174.8
9395.5
9793.5
8857.7
8802.7
9690.3
9485.8
8630.9
8947.7
9692.8
9448.3
9152.5
9806.4
10233
9597.2
9173.8
9900.8
10447
9604.4
8938.9
9881.8
10414
9212
8737.6
10010
10611
10037
10138
10569
9966
9616.2
10619
10832
9320.9
8974
10607
11064
9917.8
10136
11313
10835
9927.4
10749
11506
10461
9700.9
10573
10759
9513.6
9661.4
11488
11640
10028
10193
11812
11161
9318.5
10051
11443
10618
10470
12229
12231
10557
10807
12155
11624
10334
10756
11919
11816
11125
11364
11777
11187
10873
11801
11868
10386
10248
11841
12031
10881
11234
12404
11908
10862
11304
11999
11430
10856
11413
11816
11114
10721
11350
11347
10483
10700
11381
10187
8650.2
9669.1
11279
10466
9331.1
10407
11211
9753.4
9008.1
10310
10148
8320.1
8757
10289
9214.6
8011.3
9580.8
10668
9092.6
8142.8
9520.6
10332
9239.4
8656.3
9339.3
9185.3
8179.5
8561.9
9933.5
9853.6
8878.4
9146
9517.6
8606.1
8538
9922.2
9869.1
8404.6
8596.1
10027
10013
9231.2
9566.1
9905.3
9110.3
8881.9
9872.6
9918.4
8759.1
8878.5
10114
9887
8798.3
9353.2
10478
9856.7
9105.7
10317
11203
9887.8
9078.9
10289
10846
9775.1
9433.8
10198
10001
9249.1
10001
11130
10500
9700.2
10726
11616
10474
9576.5
10575
10918
10005
10805
12161
10790
9380.7
10880
11917
10474
9681.7
10604
11069
10770
10833
11177
11133
10688
10725
11466
11447
10674
11166
12197
11513
10699
11783
12430
11027
10378
11662
12086
10979
10915
12029
11928
10928
11211
11910
11193
10659
11905
12719
11527
10645
11554
12028
11039
10887
12059
12177
11167
11133
11570
10511
9221
9991.1
11278
10853
10161
10507
10424
9728.2
10169
11145
10446
8993.7
9260.3
10131
9397.6
8570
9440
10108
9118.1
8609.1
9608.5
9613.3
8109.1
7975.6
9163.9
8775.7
7622.1
8350.4
9438.9
8623.1
7946.8
9131.5
9663.8
8138.9
7268.8
8305.7
8802.9
8017.9
8220
9400.1
9264.8
8421.6
9018
9759.2
8634.2
7663.5
8821.6
9605.2
8424
8106.6
9596.4
9963.2
8919.8
9219.4
10400
9670.1
8174.2
8745.4
9676.4
8712.9
8340.9
9917.8
10424
9092.3
8639.6
9350.8
9258.2
8610.4
8945.6
9683.2
9305.1
8456.3
8972.7
10323
10340
9539.7
9844.2
10060
9036.8
9157.4
10758
10528
8748.8
9015.4
10738
10665
9573.8
9926
10532
9723.2
9334.2
10443
10632
9311.2
9269.2
10660
10809
9988.1
10383
11246
10700
9646.7
9886.3
10606
10263
9913.3
10862
11493
10545
10096
11200
11367
10151
10249
11202
10495
9549.7
10522
11571
10945
10398
11127
11403
10622
10599
11261
10855
10237
11146
12151
11377
10258
10549
10991
10431
10230
10909
10710
9446.3
9356.2
10696
10935
9707
9386.8
10105
9934.5
9315.2
9604.3
9681.6
8664
8318.1
9281.6
9559.6
8670.2
8423.6
9038.7
9006
8447.3
8658
9015.7
8281.6
7698.2
8629.7
9213.7
7824.7
6727.2
7671.5
8367.6
7771.6
8116.1
9093
8438.9
7457.6
8036.2
8507.9
7616.5
7057.2
7822.6
8548.7
8249.5
7856
8260
8596.6
8012.4
7695.7
8396.8
8456.6
7541.1
7763.7
8830.5
8552.5
7818.7
8495.2
9180.4
8384.6
7912.8
8912.6
9130.5
7798.8
7651
9120.1
9325.2
8195.5
8235.2
9040.3
8734.9
8298.7
9040
9487
8635.3
8178.4
8946.8
9359.9
8911.4
8967.9
9432.2
9128.8
8889.5
9773.5
10239
9185.2
8589.4
9578.5
9943.1
8880.2
8932.1
10482
10616
9204.4
9284.7
10642
10164
8679.5
9286.7
10380
9344.1
8674.3
10257
11040
9666.6
9162.1
10409
10616
9467
9574.1
10547
10093
9349
10081
10654
10003
9921.1
10774
10696
9705.8
9699.8
10857
11445
10814
10376
10969
11362
10862
10386
10103
9663.6
9931.6
11015
11127
10060
10115
11458
11299
9540.1
9400.3
10882
10712
9253.7
9423.9
10225
9531
8998.2
9742.5
9678.3
8452.5
8222.5
9030.4
8928.1
8052.9
8120.5
8711.8
8183.4
7356
8001.9
9008.7
8415.6
7506.7
7985.1
8153.4
7145.1
7284.2
8281.6
7434.2
6096.9
7109.7
8617.7
7907.3
6793
7394.3
7745.1
6636.6
6572.4
7896.8
7745.4
6646.4
7352.6
8476.8
7626.4
6653
7478.5
8386.9
7906.7
7300.9
7740.9
8245.5
7688.8
7325.8
8479.2
9328.6
8273.4
7507
8583.9
9325.5
8649
8292.4
8450
8045.6
7949.7
8868.9
9313.3
8636.6
8270.3
8645.8
8603.6
8451.6
9220.9
9512.3
8275
7753.7
8908.4
9428.2
8773.5
8836.6
9507.7
9179.1
8534.8
9197.8
10122
9495.7
8466.9
9096.7
10256
9666.4
8547.6
9257.9
10307
9678.6
9188.5
10093
10198
9002
8932
10029
9949.3
8932.8
9030
9959.4
10045
9474.3
9661.9
10325
10011
9568.5
10641
11327
9784
8936.9
10527
11231
10140
10464
11763
11062
9737.9
10248
10753
9580.6
9165.1
10840
11602
10123
9372.5
10282
10440
9854.6
10391
11118
10299
9262.6
9756.4
10448
9867.1
9469.8
10258
10457
9342.4
8997
9857.5
9491.3
7926.2
8004.6
9213.6
8733.1
7591.4
8197.7
9149.5
8609.7
8111.4
8728.7
8576.5
7146.2
6798.3
7971.7
8191.6
7028.7
6890.9
8040.8
8050
7001.6
7218.8
7971.4
7183.6
6467.3
7665.1
8457.3
7185.8
6459.8
7592.5
7987.3
6926.2
7003.7
8163.4
7717.9
6485.5
7050
7870.5
6935.2
6495.3
7861.2
8400.6
7383.7
7404.3
8526
8090.2
6723.4
7146.7
8044.4
7108.9
6495.1
7884.2
8750.7
8010.1
7793.1
8415.5
8193.4
7477.2
7951.8
9057.5
8795.6
7536.2
7770.3
9418
9535.3
8181
8198
8797.8
8000.2
7952.9
9500.8
9415.2
7829.2
7997
9046.5
8590.9
8036.3
8724.5
9065.6
8505.1
8582.7
9378.6
9273.1
8303.7
8360.2
9467.7
9590.3
8671.3
8631.7
9404.2
9416.4
9070.5
9579.8
9928
9035.8
8510.7
9502.3
10153
9359.6
8991.2
9863
10070
9369.7
9718.6
10559
9871.5
8970.4
9943.5
11011
9973.6
8875.4
9884.2
10723
9752.5
9505.3
10597
10508
9786.3
10652
11698
10971
9869.8
10057
10799
10838
10254
10123
10575
10368
9719.1
9968.8
9979.5
8710.4
8411.4
9617.1
9660
8705.8
8798.3
8800.9
7639.7
7441.4
8582.8
8366
6714.8
6428.3
7483.1
7354.1
6382.1
6839.9
7842
7340.3
6761.7
7819.2
8506.3
7184.2
6073.5
6994.3
7982.8
7331.7
6800.2
7783.2
8517.3
8054.7
8259.9
9141.8
8204.8
6518.2
7293.5
8727.8
7871.1
7165.6
8470.6
8945.3
7777.2
7672.9
8715
8598.7
7531.5
7378
7906.9
7772.9
7436.4
8060.9
8818.1
8400.6
8083.8
8956
8652.4
6646.5
6765.5
9042.4
8959.9
7113.7
7637.4
9212.3
8681.4
7843.5
8675.3
9145.2
8171.8
7847.2
8783.7
8953.4
8039.3
8121.8
9249.9
9302.3
8526.8
8864.9
9456.9
8580.9
7976.9
9297.2
9986.7
8604.6
8120.1
9497.3
9991.9
9201.7
9032.5
9315.1
8879.3
8287.1
8561.7
9205.1
9092.3
8546.3
8749.7
9306.5
8948
8472.2
9033.4
9187.1
8345.7
8677.6
9927.1
9512.6
8343.1
8935.3
10122
9836.5
9338.5
10046
10352
9472
9488.6
10648
10630
9743.5
10231
11238
10732
9881.9
10350
10882
10258
9707.5
10075
10167
9510.8
9544.3
10380
10043
8522.3
8200.5
9142.9
9199.2
8708.5
9280.6
9609.8
8447.8
7849.8
8766.8
9078.3
8246.1
7959.2
8401.1
8334.2
7838.8
7971.4
8442.6
8050.2
7286.1
7700.9
8493.8
7625.7
6323.6
7020.7
8208.5
7767.5
7289.1
7714.1
7415.4
6781.2
7461.9
8112.6
7029.7
6039.6
7044.8
8225.7
7680.5
6910.2
7348.8
7609
6984.6
7337.7
8855.8
8743.9
6796.5
6355.3
7793.1
8113.7
7339.9
7812.9
8781.5
8359.3
7790.1
8404.8
8564.9
7462
7135.7
8206.4
8582.7
7912.1
8185.5
9247.2
9132.9
8507.7
9184.1
9793.1
8538.9
7511.7
8683.5
9636.4
8641.5
8105.8
8983
9054.5
8324.3
8796.9
9682.6
9026.9
8150.6
8989.9
9800.5
8886.9
8429.6
9670.2
10080
8786.7
8553
9967.5
10075
8668.1
8799
10130
9993.2
9404.4
10238
10816
9990.6
9697.7
10347
9959.6
9039.3
9819.6
11033
10124
8852.9
9973
11486
10685
9717.1
10920
11817
10311
9048
9971
10769
10174
10313
11560
11756
11023
11117
11238
10115
9548
10750
11176
9732.6
9373.6
10836
11185
10047
9739.7
10075
9354.1
8591
9496.4
10467
9533.8
8499.8
9318.6
10241
9511.4
8732.4
9156.8
9097.1
8095.5
8334.3
9614.9
9383.9
8086.4
8091.1
8950
8911.9
8450
8514.7
8299.9
7615
7853.9
8794
8595.6
7593.1
7705.2
8493.2
8180.7
7550.1
8192.5
8779.6
7914.8
7432.9
8297.3
8238.8
6999
7328.2
8929.4
8882.7
7607
7583
8436
8422.6
7995.3
8487.4
9215.1
8799.7
8169.3
8835.9
9524.7
8683.1
7992.9
8901.2
9430.8
8656.1
8724.6
9678.4
9143.9
7865.4
8498.5
9989
9587.8
8524.2
9225.9
9955.6
8981.1
8712.1
9982.2
10013
8789
9049
10211
9753.5
8670.4
9319.8
10451
10129
9786.9
10467
10208
8737.8
8651.9
10064
10269
9178.4
9188.5
10300
10521
9963.6
10280
11039
10564
9817.3
10639
11397
10214
9352.2
10365
10777
9980.9
10344
11192
10555
10109
11168
11444
10058
9420.7
10468
11205
10801
10792
11452
11283
10605
11018
11525
10216
8901.8
10004
11262
10338
9645
10637
10831
9743.2
9748.4
10418
9408.3
8025.7
8868.7
9950.7
8741.6
7904.5
9630.8
10765
9338.2
8167.4
8666.7
8694.3
7700.1
7566.5
8487.4
8650
7771.2
7695.4
8787.9
8985.8
8099
8187.5
8709.7
7824.8
7120.7
8145.3
8570.9
7380.3
7389.9
8976.4
8975.3
7435.8
7562
8763.6
7950.8
6534.9
7520.2
8815.5
7963.5
7376.8
8402.6
8670
8050
8657.8
9697.8
9083.3
7971.9
8496.5
9411.3
8680.5
7764.1
8562.2
9475.9
8727.3
7919.3
8538.2
8955
8294.5
8450.9
9595.4
9450.4
8175.6
8229.8
9507.5
9774.5
9146.7
9240.2
9399.7
8759.9
8803.7
9750.7
9427.3
8112.4
8476
10039
9884
8611.5
8999.5
9987.5
9242.6
8632.7
9774.9
10025
8710.5
8836.4
10083
9792.7
9001.1
9498.3
9921.7
9312.6
9040.5
9814.3
10349
9603.6
8849.6
9604.4
10390
9415.7
8512.3
9368.5
9848.7
9012.3
9203.6
10208
9570
8511.3
9421.8
10563
9618.3
8389.2
8986.6
9705.5
9054.4
8964.4
10144
10120
8496.9
8090.5
9326.7
9535.3
8539.5
8704.6
9492.9
8772.1
7693.3
7999.8
8242
7412.9
7376.2
8487.1
8236
6473.6
6086.6
7241.9
7335.9
6486.3
6663
7058.3
6173.3
5613.6
6680.8
7172
5900.4
5395.6
6553.6
6765.9
5722.2
5998.8
7166.7
6735.7
5690.4
6232.1
6922.7
5925.5
5110.3
5911.8
6070.4
4899
5118.8
6633.4
6561.9
5579.3
6188.1
7198.8
6454.3
5477
6208.6
6963.6
6200
5896.4
7148.6
7804.5
7081.5
6950.3
7775.3
7797.2
7087.6
7223.5
7667.7
7137.6
6794.1
7915.3
8915.5
8286.5
7683
8431.2
8548.3
7307.4
7253.3
8391.9
8152.4
7645.1
8986.6
9762.3
8248.5
7581.8
9029.3
9320.4
7638.4
7170.8
8492.5
8696.9
7545.4
7841.6
9445.5
9592.9
8497.6
8382.6
8866
8449.6
7913.8
8461.3
9023.3
8518.9
8298
9325.2
9886.1
9048.5
8687.6
9447.5
9291.5
8235.5
8589.5
9678.4
9177.2
8343
9270
10358
9714.7
8973.9
9563.3
9711.5
8834.6
9170
10416
10003
8886.7
9621.1
10807
10036
8961
9745.3
10504
9637.2
9328.9
10359
10248
9079
9562.4
10989
10480
9059.2
9407.6
10092
8973.4
8255.5
9542.4
9996
8562.5
8170.8
9018.6
8490.7
7324.9
7862.2
8905.2
8443.3
7795
8513.4
8931.7
7845.9
7342.7
8381.6
8792.5
7882.7
7500
8052.6
8084.7
7536.6
7739.7
8420.6
8105.3
7256.6
7467.2
8122.1
7544.4
6586.1
7032.8
7875.2
7435.9
6723.3
6933.2
7149.1
6898.9
7251.8
8041
7730.1
6794.1
7053.7
7766.6
7328.7
6930.2
7782.6
8237.7
7402.9
7295.5
8526.3
8642.6
7327.9
7282.8
8262
7664.3
6708.5
7800.4
8924.2
7997.7
7320.4
8342
8792.8
7845
7629.1
8622.1
8908.2
8233.5
8391.5
9299.8
9118.4
8276.3
8602.7
9233.9
8371.6
7342.8
8102.5
9252.1
9065.7
8883.3
9669.4
9764
8784.7
8715.3
9553.2
9154.4
8172.3
8975.3
10220
9497.3
8599.8
9518.6
10284
9493.2
9198.1
10207
10263
8985.5
8853.3
9887.5
9695.7
8723.5
9268.3
10518
10257
9567.1
10282
10602
9170.9
8711.3
10301
10869
9717.5
9635.3
10714
10555
9574.9
9703.9
10167
9630.2
9318.2
10081
10236
9253.6
9240.2
10457
10491
9233.3
9042
9707
9224.4
8551.7
9475.4
10173
9004.7
8380.1
9653.4
10133
8771.4
8273.9
9365.3
9412.4
8193.2
8176.4
8871.9
8246.9
7676.6
8657
9127.5
7947.2
7481.9
8613.9
8815.9
7496
7283
8366.4
8284
7351.4
7655.4
8359.9
7694.1
6854.6
7452.5
8189.2
7803.9
7575.8
8107.7
7986.5
7242.8
7509.7
8360.8
8059
7291.9
7705.3
8458.4
8160.2
7797.2
8469.9
8890.9
8019.5
7599.2
8715.2
9070.4
7589.7
7110.7
8616.8
9195.8
8343.3
8534.2
9213.2
8383.5
7678
8828.9
9630.7
8526.8
7798.5
8760.6
9166.6
8151.6
7982.8
8980
9002.4
8365.5
8937.8
9625.3
8600
7731.8
9061.6
10221
9273.5
8740.4
9782.4
9897.9
8965
9510.4
10749
9834.5
7961.7
8326.4
9798.2
9600.5
8933.4
9564.9
9904.9
9125.1
9157.5
10163
10011
8928.8
9048.5
10044
10098
9670.4
10162
10729
10080
9545.7
10360
10669
9476.8
9198.1
10292
9944.7
8584.3
9264.5
10719
10143
9267.9
10062
10466
9272.3
8608.1
9371.6
9646
8867.2
8958
10150
10258
9157.7
9013.3
9596
8809.8
7734
8655.2
9700.5
8610.2
7761.8
8920.6
9592.8
8614.6
8103.2
8544.5
8272.5
7493.1
7799.1
8552.2
8036.8
7082
7602.7
8598.6
7850.2
6600.6
7331.5
8570.8
8017.4
7239.1
7730.5
7692.9
6575.4
6628.4
7877.6
7748.2
6645.5
7260.3
8548
7865.3
6903.6
7798.8
8266.2
7047.6
6891.7
8248.4
8410.7
7501.6
7712.1
8367.4
7749
7100.8
8030.7
8880.6
8101
7486.9
8279.5
8825.1
8438
8446.2
8822.6
8268.2
7408.9
7846.9
8713.8
8202.6
7300.8
7827.5
8726.3
8275.5
7754.2
8650.1
9260.2
8535.3
8493.7
9332.7
8926.3
7964.4
8545.8
9600.1
9343.2
8842.7
9227.9
9232.2
8418.6
8532.4
9690
9829.2
8913.9
8932.8
9646.9
9170
8228.7
8759.6
9712.1
9291.8
8798.9
9602.4
9985.8
8919.1
8662.8
10089
10482
8972.3
8414.6
9579.1
9948.4
9351.5
9750.8
10205
9264
8905.6
10238
10880
9892.5
9257
9789.9
10134
9698.9
9555.6
10090
10197
9777.1
10106
10696
9794.5
8614.6
9477.5
10644
9708.9
8630.1
9264.8
9695.6
8932.2
8926.8
9859
9471.3
8141
8410.5
9439.3
8849.3
8017.4
8812.1
9361.2
8331.5
7860.2
8710.3
8510.2
7118.4
7291.2
8781.5
8579.9
7112.7
7264.9
8451.5
8197.4
7396.7
7993.4
8634.8
7688.2
6799.5
7473.1
8086.2
7397.2
7092.9
8032.5
8315.8
7484.4
7568
8321.8
7584.4
6499.6
7386.1
8387.6
7393.4
6704.7
7917.3
8632.2
7790.9
7507.7
8170.7
7879.4
7119.7
7846.9
8732.8
7838.1
7191.9
8543.4
9556
8658.6
7943.2
8472.9
8382.6
7452.2
7795.8
8935.5
8511.4
7440.1
8096.2
9360
8989
8033
8320.9
8778.2
8191.8
7868.7
8547.7
8722.7
8051.4
8289.6
9462.8
9425.8
8343.8
8473.3
9299.5
8851.3
8313.5
9255.5
9806.7
8722.5
8296.4
9392.2
9587.3
8517.9
8676.8
9892.2
9672.1
8775.8
9501.6
10323
9326.6
8753.1
10084
10765
9640.4
9016.6
9798
10095
9378.4
9377.9
10238
10166
9381.5
9763.5
10609
9781.5
8546.2
9302.9
10423
9893.4
9639.3
10608
10502
9336.5
9712
11132
10891
9694.8
10066
10919
10197
9531
10374
10637
9499.3
9314.1
10359
10106
8700.4
8779
10018
9983
9169.1
9555
10189
9293.3
8321
8922.2
9233.9
8041.9
7776.2
9092
9070.4
7652.1
7893.3
9142.2
8562.5
7476.7
8277.5
9039
7714.2
6683.9
7944.7
8967.5
7930.6
7236.6
8089.4
8225.3
7235.8
7328.3
8179.5
7520
6432.4
7329.8
8454.6
7526.8
6724
7716.4
8331.2
7757.6
7830.3
8381.5
7738.1
6826.6
7464.9
8366.6
7768.5
7242.4
8373.7
9263.7
8325.5
7497.4
8182.9
8463.3
7534.4
7540.5
8704.4
8723.5
7880.2
8410.7
9499.6
8929.2
7894.4
8448.9
9059.6
8054
7475
8689.6
9273.6
8126.6
7785.9
8959.9
9273.5
8434.5
8410.6
8996.9
8653.1
8200.5
9036.3
9754.3
8947.2
8333.6
9184.1
9761.7
9150.8
8969.6
9662.3
9602.9
8872.7
9240.8
10131
9683.6
8841.8
9335.7
10043
9494.7
9010.6
9752.1
10088
9221
9107.5
10104
10095
9146.7
9474.6
10662
10349
9270.4
9755.8
10522
9705.8
9342
10587
10756
9355.2
9396
10917
10827
9269.5
9076.7
10020
10001
9700.5
10335
10365
9116.9
8933.6
10251
10337
8802.1
8282.5
9178.7
9394.2
8859.8
9163.3
9620.5
8779.6
8025.8
8833.9
9405.4
8269
7386.9
8203.4
8827.9
8221.9
8161.9
8867.9
8497.9
7578.2
8045.2
8960.9
8290.2
7064.4
7316.5
8059.4
7577.5
6921.8
7286.9
7588.1
7287
7658.4
8463.6
7708.1
6033.3
6204.8
7616.6
7571.8
6706.1
6977.9
7540.5
7282.8
7238.1
7648.7
7057.3
5886.3
6238.4
7621.6
7814.8
7241.8
7493.5
7762.7
7154.5
7158.3
8261.1
8432.1
7345.1
7262.8
8335.7
8304.7
7360.1
7678.9
8644.4
8349.2
7748.2
8208.5
8498.2
7812.7
7576.6
8284.6
8331.6
7354.1
7289.7
8599.7
9046.5
8049.3
7928.5
8978.6
8631.9
7151.5
7387.5
8615.7
8211.7
7434.9
8398.5
9442.3
8853.5
8408.5
9299.9
9560.4
8679.7
8842.8
9641.8
8767.6
7580.6
8634.4
10224
9784.5
8931.1
9651.7
10023
8886.8
8798.5
10154
9950.7
8474.6
8784.6
10112
9741.8
8908.2
9723.6
10301
9075.1
8680.8
10273
10619
8922.4
8635.7
10189
10566
9801
10032
10541
9794
9103.8
10023
10987
10219
9268.1
9899.6
10634
10009
9469.2
9899.7
9736.9
9012.2
9618.8
10586
9708.2
8561.4
9371.4
10432
9708.2
8736.9
9104.5
9352.2
8680
8773.2
9495.4
8866.5
7735.4
8204.6
9124.7
8482.6
7351
7468.8
8000.8
7858.6
7819.3
8125.4
7649.7
6778.5
7214.9
8389.7
8122.2
6796.2
6634.2
7570.8
7851.7
7494
7709
8089.3
7481.4
6797.4
7321.9
7665.7
6642.7
6240.2
7364.8
7633.8
6629
6750.4
7758.3
7592.6
7061.5
7589
7923
7127.2
6610.1
7168.5
7461.2
6795.4
6621.7
7568
7847.3
6922.9
7047.5
8436.6
8205.6
6610.7
6945.5
8498.7
8308
7549.5
8210.8
8710.2
8023.4
8002
8915.1
8597.7
7249.5
7386.4
8622.3
8470.2
7537.1
8119.3
9316.9
8958
8226.8
8847.5
8842.8
7180.6
7011
8879.4
9205.6
8126.4
8786.3
10118
9600.7
8895.4
9680.9
9871.8
8498
8025.3
9108.1
9216.9
8086
8309.8
9651.3
9500.2
8519.1
9058
9852
8717.7
7543.7
8685
10041
9378.5
8790.3
9946.6
10703
9867.7
9361.9
9853.8
9685.3
8976.1
9390.2
10113
9581.7
9202.9
10198
10666
9631.8
9347.7
10526
10590
9341.7
9650.1
10847
9960.9
8507
9301.1
10514
9861.6
9011.5
9488.3
9872
9396.3
9328.2
9809.4
9404.1
8282.5
8353.9
9506.5
9406
8129.1
8093.8
8977.5
8691.5
8158.4
8942.8
9391.6
8333.4
7832.5
8639.4
8644.8
7572.3
7498
8392
8301.4
7448.3
7613.4
8368.7
8243.7
7923.9
8348.6
8370.9
7450.7
7177.6
7895.3
7795.5
6963.5
7392.5
8422.6
7890.4
6881
7537.7
8473.8
7564.1
6406.4
6922.9
7333.9
6631.9
7078.8
8321.8
7620.2
6442.5
7680
9393.5
8837.9
7582.2
7768.6
8354.2
8002.5
7568.8
7934.6
8342.5
8243.5
8395.5
8890.3
8628.1
7837.3
7948.9
8655.5
8572.3
8148.4
8616.4
9271.9
8817.4
8131.1
8471.4
8855.7
8401.9
8389.6
9231.6
9299.6
8603.8
8956.9
9821.1
9289.4
8340.4
8908.9
9814.2
9186.4
8260.4
8884.9
9903.9
9669.2
9200.9
9576.4
9714.4
9105.8
8971.9
9521.2
9530.1
9152.5
9566.4
10074
9401.2
8694.5
9375.6
10183
9723.9
9424.4
10302
10383
9246.4
9423.4
10466
9774.6
8774.7
9863.1
11084
10460
9984
10865
10814
9336.1
9173.5
10443
10427
9566.4
10230
11228
10462
9621.8
10377
10715
9484.3
9083
10416
10764
9177.1
8546
9887.6
10386
9185.5
8835.9
9642.8
9330.2
8376.3
8859.2
9517.8
8569.5
7862.9
8757.8
9136.7
8125.1
7883.3
8751.1
8512.4
7540.5
8138.7
9077
8126.3
7205
8118.2
8765
7968.2
7574
8141.1
8120.4
7401.1
7446.8
8112.4
7894.6
7089.9
7353.8
8281.4
7971.3
6857.8
7029
8133.8
8271.9
7727.9
7970.3
8511.3
8107.4
7582.9
8111.7
8546.3
8020.8
7948.5
8618.6
8522.5
8077.4
8676
9190.4
8341.5
7900.4
9087.1
9593
8179
7494
8775.5
9477.9
8732.5
8544.2
8793.5
8029.6
7535.5
8557.7
9111.9
7946.4
7242.2
8382.9
9331.9
8716.2
8110.3
8358.6
8306
8043.9
8658
9157.5
8187.2
7447.8
8569.8
9342.2
8363
8201.1
9432.7
9210.8
7811.3
8300.3
9886.4
9369.2
7801.8
8373.6
9774.9
9240
8430.1
9322.9
9934.3
9160.1
9084.5
9988.3
9759.9
8707.8
8860.4
9599.4
9134.3
8394.6
9126
10157
9607
8801.4
9453
9913.3
8947
8778.8
10130
10206
8706.8
8882.6
10685
10563
8866.1
9227.1
10795
10009
8477.3
9451.6
10535
9342
8842.3
10146
10203
9041.4
9239.9
10045
9414.4
8435.7
8895.3
9618.4
8883.7
7957.1
8545.6
9393.7
8876
8128
8340.6
8301.5
7564.6
7763.5
8658.1
8218.8
7112.9
7632.2
8971.2
8706.8
7560.2
7563.9
7693.8
6773.9
6743.1
8175
8350.1
6973.6
6948.2
8293.1
8223.6
7071.9
7332.7
8129.1
7225.4
6151.1
7070.9
8153.7
7430.8
6755.5
7568.4
8015.5
7266.8
7217.8
8055.6
7832.7
6988.9
7359.6
7878.7
7214
7070.8
8180.4
8545.1
7822.3
7649.1
8026.6
7869.8
7663.8
8310.1
8798.9
7916.1
7056.1
8020.4
9249.2
8445.7
7382.5
8425.5
9341.2
8185.2
7599.7
8651.8
8634.2
7543.6
8034.8
9274.6
8585.7
7263.9
7993.3
9211.5
8645.3
8145.9
9188.1
9506
8389.6
8388.9
9639.9
9474.8
8082.7
7994.3
8908.5
8865.9
8605.7
9531.7
10101
8941.7
8217.8
9408.4
10041
8675.5
7945.3
9257.5
10199
9640.1
9457.1
9887.2
9329.3
8521.1
9130.1
9915.5
9290.9
8802.8
9829.3
10469
9584.9
9227.7
10037
9946.3
9018
9395.4
10333
9416.3
8000.3
8804.4
10053
9219.3
8384.1
9324.4
9818.8
8959.2
8933.2
9784.6
9177.1
7645.5
7779.1
8774.8
8122.4
6971.7
7750
9057.2
8537.7
7715
8440.3
8595.4
7038.9
6835.9
8622.1
8729.4
6867.6
6700.9
8213.4
8171.1
7088
7566
8159.4
6647.5
5485.6
6695.8
7375
6141
5989.3
7381.6
7526.4
6561.8
6616.4
7172.3
6798.1
6239.6
6569.1
6879.6
6296.6
6093
7146.8
7787.2
6989.1
6445.7
6874.8
6621.1
5954.8
6810.8
7858.2
6926.5
6066.6
7356.2
8456.7
7478.1
6644.2
7523.9
8056.4
7203.8
7060.1
8086.1
8181.6
7365
7591.6
8427.9
8072.4
7300.4
7798.3
8542.5
8191.8
7932.5
8472.4
8355.8
7524
7920.9
9281.9
9153.7
7873
7942.5
8712.5
8220.2
8012.3
9287.6
9351.4
7588.2
7466.8
9269.3
9565
8348.4
8482.6
9647.5
9558.9
8848.4
9405.6
10149
9307
8417.6
9260.2
10011
9038.4
8391.9
9355
9673.2
8779.7
9050.3
10035
9386.9
8509.7
9526
10427
9237.2
8154.1
9089.1
10001
9407.8
9291.2
10334
10396
9378.5
9440.6
10238
9688.4
8534.6
8933.8
9996.2
9716.6
9042
9626.9
10333
9776.5
9333.9
9966.7
9711.2
8062.7
7766.7
9227.8
9565
8607.7
8875.3
9948.7
9499.2
8458.3
8901.4
9345.8
8046.5
7166.8
8253.9
8876.1
7969.4
7907.7
8911
8753.1
7848.5
8024.3
8498.9
7902.9
7243.7
7808.9
8595.8
8288.1
7879.5
8517.7
8785.5
7688
7310.7
8377.3
8213.1
6896.1
7398.5
8470.6
7399.8
6463.4
7628.2
8320
7592.7
7824.1
8901.4
8430.6
7148.5
7496.3
8317.9
7507.9
6801.9
7840.7
8432.5
7430.9
7158.7
8225.4
8315.5
7401.8
7792.9
8968.2
8570.5
7523
8138.7
9226.6
8631.1
7701.8
8258.3
8925.7
8403.8
8118.4
8850.6
9027.6
8215.7
8212.5
9178.2
9071.4
8014.4
8228.5
9212.9
8798.7
8118.1
9031.9
9618.4
8661.9
8627.5
9736.5
9374.5
8191.4
8557.4
9620.3
9604
9230.8
9589.9
9799.5
8974.3
8315.4
8966.5
9622
8914.1
8282.7
9180.5
10058
9712.9
9628.2
10176
9801.9
8962.5
9507.9
10490
9741.5
8579
9399.3
10528
9850.7
9428.2
10556
10658
9246.1
9287.5
10805
10758
9301.9
9212.8
10273
10235
9535.3
9931.3
10549
9815
9108.8
9829.7
9956.3
8232.9
7359.9
8697.3
9517.6
8670.4
8389.6
8945.2
8480
7757
8527.7
9280.5
8198.6
7103.9
7808.8
8426.6
7507.4
7007.1
7750.2
7718.2
6842.3
7268.2
8319.2
7516.8
6163.2
7001.3
8158.4
7074.2
6155.7
7389
8105.9
6920.8
6388.2
7385.1
7593.1
6493.5
6221.5
7066.4
7247.5
6852.3
7368.9
8158.7
7668.1
6918.4
7486.7
7990.8
7115
6547.8
7104.2
7076.1
6533.3
7304.7
8577.2
8289.8
7464.7
7919.8
8383.7
7512.2
7125.7
8299.9
8781.7
7673.2
7435
8690.2
8955.2
7866.8
7709.1
8570
8524.4
7888.9
8304.8
8971.6
8466.2
8065.9
8956
9411.9
8487.6
8256.5
9269.8
9088
7854.1
8416.9
9928.6
9408.1
8233.5
9126.4
10325
9394.6
8364.3
9269.8
9785.5
8793.9
9136
10667
10112
8542.7
9095.4
10251
9489.3
8446.1
8983.3
9585.1
9202.3
9352.7
10249
10020
8943.9
9315.6
10651
10308
8867.7
9080
10321
10222
9616.4
10081
10323
9608.3
9805.2
10915
10576
9119.5
9113.1
10327
10574
10115
10494
10813
9828.4
9228.2
10254
10732
9362.2
8437.7
9371.8
10048
9248.9
8943.5
9829.5
9761.6
8526.9
8608.3
9923.9
9687.9
8177.5
8234.9
9371.2
9109.5
8280.5
8724.5
9110.1
8143
7870.5
9052.4
8691.8
6727.6
7105.1
9111.2
8590.2
6957.4
7710.2
8867.7
7978.3
7488.1
8830.3
8876.5
6820.6
6323.8
7781.9
7789.9
6909.6
7925.9
9031.3
7898.3
7091.8
8419.4
8992
7540.3
7097.7
8427.5
8516.8
7274.1
7553.6
8698.4
8361.6
7728.4
8142.4
8032.4
7078.5
7245.1
8519.9
8719.3
7652.6
7443.8
8409.6
8552.2
7768.7
8049.5
8995.1
8391.6
7325.7
8295.5
9554.4
8565.8
7495.9
8515.9
9463.5
8749
8241.3
8819.6
8831.9
8117.2
8410.1
9332.9
8896.5
7733.9
8170.8
9554.1
9354.2
8312
8767.7
9435.8
8593.1
8340.4
9569.8
9438.1
7814.2
8018.7
9800.3
9759.8
8299.3
8449.6
9534.7
9190.3
8728.8
9908
10651
9503.7
8942.7
10078
10434
9368
9181.1
10027
9951.3
9490.2
10264
10769
9533.1
8821.6
10027
10672
9594.3
9127.5
10131
10476
9744.2
9911.5
10750
10341
9521
10112
10782
9736.1
8746.9
9582.5
10148
9167.7
9071.6
10191
9825
8416.5
8605.1
9533.1
8949
7998.3
8567.6
9292.1
8775.2
8568.5
9339.7
9257.1
8341.5
8660.8
9646
9031.6
7639.7
7740.7
8598.7
8313.4
7589
7970
8575
7986.2
7551.4
8548.2
8650.8
6620.9
5865.9
7638.3
8179.8
6829.6
7222.9
8934
8489.9
6955.3
7278.8
8202.5
7600.3
6941.4
7776.4
8357.8
7497
7236.6
8440.6
8774.8
7635.5
7456.5
8415.4
8084.8
7090.4
7906.5
8969
7853.2
6862.2
8131.8
9042.7
7944.1
7601.9
8933.6
8725.8
6897.9
7315.1
9312.5
8840.5
7158.7
7867
9345.5
8833.9
8104.3
8928.5
9220.4
8032.6
7877.3
9203.1
9334.8
8294.5
8655.7
9897.3
9625.7
8715
9186.7
9916.8
9322.5
8717.8
9277.4
9532.5
8734.3
8651.4
9667.8
9773.1
8866.9
8971
9822.1
9491.9
8674.5
9223.3
9993.9
9287.9
8724.1
9820.5
10580
9538.5
8720.4
9427.3
9815.7
9264.1
9526.3
10181
9440.2
8702.6
9881.8
11205
10613
9570.8
9882.6
10424
10061
9974.5
10572
10351
9356.5
9529.2
10659
10445
9238.8
9382.9
10038
9384.8
9011.9
9845
9635
8398.6
8712.8
9913.3
9414.1
8084.5
8141.8
8766.7
8503.2
8428.6
9313.7
9385
7927.4
7272.1
8341.7
8776.2
7758
7468
8327.1
8263.1
7228.5
7303.3
8211.6
7821.6
6898
7724.1
8756.4
7483.6
6275.3
7522.3
8148.5
6702.2
6689.1
8110.4
7602.7
6552.7
7682
8677.5
7273.7
5972.6
6992.2
8388.6
8220.4
7727.3
7928
7782.3
7287.7
7733.1
8431
7684.1
6463.5
6823.6
7905.8
7805.4
7344.8
8045.3
8782
8091.4
7410.3
8176.5
8645.8
7764.1
7622.6
8621.4
8503.8
7629.1
8186.3
9195.2
8721.1
8239.6
9189.7
9409
7860.3
7479
9073.7
9316.3
7851.5
8059.8
9678.6
9716.5
8842.2
9101.1
9506.2
8894
8475.7
9208.9
9867.7
9246.7
8558
9334.2
10224
9589.9
9084.7
9940.3
9981.4
8857.8
9113.3
10034
9333.4
8738.3
9799.8
10269
9352.3
9312
10264
9997.6
8991.4
9508.9
10493
9717.7
8765.3
9671.4
10575
9801.5
9210.5
9962.7
10245
9397.6
9197.3
9957.8
9825.4
8716.8
9017.3
10862
11063
9259.3
8881
9992.5
9574.6
8518.7
9211.9
9875.5
8953.7
8745.5
9845.5
9662.8
8271.2
8346.6
9421.8
8977.5
7940.2
8505.9
9218.2
8506.3
8103.8
8548.7
8384.1
8320.2
9200.6
9317.7
8161.7
7740.8
8551.2
8664.8
7253.4
6342.9
7691.8
9177.1
7958.5
6138.4
6875.4
7922.3
6984.3
6850.2
8396.8
8352.9
7032.1
7812.9
9492
8444.6
6075.6
6151.4
7662.6
7710.7
7284.9
7874.8
7959.5
7234.8
7772.6
8974.3
8188.2
6432.6
6734.8
8140.8
7967.5
7314.9
8054.1
8437.2
7235.4
6929.2
8348.3
8620.1
7154
6904.6
8371.4
8774.9
7730.1
7846.6
9255.3
9360.2
8289.5
8480.6
9248.9
8394.9
7462.1
8461.1
9156
8186.4
8214.2
9506.3
9182.7
7876
8307.4
9400.5
8789.7
7707.5
8226.2
9103.1
8627.7
8253.6
9352.1
10042
9036.3
8671.3
9967.5
9931.6
8158
8279.1
9874.5
9423.1
8382.3
9580.9
10733
9792.5
9234.1
10284
10545
9443.4
9284.6
10310
10329
9250.2
9139.1
9991.1
10003
9675.7
10528
11113
9904.1
9091
10096
10496
9489.2
9518.5
10516
10265
9529.1
10023
10500
9658.5
8930.9
9435.1
9661.9
8629.8
8146.3
9260.2
9875.9
8833.8
8212.7
8873.5
8774
7905.5
8411.8
9228.1
8127.3
7040.2
8113.6
9033.5
7823.3
6850.3
7847.4
8465.6
7445.2
7116.8
7942
7726.3
6923.7
7525.3
8420.2
7777.2
6770.6
6945.2
7420.5
7241
7154.8
7581.3
7552.4
6878.6
7007.7
8056.4
7937.7
6693.8
6974.2
8458.8
8328.7
7242.8
7569.3
8234.5
7683
7467.7
8332.6
8339.3
7158.1
6853.6
7842.8
8397.6
8035.8
8025.8
8471.9
8266.4
7981.1
8852.9
9486.9
8215.9
6998.3
8031.9
9372.2
8904.1
8320.4
8932.9
9007
8080.9
8179.3
9240.4
8922.1
7645.5
7935.7
9064
8712.6
7944.8
8561.9
9272.9
8847.7
8788.9
9603
9234.1
7916.2
8459.6
10071
9739.5
8573.4
8960.8
9604.2
9219.1
9386.3
10312
9868.4
8500
8779.7
9924.4
9407.8
8520.7
9529.5
10534
9477.5
8823.9
10321
10820
8736.6
7756.2
9363
10014
9001.6
9529.5
11020
10486
9365.9
10180
11009
9825.4
8791.4
9709.7
10424
9508.8
9153.8
10276
10746
10054
9766.8
9851.2
9273
8689.7
9107
9587.4
9040.3
8630
9547.7
10217
9062.5
8062.3
8957
9410.3
8302.4
8327.7
9283.8
8425.6
7334
8373.3
9231.2
8311.5
7918.3
8730
8643.8
7589.7
7450
8133.7
8028
7289.8
7413.6
8107.2
7807
6946.5
6999.9
7362.9
6970.5
6851.6
7780.1
8198.9
7223.3
6819.2
8014
8469.1
7232.3
6990.6
8256
8152.6
6964.9
7479.6
8428.9
7406.1
6505.2
7710.1
8668.5
7843.1
7399.2
8299
8485.1
7653.6
7818.9
8514.7
7897.4
7234.7
8125.7
8860.6
8092.4
7590.3
8383.1
8722.8
7986.7
7992.8
8919.9
8856.4
7987.6
8271.8
9170.2
8648.8
7636.7
8208.7
8991.7
8202.8
7825.7
9266.8
9919.2
8521.7
8071.7
9833.5
10609
9160.4
8525.3
9574.9
9662
8608.7
8673.3
9472.4
9348.7
9198.4
9902.3
9942.4
8884.4
8689.8
9736.7
9948.8
8933.3
8924.8
10297
10550
9360.3
9269.2
10116
9500.9
8586.3
9661.7
10641
9723.6
9410.4
10438
10252
9230.1
9793.9
10825
10012
8929.5
9794.5
10662
9682.6
9185.1
10303
10592
9777.6
10207
11386
10869
9315.9
9269.7
10451
10609
9640.6
9324.2
9814.9
9788.5
9544.9
9954.9
9730.7
8542.1
8782.4
10203
9664.6
7929.3
8321.3
9793.2
9348.1
8246.2
8826.5
9497.6
8551.4
8004.3
9022
9159
7705.4
7409.7
8664.5
8909
8059.9
8101.4
8706.7
8390.8
7774
8056
8313.2
7481.8
6912.7
7783.2
8539.7
7958.6
7514.2
8020.3
7944.8
7323
7927.4
8815.9
8191.8
7616.2
8386
8671
7768.7
7424.9
7961.7
7995.3
7609.1
8054.7
8953.1
8866.6
8092.3
8199.7
8960.7
8750.8
8033.9
8476.7
9176
8714.8
8365
8865.9
8568.6
7561
8113.9
9736.3
9534.5
7921.5
7851.7
8900.5
8753.4
8469.6
9654.1
10268
8976.7
8411.3
9715.7
10105
8736.6
8297.5
9156.6
8993.8
8454
9743.9
11093
10120
8962.5
9646.4
10065
8963.7
8566
9697.7
10196
9785
10397
11225
10267
9173.8
9983.2
10810
9815.4
8885.4
9656.1
10468
10223
10402
11065
10590
9803.4
10524
11422
10527
9301.7
9808.4
10742
10304
9701.3
10456
11264
10642
10075
10911
11248
10225
10282
11548
11344
10363
11026
11845
10873
10158
11049
11158
9634.5
9081
10175
10408
9274.7
9141.1
10184
10238
9627.7
10194
10665
9223.4
8112.9
9376.7
10212
8721.1
7928.5
9260.2
9961.3
9249.8
9120
9453
8773.9
8090.2
8794.7
9217.1
7958.1
7396.4
9195
10474
9072.7
7962.6
9182.3
9495.3
7794.1
7855.7
9516
8930.4
7500.2
8464.6
9535.3
8339.5
7518.3
8674.5
9204.8
8265.9
8357.5
9532.8
9231
8062.4
8704
10101
9557.8
8271.8
8582.5
9299.5
8740.3
8243.5
8923.9
9186.1
8358.6
8563.7
10189
10429
8828.8
8467.6
9830.3
10048
8928.8
9006
9943.3
9606.6
9005.7
9861.6
10289
8707.4
7828.4
9313
10120
9118.7
9326.9
10686
10265
9119.1
9747.3
10604
9842.9
9294.3
10242
10607
9776.5
10202
11608
11108
9521.8
9813.3
10991
10471
9307.5
9737.6
10809
10641
9962.4
10287
10952
10773
10643
11251
10856
9287.1
9413.4
11337
11877
10959
11074
11624
10744
9958.4
10936
11536
10308
9811.5
11054
11250
10139
10461
11573
11193
10661
11394
11509
10270
9806.5
10755
11166
10506
10424
11007
10782
10238
10703
11030
9771
8632.1
9438.7
10365
9663
9199.7
10169
10609
9769.4
9487.8
9966.1
9442.3
8472.7
9123.3
10238
9571.1
8624.7
9432.2
10280
9463.3
8688.4
9251.6
9522.2
8636.8
8208
8877.6
9058.5
8187.4
7964.3
9001.6
9447.6
8843.5
8986.1
9667.5
9229.6
8682.8
9249.1
9306.2
8425.1
8648
9647
9497.7
9029.3
9529.3
9812.4
9083.9
8566.8
9000.6
9376.6
8955.2
8857.5
9904.6
10408
9246.1
8625.4
9780
10189
9103.1
9170.1
10282
9913.5
8998
9743.1
10697
9881.9
8967.9
9627.4
10105
9588.7
10055
10918
9866.4
8680.9
9874.7
11185
10304
9459.8
10441
11095
10287
10196
11341
11322
10002
10059
11435
11210
9748.2
10106
11495
11075
10229
11185
11866
10683
10145
11267
11682
10922
10852
11473
11465
11247
11728
11896
11033
10802
11882
12146
10934
10548
11588
11785
10948
11253
12135
11525
10804
11890
12779
11426
9993.7
10677
11568
10941
10629
11448
11384
10355
10553
11662
11390
10134
10073
10743
10406
9768.3
10106
10359
9584.4
9363.2
10442
10559
9097.3
8754.9
9858.3
9711.9
8563.7
8901.7
9911.6
9371
8541.5
9250.6
9801.6
8765.3
8214.5
9169.3
9373
8386.9
8594.5
9737.7
9340.5
8161
8495.7
9195.4
8338.9
7573.6
8646.8
9427.6
8206.3
7403.2
8618.7
9397.5
8554
8602.5
9951.7
9629.4
8075.4
8570.3
9817.5
8939.8
8164.7
9521
10297
9230.8
8749.2
9349.7
9161.1
8563.3
9297.9
10235
9259.1
7800.1
8567.8
10409
10392
9305.8
9533.3
9930.9
9028.2
8869.5
10199
10263
8792.8
8777.6
10205
10227
9221.6
9705.3
10659
9992.7
9484.3
10528
10699
9599.9
9865.5
10665
9696.1
8721.9
9468.3
10230
10119
10204
10685
10715
9932.8
9417
10401
11529
10975
10418
11383
11473
10048
10140
11392
10874
10020
11269
12370
11024
9576.1
10307
11327
10927
10800
11703
11669
10564
10702
11943
11762
10503
10706
11721
11413
10903
11718
12192
11210
10717
11445
11302
10028
9917
10924
10881
10216
10751
11446
10578
9767.5
10682
11178
9652.8
8623.7
9523.9
9960.6
9252.4
9598.4
10589
10125
9329.2
9935.6
10386
9360.8
8684.4
9434.9
9709.4
8889.2
9006.3
10060
9925.9
9095.3
9448.2
10039
9204.6
8311.4
8981.1
9583.4
8721
8263.9
9172.5
9524.7
8931.3
9354.7
10564
10213
8769.2
8862.9
10002
9867.3
9188
9691.6
10271
9684.4
9283.2
9916.1
10048
9168.5
8941.1
9726.4
9880.1
9101.1
8958.9
9730.5
9999.8
9747.1
9994.8
10001
9063.1
8953
10403
11000
9872.6
9558.4
10735
10922
9796.2
9728.5
10610
10256
9308.1
9792.2
10539
9936.9
9704.2
10929
11472
10502
10074
10697
10550
9806.2
10402
11505
10980
9962
10419
11253
10989
10696
11169
11023
10106
10291
11195
10778
9951.1
10763
11930
11377
10489
11180
11861
11043
10589
11402
11468
10566
10749
11748
11606
10801
10894
11346
11174
11049
11437
11345
10565
10588
11570
11678
10766
10724
11545
11321
10131
9953.4
10729
10609
9936.7
10499
11428
10824
9869
10286
10611
9804.2
9673.9
10404
10008
9120.2
9732.7
10645
9837.7
8777.8
9443.8
10137
9036.5
8180.6
9234.4
9914.8
8745.8
8366.8
9791.5
9555.4
7260.8
7263.6
9435.3
9593.1
8485.6
9027.7
9705.9
9052
9037.3
9867.8
9236.8
7785.2
8176.1
9581.1
9343.3
8356.6
9018
10139
9460.4
8550.9
9403.7
9913.1
8500.5
7997.3
9592.9
9983.8
8511.1
8561.2
10089
10028
9029.5
9508.3
10327
9672.9
9007.7
9870
10576
9726.2
9199.7
10235
10904
10267
10068
10589
10018
8962
9778.7
11308
10624
8881.2
9059.3
10328
10182
9447.8
9905.2
10260
9635.7
9815
10409
9420.6
8539.2
9825.3
11015
10311
9860.2
10759
10907
9967.9
10201
11416
11152
9879.6
10149
11405
11254
10436
10935
11523
10646
10140
11175
11526
10510
10525
11672
11674
10814
10793
11042
10621
10568
11544
12005
11134
10772
11854
12302
11098
10402
11217
11503
10829
11061
11630
10905
10309
10953
11092
10225
9964.6
10461
10562
10362
10529
10510
9709.9
9127.1
9865.5
10832
10263
9006.2
9095.6
9882.4
9735.7
9355.5
9640.8
9591.4
8929.9
9105
10052
9797
8463
8255.1
9112.6
9180
8791.8
9323.8
9816.7
8929.1
8169.8
8853.6
8887.3
7241.9
6914.6
8813.5
9539.7
8513.2
8722.1
9732.7
9168.6
8456.7
9308.2
9753.1
8652.9
8122.5
9152.4
9736
8837.2
8430.5
9578.4
10035
8804.2
8591.8
9922.5
9476.5
7708.1
8502.7
10413
9740
8582.1
9476.4
10029
9066.5
9029.6
10015
9553.4
8266.8
8773
10031
9588.4
8858.2
9800.2
10628
9962.6
9775.9
10681
10270
8516.6
8410.6
10014
10341
9332.2
9646.6
10990
10756
9622
10044
10809
9958.5
9565.4
10919
11135
9625.8
9706.8
11315
11302
10187
10373
10807
9941.3
9646.5
11069
11518
10024
9673.5
11044
11281
10405
10536
11064
10509
9944.7
10754
11702
11067
9982.1
10515
11733
11424
10534
11042
11605
10753
10275
10960
10935
10221
10687
11689
11306
10512
11111
11645
10572
9846.7
10747
11103
10045
9916.5
11205
11267
9865.5
9635.1
10380
10027
9757.5
10808
10700
8761.6
8474.7
10365
10835
9369.9
8927.9
9801.4
9824.9
9160.3
9363.1
9561.2
8638.6
8350
9618.4
10029
8670.2
8180.1
9484.9
9931
8694.8
8325.3
9322.2
9255.4
8179.2
8549.5
9764.3
9148.7
7750.7
8346.9
9517.3
8919.6
8347.6
9235
9456.3
8446.2
8590.7
9781.9
9341.2
7916.2
8451.5
9827.5
9354.6
8683.4
9693.4
10182
9194.1
9245.9
10549
10436
9030.2
8942.7
10116
10244
9274.2
9222.5
10195
10395
9833.4
9821.7
9819.9
9132.7
9164.1
10196
10207
9295.3
9814
11128
10623
9383.1
10114
11240
10122
8948.4
10309
11500
10306
9721.7
11229
11736
10462
10282
11171
10381
9030
10147
11787
10969
10015
11018
11489
10403
10262
11356
11337
10410
10668
11344
10709
10221
11326
11959
10750
10082
11189
11498
10231
10162
11434
11112
9681.4
10133
11584
11212
10196
10871
11610
10591
10011
11351
11958
10514
9921.2
11300
11761
10409
9801.5
10510
10589
10124
10585
10877
9608.4
8789.9
10086
11144
10149
9248
9845.9
9921.7
9075.7
9617.5
10913
10262
8845.6
9294.2
10263
9561.3
8802.4
9730
10257
9094.9
8722.8
9731.5
9564.5
8414.3
8661.7
9631.1
9296.2
8438.9
8664.1
9234.9
9042.5
8837.5
9313.3
9520.1
8943.9
8762.7
9404.9
9480
8708.9
8557.9
9091.7
9000.1
8589.7
9080.7
9761.4
9248.6
8542.8
9089.8
9584.6
8695.6
8027.3
8638.4
8937.9
8640.7
9407.3
10490
9838.4
8722.7
9358.2
10291
9405.9
8296
9043.4
10119
9755
9370.2
10012
10119
9376.7
9648
10541
9721.3
8410
9330.2
10505
9524
9012.5
10420
10896
9998.7
10182
10879
10041
9120.4
10164
11157
10051
9114.3
10163
11007
10393
10189
10773
10482
9779.2
10340
11298
10851
9875.6
10475
11901
11576
10221
10574
11481
10517
9714.5
10945
11464
10230
10376
12011
11895
10468
10633
11565
10938
10084
10907
11537
10586
10321
11373
11347
10336
10452
11142
10642
9741.5
10125
10984
10442
9234
9465.9
10412
9879.2
8977.7
9699.9
10199
9186.1
9169
10095
9104.2
7634
8702.1
10305
9665.4
8547.2
8986.6
9442.5
8733.7
8447.4
9164.9
9125.6
8152.4
8332.8
9632.1
9563.9
8346.5
8594.5
9638.4
9101.3
8346.6
9083.6
9211.5
7917.9
7866.9
9132.6
9104.2
8205.5
8526.7
9334.1
9054.8
8477.6
8739.1
8976.6
8577.5
8761.3
9598.4
9298.5
8037.8
7964.2
9029.5
9195.6
8601.8
9135.9
10261
9922.3
8955.1
9588.3
10666
9648.9
7993.5
8571.2
9920.6
9559.1
9051.9
9975.3
10494
9699.3
9468
10104
9691.4
8576.5
9001.3
10325
10356
9795.2
10115
10104
8928.9
8801.9
10527
11020
9410.3
9125.1
10578
10448
9218.1
9856.3
11058
10380
9697.3
10761
11201
9896.9
9642.4
10927
10772
9614.8
10375
11513
10554
9870.2
11150
11727
10513
9748.1
10356
10903
10577
10330
10808
11011
10487
10512
11106
10544
9549.2
10273
11306
10592
10048
11074
11486
10525
10270
10878
10447
9577.1
10217
10981
9930.3
9120.3
10304
11017
9733.5
8898.3
9665.6
9865.8
9055.4
9318.7
10360
9787.1
8210.5
8377.5
9706.3
9305.6
7889.2
8326.9
9521.7
8820.6
7835.2
8739.9
9430.2
8266.7
7540.6
8428
9151.4
9048.1
8866.9
8475.1
7830.1
7819.9
8521.6
8693.8
8043.5
8027.9
8979
8993.6
7691.9
7456.9
8782.4
9104.1
8251.8
8686.8
9681.4
8811.6
7632.5
8500.6
9544
8584.1
7582.5
8530.6
9566.4
9112.9
8810.2
9294.4
8841.3
7820.2
8623.7
10342
9800.5
8221.9
9028.1
10212
8759.6
7743.2
9373.2
10022
8627.7
8667.7
9967.9
9487.2
8336.8
9173.7
10455
9781.3
8703.8
9189.8
9651.2
8748.3
8486.5
9723.3
10038
8743.3
8291.5
9387
9900.5
9157.5
8946.6
9655.1
9661.4
9009
9172.1
9525.8
8791.4
8383.5
9659.9
10614
9853.9
9512.5
10557
10781
9801.6
9968.2
11168
10810
9416.8
9655.8
10627
10224
9905.9
10729
10586
9283.2
9463.3
10931
10731
9201.9
9460.4
11095
11016
9651.3
9919.3
11354
11263
10248
10484
10798
9834.3
9650.5
10741
10319
8656.8
9141
11229
11281
9831.6
10009
10651
9441.3
8801.9
10174
9994.6
7926.7
8164.4
10043
9730.9
8403.2
8654.8
9205
8706.9
8223.7
8554.7
8977.1
8687
8309.7
8854.9
9478.8
8999.8
8462.9
8644.7
8125.4
7169.4
7826.7
8926.9
8255.9
7512.7
8347.9
8875
8175.5
8016.3
8695.8
8632.7
8049.9
8534
9442.1
9042.2
8135.4
8487.4
9238.4
8737.8
8081.8
8808.5
9410.6
8526.9
7977.2
8726.9
8828
7919.3
8045.1
9213
9477.6
8764.3
8491.4
8943.3
9318.8
9141.1
8879.1
8996.6
8952
8758.7
9343.6
10006
9463.9
8862.9
9266.4
9417.1
9153.2
9813.2
10440
9521.4
8719.9
9615.4
10294
9343.5
8798.8
9686.2
9804.3
8980.8
9560.3
10509
9526.1
8705.5
10029
10930
9794.9
9082.3
10056
10591
9884.2
9892.4
10854
10821
10017
10428
11417
10778
9264.5
9282.3
10351
10506
10110
10401
10662
10068
9972.1
10982
10841
9226.7
9270.7
11013
11183
10288
10861
11403
10141
9361.2
10266
10484
9401.4
9269.2
10349
10473
9369.5
9131.2
10008
10014
9224.8
9525.3
10134
9181.6
8275.3
9267.4
9871.2
8578.1
8198.8
9751.5
10248
9046.5
8768.7
9444.9
8801.8
7759.8
8545
9314.2
8079.4
7504.8
9123
9941.1
8819.4
8363.8
8986
8428.6
7276.3
7960.7
9133
8290.3
7228.2
8041.5
8856.5
8491.6
8631.7
9262
8619.5
7474.9
7867.8
9163.5
9247.1
8193.4
8013.4
8974.1
9084.1
8177.8
8203.9
8881.7
8567.7
8256.5
9110.1
9330
8113.1
7925
9473.6
10106
9144.6
8877.9
9482.8
9024.8
8136.4
8737.3
9548.8
8773.9
8187.8
9311.2
10028
9087.1
8680.3
9598.7
9549.9
8526.7
9033.7
10207
9470.5
8419.8
9459.3
10615
9676.3
8637.1
9376.9
10015
9446.4
9678
10733
10254
9030.2
9699.9
11040
10275
8840.5
9520.9
10767
10190
9468.3
10194
10403
9327.2
9307.1
10609
10680
9520.5
9562.1
10527
10264
9401.3
9904.2
10863
10457
10037
11175
11671
9987.7
9102.1
10603
11500
10700
10558
10933
10234
9957.4
11108
11242
9614.6
9042.3
10263
10452
9030.8
8827.9
10123
10156
9044.7
9291.6
10177
9242.1
7817.9
8560.2
9825.5
9141.1
8327.9
9189.4
9739.1
8873.9
8702.3
9606.8
9158.1
7601.1
7795.7
9083.1
8666.4
7630.7
8314.7
9164.9
8300.5
7614.9
8508.6
8680.2
7297.6
7116
8398.8
8283.4
7205.8
7749.2
8691.4
7794.6
6801.1
7500.1
7986.4
7108.9
6959.6
8145.4
8272.9
7044.2
7238.5
8995.9
9236.4
7816.7
7674.1
8654
8235.4
7339
8247.9
9248.3
8304.4
7643.4
8877.9
9555.3
8516.6
8124.3
8912.2
8569.2
7502.7
8283.3
9645.4
8877.8
7769.8
8659.1
9590.5
8839.3
8326
9208.2
9555.4
8580.9
8351.8
9527.4
9972.5
8979.8
8611.9
9528.1
9802.5
9198.7
9409.9
9800.3
9165.7
9164.3
10302
10103
8686.8
8870
10173
9964
9074.6
9716.8
10580
9741.4
8898.9
9670.8
10164
9310
9312.2
10696
10961
9746.9
9372.2
10043
10026
9662.5
10228
10578
9730.4
9515
10659
10976
9920.1
9603.9
10409
10456
9716.6
9983.2
10844
10518
9771.6
10185
10661
9766.8
8829
9272.5
9800.5
9305.4
9190.1
10054
10092
8901.8
8702.6
9774.6
9499.3
7933.4
8064.3
9389.6
9088.6
8194.4
8897.2
9611
8775.8
8352.8
9269.5
9060.8
7296.4
6993.7
8406
8632.2
7844.2
8282.3
8925.3
8066.3
7434.3
8323.8
8703.3
7604.4
7075.7
7900.7
8230.3
7536.1
7555.7
8362.7
8146.6
7353.3
7906.3
8781.6
7862.3
6629.1
7466.2
8767.2
8249.5
7555.9
8490.6
9211.4
8348.5
7866.1
8671.7
8723.9
7859.2
8266.1
9253.2
8547.2
7574.5
8606.4
9815.5
8952.4
8029.6
8950.9
9370.2
8236.6
8364.4
9557
8840.3
7589.8
8425.1
9399.8
8779.8
8553.8
9372.9
9222.3
8259.8
8630.3
9863.4
9619.1
8302.5
8427.6
9807.6
9944.6
9020.7
9179.2
9722.5
9030.4
8738.8
10031
10401
8950.2
8580.9
9986
10576
9801.3
9313.2
9326.1
9145.4
9159.9
9769.4
10091
9674.3
9642.2
10334
10388
9568.7
9336.7
9869
9829.8
9483.6
10096
10704
10044
9592.4
10348
10617
9714.6
9323.1
9996.5
10340
10073
10436
11324
11174
10016
9782.5
10698
10670
9648.7
9727.6
10361
9958.4
9876.6
10728
10222
8560.7
8763.6
10478
10606
9272.3
8895.5
9321.6
9040.2
8752.8
9548.5
10075
9143.6
8480.5
9246.9
9377.4
7918.5
7359.9
8641.2
9248
8357.6
8230.7
9125.2
8735.1
7430.2
7746.2
8734.9
7816.6
6751
8009.8
9099.9
8133.3
7790.1
8635.7
8213.1
7338.2
7997.7
8636.1
7810.4
7252.5
8113.8
8771.8
8135.1
7667.8
8394
8911
8306.6
8065.8
8718.2
8383.6
7074.1
7262.5
8594.4
8503.8
7633.7
8214.7
9231.9
8779.8
8229.7
9041.5
9173.3
7733.9
7642.6
9384.8
9596.3
8156.4
8246.4
9581.9
9543.3
8856.8
9364.9
9749.5
8850.6
8713.8
10085
10274
8720
8481.9
9994.8
10261
9040.4
8931.9
9800.6
9536.5
8828.9
9457.9
10194
9667.7
9467
10204
9961.7
8856.2
9099.9
10261
10018
9016.1
9593.3
10787
10201
9083
9835.1
11092
10517
9534.6
10113
10541
9603.2
9472.5
10407
10027
9011.2
9744.5
10932
10289
9335.1
10117
10993
10345
9942
10862
11058
9891.6
9857.2
11356
11334
9496.3
9182.4
10514
10541
9726.5
10091
10247
9148.5
9040.7
10242
10099
8644.7
8452.6
9418.7
9369.6
8535.6
8739.5
9400.6
8915.6
8246.8
8771.8
9274.1
8519.7
7609.5
7708.2
8134.5
8153
8359.6
8954
8869.1
8102.4
8134.1
8628.5
7725.2
6538.3
7387.2
8496.7
7763
7401.6
8458.2
8357.3
7105.1
7415.4
8640.8
8095.4
6679
7012
8201.4
8064.7
7593.4
8260.7
8604
7616.1
7384
8784
9182.8
7701.8
7149.5
8262.8
8592.9
7963.3
8265.9
8921.4
8524.9
8304.8
9142.8
9182.3
7857.2
7530
8724.5
9026.2
8170.8
8474.3
9682.9
9592
8785.1
9005
9390
8763.3
8342.4
9165.3
9749.5
8917.8
8339.1
9361.2
10156
9364.6
8940.9
9815
9691.1
8453.6
8839.4
10196
9807.2
8929.4
9720.9
10590
9956.6
9370.7
9848.5
9948.6
9297.2
9463
10211
9757.1
8828.8
9487.6
10797
10461
9348.2
9665.8
10533
10141
9543.5
10110
10462
9456.3
8986.1
10286
11043
10137
9913.9
10635
10122
9401.3
10322
10787
9511.7
9327.4
11002
11527
10385
10116
10832
10510
9636.3
10061
10719
9828.1
8948.7
9827.5
10710
9971.7
9269.4
9728.8
9655.9
8842.1
9173
9859.6
9148.5
8609.7
9312.1
9405.6
8682.1
8813.1
9414.3
9193.1
8703.8
8910
9276.6
8870.7
8078.9
8124.8
8801.8
8548.7
7669.5
7944.2
8677.8
8224.8
7709.1
8303
8568.1
7879.2
7788.3
8465.4
8381
7715.8
7930.5
8729.8
8750.7
8171.4
8241.5
8754.8
8365.5
7742.1
8462.5
9018.3
7749.8
7126.7
8554.2
9050.1
8022
8448.7
9672.6
8920.3
7830.8
8822.9
9768.7
8670.3
7848.3
8899.1
9314.3
8013.4
7854
9424.3
9613.8
8205.5
8251.9
9645
9531.5
8398.9
8817.6
9704.5
8762.1
7806
9076.9
10367
9464.9
8708.4
9831.9
10035
8365.6
8293.8
10025
10054
8908.4
9430.3
10343
9586.4
9018.9
10050
10319
8965.7
8812.4
10364
10645
9474.3
9599.3
10658
10162
9200.9
10106
11073
9963.3
9185.1
10413
10693
8997
8792.4
10671
11163
9869.2
9582.4
10312
10083
9578.8
10320
10798
9673
9140.6
10537
11543
10902
10460
11004
11027
10426
10639
11095
10361
9621.8
10341
11008
10155
9443.9
10087
10176
9284.3
9774
10920
9990.9
8588.8
9312.9
10225
9363.2
8605.9
9226.7
9605.9
9036.2
8844.4
9364.5
9326.7
8535.7
8527.6
9466.7
9310
7933.7
7649.3
8328.5
7961.2
7433.9
8370.2
9080.5
8151.1
7698.7
8825.7
9158.6
7857.6
7358.9
8204.9
8208.5
7488
7852.4
8317
7707.1
7789.8
8875.9
8604.7
7159.5
7013.3
8164.8
8638.7
8172.8
8099.7
8544.7
8407
8008
8661.6
9526.2
8715.5
7411
7974.9
9176.1
8817.8
8224
8939.2
9362.7
8487
8313.9
9517.1
9695.4
8528.9
8628.4
9702.4
9254
8286.6
9050
10127
9645.4
9207.1
10020
9970.5
8632
8839.8
10255
9687.3
8318.5
9195
10513
9838.8
9152.2
9784.7
9753.5
8821
9087
10211
9988.2
8967.9
9528.7
10963
10695
9581.4
10165
11200
10271
9125.2
10028
10808
9725.8
9419
10983
11484
10239
9989.3
10989
10722
9513.8
9875.5
11034
10697
9980.8
10548
11087
10611
10480
11114
11107
10482
10669
11104
10339
9428.9
9925.3
10737
10495
10186
10677
10745
10023
10012
10541
9917.6
8837.9
9110.2
9832
9462.5
9050.9
9539.8
9580.1
8634.9
8342.5
9311.8
9775.9
8714.7
8040.8
9222.8
10214
9381.9
8759.8
9469
9448.1
8454.1
8574.9
9222.1
8628.1
8064.5
8814.9
9239.4
8400.8
7796.4
8071.7
8059.9
7623.3
8015.5
8995
8921.3
8174
8560.9
9268.7
8264
7187.8
8395.6
9473.3
8229.5
7631.2
9069.2
9246.1
7639.9
7730.1
9481.3
9323.2
7564.4
7727.6
9291.3
9169.2
8153.6
8516.7
9087
8539.7
8625
9905.8
9834.9
8151.3
7914.3
9333.2
9493.7
8524.7
8907.1
9906.2
9353.8
8570
9401.5
9959.1
8677.7
7932.3
9021.9
9508
8786.6
9158.7
10180
9650.7
8778.3
9491.3
10170
9228.3
8502.2
9364.5
9887.9
9065.4
8828.1
9535.3
9477.5
9105
9745.8
10348
9743.6
8985.4
9294.9
10044
9852.5
9078.1
9496.1
10704
10402
9413.8
10009
10408
9097
8972.2
10500
10430
9280.5
9743.7
10607
10131
9853.8
10507
10220
9075.8
9478.5
11012
10745
8968
8859.5
10433
10690
9766
10240
11150
10163
9157.1
10143
10686
9408.3
8952.9
9918.2
9916
9037.5
9126.1
9560.5
9009.1
8480.7
9084.6
9484.1
8700.1
8391.2
9356.2
9683.3
8632.5
7955.1
8329.2
8444
8026.7
8265.8
8962
8611.3
7666.7
7995.7
8983.4
8605.6
7986.9
8993.4
9520.3
8049.4
7572.2
9010.9
8938.3
7080.9
7102.6
8972.3
9021
7404
7392.2
8334.2
7748.5
7165.3
8177.9
8513.5
7499
7813.2
9313.6
9003.6
7400.6
7633.2
9291.4
9460.8
8332.5
8317.9
9120.2
8754.2
7969.4
8452.9
8930.6
7999.5
7420.9
8383.3
8975.4
8390.8
8478.1
9304.9
8899.5
7997.7
8902.9
10132
9022.8
7690.8
8895.7
10110
9184.9
8739.5
9672.4
9645.8
9114
9902.4
10439
9076.1
8022
9028.3
9741.5
8729.2
8484.5
9750.6
10067
9386.6
9715.5
10334
9653.4
8954.5
9638.4
10172
9369.9
8939.7
9912.9
10472
9677.4
9454.4
10493
10533
9217.5
9182.1
10577
10718
9635.4
9734.1
10676
10418
9884.4
10775
11248
9700.8
8809.9
10232
11037
9866.3
9620.3
11086
11529
10563
10306
10500
9674.5
9088.2
10068
10558
9381.8
8974.5
10073
10282
9373.2
9265.4
9653.5
9079.1
8439.3
9055.6
9542.3
8664.4
8188.2
9135.3
9636.5
8919.4
8612.7
9005.4
8621.7
7737
7960.7
8676.6
8231.4
7563.4
8436.1
9523.9
8662.8
7400.4
8148.3
9097.6
8131.6
7483.1
8653.5
8981.3
7497
7049.2
8317.6
8602.7
7467.9
7195.9
7890.1
7890.2
7666.1
8309.3
8636.7
7861.1
7792.2
8936.8
8862.4
7214.1
6869.6
8123.1
8273.3
7614.8
8491.7
9503.4
8339.7
7098.9
7972.3
8767.6
7844.1
7460.3
8664.2
9022.5
8120.6
8603.5
10072
9459.9
7794.6
8569.9
10436
9601.1
7664.9
8434.1
10047
9283.4
8393.3
9579.6
10211
8974.6
8689.9
9957.5
9834.5
8397.1
8716
10036
9552.7
8697.7
9572.9
10077
8929.9
8845.1
10505
10637
8794.4
8448.2
9873.6
9968
9047
9707.3
10844
10126
9078.6
9618.3
10060
9150.8
8835.9
9763.1
9903.7
9359.4
10063
10892
10039
9404.5
10491
11046
9915.1
9384.4
10401
10709
9534.6
9237.3
10507
11058
10293
10051
10592
10439
9812.9
10059
10537
10066
9748.1
10609
11172
10394
9836.8
10414
10523
9578.2
9253.8
9678.9
9200.5
8397.5
9382.5
10999
10190
8325.8
8956.8
10262
9158.1
8233.7
9411.8
9539.8
8142.4
8525.2
10072
9740.8
8578.5
8783.6
9017.5
8106.4
8071.4
9558.8
9770.7
7964.6
7339.7
8787.8
9207.3
7931.3
7794.2
8894.7
8657.4
7733.7
8388.6
9105.8
8070.2
7556.7
8804.9
9040.5
7427
6867.4
8159.5
8711.1
7893.6
7888.8
8748.8
8424
7523.1
8177.1
9296.4
8521.8
7219.8
7840.5
8876.9
8401.1
8143.8
9054.6
9289.2
8757.4
8970.9
9286.7
8613.7
8049.1
8503.2
8869.2
8574.2
8678.4
9310.6
9179.4
8388.6
8614
9731.4
9713.8
8682.7
8752.8
9691.8
9598.6
9001
9482.7
10079
9320.5
8620.4
9360
9670.8
8460.2
8228.5
9783
10234
9086.4
9025.3
9839.7
9406.2
8848.6
9811.5
10548
9714.2
9259.3
10292
10714
9644.7
9382.5
10609
10961
10001
9950.9
10808
10411
9350.9
9790.6
10547
9744.5
9166.9
10189
10696
9806.7
9668.5
10564
10173
8759.7
8991.7
10323
10223
9583.1
10439
11302
10384
9584.9
10495
10890
9560.6
9069.6
10241
10378
9066
8994.2
10171
9907
8683.3
9116.3
10064
9141.4
8237.5
9191.3
9528.9
8308.8
8383.1
9778.2
9666.8
8532.3
8564.7
8915.6
8201.8
7787.7
8699.6
9063
7907
7423.9
8478.6
8800.3
7750.2
7445.8
8246.3
8249.2
7500.1
7704.1
8235.5
7539.6
6972.5
8143
9151.1
8048.5
6836.8
7580
8377.6
7743.1
7668
8612.2
8404.9
7410.6
7747.2
8629.1
8256.5
7563.7
8004.2
8669
8584.7
8609
9093.9
8992.1
8390.6
8569.2
9041.1
8237.6
7107.5
7701.6
9027.4
8943.8
8333.5
8926.6
9537.8
8661.1
8060.1
9273.1
9950.2
8464.6
7567
8821.7
9622
9025.8
9163.5
9725.7
8898.9
8158.5
9247.2
10113
9056.3
8189
9042.7
9594.7
8861.7
8986
10244
10220
9032.3
9016.3
9826.1
9443
8619.5
9181.3
9925.6
9335.2
9044.6
10061
10436
9552.1
9366.5
10153
10039
9084
9190.4
10106
10087
9529.9
9889.2
10438
9837.5
9329.7
10195
10428
9005.3
8682.9
10044
10231
9500.3
10195
11008
10195
9662.2
10455
10635
9834.8
9831.5
10629
10509
9403.1
9285.2
10518
10724
9528.5
9661.4
10730
9671.8
8166.3
9275.8
10154
8676.7
8424.1
9904.6
9390.1
7754.7
8247.8
9486.5
9020.3
8107.7
8495.7
9121.1
8583.8
7966.5
8581.1
9127.3
8240.2
7593.9
8550.4
9015
7823.7
7306.1
8131.5
8130.1
7310.7
7500.4
8035
7385.9
6737
7455.5
7948.6
7055.6
6667.1
7670.3
8033.5
7226.8
7387.5
8649.1
8564.6
7181.7
7025
7918.6
7843.7
7543
8298.2
8495.2
7369.5
7175.8
8346.6
8564.9
7722.8
7831.2
8653.5
8430.5
7621.2
7952.5
8805
8380.5
7623.5
8546.7
9734
8919.6
7905.3
8788
9423.4
8570.6
8546.4
9299.2
8763.3
8271.6
9266.7
9556.3
8222.6
7815.8
9136.3
9746.5
8827.3
8546.6
9577.8
9869.7
8937.7
8972.3
10202
10057
8612.9
8645.6
9596.6
9148.3
8611.9
9509.4
9890.5
9079
9347.6
10551
10082
8573.7
8847.2
10131
9784.7
8835.9
9662.1
10824
9951.8
8726
9383.6
10143
9248.4
8721.8
9771.2
10232
9562.6
9876.1
10787
10236
9407.2
10231
10988
9868.3
8912.6
10030
11140
10361
9591.9
10269
10644
9939.2
9863.7
10564
10222
9315
9811.9
10665
9936.6
9025.6
9419.6
9607
8825.9
8796.4
9626.6
9222.1
7930.9
8212.8
9328.9
8710
7472
8167.4
9423.8
8737.8
7654
8372.4
8827.7
7353.6
6694.6
7871.8
7914.8
6753.5
7168.2
8344.9
7933.7
7107
7427.7
7673.7
7008.8
6685.4
7378.7
7883
7288.7
6834.2
7553.9
7931.6
7042.5
6751.5
7611.8
7614.9
6896
7436.7
8257.1
7550.8
7017.2
8200.5
8919.5
7758.2
7038.5
8080.9
8627.7
7762.6
7712.7
8790.8
8804.6
7932.9
8129.7
8910.7
8649
8062
8378.7
8583.7
8011.4
8076.4
8769.4
8326
7392
8151.5
9570.1
8986
7507.3
7871.6
8738.2
7966.8
7613.1
9060.2
9528
8157.4
7912.1
9239
9373.2
8237.6
8283.9
9368.8
9397.2
8638.7
8852.9
9643.7
9567.3
9365.9
10049
10124
8846.1
8465.6
9530.1
9544
8599
9185.8
10365
9915.8
9324
10112
10473
9455
8816.8
9368
9730.4
9267
9194.6
9933.6
10111
9560.6
9926.5
10856
10094
8555.8
9004.9
10208
9814.4
9523.7
10622
10846
9596.7
9217.1
10014
10111
9591
9920.7
10423
9644.4
8675.9
9311.5
10471
10133
9311.9
9697.9
9708.7
8367.1
8232.2
9536.4
9233.2
7982.3
8670
9845.4
9151.7
8296.8
8762.2
8944.6
8284.2
8295.5
8900.7
8545.5
7624.3
7830.2
8578.5
8189.8
7423.4
7702.1
8095.2
7555.7
7143.3
7613.5
7715
6816.2
6589.3
7823.2
8323.1
7008.6
6465.2
7699.5
7933.8
7107
7936.5
8788.8
7166.3
6133.2
7680.2
8533
7586
7351.8
7956.5
7763.2
7268.2
7676.6
8373
8095.2
7230.4
7450.6
8686
8871.9
7902.7
7763.7
8205.3
7840.4
7737.6
8728.4
9009.7
8034.3
7902.7
8981.7
9121.2
8088.3
7843.2
8448.9
8477.1
8381.6
9092.8
9392.5
8456.5
8129.4
9260.9
9624.5
8383.6
7940.3
8995.7
9333.4
8795.9
9288.5
10053
9400.8
8795.4
9643.4
10152
9203.2
8622.2
9365.4
9755.2
9151.2
9158.3
9966.6
9989
9457
9826.4
10395
9693.5
8884.7
9503.2
10036
9303.3
9168.9
10142
10268
9699.2
10103
10622
9775.5
8963
9638.5
10152
9361.2
9191.3
10319
10402
9054
9027.2
10569
10590
9094
9348.5
10846
10273
8679.8
9232.4
10501
9648.9
8357.7
8943.6
9514.8
8434.4
7922.3
8941.4
9044
7975.6
8198.5
9108.4
8373.8
7332.8
8062.4
8771.1
7756.1
7126.4
8180.3
8432.6
7084.1
6982.5
8405.6
8452.5
7233.8
7176.8
7797.8
7274.2
6594
7263.7
7887.2
7225.2
6961.2
7832.3
7877.3
6852.6
7017.7
8255.7
7999.3
6601.6
6797.8
7976.6
7508.8
6355.7
7007.6
8328.9
8087.4
7464.4
8054.8
8161.5
6868.7
6688.9
8165.7
8317.9
6884.6
6938
8530
8711.3
7538.1
7468.7
8152.7
7827.3
7441.9
8161.9
8449.2
7632.1
7639.8
8619.7
8466.4
7550.4
8004.3
8956.8
8349.8
7576.3
8574.8
9374.6
8246.5
7651.6
8995
9537.9
8232.1
7893.8
9190.1
9249.5
7932.6
8163.6
9445.3
8978.6
7890.1
8690.1
9843.8
9112.7
8182.8
8943.9
9563.4
8656
8278.4
9214.3
9420.8
8805.7
9280.1
10207
9547.3
8322.9
8724.2
9656.7
9306.5
8958.3
9792.4
10224
9570.4
9442.2
9880.3
9195.8
8125.8
8784.8
10121
9858.1
9149.1
9955.6
10817
10069
9465.7
10307
10624
9422.5
8764.8
9570.5
10027
9405.6
9325.1
10085
9963.3
9154.1
9561.4
10290
9266.7
8233.8
9318
10103
8940.8
8597.5
9733.5
9522.9
8192.1
8267.4
9079
8619.4
7854.5
8365.4
8831.9
7979.3
7536.3
8522.6
8975.5
8036.6
7625
8246.7
7997.3
6973.3
7293.2
8287.5
7843.2
7074.4
7727.5
8374.9
7801.2
7552.8
8182.8
7902
6688.5
6662.9
7728.3
7679
6668.4
7007.1
8457.2
8434.9
7322.5
7713.9
8593.1
7634.2
6881.6
8175.9
8656.7
7260.2
7121.4
8476.8
8680.8
8101.6
8279.5
8318.6
7641.5
7584.3
8425.6
8615.2
7838
7708.5
8458.6
8428.8
7655.9
7884.3
8751.9
8391.2
7583.5
8285.4
9192.1
8336.9
7544.3
8787.7
10094
9458.6
8531.7
8892.2
9055
8287
8378
9304.8
9009.8
8086.4
8768.3
10175
9942.6
8835.9
8922.4
9402.3
8962.5
8884.1
9869.1
10052
8956
8731.7
9740.9
9746.3
8701.5
8889.1
9974.3
9968.8
9758.5
10586
10656
9272.1
8901.2
9902.1
9821.4
8695.2
8713.8
9666.3
9768.6
9259.7
9587.2
10276
9930.5
9447.8
10290
10775
9198.4
8093.2
9388.5
10161
9163.3
9409.6
10748
10272
9250.5
9954.4
10585
9582.4
8693.3
9077.9
9533.3
9408.4
9553.7
9927.1
9482.8
8574.7
8482.5
8784.3
8248.5
7591.6
8135.7
8898.3
8426.5
7682.8
8078.7
8651
8048.4
7492.9
8251.3
8583.7
7528.5
7322.4
8302.8
8035.1
7031.7
7727.6
8913.4
8306
7542.9
8441.1
8754.5
7013.2
6111.1
7446.2
8038.8
6934.4
7004.9
8423.9
8355.9
7142.1
7311.9
8094.4
7478.2
6862.7
7818.8
8261.9
7155.1
7133.9
8627.7
8901.2
8051.5
8294.1
8920.7
8126.9
7091.3
7617.3
8484.6
7975
7415.1
8366.6
9169.3
8220
7559.9
8724.8
9261.2
8094.3
7996.2
9145
8641
7211.8
7778
9211
8846.9
7983.5
8660.5
9031.2
7877.1
7880.8
9475.7
9463.7
8141.4
8473.5
9413.6
8727.3
8143.2
9149.7
9670.4
8786.3
8699.8
9992.3
10254
8869
8421.6
9662.7
10169
9301
9091
9741.8
9564.9
8932.2
9467.1
10251
9526
8600.2
9388.2
10378
9637.5
8703
9223.9
9703.1
9293.9
9533.1
10117
9333.5
8502.6
9558.2
10682
9834.1
9159.8
10554
11309
9841.8
9229.2
10305
10179
9144.2
9694.2
10734
10221
9290.6
9408.8
9761.2
9513.5
9297.5
9657.7
9811.8
9103.1
8766.7
9579.2
9513.3
7941.2
7685.1
9078.7
9130.3
8094.4
8545.9
9431.4
8628.3
7801.4
8602.9
8980.8
7729.2
7206.8
8362.7
8783
7804.9
7728.2
8664.6
8407.7
7534.2
8183.4
8967
7702.7
6585.6
7999.1
9227.4
7910.1
6834.3
7831.2
8313
7257.4
7044.8
7951.1
7683.3
6710.8
7424.4
8707.8
8171.9
7303.7
8061.5
8861.8
8362.2
8003.8
8368.4
8030.3
7166.1
7606.1
8845.9
8751.5
7935.6
8697.9
10210
9747.5
8163
8231.8
8908.5
8225.4
7970.4
9036.7
8928
7727.1
8210.1
9716
9688.6
8988.7
9371.3
9536.8
8535.8
8410.6
9650.6
9665.8
8316.9
8377.4
9560.3
9399.7
8626
9071
9572.9
8916.3
8657
9572.8
9602.3
8223.4
8023.6
9458.3
9861.3
8851.7
8676.7
9519.4
9605.6
9032.9
9278.5
9876.6
9368.9
8617.8
9340.4
10532
10260
9566.1
10102
10419
9534.9
9531.1
10633
10418
9321.3
9798.2
10937
10305
9018.5
9423.4
10386
10086
9807.2
10532
10470
9215.1
9166.3
10610
10798
9514.6
9414.9
10250
9690.9
8771.8
9451.2
10040
9054.1
8597.2
9520.1
9460.1
8069.2
7809.2
8837.9
8958.4
8290.2
8735.7
9539.8
8744
7749.8
8710.8
9701.8
8414
7088.1
7994.5
8705
7395.7
6807.8
8249.5
8661.9
7153.8
6969.3
8401.7
7944.4
6214.6
6892.4
8415.6
7738.2
7267.6
8559
8643.9
7419
7811.8
8895.4
8061.4
6704.2
7291.8
8562.8
8315.3
7586.9
8204.4
9020.6
8419.6
7877.2
8778.8
9016.8
7456.3
6797.7
8004.6
8526.2
8001.3
8422.6
9176
8570.9
7872.8
8414.7
8545.8
7476
7398.9
8807.1
9106.4
7975.4
8072.5
9334.7
9230.4
8165.3
8258.5
8814.3
8219.5
7596.6
8566.9
9776.6
9332.9
8462
8937.9
9492.1
8687.5
8107
8971.1
9491.5
8856.1
8865
9585.4
9227
8433.6
8928.3
9706.5
9209.2
8679.6
9400.8
9780.5
8888
8664.8
9580.3
9572.1
8695.2
9122.5
10351
9992.6
8896.9
9447.3
10184
9231.5
8878.6
10116
10046
8715.8
9206.8
10659
10121
8734.6
8983.9
9863.1
9626.2
9242.1
9856
10307
9672.8
9290.3
9780.4
9590.5
8595.5
8756.8
9902.2
9876.4
9053.6
9351.8
9828.7
8859.2
8109.6
9094
9700.4
8400.5
7366.5
8217.8
9051.6
8401.1
7795.8
8175.4
8230
7788.1
8259.1
8994.3
8156.9
7160.8
8035.8
8523.7
7119.8
6927.5
8351.8
8025.8
6689.9
7163.2
7973.1
7329.9
6781.3
7225.7
7583.3
7368.4
7090.1
7513.8
8400.8
8254.5
7484.3
7914.5
8192
6816
6447.4
7985.7
8088.8
6683.4
7011.8
8342.7
7874.1
6779
7230.6
7927.4
7421.4
7153.8
7900.8
8019.6
7317.6
7678.3
8752
8578.4
7999.6
8776.8
9325.2
7848.7
6548.2
7516
8446.7
7482.2
7108.1
8735.8
9633.7
8558.6
7947.4
8564.4
8308.2
7453.8
8212.3
9340.2
8506
7524.6
8460.4
9293.3
8401.1
7878.8
8871.2
9235.1
8507.8
8852.9
9658.8
8731.7
7687.2
8631.5
9525.5
8763.8
8468.7
9473.6
9434.5
8144.3
8281.8
9833.2
9852.9
8299.5
8336
10139
10384
8956.7
9007.8
9997.4
9217
8328.5
9579.3
10429
9223
8893.1
10312
10542
9328.7
9259.2
9992.7
9395.3
8584.7
9492.7
10259
9219.6
8757.8
10041
10501
9255.5
8346.7
8580.8
8901.6
8875.5
9039.7
9335.2
8864.1
7937.2
8242.3
9368.9
8988.5
7918.7
8479
8989
8005.1
8106.7
9047.7
7711.8
6078
7410.6
8926.3
7726.1
6431.7
7305.6
8226.3
7455.3
6634.1
7315.4
8142.4
7560
6910.5
7560.7
7742.8
6538.2
6290.4
7400.5
7496.9
6961.6
7661.5
8200.9
7150.1
6553.1
7471.8
7807.8
6877.8
6527.3
7177.4
7325
6811.1
7027.8
7813.2
7633.7
7042.2
7724.1
8362.1
7039.7
6048.7
7540.7
8617.1
7518.8
7167.2
8137.4
7842.5
7064.7
7986.2
8907.5
7878.7
6996.5
8045.4
8790.8
7815.8
7475.9
8570.2
8834
8252.9
8815.2
9575.5
8514.7
7226.4
7991.8
9052.3
8135.3
7163
8516.5
10206
9564.4
8332.8
8847.5
9243.7
8195.6
8257.8
9689
9291.5
7675.1
8283
9970
9428.9
8204
9125.5
10081
8825.3
8172.4
9702.8
10055
8424.6
8331.9
9661.8
9286.8
8386.6
9590.4
10717
9326.9
8209.4
9753.8
10813
9252.8
8430.7
9983.6
10606
9297.2
9108.6
10348
10145
8983.5
9670.5
10899
10015
8900.6
9662.6
10309
9597.8
9402
10117
9885.6
8801.2
8842.9
9765.6
9506.8
8392.7
8701.3
9996.2
9661.4
8293.2
8538.5
9275.9
8383.8
7846.8
9058.5
9330.4
7910.3
7669.1
8860.3
8766.7
7542.4
7605.1
8513.8
8379.2
8033.3
8645.1
8719.4
7591
7302.7
8191
8160.3
7310.7
7574
8342.5
7761.9
6847.6
7510.7
8460.8
7866.4
7251
8138.4
8719.8
7727.1
7135.3
8101.5
8644.7
7827.9
7559.1
8323.5
8267.9
7479.8
7846.6
8900.1
8658.7
7674.1
7882.1
8704.8
8355.2
7572.7
8011.5
8635.1
7971.4
7783.1
9210.8
9265.2
7144.5
6877.4
8880.3
9055.4
7586
7939.9
9254.1
8767.8
7915
8853.1
9546.7
8395.7
7953.8
9150.7
9228.8
8150.4
8595
9766.1
9242.4
8407.8
9238.1
9921.1
8795.8
7904.3
8766.1
9415.4
8669
8482.9
9521.6
9699.7
8811.7
8960
9755
9115.2
8135.5
8893.1
9788.4
9183.3
8993.8
10013
10111
9215.7
9361.5
10048
9418.1
8689.8
9694.8
10451
9250.3
8716.6
10182
10796
9614.5
9163
9938.7
9918.6
9155
9496.6
10471
10141
9070.3
9313.7
10389
10211
9290.9
9458.3
9763.8
9039.9
8941.9
9759.8
9333.5
8249.5
8676.5
9381
8683.3
8235.6
9023.1
9181.6
8180.8
7795.2
8340.5
8268.5
7483.2
7687.6
8772.6
8522
7130.9
7288.8
8660
8454.8
7365.1
7825.1
8443.9
7364
6709.9
7878.2
8428.1
7332.7
6889.8
7658.9
7603.6
7048.4
7922.5
8757.8
7638.5
6802.8
7747.8
7964.7
6624.8
6225.4
7348.9
7976.3
7589.5
7520
7939.1
7721.6
7089.6
7616.7
8789.8
8182.4
6386.3
6338.4
7408.6
7341.4
7426.7
8756.3
8958.7
7545
7347.7
8514.1
8319.6
7046.6
7308.3
8603.8
8534.5
7728.1
8202.6
9025.2
