30255
30282
30330
30385
30491
30659
30865
31105
31395
31731
32077
32425
32800
33203
33600
33982
34365
34731
35035
35282
35525
35769
35980
36169
36349
36495
36599
36688
36784
36878
36943
36982
37016
37018
36966
36914
36892
36881
36873
36874
36880
36869
36835
36814
36822
36820
36797
36779
36765
36738
36706
36712
36764
36829
36884
36926
36947
36925
36875
36829
36778
36685
36558
36453
36392
36355
36337
36344
36344
36315
36296
36312
36328
36315
36282
36254
36231
36201
36191
36226
36257
36260
36270
36296
36304
36289
36267
36233
36166
36078
36002
35940
35871
35804
35765
35751
35734
35706
35683
35649
35571
35465
35383
35316
35218
35090
34969
34875
34798
34734
34682
34609
34494
34383
34303
34232
34150
34068
33995
33923
33844
33766
33702
33621
33496
33366
33259
33149
33028
32924
32839
32748
32651
32583
32542
32500
32452
32416
32398
32380
32358
32336
32282
32161
32008
31883
31774
31632
31457
31292
31153
31018
30899
30821
30758
30696
30679
30725
30798
30880
30982
31097
31211
31318
31436
31575
31696
31772
31830
31883
31913
31923
31940
31962
31957
31923
31898
31895
31891
31903
31960
32047
32133
32248
32433
32682
32958
33253
33596
33992
34417
34865
35335
35789
36200
36603
37015
37394
37716
38007
38278
38518
38726
38907
39058
39170
39245
39308
39359
39370
39337
39298
39266
39219
39155
39101
39065
39022
38977
38954
38943
38905
38839
38781
38735
38680
38620
38582
38568
38559
38564
38586
38590
38551
38510
38498
38481
38435
38375
38313
38246
38172
38099
38032
37954
37860
37786
37749
37717
37679
37669
37682
37684
37675
37679
37688
37671
37631
37602
37594
37588
37584
37591
37586
37551
37517
37508
37494
37438
37355
37288
37235
37166
37094
37043
36979
36884
36806
36770
36741
36691
36620
36533
36438
36337
36246
36170
36078
35964
35869
35805
35731
35623
35505
35399
35279
35139
35017
34912
34789
34656
34553
34479
34410
34352
34311
34253
34150
34022
33897
33772
33624
33453
33282
33109
32922
32753
32623
32487
32317
32144
31989
31844
31699
31567
31452
31313
31128
30943
30788
30628
30447
30274
30118
29963
29817
29702
29599
29467
29315
29184
29079
28972
28858
28758
28675
28590
28505
28431
28347
28229
28115
28037
27974
27889
27778
27672
27594
27537
27507
27525
27558
27580
27653
27806
27988
28176
28392
28647
28926
29225
29564
29941
30311
30655
30994
31330
31631
31891
32127
32333
32487
32594
32691
32783
32859
32930
33004
33063
33091
33113
33157
33198
33190
33131
33058
32984
32891
32801
32739
32662
32549
32442
32367
32312
32267
32240
32234
32202
32118
32015
31908
31766
31582
31388
31197
30995
30790
30612
30462
30322
30193
30085
29996
29915
29854
29827
29808
29766
29718
29702
29724
29749
29777
29821
29855
29855
29853
29887
29941
29986
30027
30080
30112
30100
30094
30116
30135
30136
30133
30133
30109
30056
30015
30002
29976
29914
29836
29758
29667
29570
29490
29420
29329
29216
29118
29038
28959
28889
28835
28766
28666
28573
28514
28464
28381
28268
28166
28098
28047
28005
27985
27974
27957
27969
28022
28069
28088
28089
28069
28017
27939
27870
27820
27757
27680
27622
27590
27560
27534
27527
27533
27515
27472
27449
27458
27465
27463
27468
27462
27421
27381
27367
27347
27278
27163
27046
26942
26835
26746
26695
26642
26563
26487
26429
26382
26348
26341
26365
26385
26388
26423
26515
26640
26793
26985
27217
27470
27740
28055
28411
28772
29125
29493
29878
30248
30596
30937
31252
31504
31707
31909
32110
32269
32381
32479
32568
32632
32684
32735
32750
32712
32665
32637
32616
32591
32558
32517
32456
32372
32309
32297
32287
32257
32232
32220
32200
32173
32159
32163
32161
32135
32102
32068
32020
31961
31918
31881
31820
31745
31694
31671
31661
31680
31740
31810
31862
31911
31980
32058
32120
32165
32212
32245
32253
32287
32369
32469
32570
32674
32779
32854
32881
32897
32919
32917
32885
32842
32795
32733
32664
32627
32628
32633
32631
32634
32635
32618
32592
32593
32609
32601
32579
32567
32545
32497
32456
32448
32444
32407
32335
32262
32190
32100
32018
31967
31912
31838
31778
31738
31701
31665
31641
31625
31579
31494
31414
31359
31306
31245
31195
31160
31114
31048
30995
30965
30931
30898
30888
30882
30838
30765
30717
30704
30690
30671
30663
30643
30593
30546
30532
30534
30527
30515
30518
30513
30476
30450
30457
30462
30449
30429
30396
30336
30250
30171
30117
30061
30002
29980
30007
30072
30186
30373
30621
30887
31160
31475
31835
32213
32611
33034
33451
33815
34129
34438
34754
35051
35327
35595
35831
36012
36179
36367
36556
36725
36872
37011
37122
37189
37243
37306
37344
37337
37314
37285
37244
37195
37157
37141
37123
37089
37057
37028
36982
36936
36925
36934
36911
36855
36809
36777
36739
36703
36675
36624
36527
36408
36303
36214
36113
36000
35904
35811
35696
35591
35525
35467
35394
35329
35285
35264
35264
35296
35363
35416
35427
35437
35466
35494
35512
35532
35549
35538
35495
35458
35442
35418
35383
35347
35302
35236
35172
35132
35094
35026
34937
34860
34789
34691
34570
34463
34369
34265
34173
34112
34040
33932
33828
33747
33669
33590
33522
33467
33405
33327
33269
33244
33210
33146
33085
33046
33007
32968
32955
32967
32967
32953
32960
32989
33018
33047
33081
33097
33061
32985
32917
32869
32808
32726
32648
32571
32480
32411
32387
32376
32354
32325
32294
32259
32215
32176
32154
32110
32021
31925
31838
31755
31675
31598
31537
31477
31393
31315
31260
31209
31182
31211
31270
31307
31330
31388
31489
31596
31721
31898
32108
32321
32560
32860
33219
33604
34001
34428
34856
35252
35647
36059
36457
36818
37140
37421
37653
37838
38017
38211
38368
38459
38518
38566
38594
38608
38634
38675
38700
38696
38680
38661
38627
38587
38564
38546
38497
38426
38378
38355
38332
38316
38318
38304
38243
38160
38095
38050
38000
37950
37922
37885
37813
37746
37707
37663
37603
37538
37468
37383
37282
37209
37186
37172
37137
37106
37081
37044
37003
36994
37017
37030
37027
37034
37043
37031
37014
37028
37055
37045
37000
36959
36927
36885
36843
36805
36739
36629
36503
36391
36295
36194
36081
35972
35873
35769
35682
35630
35563
35453
35346
35260
35166
35055
34955
34871
34780
34686
34621
34583
34538
34476
34414
34356
34285
34198
34114
34023
33894
33735
33606
33524
33459
33411
33394
33383
33352
33334
33349
33379
33390
33368
33333
33296
33233
33167
33136
33099
33026
32961
32923
32891
32855
32832
32826
32803
32752
32703
32663
32607
32544
32501
32478
32457
32455
32515
32639
32794
32979
33213
33478
33736
34007
34321
34644
34926
35173
35423
35676
35908
36142
36400
36645
36854
37041
37217
37386
37538
37686
37842
37960
38016
38059
38107
38142
38157
38159
38148
38101
38026
37967
37936
37903
37850
37806
37780
37751
37731
37750
37789
37803
37790
37771
37735
37673
37610
37571
37537
37473
37374
37264
37164
37069
36988
36940
36887
36802
36736
36714
36714
36726
36751
36778
36784
36761
36758
36795
36819
36810
36792
36774
36738
36698
36687
36705
36712
36690
36656
36612
36554
36503
36489
36495
36471
36406
36331
36246
36133
36023
35943
35871
35770
35638
35499
35353
35180
35024
34914
34813
34707
34610
34524
34416
34267
34125
34019
33913
33784
33658
33545
33421
33287
33196
33161
33143
33124
33117
33115
33085
33028
32992
32979
32957
32929
32909
32875
32795
32671
32539
32416
32289
32179
32112
32061
32004
31958
31941
31937
31926
31938
31983
32014
32007
31990
31974
31942
31894
31857
31846
31827
31787
31742
31700
31648
31600
31581
31589
31599
31606
31626
31655
31682
31735
31852
32025
32219
32431
32676
32929
33173
33442
33758
34093
34410
34702
34982
35230
35423
35611
35827
36034
36211
36367
36505
36615
36707
36817
36949
37062
37136
37194
37243
37260
37255
37262
37286
37290
37253
37201
37153
37101
37072
37082
37098
37080
37034
37000
36992
36978
36951
36929
36887
36804
36729
36690
36653
36599
36536
36480
36422
36349
36296
36283
36272
36237
36200
36170
36133
36089
36062
36048
36017
35963
35917
35891
35862
35835
35840
35862
35857
35824
35789
35756
35716
35686
35683
35679
35629
35537
35448
35368
35273
35180
35104
35014
34895
34774
34673
34587
34499
34412
34343
34257
34131
34018
33939
33855
33753
33661
33591
33523
33452
33415
33420
33427
33419
33417
33417
33396
33362
33348
33342
33299
33221
33135
33043
32942
32849
32770
32682
32571
32468
32416
32418
32440
32470
32516
32544
32534
32520
32520
32512
32492
32467
32442
32397
32326
32271
32249
32217
32155
32103
32078
32055
32031
32039
32078
32104
32099
32080
32048
31983
31902
31856
31836
31793
31733
31687
31635
31559
31502
31496
31505
31488
31444
31408
31392
31385
31414
31502
31610
31715
31838
31995
32173
32365
32590
32852
33112
33352
33603
33876
34150
34425
34735
35080
35413
35712
35989
36240
36445
36619
36787
36937
37035
37083
37124
37175
37220
37264
37312
37338
37322
37286
37262
37251
37237
37237
37268
37289
37274
37251
37230
37195
37154
37130
37124
37099
37040
36985
36954
36922
36884
36856
36842
36810
36754
36708
36682
36645
36596
36551
36501
36425
36351
36318
36311
36284
36231
36192
36180
36180
36205
36263
36306
36304
36278
36254
36237
36218
36190
36165
36126
36067
36036
36054
36079
36087
36090
36083
36035
35947
35859
35777
35673
35549
35433
35331
35225
35118
35041
34986
34916
34831
34743
34639
34507
34389
34317
34263
34182
34082
34004
33952
33897
33849
33821
33776
33696
33616
33561
33524
33489
33465
33463
33444
33389
33340
33316
33289
33252
33212
33167
33098
33007
32932
32887
32853
32813
32775
32750
32724
32704
32721
32760
32768
32738
32720
32728
32725
32718
32729
32718
32660
32606
32594
32594
32567
32516
32468
32398
32286
32182
32118
32058
31991
31937
31897
31852
31795
31767
31782
31788
31759
31724
31690
31642
31597
31590
31616
31647
31684
31752
31854
31978
32142
32379
32668
32962
33251
33565
33900
34226
34558
34916
35260
35560
35833
36108
36388
36655
36917
37189
37435
37629
37795
37943
38062
38155
38243
38323
38362
38351
38326
38299
38262
38229
38221
38222
38199
38156
38120
38092
38057
38033
38036
38031
37978
37888
37815
37774
37734
37686
37631
37537
37388
37229
37092
36957
36797
36617
36447
36274
36075
35894
35759
35633
35500
35369
35230
35058
34852
34655
34487
34323
34151
33985
33829
33666
33495
33353
33250
33149
33039
32931
32805
32637
32450
32294
32169
32037
31889
31749
31607
31453
31330
31267
31235
31194
31144
31106
31070
31017
30978
30976
30967
30937
30915
30909
30903
30896
30918
30980
31038
31066
31093
31137
31172
31203
31252
31306
31324
31305
31283
31270
31250
31240
31270
31318
31336
31335
31362
31412
31453
31497
31560
31607
31612
31600
31588
31577
31560
31536
31518
31481
31414
31359
31338
31339
31359
31398
31448
31476
31474
31485
31522
31555
31573
31595
31607
31583
31536
31504
31484
31445
31392
31350
31303
31226
31145
31115
31129
31146
31163
31203
31249
31284
31346
31456
31571
31666
31769
31904
32073
32266
32514
32840
33195
33555
33950
34380
34820
35264
35727
36212
36683
37120
37553
37985
38382
38739
39081
39402
39667
39873
40055
40221
40359
40479
40589
40660
40675
40679
40717
40769
40801
40811
40821
40831
40825
40828
40863
40886
40876
40861
40853
40847
40844
40863
40907
40925
40887
40853
40857
40860
40839
40815
40787
40730
40645
40570
40514
40450
40369
40296
40229
40135
40034
39980
39971
39962
39946
39946
39954
39963
39998
40077
40164
40221
40258
40293
40321
40324
40309
40296
40259
40176
40090
40027
39960
39879
39798
39711
39595
39451
39308
39167
38992
38773
38543
38309
38057
37797
37554
37314
37050
36782
36547
36337
36114
35878
35667
35482
35307
35162
35058
34965
34858
34762
34709
34690
34672
34642
34615
34586
34542
34521
34542
34562
34557
34563
34594
34638
34694
34760
34824
34860
34867
34878
34912
34948
34966
34977
34985
34976
34965
34992
35048
35086
35098
35125
35184
35245
35309
35387
35445
35463
35483
35536
35604
35664
35710
35767
35839
35917
36023
36179
36339
36481
36641
36837
37051
37282
37544
37835
38132
38434
38783
39185
39591
39978
40363
40744
41082
41378
41671
41958
42206
42418
42613
42777
42902
43024
43173
43305
43367
43379
43391
43390
43357
43331
43341
43358
43357
43351
43348
43345
43338
43349
43386
43400
43360
43313
43292
43283
43276
43266
43237
43179
43104
43041
42988
42921
42851
42810
42792
42761
42703
42647
42607
42570
42550
42563
42569
42527
42475
42472
42496
42506
42520
42561
42601
42620
42651
42713
42791
42866
42948
43048
43130
43171
43207
43258
43311
43358
43409
43466
43504
43519
43540
43572
43598
43616
43637
43649
43613
43525
43425
43324
43207
43090
42994
42895
42763
42623
42519
42442
42366
42301
42254
42190
42096
42009
41959
41941
41929
41927
41950
41956
41911
41860
41827
41796
41763
41730
41693
41632
41544
41465
41414
41376
41343
41329
41326
41294
41232
41180
41146
41102
41048
40995
40921
40807
40683
40595
40534
40462
40381
40318
40262
40184
40113
40074
40031
39958
39869
39776
39665
39528
39412
39346
39291
39234
39206
39215
39244
39295
39399
39559
39740
39933
40161
40425
40695
40972
41289
41646
42001
42343
42677
42981
43234
43463
43692
43910
44082
44200
44292
44357
44382
44396
44420
44428
44403
44349
44281
44201
44105
44020
43968
43909
43824
43739
43668
43595
43516
43456
43416
43366
43298
43236
43188
43149
43128
43132
43142
43124
43081
43039
43005
42959
42913
42883
42844
42773
42687
42625
42593
42563
42545
42552
42550
42518
42493
42497
42512
42521
42528
42540
42526
42470
42417
42396
42373
42333
42306
42299
42279
42236
42212
42218
42210
42166
42106
42038
41934
41794
41657
41533
41395
41238
41086
40930
40761
40621
40544
40500
40449
40392
40362
40357
40353
40365
40403
40439
40450
40440
40405
40341
40251
40171
40121
40049
39940
39823
39707
39579
39443
39342
39284
39221
39143
39081
39038
38987
38928
38899
38909
38920
38923
38935
38935
38891
38823
38778
38767
38760
38752
38758
38755
38720
38686
38684
38706
38725
38732
38740
38729
38681
38634
38605
38585
38566
38553
38549
38529
38484
38463
38485
38521
38562
38641
38767
38904
39048
39236
39462
39699
39967
40300
40672
41031
41371
41720
42075
42410
42741
43083
43402
43663
43878
44084
44270
44415
44552
44700
44808
44850
44869
44882
44885
44890
44921
44980
45027
45052
45089
45151
45209
45250
45299
45360
45403
45418
45442
45481
45509
45519
45530
45533
45508
45481
45479
45484
45459
45405
45363
45338
45310
45301
45323
45333
45310
45287
45289
45313
45342
45383
45450
45504
45519
45541
45582
45613
45634
45669
45710
45716
45671
45613
45558
45482
45375
45267
45174
45063
44923
44796
44702
44622
44551
44491
44413
44292
44158
44052
43963
43855
43735
43626
43502
43342
43195
43097
43030
42960
42879
42802
42713
42595
42499
42444
42396
42346
42300
42241
42152
42041
41943
41864
41770
41661
41568
41481
41374
41261
41185
41145
41114
41084
41060
41021
40946
40871
40831
40796
40724
40625
40527
40417
40281
40160
40079
40014
39943
39864
39787
39702
39591
39492
39427
39371
39311
39247
39174
39088
39004
38953
38944
38947
38961
39025
39136
39257
39396
39584
39831
40114
40418
40751
41095
41433
41790
42180
42575
42929
43237
43530
43809
44059
44302
44555
44777
44940
45068
45186
45292
45369
45432
45509
45562
45573
45583
45611
45633
45646
45663
45675
45642
45564
45488
45430
45366
45296
45252
45231
45191
45130
45079
45039
44981
44913
44860
44797
44683
44537
44413
44322
44240
44170
44126
44077
44005
43948
43931
43936
43942
43955
43996
44036
44047
44069
44124
44176
44208
44240
44265
44248
44187
44125
44071
44001
43907
43813
43717
43600
43472
43373
43300
43224
43145
43071
42985
42875
42781
42726
42673
42579
42449
42323
42211
42093
41983
41904
41814
41690
41580
41511
41458
41404
41347
41287
41211
41113
41034
40997
40956
40882
40800
40723
40629
40522
40438
40385
40335
40275
40221
40161
40063
39947
39853
39771
39664
39532
39413
39316
39225
39146
39085
39009
38908
38814
38750
38695
38623
38532
38437
38327
38186
38063
37991
37924
37837
37764
37717
37676
37637
37631
37667
37708
37746
37821
37945
38087
38235
38408
38611
38827
39062
39349
39675
39992
40288
40576
40844
41077
41305
41545
41752
41902
42021
42136
42248
42335
42397
42463
42506
42498
42490
42507
42513
42496
42471
42431
42346
42216
42097
42010
41916
41805
41711
41639
41553
41448
41359
41295
41213
41110
41009
40905
40782
40659
40568
40497
40401
40286
40191
40102
39997
39907
39862
39838
39798
39742
39696
39650
39584
39542
39549
39562
39560
39548
39523
39471
39398
39345
39328
39300
39238
39170
39099
39002
38882
38775
38691
38608
38521
38450
38392
38317
38226
38159
38114
38057
38001
37956
37895
37789
37643
37494
37359
37214
37081
36989
36910
36812
36700
36585
36463
36324
36212
36150
36091
36017
35950
35890
35810
35714
35641
35599
35549
35475
35395
35314
35213
35090
34983
34917
34869
34834
34824
34815
34779
34731
34712
34709
34688
34658
34631
34578
34484
34395
34347
34319
34282
34231
34183
34136
34063
33999
33972
33946
33897
33837
33764
33666
33555
33471
33418
33341
33230
33113
33002
32879
32759
32685
32657
32642
32636
32655
32700
32760
32854
33018
33229
33437
33650
33907
34189
34466
34771
35127
35497
35837
36147
36448
36731
36971
37206
37458
37685
37862
38007
38131
38210
38245
38281
38332
38361
38356
38339
38319
38272
38198
38142
38114
38082
38047
38045
38067
38071
38056
38062
38096
38130
38167
38221
38258
38243
38204
38191
38202
38203
38188
38181
38157
38093
38025
37983
37951
37924
37914
37922
37909
37861
37832
37845
37861
37863
37881
37914
37923
37904
37891
37886
37878
37880
37918
37977
38010
38006
37990
37960
37903
37842
37801
37770
37728
37669
37611
37531
37408
37289
37198
37111
37007
36893
36787
36669
36522
36392
36307
36236
36162
36095
36029
35942
35834
35745
35682
35612
35535
35479
35437
35374
35289
35222
35182
35134
35066
35000
34924
34816
34709
34652
34638
34622
34595
34578
34558
34518
34492
34503
34516
34499
34459
34413
34361
34292
34233
34200
34148
34066
34004
33976
33958
33939
33921
33898
33853
33795
33757
33740
33707
33641
33572
33521
33471
33417
33379
33342
33264
33162
33093
33058
33010
32930
32847
32763
32667
32594
32571
32556
32526
32488
32452
32423
32397
32383
32397
32426
32459
32534
32678
32834
32977
33160
33405
33669
33930
34209
34514
34821
35125
35450
35793
36120
36417
36706
36989
37239
37464
37682
37875
38034
38186
38355
38517
38636
38708
38764
38817
38852
38876
38902
38899
38843
38781
38751
38730
38709
38703
38708
38710
38710
38737
38798
38837
38831
38816
38811
38793
38759
38731
38698
38629
38530
38436
38349
38251
38154
38068
37976
37861
37745
37665
37622
37584
37544
37513
37472
37406
37356
37344
37343
37329
37314
37309
37297
37261
37236
37238
37215
37146
37065
36992
36911
36823
36754
36702
36635
36549
36480
36435
36370
36275
36176
36074
35940
35791
35674
35594
35506
35393
35291
35211
35140
35085
35049
34998
34917
34845
34805
34765
34695
34598
34495
34403
34319
34255
34221
34172
34084
34006
33963
33919
33860
33802
33750
33699
33651
33621
33600
33562
33509
33468
33440
33402
33352
33308
33253
33167
33074
33016
32983
32930
32852
32774
32699
32617
32541
32483
32410
32305
32210
32149
32100
32038
31967
31897
31818
31718
31632
31579
31523
31448
31376
31313
31237
31146
31066
31000
30919
30819
30726
30652
30585
30521
30482
30454
30395
30314
30259
30228
30185
30134
30088
30018
29918
29840
29825
29858
29904
29963
30065
30204
30353
30534
30769
31014
31236
31476
31753
32029
32292
32560
32828
33077
33311
33557
33816
34044
34225
34376
34502
34591
34657
34724
34788
34820
34812
34799
34792
34775
34766
34777
34764
34706
34643
34607
34582
34536
34465
34398
34336
34262
34216
34227
34243
34234
34219
34205
34179
34139
34118
34122
34094
34011
33928
33872
33819
33769
33746
33747
33740
33725
33738
33783
33829
33854
33859
33847
33814
33787
33799
33834
33850
33837
33828
33832
33833
33850
33896
33928
33925
33917
33920
33929
33936
33944
33960
33943
33878
33811
33760
33700
33626
33558
33508
33455
33388
33336
33318
33299
33264
33238
33220
33181
33130
33103
33094
33070
33043
33033
33007
32936
32852
32794
32753
32698
32634
32584
32532
32465
32423
32423
32430
32419
32399
32375
32323
32237
32169
32144
32135
32129
32128
32123
32091
32027
31977
31962
31950
31921
31893
31868
31823
31769
31745
31736
31703
31653
31605
31537
31445
31370
31342
31330
31289
31216
31147
31091
31038
31008
31010
30999
30960
30922
30904
30899
30909
30964
31078
31208
31327
31474
31669
31890
32131
32405
32706
33003
33293
33602
33932
34261
34579
34896
35191
35425
35615
35814
36021
36195
36348
36497
36608
36662
36698
36743
36778
36772
36729
36678
36605
36493
36392
36338
36306
36281
36266
36251
36209
36132
36076
36067
36057
36022
35985
35956
35919
35875
35841
35808
35745
35653
35564
35479
35383
35294
35235
35188
35129
35078
35058
35053
35030
34983
34942
34915
34884
34862
34872
34878
34855
34838
34847
34858
34864
34868
34865
34834
34777
34741
34743
34741
34720
34700
34677
34632
34576
34544
34532
34505
34463
34427
34382
34297
34189
34107
34052
33987
33907
33835
33764
33678
33603
33562
33534
33487
33417
33348
33286
33213
33150
33120
33080
33007
32939
32889
32840
32788
32749
32725
32681
32607
32550
32521
32485
32428
32374
32333
32276
32203
32158
32144
32119
32084
32052
32008
31942
31887
31870
31866
31835
31782
31750
31740
31725
31723
31745
31760
31746
31726
31711
31695
31670
31632
31588
31515
31408
31323
31283
31245
31198
31166
31149
31116
31070
31052
31069
31089
31108
31148
31224
31327
31461
31649
31879
32116
32372
32683
33044
33420
33797
34179
34552
34898
35250
35628
35991
36308
36584
36836
37067
37259
37431
37603
37735
37806
37865
37920
37952
37966
37988
38021
38027
37997
37970
37954
37929
37898
37889
37902
37893
37859
37853
37892
37937
37975
38009
38012
37967
37915
37901
37910
37897
37855
37817
37769
37698
37638
37613
37600
37583
37562
37537
37501
37449
37417
37425
37428
37400
37365
37334
37300
37272
37270
37294
37318
37334
37358
37387
37398
37407
37439
37466
37438
37358
37274
37204
37135
37077
37036
36974
36868
36744
36641
36561
36477
36396
36338
36276
36190
36111
36053
35995
35926
35862
35804
35709
35564
35421
35304
35194
35085
34999
34939
34874
34795
34738
34724
34717
34698
34673
34632
34558
34476
34418
34373
34304
34210
34120
34040
33957
33893
33865
33846
33810
33764
33721
33681
33630
33572
33529
33480
33403
33332
33280
33222
33159
33112
33076
33011
32905
32806
32735
32667
32595
32537
32488
32419
32331
32265
32230
32196
32155
32122
32070
31974
31862
31782
31741
31708
31683
31678
31663
31616
31558
31519
31496
31475
31472
31506
31543
31564
31598
31664
31758
31876
32041
32265
32514
32776
33063
33365
33662
33960
34294
34662
35026
35383
35758
36138
36484
36784
37070
37352
37618
37880
38145
38381
38549
38655
38741
38815
38858
38896
38951
38991
38986
38949
38913
38875
38822
38784
38781
38774
38747
38719
38690
38638
38568
38517
38492
38454
38396
38343
38292
38215
38115
38014
37909
37783
37661
37572
37499
37410
37309
37222
37131
37018
36919
36872
36858
36838
36810
36784
36743
36678
36627
36603
36585
36561
36537
36524
36492
36425
36357
36295
36219
36130
36061
36017
35957
35868
35777
35693
35592
35465
35346
35248
35147
35039
34940
34840
34705
34540
34393
34267
34131
34002
33903
33802
33671
33532
33421
33335
33248
33173
33135
33100
33041
32968
32893
32809
32716
32642
32599
32542
32448
32352
32264
32164
32050
31944
31855
31765
31667
31594
31552
31520
31501
31512
31525
31487
31397
31303
31221
31126
31030
30950
30862
30747
30636
30561
30513
30462
30404
30358
30304
30222
30152
30117
30076
30016
29958
29905
29831
29723
29623
29551
29465
29354
29255
29170
29070
28952
28853
28782
28715
28646
28591
28545
28480
28406
28375
28397
28448
28533
28665
28823
28988
29184
29441
29748
30066
30394
30750
31089
31379
31664
31963
32264
32564
32865
33169
33441
33666
33896
34146
34371
34556
34713
34844
34933
34975
35007
35047
35076
35094
35116
35126
35107
35082
35088
35112
35103
35057
35008
34963
34917
34903
34940
34991
35017
35021
35030
35043
35043
35044
35060
35046
34986
34920
34867
34821
34792
34794
34821
34836
34825
34838
34886
34934
34970
35022
35099
35170
35225
35299
35397
35488
35570
35657
35739
35797
35853
35924
35984
35999
35978
35957
35950
35943
35941
35953
35952
35924
35884
35839
35785
35719
35664
35639
35600
35517
35423
35349
35301
35283
35286
35293
35270
35214
35167
35144
35114
35066
35025
34989
34925
34847
34803
34787
34759
34719
34685
34640
34574
34521
34502
34487
34431
34335
34239
34151
34059
33986
33951
33919
33864
33814
33792
33796
33821
33875
33947
34002
34025
34045
34075
34090
34081
34066
34039
33981
33901
33835
33783
33725
33665
33620
33589
33552
33525
33530
33526
33463
33369
33297
33261
33235
33221
33250
33313
33395
33533
33750
34014
34304
34613
34938
35269
35596
35947
36337
36710
37031
37346
37681
38016
38343
38667
38978
39245
39460
39657
39845
39993
40099
40179
40221
40215
40187
40181
40192
40180
40126
40060
39988
39904
39841
39823
39825
39814
39787
39762
39745
39713
39675
39647
39585
39465
39330
39205
39086
38976
38895
38841
38775
38681
38598
38538
38480
38425
38385
38354
38315
38263
38226
38209
38190
38175
38188
38205
38185
38137
38112
38116
38125
38141
38171
38174
38132
38077
38037
38004
37957
37887
37808
37700
37549
37405
37292
37185
37077
36986
36910
36835
36759
36707
36685
36665
36636
36616
36596
36539
36435
36322
36224
36120
36001
35875
35732
35564
35420
35338
35290
35219
35121
35032
34945
34829
34718
34644
34573
34475
34353
34225
34103
33982
33870
33782
33691
33583
33491
33428
33379
33339
33317
33305
33284
33251
33231
33224
33198
33151
33102
33038
32935
32812
32713
32646
32576
32498
32430
32358
32265
32186
32144
32105
32032
31934
31847
31787
31741
31722
31760
31824
31891
32012
32217
32472
32750
33054
33379
33711
34054
34429
34833
35229
35608
36003
36422
36836
37238
37645
38040
38382
38669
38940
39197
39416
39605
39780
39914
39980
40004
40028
40052
40055
40046
40038
40005
39926
39853
39824
39818
39817
39809
39791
39754
39700
39659
39645
39614
39546
39471
39405
39334
39251
39171
39084
38965
38826
38709
38615
38524
38437
38364
38283
38171
38057
37983
37930
37853
37759
37684
37616
37531
37467
37444
37433
37397
37335
37270
37199
37105
37030
37003
36976
36926
36885
36860
36840
36827
36824
36825
36795
36722
36647
36582
36500
36402
36310
36219
36102
35965
35846
35749
35649
35546
35444
35328
35191
35068
34985
34920
34836
34731
34631
34536
34432
34344
34291
34244
34185
34121
34056
33989
33917
33859
33831
33776
33665
33554
33469
33382
33282
33195
33122
33034
32925
32834
32778
32729
32678
32640
32609
32561
32506
32481
32482
32468
32422
32377
32341
32301
32274
32271
32253
32196
32121
32054
31982
31883
31763
31648
31527
31397
31318
31314
31346
31397
31488
31627
31800
31999
32243
32532
32823
33096
33379
33684
33998
34330
34698
35083
35445
35790
36153
36521
36848
37125
37374
37600
37796
37982
38167
38315
38403
38458
38514
38566
38592
38589
38578
38543
38464
38382
38324
38275
38230
38199
38181
38160
38131
38121
38140
38144
38120
38094
38071
38025
37963
37924
37902
37860
37798
37728
37643
37533
37431
37368
37321
37249
37143
37035
36939
36851
36791
36766
36743
36703
36659
36628
36609
36597
36610
36663
36714
36737
36749
36755
36747
36728
36715
36707
36672
36606
36541
36490
36443
36406
36387
36369
36316
36219
36117
36025
35922
35820
35736
35633
35479
35305
35165
35058
34946
34829
34732
34638
34527
34442
34412
34397
34366
34325
34277
34206
34102
33996
33903
33782
33624
33475
33345
33217
33097
32998
32909
32809
32706
32615
32532
32447
32366
32308
32257
32178
32066
31961
31882
31813
31755
31712
31659
31575
31473
31381
31303
31215
31123
31040
30949
30843
30740
30638
30526
30407
30301
30222
30138
30034
29942
29875
29821
29788
29803
29864
29938
30023
30143
30301
30480
30691
30961
31273
31582
31887
32201
32505
32786
33071
33380
33683
33939
34142
34318
34470
34577
34670
34769
34843
34879
34887
34871
34839
34798
34757
34729
34679
34588
34488
34391
34286
34184
34111
34069
34032
33994
33981
33989
33989
33988
34009
34028
34000
33934
33870
33807
33721
33628
33548
33455
33340
33247
33212
33206
33180
33129
33090
33084
33097
33132
33196
33239
33233
33228
33243
33256
33268
33284
33296
33287
33256
33242
33260
33268
33239
33195
33141
33060
32964
32885
32812
32713
32588
32472
32375
32269
32162
32066
31950
31792
31631
31502
31398
31285
31155
31042
30935
30812
30710
30653
30604
30542
30482
30420
30344
30259
30193
30155
30100
30011
29927
29862
29793
29724
29681
29652
29602
29539
29499
29483
29475
29482
29520
29567
29581
29561
29563
29599
29634
29663
29698
29707
29666
29604
29563
29547
29530
29507
29501
29489
29448
29411
29392
29368
29339
29322
29315
29287
29236
29226
29284
29376
29489
29647
29857
30092
30348
30652
31000
31353
31697
32039
32366
32662
32944
33239
33542
33811
34037
34245
34430
34568
34688
34811
34905
34955
34969
34965
34962
34958
34943
34928
34890
34814
34737
34679
34619
34548
34474
34394
34292
34167
34054
33966
33866
33739
33605
33468
33298
33101
32919
32747
32549
32332
32141
31985
31836
31708
31619
31546
31466
31394
31360
31363
31377
31395
31427
31448
31444
31463
31527
31614
31713
31822
31934
32025
32089
32164
32257
32323
32346
32356
32360
32334
32290
32271
32271
32256
32228
32215
32218
32218
32224
32256
32286
32268
32218
32183
32166
32134
32089
32057
32012
31940
31884
31871
31882
31896
31900
31898
31883
31837
31784
31739
31679
31591
31494
31391
31270
31132
30997
30864
30701
30518
30357
30228
30094
29943
29797
29659
29511
29368
29265
29190
29098
28987
28895
28824
28752
28687
28633
28565
28469
28370
28284
28187
28062
27942
27849
27765
27680
27624
27618
27615
27590
27585
27625
27691
27789
27947
28151
28366
28595
28872
29208
29573
29942
30329
30733
31123
31492
31869
32252
32611
32953
33289
33590
33839
34074
34327
34568
34752
34877
34981
35070
35130
35188
35263
35300
35280
35244
35209
35165
35111
35077
35066
35037
34970
34914
34894
34885
34875
34884
34910
34918
34912
34937
34988
35022
35022
35002
34956
34878
34799
34760
34749
34726
34684
34653
34641
34626
34610
34603
34576
34506
34441
34406
34377
34344
34304
34257
34203
34147
34125
34154
34175
34157
34138
34135
34120
34086
34051
34015
33946
33839
33729
33636
33549
33462
33390
33327
33238
33124
33028
32958
32886
32812
32740
32641
32501
32347
32203
32064
31901
31723
31565
31410
31238
31097
31009
30945
30893
30843
30778
30692
30590
30493
30410
30322
30218
30122
30043
29964
29883
29828
29802
29776
29742
29713
29682
29636
29599
29598
29611
29589
29524
29447
29364
29263
29176
29121
29070
28995
28900
28813
28742
28679
28656
28680
28695
28678
28650
28616
28571
28519
28488
28490
28479
28443
28420
28426
28445
28489
28597
28780
29007
29256
29536
29844
30161
30501
30894
31326
31748
32154
32554
32919
33231
33528
33836
34137
34403
34628
34831
35009
35141
35258
35381
35480
35534
35553
35542
35496
35421
35349
35295
35244
35195
35156
35122
35078
35031
35006
35003
35004
35014
35047
35089
35103
35090
35074
35049
35007
34968
34955
34963
34959
34935
34922
34912
34883
34870
34901
34960
35020
35073
35135
35184
35204
35226
35261
35296
35329
35383
35470
35546
35592
35645
35715
35764
35788
35826
35893
35956
36010
36078
36145
36167
36157
36171
36204
36231
36256
36285
36297
36274
36242
36235
36247
36241
36204
36152
36062
35916
35754
35606
35458
35303
35166
35071
34974
34852
34754
34701
34659
34613
34574
34547
34509
34453
34412
34401
34391
34365
34337
34301
34233
34141
34066
34013
33956
33899
33848
33782
33689
33594
33529
33480
33407
33307
33207
33107
32988
32888
32831
32775
32693
32599
32505
32400
32276
32177
32128
32094
32056
32021
31987
31947
31904
31892
31917
31927
31896
31849
31798
31728
31649
31597
31563
31503
31428
31377
31343
31308
31288
31299
31324
31357
31430
31574
31782
32023
32284
32586
32908
33225
33569
33956
34344
34711
35058
35380
35663
35906
36146
36396
36618
36801
36968
37120
37235
37322
37411
37496
37541
37541
37517
37468
37388
37301
37239
37190
37112
37001
36895
36807
36710
36623
36569
36509
36412
36310
36232
36172
36094
36009
35952
35885
35783
35683
35599
35520
35450
35411
35409
35404
35381
35373
35388
35398
35396
35404
35431
35450
35448
35441
35423
35377
35324
35313
35336
35346
35339
35345
35353
35345
35355
35404
35454
35463
35430
35385
35337
35273
35208
35164
35105
35007
34903
34812
34720
34623
34532
34458
34363
34223
34068
33921
33773
33627
33498
33379
33247
33110
32991
32880
32757
32629
32518
32402
32240
32045
31871
31722
31571
31420
31287
31145
30981
30838
30746
30674
30583
30473
30371
30273
30161
30079
30059
30060
30064
30083
30112
30137
30152
30188
30261
30327
30365
30399
30426
30417
30385
30375
30374
30335
30253
30167
30089
30013
29952
29905
29841
29730
29591
29467
29367
29262
29146
29042
28937
28818
28747
28762
28823
28910
29039
29217
29438
29694
29996
30349
30700
31017
31329
31649
31962
32264
32574
32890
33180
33426
33657
33890
34093
34257
34410
34545
34628
34681
34755
34841
34886
34872
34824
34748
34640
34534
34455
34379
34301
34259
34280
34358
34466
34599
34759
34898
34980
35039
35090
35100
35058
34988
34903
34801
34695
34624
34603
34590
34560
34528
34500
34453
34395
34363
34357
34352
34347
34370
34427
34496
34582
34689
34780
34822
34823
34815
34802
34764
34716
34686
34655
34602
34559
34540
34525
34496
34449
34385
34287
34160
34056
33991
33923
33830
33717
33586
33420
33217
33005
32793
32560
32308
32056
31806
31535
31259
31024
30831
30649
30479
30326
30171
30007
29870
29777
29700
29601
29472
29337
29194
29024
28870
28757
28646
28524
28409
28299
28191
28079
27976
27896
27813
27711
27615
27533
27438
27331
27245
27192
27144
27085
27023
26955
26867
26783
26738
26714
26666
26592
26525
26473
26417
26368
26338
26301
26221
26097
25962
25821
25661
25515
25415
25338
25263
25190
25123
25064
25027
25060
25188
25371
25591
25872
26210
26579
26966
27391
27854
28306
28717
29105
29471
29796
30102
30434
30781
31102
31388
31651
31873
32047
32215
32398
32562
32670
32726
32763
32787
32784
32776
32778
32767
32728
32666
32589
32500
32402
32331
32299
32264
32208
32148
32083
31994
31888
31800
31744
31688
31620
31558
31502
31421
31311
31202
31101
30992
30891
30828
30772
30680
30562
30464
30400
30357
30358
30411
30464
30484
30483
30487
30495
30497
30514
30561
30603
30613
30612
30616
30619
30624
30650
30696
30711
30676
30623
30565
30487
30401
30329
30263
30177
30079
29994
29913
29818
29729
29680
29662
29644
29636
29647
29634
29573
29502
29457
29424
29372
29310
29262
29201
29108
29027
28972
28916
28851
28787
28730
28648
28526
28417
28343
28276
28210
28154
28099
28022
27924
27837
27778
27717
27644
27569
27479
27348
27200
27087
27004
26920
26842
26781
26714
26621
26524
26454
26396
26315
26212
26118
26028
25923
25843
25819
25814
25801
25790
25790
25796
25809
25885
26047
26240
26443
26686
26974
27284
27612
27981
28384
28783
29153
29509
29859
30176
30461
30752
31044
31305
31534
31739
31901
32011
32115
32250
32381
32460
32485
32496
32502
32480
32469
32501
32543
32575
32603
32621
32623
32602
32577
32569
32552
32513
32478
32450
32415
32370
32331
32289
32222
32129
32035
31957
31884
31816
31772
31733
31666
31591
31555
31558
31557
31544
31546
31553
31541
31540
31564
31580
31561
31522
31493
31480
31470
31469
31490
31498
31470
31455
31481
31513
31529
31531
31517
31462
31362
31263
31176
31065
30927
30798
30691
30585
30483
30423
30395
30355
30288
30207
30109
29976
29841
29736
29645
29536
29413
29310
29238
29173
29114
29077
29018
28904
28775
28663
28556
28438
28324
28217
28081
27909
27752
27634
27512
27366
27227
27115
27012
26919
26857
26816
26761
26686
26616
26552
26487
26437
26402
26359
26296
26252
26262
26298
26306
26281
26250
26209
26143
26082
26048
25998
25904
25800
25710
25628
25542
25470
25431
25385
25312
25266
25261
25272
25298
25359
25464
25594
25747
25961
26246
26567
26914
27303
27717
28116
28497
28904
29344
29787
30221
30646
31031
31353
31641
31933
32223
32478
32691
32877
33025
33128
33228
33348
33440
33481
33506
33535
33549
33535
33522
33524
33493
33411
33325
33258
33194
33129
33076
33035
32983
32921
32888
32883
32868
32849
32854
32866
32840
32776
32709
32648
32584
32529
32493
32447
32364
32271
32207
32175
32145
32117
32115
32112
32082
32068
32094
32135
32170
32198
32216
32194
32120
32051
32019
31992
31958
31927
31891
31826
31728
31637
31570
31500
31430
31391
31367
31311
31220
31135
31058
30965
30882
30836
30793
30707
30584
30465
30346
30208
30093
30026
29974
29900
29810
29723
29627
29509
29408
29346
29296
29249
29211
29171
29106
29019
28956
28926
28895
28850
28812
28780
28715
28613
28511
28417
28310
28201
28119
28050
27949
27815
27703
27638
27596
27572
27566
27549
27502
27441
27391
27355
27319
27302
27313
27309
27274
27228
27170
27096
27016
26954
26919
26875
26803
26719
26637
26545
26448
26384
26349
26298
26224
26156
26090
26009
25941
25918
25936
25972
26030
26130
26249
26377
26550
26798
27111
27451
27802
28181
28573
28953
29358
29809
30259
30681
31084
31470
31817
32116
32418
32742
33042
33299
33524
33715
33859
33964
34052
34125
34156
34149
34141
34154
34173
34190
34222
34264
34272
34243
34223
34222
34215
34208
34219
34220
34182
34128
34095
34077
34045
34012
33996
33959
33882
33813
33772
33731
33675
33642
33645
33630
33573
33514
33471
33423
33374
33341
33321
33280
33213
33146
33087
33021
32957
32927
32920
32892
32840
32796
32764
32724
32698
32710
32719
32683
32614
32552
32503
32436
32357
32290
32204
32082
31970
31893
31820
31745
31669
31587
31486
31365
31259
31181
31099
31006
30918
30829
30720
30598
30492
30407
30322
30235
30168
30099
30008
29924
29880
29849
29776
29662
29554
29456
29350
29260
29203
29133
29027
28910
28814
28736
28652
28563
28487
28394
28267
28149
28069
28013
27969
27960
27986
27990
27947
27894
27840
27762
27664
27580
27516
27446
27370
27310
27255
27181
27106
27071
27067
27055
27046
27052
27045
26998
26927
26869
26820
26757
26688
26627
26553
26457
26360
26275
26210
26164
26148
26180
26221
26253
26324
26456
26638
26878
27186
27553
27931
28295
28670
29073
29480
29887
30312
30731
31098
31419
31727
32015
32267
32507
32762
33007
33194
33322
33438
33549
33636
33718
33814
33888
33912
33903
33886
33862
33823
33786
33770
33732
33641
33540
33457
33376
33294
33231
33187
33115
32998
32879
32777
32663
32533
32406
32276
32113
31929
31773
31646
31510
31371
31256
31146
31022
30912
30858
30853
30853
30852
30871
30884
30862
30849
30877
30916
30942
30969
30998
31014
31007
30999
31010
31000
30951
30899
30853
30794
30717
30633
30543
30423
30275
30126
29980
29816
29651
29505
29362
29196
29011
28851
28730
28622
28536
28489
28442
28366
28283
28230
28204
28172
28133
28105
28064
27986
27903
27841
27796
27763
27739
27726
27687
27600
27511
27447
27394
27345
27304
27260
27188
27078
26960
26840
26700
26552
26423
26308
26179
26033
25889
25753
25617
25508
25449
25412
25358
25302
25279
25281
25281
25279
25283
25260
25187
25105
25041
24980
24904
24809
24706
24579
24411
24259
24155
24069
23986
23912
23843
23766
23694
23664
23695
23763
23857
24005
24212
24446
24710
25042
25442
25874
26327
26807
27279
27716
28150
28617
29094
29534
29922
30272
30579
30826
31059
31309
31542
31727
31870
31989
32078
32115
32142
32187
32214
32212
32203
32188
32146
32076
32019
31990
31961
31924
31899
31885
31844
31777
31729
31711
31687
31648
31600
31522
31394
31250
31141
31072
31007
30936
30873
30797
30703
30645
30653
30682
30690
30673
30653
30630
30586
30562
30586
30617
30633
30653
30683
30701
30695
30699
30735
30774
30799
30827
30858
30860
30830
30807
30813
30822
30809
30770
30685
30540
30376
30240
30124
29991
29853
29744
29641
29521
29421
29369
29329
29263
29162
29050
28935
28801
28678
28599
28528
28448
28378
28310
28228
28141
28066
27999
27906
27787
27686
27621
27566
27511
27471
27438
27370
27274
27208
27177
27128
27050
26966
26869
26750
26645
26581
26531
26456
26359
26268
26191
26111
26043
25999
25943
25852
25754
25662
25568
25475
25405
25368
25327
25263
25220
25207
25191
25169
25154
25135
25095
25058
25072
25143
25253
25420
25664
25954
26255
26571
26940
27365
27799
28231
28675
29101
29479
29843
30223
30596
30933
31224
31487
31722
31917
32109
32320
32508
32652
32759
32834
32870
32874
32887
32929
32949
32930
32914
32913
32904
32886
32882
32894
32897
32885
32879
32877
32866
32859
32874
32891
32871
32817
32770
32731
32672
32604
32546
32473
32361
32233
32130
32056
31989
31928
31889
31844
31775
31720
31695
31690
31698
31732
31794
31844
31862
31880
31914
31944
31961
31982
31997
31976
31927
31890
31871
31851
31835
31844
31854
31830
31794
31789
31801
31790
31756
31721
31675
31606
31539
31483
31410
31305
31183
31066
30967
30874
30796
30746
30682
30575
30465
30373
30292
30225
30181
30152
30101
30018
29933
29855
29766
29670
29599
29551
29496
29423
29351
29285
29214
29156
29142
29145
29112
29047
28984
28913
28808
28710
28647
28588
28508
28410
28324
28261
28203
28170
28182
28197
28194
28184
28166
28125
28065
28022
28005
27968
27891
27800
27702
27580
27439
27312
27203
27084
26955
26844
26744
26640
26551
26507
26498
26481
26461
26496
26601
26748
26940
27184
27444
27696
27975
28306
28672
29038
29393
29752
30094
30395
30706
31056
31413
31769
32127
32469
32758
32992
33210
33427
33612
33757
33881
33984
34045
34076
34115
34161
34183
34182
34177
34155
34088
34005
33959
33949
33933
33911
33904
33886
33830
33765
33728
33712
33682
33640
33604
33543
33433
33330
33264
33206
33144
33097
33074
33046
32993
32949
32926
32902
32877
32867
32862
32827
32759
32696
32662
32640
32626
32634
32647
32621
32556
32496
32450
32391
32360
32383
32396
32351
32275
32210
32156
32090
32012
31940
31842
31700
31562
31451
31342
31232
31139
31066
30969
30835
30709
30610
30519
30432
30359
30289
30192
30078
29984
29909
29809
29683
29565
29449
29300
29133
28999
28893
28788
28696
28629
28552
28440
28320
28226
28155
28081
28004
27937
27845
27707
27570
27456
27354
27254
27166
27100
27021
26908
26800
26714
26629
26543
26469
26403
26307
26176
26039
25905
25767
25636
25524
25415
25276
25117
24984
24887
24790
24686
24589
24468
24298
24119
23972
23847
23707
23558
23434
23331
23227
23158
23147
23151
23146
23148
23161
23185
23235
23317
23432
23544
23642
23768
23942
24145
24375
24654
24979
25318
25663
26041
26457
26872
27275
27678
28075
28450
28820
29205
29578
29892
30153
30409
30664
30882
31074
31264
31417
31512
31595
31691
31784
31859
31914
31959
31980
31963
31951
31971
31992
31997
32002
32007
32002
31993
32001
32020
32014
31977
31949
31938
31916
31884
31856
31809
31704
31560
31448
31383
31317
31243
31197
31180
31174
31197
31255
31295
31281
31248
31233
31232
31225
31220
31228
31227
31199
31182
31203
31222
31213
31194
31185
31180
31180
31200
31235
31243
31213
31181
31164
31137
31092
31053
31016
30958
30884
30836
30819
30806
30803
30811
30788
30721
30664
30652
30658
30637
30579
30519
30470
30415
30371
30354
30322
30256
30183
30112
30038
29972
29926
29890
29825
29719
29614
29537
29469
29409
29373
29347
29301
29239
29193
29170
29151
29127
29106
29064
28968
28846
28761
28716
28665
28612
28580
28542
28482
28441
28451
28476
28469
28430
28384
28339
28281
28228
28200
28153
28073
28013
27981
27952
27926
27913
27902
27874
27835
27815
27824
27827
27819
27835
27886
27966
28089
28277
28514
28760
29015
29311
29635
29948
30262
30597
30914
31188
31458
31758
32073
32356
32593
32818
33017
33164
33313
33490
33648
33762
33847
33901
33922
33921
33926
33944
33929
33868
33805
33761
33729
33710
33720
33760
33799
33828
33872
33938
33993
34031
34068
34088
34054
33982
33928
33904
33865
33808
33757
33692
33604
33539
33526
33546
33564
33561
33554
33541
33510
33497
33526
33555
33567
33577
33593
33603
33611
33647
33717
33767
33770
33760
33759
33750
33722
33713
33735
33742
33718
33688
33645
33563
33467
33407
33377
33335
33278
33226
33157
33043
32914
32813
32738
32656
32560
32479
32396
32288
32201
32165
32152
32138
32114
32073
31992
31872
31771
31713
31651
31573
31505
31445
31361
31258
31178
31121
31058
30983
30916
30850
30765
30686
30646
30628
30588
30524
30466
30414
30355
30316
30306
30288
30239
30193
30179
30189
30202
30211
30228
30216
30142
30069
30035
30001
29948
29892
29827
29730
29600
29476
29382
29284
29164
29048
28947
28840
28728
28641
28579
28508
28424
28345
28262
28167
28102
28099
28133
28168
28201
28265
28370
28502
28680
28920
29184
29433
29668
29911
30161
30408
30675
30976
31264
31518
31763
32003
32213
32389
32570
32763
32928
33052
33164
33274
33358
33416
33482
33557
33611
33648
33679
33688
33664
33642
33660
33705
33734
33740
33758
33800
33849
33916
34010
34095
34143
34159
34160
34160
34153
34147
34156
34151
34112
34091
34107
34111
34089
34073
34065
34039
33993
33964
33961
33948
33912
33881
33860
33828
33794
33792
33816
33826
33816
33807
33797
33780
33790
33838
33883
33880
33826
33761
33695
33606
33511
33428
33327
33192
33072
32987
32906
32821
32739
32661
32580
32496
32434
32396
32328
32210
32086
31980
31873
31763
31674
31607
31532
31442
31373
31342
31320
31294
31268
31220
31137
31053
30999
30962
30904
30814
30722
30628
30525
30446
30410
30390
30362
30325
30298
30276
30237
30213
30222
30229
30215
30190
30154
30091
30012
29948
29906
29847
29763
29686
29616
29522
29415
29334
29274
29202
29119
29043
28949
28806
28645
28518
28423
28323
28220
28131
28026
27884
27746
27651
27584
27515
27443
27395
27347
27280
27251
27287
27352
27433
27552
27711
27875
28027
28214
28460
28733
29016
29315
29630
29934
30217
30507
30812
31099
31361
31614
31839
31999
32103
32192
32269
32323
32376
32448
32515
32532
32497
32457
32433
32403
32378
32376
32359
32305
32239
32181
32123
32049
31983
31946
31894
31812
31733
31660
31565
31446
31359
31317
31262
31167
31059
30947
30816
30681
30582
30519
30454
30379
30312
30241
30150
30069
30035
30020
29969
29886
29813
29743
29657
29594
29581
29581
29558
29511
29463
29437
29423
29424
29451
29462
29439
29406
29362
29292
29209
29136
29070
28973
28838
28696
28559
28409
28259
28143
28057
27964
27862
27770
27680
27570
27458
27377
27318
27248
27162
27078
26976
26847
26728
26650
26597
26532
26451
26375
26285
26164
26061
26001
25962
25931
25907
25894
25860
25787
25728
25700
25672
25647
25644
25659
25653
25623
25608
25608
25587
25548
25522
25498
25432
25326
25232
25172
25118
25076
25063
25068
25058
25027
25005
24989
24959
24937
24947
24960
24945
24896
24835
24760
24662
24585
24547
24506
24452
24399
24340
24258
24159
24083
24039
24005
23982
23985
24011
24035
24058
24098
24161
24245
24364
24544
24771
24995
25212
25457
25730
26013
26322
26670
27026
27352
27644
27932
28213
28465
28714
28980
29231
29445
29628
29784
29897
29962
30028
30119
30194
30241
30276
30295
30276
30223
30174
30141
30091
30027
29978
29937
29873
29798
29753
29730
29703
29676
29661
29637
29569
29469
29399
29367
29339
29316
29308
29273
29189
29095
29026
28980
28936
28898
28882
28850
28776
28721
28709
28697
28670
28648
28633
28598
28539
28493
28471
28445
28411
28385
28359
28305
28223
28154
28106
28061
28023
28001
27974
27910
27816
27735
27676
27610
27556
27532
27497
27425
27335
27258
27203
27154
27122
27120
27100
27037
26967
26903
26840
26777
26733
26712
26673
26599
26532
26487
26438
26384
26343
26311
26263
26195
26129
26071
26005
25944
25906
25868
25792
25694
25624
25586
25553
25523
25509
25483
25428
25375
25346
25317
25251
25145
25022
24875
24694
24534
24429
24348
24270
24207
24158
24114
24080
24074
24092
24079
24017
23953
23900
23826
23731
23646
23568
23466
23342
23233
23143
23053
22968
22897
22818
22714
22618
22549
22483
22397
22301
22231
22207
22221
22281
22405
22566
22741
22973
23276
23610
23957
24323
24692
25056
25424
25807
26202
26590
26960
27341
27736
28105
28439
28753
29035
29251
29412
29565
29704
29801
29867
29917
29935
29915
29888
29885
29870
29796
29683
29582
29502
29416
29333
29273
29199
29093
29002
28953
28922
28888
28838
28774
28694
28593
28498
28430
28356
28261
28162
28069
27987
27925
27897
27890
27874
27853
27851
27868
27876
27867
27860
27837
27760
27650
27571
27537
27504
27474
27462
27428
27348
27264
27203
27138
27036
26894
26735
26579
26419
26267
26141
25998
25814
25634
25481
25344
25228
25139
25058
24961
24854
24776
24734
24688
24624
24565
24507
24422
24331
24279
24258
24226
24181
24146
24119
24091
24096
24158
24247
24324
24386
24467
24581
24708
24846
25006
25162
25300
25449
25621
25799
25965
26128
26293
26425
26507
26598
26721
26844
26961
27088
27220
27332
27418
27505
27600
27666
27703
27742
27773
27772
27767
27797
27853
27901
27945
28006
28062
28086
28106
28148
28194
28207
28182
28142
28081
27989
27909
27860
27802
27719
27629
27538
27444
27355
27295
27269
27236
27179
27124
27075
27026
26984
26972
26986
26989
26975
26965
26960
26942
26933
26969
27035
27089
27134
27197
27279
27371
27496
27676
27885
28100
28338
28628
28964
29319
29685
30083
30490
30886
31316
31795
32281
32755
33220
33667
34077
34449
34815
35181
35499
35759
35997
36215
36400
36564
36717
36847
36922
36953
36978
37008
37026
37039
37057
37057
37012
36957
36947
36983
37022
37050
37080
37097
37080
37060
37054
37021
36934
36810
36677
36535
36375
36218
36094
35972
35835
35724
35656
35613
35582
35563
35553
35531
35488
35448
35417
35371
35309
35251
35194
35124
35064
35047
35056
35053
35051
35063
35054
35006
34963
34955
34944
34891
34802
34702
34574
34403
34240
34112
34002
33891
33762
33628
33484
33319
33184
33095
33003
32891
32783
32685
32579
32467
32391
32345
32268
32151
32036
31925
31808
31702
31631
31589
31534
31463
31424
31425
31441
31479
31543
31577
31540
31462
31394
31359
31336
31325
31356
31393
31401
31417
31454
31492
31522
31539
31537
31499
31419
31345
31301
31254
31188
31107
31007
30869
30701
30549
30420
30277
30119
29971
29836
29692
29550
29442
29348
29221
29057
28892
28726
28546
28373
28229
28089
27916
27711
27515
27345
27182
27041
26945
26848
26721
26611
26536
26473
26415
26371
26328
26247
26122
25999
25900
25798
25691
25608
25559
25527
25517
25571
25704
25894
26141
26464
26828
27180
27521
27886
28273
28660
29046
29433
29793
30096
30350
30590
30820
31022
31213
31412
31577
31691
31786
31870
31929
31964
31999
32039
32032
31961
31870
31776
31670
31563
31472
31395
31302
31188
31083
30992
30894
30808
30768
30749
30696
30610
30523
30423
30291
30166
30084
30019
29916
29778
29645
29516
29374
29253
29174
29098
28997
28895
28820
28772
28745
28751
28801
28845
28857
28878
28924
28978
29030
29080
29121
29123
29080
29035
29002
28950
28868
28782
28693
28574
28446
28356
28304
28246
28165
28078
27988
27887
27799
27741
27673
27562
27428
27308
27204
27090
26979
26896
26794
26638
26485
26375
26284
26196
26116
26045
25960
25860
25788
25764
25740
25690
25642
25601
25529
25432
25363
25324
25269
25187
25098
24994
24863
24740
24662
24610
24538
24456
24415
24416
24431
24467
24525
24569
24577
24569
24559
24542
24506
24459
24422
24370
24278
24186
24127
24069
24004
23947
23897
23833
23750
23680
23643
23606
23555
23517
23501
23478
23443
23429
23430
23396
23318
23229
23128
23005
22907
22882
22910
22938
22973
23063
23207
23380
23605
23905
24255
24618
24977
25337
25677
25977
26277
26600
26922
27230
27527
27808
28052
28252
28445
28651
28853
29043
29228
29401
29535
29629
29704
29758
29773
29765
29766
29766
29740
29692
29643
29576
29477
29391
29357
29365
29380
29402
29440
29466
29458
29453
29468
29479
29466
29424
29365
29274
29147
29032
28953
28883
28814
28767
28742
28710
28666
28647
28661
28682
28691
28694
28692
28664
28611
28568
28550
28539
28544
28582
28615
28596
28552
28546
28561
28551
28528
28514
28488
28431
28375
28351
28338
28302
28249
28200
28121
27990
27850
27715
27581
27458
27361
27288
27200
27086
26992
26929
26873
26819
26779
26744
26687
26600
26508
26416
26307
26197
26115
26048
25951
25820
25702
25614
25533
25464
25415
25361
25278
25182
25109
25061
25022
25023
25074
25143
25205
25259
25305
25319
25289
25258
25248
25224
25181
25143
25109
25049
24965
24897
24860
24835
24810
24795
24791
24771
24727
24689
24672
24645
24606
24576
24528
24419
24270
24141
24036
23927
23831
23771
23710
23619
23517
23435
23381
23342
23331
23362
23387
23376
23361
23346
23318
23289
23278
23280
23244
23155
23070
23018
22975
22943
22944
22981
23033
23102
23230
23431
23682
23979
24336
24731
25119
25507
25941
26417
26891
27355
27820
28250
28617
28941
29262
29583
29874
30152
30451
30729
30957
31144
31296
31413
31498
31576
31663
31707
31680
31639
31605
31565
31538
31541
31561
31565
31540
31523
31540
31571
31608
31662
31713
31722
31704
31705
31727
31740
31750
31768
31761
31701
31622
31564
31507
31417
31294
31169
31028
30856
30722
30665
30631
30595
30568
30545
30505
30442
30400
30393
30375
30331
30282
30226
30147
30058
29992
29939
29864
29773
29683
29579
29444
29303
29202
29138
29078
29017
28955
28874
28766
28659
28571
28482
28360
28201
28034
27868
27690
27537
27434
27330
27198
27070
26959
26851
26746
26666
26607
26533
26439
26373
26346
26305
26234
26163
26094
26011
25929
25881
25848
25792
25720
25650
25589
25534
25497
25481
25452
25382
25285
25203
25142
25073
24996
24930
24851
24739
24633
24557
24502
24452
24398
24346
24274
24156
24036
23948
23859
23757
23663
23579
23486
23378
23287
23233
23175
23095
23020
22963
22900
22837
22812
22819
22812
22781
22737
22665
22555
22453
22397
22360
22309
22250
22218
22216
22214
22224
22263
22298
22309
22345
22434
22551
22691
22878
23125
23401
23691
24040
24459
24913
25385
25873
26355
26808
27230
27653
28089
28497
28856
29179
29453
29666
29847
30042
30238
30393
30501
30583
30629
30632
30638
30676
30713
30713
30697
30699
30706
30683
30651
30643
30619
30555
30509
30497
30487
30473
30468
30471
30440
30355
30260
30182
30099
30005
29918
29836
29736
29616
29514
29447
29393
29354
29349
29355
29336
29309
29322
29378
29434
29471
29502
29516
29493
29461
29454
29446
29405
29332
29253
29178
29094
29030
29002
28972
28923
28862
28786
28682
28561
28465
28406
28342
28266
28203
28157
28101
28033
27972
27907
27802
27657
27493
27325
27159
27017
26929
26874
26811
26737
26664
26583
26480
26389
26343
26320
26272
26193
26107
26002
25864
25730
25625
25536
25449
25378
25336
25279
25194
25117
25056
24991
24920
24870
24848
24808
24734
24658
24586
24495
24406
24359
24355
24358
24355
24351
24330
24267
24190
24142
24110
24065
24025
24018
24003
23944
23868
23811
23768
23716
23661
23630
23593
23529
23496
23521
23576
23648
23749
23875
23983
24060
24161
24320
24523
24766
25073
25449
25857
26267
26689
27121
27539
27946
28363
28773
29144
29493
29846
30176
30463
30742
31047
31352
31611
31818
31990
32104
32149
32178
32225
32267
32278
32267
32259
32236
32178
32134
32130
32138
32150
32182
32225
32247
32232
32215
32212
32206
32200
32212
32236
32236
32211
32196
32192
32178
32169
32185
32193
32156
32085
32016
31937
31834
31742
31696
31678
31655
31622
31606
31590
31558
31548
31580
31637
31701
31768
31837
31873
31866
31857
31866
31871
31860
31850
31856
31841
31787
31731
31684
31620
31544
31491
31457
31406
31333
31258
31170
31057
30953
30901
30879
30831
30753
30678
30608
30525
30456
30422
30394
30337
30255
30176
30083
29950
29827
29754
29702
29651
29608
29568
29495
29384
29281
29199
29108
29010
28929
28864
28785
28690
28613
28554
28497
28456
28464
28514
28572
28637
28725
28810
28840
28804
28741
28656
28535
28415
28337
28279
28205
28114
28019
27890
27721
27553
27412
27288
27170
27078
27027
26979
26920
26874
26843
26820
26815
26856
26950
27063
27182
27330
27505
27686
27878
28118
28407
28726
29080
29489
29920
30313
30658
30994
31326
31628
31919
32221
32501
32720
32881
33018
33128
33199
33273
33374
33476
33556
33620
33685
33728
33730
33733
33753
33770
33782
33820
33887
33936
33946
33940
33918
33866
33814
33805
33819
33816
33803
33805
33797
33728
33618
33531
33456
33356
33271
33236
33213
33163
33098
33055
33021
32972
32944
32957
32977
32979
32971
32972
32960
32922
32901
32902
32897
32892
32908
32935
32938
32907
32863
32814
32750
32674
32603
32532
32439
32329
32223
32117
31995
31878
31816
31801
31776
31731
31697
31669
31626
31588
31568
31547
31497
31415
31328
31229
31101
30992
30925
30861
30786
30708
30621
30516
30397
30303
30253
30213
30164
30126
30098
30060
30017
29985
29960
29920
29867
29824
29786
29734
29692
29685
29688
29646
29558
29477
29416
29354
29301
29267
29218
29138
29057
29019
29009
28984
28954
28945
28919
28847
28784
28747
28705
28650
28594
28537
28447
28316
28200
28123
28053
27980
27922
27881
27830
27763
27713
27701
27711
27745
27829
27946
28040
28117
28234
28400
28589
28829
29140
29471
29774
30065
30381
30731
31083
31429
31778
32081
32312
32534
32778
33010
33216
33406
33580
33704
33766
33823
33897
33957
33994
34026
34055
34061
34043
34037
34060
34088
34111
34145
34176
34171
34140
34133
34154
34169
34182
34201
34200
34163
34123
34103
34085
34034
33959
33896
33827
33733
33653
33610
33584
33554
33523
33503
33463
33392
33338
33317
33314
33329
33372
33433
33469
33467
33467
33487
33509
33526
33560
33599
33607
33578
33545
33517
33479
33450
33448
33442
33383
33287
33206
33146
33079
33018
32982
32934
32845
32740
32654
32596
32547
32502
32471
32425
32342
32275
32245
32213
32166
32112
32046
31964
31879
31815
31778
31741
31691
31646
31608
31562
31517
31507
31524
31527
31511
31494
31460
31397
31339
31311
31293
31248
31178
31119
31079
31032
30992
30976
30948
30887
30835
30821
30829
30843
30872
30922
30938
30892
30831
30787
30743
30691
30649
30628
30594
30539
30486
30437
30371
30297
30253
30237
30219
30200
30199
30191
30144
30088
30086
30148
30245
30377
30554
30743
30932
31156
31447
31785
32127
32461
32805
33140
33449
33746
34036
34310
34559
34793
35016
35196
35318
35426
35538
35638
35722
35800
35858
35871
35851
35844
35865
35881
35881
35888
35887
35858
35834
35857
35905
35930
35939
35960
35971
35945
35919
35928
35951
35950
35922
35891
35843
35746
35648
35591
35532
35440
35336
35236
35128
35010
34926
34899
34871
34815
34771
34760
34757
34751
34774
34826
34866
34883
34899
34909
34888
34854
34854
34874
34857
34803
34758
34725
34682
34643
34623
34591
34519
34428
34356
34301
34232
34159
34108
34036
33921
33816
33741
33675
33617
33582
33565
33522
33433
33347
33281
33209
33131
33063
32993
32896
32779
32680
32613
32553
32491
32440
32391
32316
32230
32171
32141
32113
32092
32098
32100
32080
32074
32103
32130
32115
32058
31988
31912
31819
31740
31697
31642
31553
31467
31400
31341
31291
31278
31305
31314
31283
31245
31215
31167
31092
31019
30954
30868
30757
30652
30566
30489
30423
30392
30382
30351
30300
30271
30274
30288
30332
30434
30571
30708
30846
31013
31212
31428
31683
31989
32291
32565
32849
33153
33458
33759
34073
34398
34679
34895
35093
35295
35479
35639
35798
35960
36093
36183
36260
36325
36349
36347
36371
36420
36453
36456
36454
36442
36411
36407
36457
36519
36546
36547
36567
36614
36662
36713
36778
36820
36814
36785
36744
36693
36638
36595
36571
36519
36427
36331
36235
36136
36058
36033
36054
36068
36057
36048
36047
36031
36009
36015
36037
36026
35979
35930
35882
35827
35799
35819
35845
35840
35808
35775
35736
35677
35635
35633
35631
35601
35558
35515
35461
35383
35305
35243
35157
35030
34907
34803
34701
34600
34521
34459
34384
34298
34234
34182
34111
34032
33970
33918
33844
33750
33663
33577
33479
33402
33369
33346
33285
33180
33080
33001
32922
32863
32843
32822
32771
32706
32656
32606
32538
32488
32480
32476
32455
32427
32387
32313
32203
32110
32066
32026
31974
31932
31888
31808
31699
31611
31548
31468
31384
31340
31321
31273
31194
31132
31097
31058
31034
31056
31084
31062
30991
30927
30879
30819
30771
30762
30735
30656
30566
30494
30434
30379
30333
30299
30236
30129
30029
29958
29894
29830
29777
29735
29683
29617
29582
29602
29651
29721
29840
30005
30170
30336
30547
30808
31102
31439
31823
32216
32570
32879
33188
33513
33827
34139
34461
34753
34989
35185
35362
35513
35623
35724
35844
35949
36023
36079
36115
36115
36087
36082
36111
36138
36154
36180
36218
36245
36255
36270
36308
36359
36421
36504
36580
36608
36592
36572
36551
36505
36453
36413
36359
36268
36156
36060
35990
35931
35893
35890
35874
35817
35757
35718
35690
35661
35649
35669
35668
35617
35561
35518
35467
35407
35372
35367
35347
35299
35250
35203
35132
35048
35001
34994
34986
34965
34937
34889
34795
34681
34602
34548
34479
34409
34355
34278
34156
34019
33893
33777
33658
33551
33467
33358
33198
33036
32889
32744
32606
32508
32464
32427
32371
32324
32290
32239
32172
32121
32090
32043
31971
31901
31833
31736
31622
31537
31489
31439
31381
31327
31253
31142
31041
30989
30962
30914
30848
30787
30703
30577
30454
30366
30286
30186
30080
29997
29907
29786
29677
29602
29536
29467
29400
29328
29217
29072
28949
28867
28795
28727
28686
28670
28645
28606
28589
28599
28598
28580
28557
28507
28402
28268
28159
28079
27997
27917
27858
27785
27679
27590
27546
27538
27555
27587
27644
27702
27737
27795
27910
28044
28183
28353
28553
28763
28984
29246
29549
29852
30145
30447
30748
31030
31302
31592
31890
32166
32418
32658
32858
32980
33043
33108
33182
33230
33268
33316
33339
33304
33245
33203
33179
33148
33107
33079
33049
33000
32969
32975
32994
33009
33037
33084
33100
33057
33004
32974
32947
32919
32898
32881
32841
32773
32703
32642
32569
32489
32430
32388
32338
32283
32240
32191
32125
32085
32105
32153
32177
32172
32169
32153
32107
32071
32076
32107
32136
32159
32185
32178
32112
32043
31998
31944
31873
31803
31736
31646
31522
31398
31298
31201
31105
31028
30966
30898
30823
30743
30650
30542
30439
30376
30354
30342
30336
30352
30361
30322
30252
30202
30177
30143
30104
30079
30040
29966
29879
29801
29725
29634
29561
29537
29515
29466
29418
29374
29315
29238
29182
29163
29151
29139
29135
29131
29106
29071
29047
29025
28981
28936
28929
28944
28942
28921
28890
28847
28794
28746
28721
28716
28705
28692
28687
28654
28572
28481
28410
28358
28306
28261
28238
28205
28150
28096
28040
27959
27859
27787
27756
27728
27696
27688
27700
27704
27709
27755
27841
27941
28075
28281
28542
28817
29105
29412
29708
29970
30234
30544
30887
31222
31545
31864
32143
32353
32533
32719
32907
33073
33211
33345
33448
33500
33531
33555
33562
33561
33582
33631
33651
33621
33573
33523
33457
33385
33352
33365
33384
33384
33388
33400
33385
33337
33294
33263
33217
33169
33134
33080
32970
32821
32671
32520
32358
32231
32170
32146
32125
32112
32136
32156
32141
32122
32111
32090
32062
32066
32110
32146
32158
32172
32190
32189
32166
32145
32132
32109
32083
32075
32076
32056
32009
31952
31887
31797
31699
31634
31590
31533
31467
31415
31356
31261
31136
31014
30889
30748
30631
30562
30509
30445
30375
30313
30233
30122
30005
29892
29770
29649
29566
29525
29476
29401
29317
29221
29091
28926
28763
28616
28465
28327
28235
28181
28123
28057
27999
27935
27839
27732
27658
27615
27566
27519
27490
27437
27332
27213
27124
27062
26997
26937
26903
26862
26786
26705
26622
26533
26453
26416
26427
26434
26412
26390
26380
26360
26330
26320
26332
26330
26307
26292
26283
26245
26178
26124
26096
26066
26032
26006
25970
25907
25842
25817
25837
25878
25953
26081
26225
26357
26509
26716
26971
27248
27565
27937
28315
28672
29026
29380
29722
30051
30397
30773
31129
31433
31706
31954
32149
32289
32408
32518
32595
32645
32695
32729
32717
32672
32634
32607
32574
32554
32565
32578
32558
32507
32460
32414
32353
32327
32362
32417
32460
32489
32509
32502
32451
32400
32371
32330
32265
32185
32094
31970
31815
31680
31588
31517
31465
31452
31470
31483
31478
31471
31449
31392
31334
31333
31373
31398
31417
31459
31488
31461
31406
31369
31348
31313
31274
31250
31206
31130
31056
31002
30960
30921
30903
30917
30917
30877
30812
30719
30596
30456
30338
30249
30154
30047
29956
29883
29802
29708
29633
29568
29480
29389
29332
29292
29220
29120
29031
28939
28828
28742
28712
28712
28706
28691
28683
28658
28594
28515
28450
28396
28338
28292
28272
28250
28212
28176
28145
28087
27987
27881
27791
27705
27627
27587
27582
27556
27494
27430
27371
27286
27176
27082
27008
26933
26866
26826
26789
26714
26607
26512
26435
26362
26316
26313
26322
26301
26246
26185
26101
25975
25838
25717
25615
25529
25481
25478
25478
25466
25460
25456
25424
25361
25318
25319
25339
25382
25476
25620
25784
25969
26204
26483
26775
27088
27450
27846
28242
28639
29039
29404
29709
29983
30263
30549
30805
31037
31261
31442
31557
31652
31758
31867
31957
32044
32155
32244
32281
32310
32348
32376
32394
32422
32457
32458
32412
32367
32343
32315
32284
32283
32311
32326
32318
32308
32288
32241
32188
32167
32166
32146
32117
32106
32074
31990
31895
31832
31788
31734
31673
31626
31562
31462
31354
31257
31160
31060
30991
30967
30942
30902
30886
30896
30893
30864
30844
30842
30824
30776
30723
30664
30559
30417
30296
30214
30131
30042
29973
29904
29786
29628
29478
29341
29187
29043
28940
28849
28730
28587
28456
28339
28213
28112
28061
28012
27937
27849
27763
27660
27534
27446
27420
27415
27415
27423
27425
27395
27328
27266
27223
27176
27122
27087
27067
27025
26955
26889
26831
26762
26702
26682
26686
26665
26610
26559
26520
26486
26481
26513
26544
26541
26509
26482
26464
26442
26440
26468
26495
26511
26519
26508
26468
26399
26340
26305
26265
26222
26197
26176
26123
26044
25984
25965
25956
25935
25914
25891
25847
25798
25794
25845
25917
26029
26206
26415
26619
26833
27089
27366
27639
27946
28311
28703
29088
29468
29859
30216
30516
30807
31108
31388
31636
31883
32137
32343
32480
32586
32676
32726
32732
32735
32747
32743
32720
32700
32675
32615
32532
32454
32380
32298
32226
32208
32237
32278
32328
32388
32433
32440
32414
32383
32344
32279
32222
32195
32159
32093
32020
31956
31881
31779
31695
31655
31632
31616
31622
31649
31656
31628
31602
31594
31585
31576
31591
31638
31684
31718
31753
31775
31754
31698
31651
31619
31574
31529
31502
31470
31402
31299
31194
31097
30991
30914
30891
30874
30829
30756
30666
30549
30404
30277
30186
30099
30011
29945
29899
29828
29718
29604
29501
29389
29267
29170
29095
29010
28916
28834
28753
28647
28522
28419
28349
28293
28267
28275
28274
28227
28147
28073
27998
27895
27803
27756
27726
27679
27607
27526
27440
27342
27266
27231
27188
27118
27047
26984
26900
26792
26713
26681
26664
26649
26650
26659
26641
26591
26542
26499
26437
26363
26315
26290
26253
26205
26166
26113
26021
25926
25876
25863
25848
25831
25830
25812
25747
25683
25663
25679
25719
25809
25970
26163
26365
26605
26892
27199
27515
27867
28260
28657
29050
29457
29878
30275
30636
30986
31328
31634
31894
32128
32343
32524
32684
32844
32979
33046
33056
33053
33035
32981
32920
32890
32882
32871
32870
32891
32909
32904
32873
32828
32788
32748
32734
32748
32751
32731
32696
32638
32543
32424
32321
32247
32172
32086
32005
31934
31848
31747
31665
31601
31522
31435
31389
31386
31394
31412
31450
31477
31462
31426
31411
31411
31399
31392
31410
31417
31382
31321
31264
31196
31099
31019
30982
30958
30932
30920
30914
30867
30768
30667
30588
30503
30405
30333
30291
30228
30125
30026
29936
29819
29676
29554
29465
29383
29319
29283
29240
29145
29017
28911
28831
28747
28681
28648
28620
28572
28498
28422
28338
28232
28150
28115
28094
28070
28052
28043
28009
27930
27847
27781
27707
27618
27545
27507
27488
27483
27506
27543
27563
27560
27550
27522
27461
27393
27353
27319
27253
27171
27104
27026
26914
26809
26752
26728
26700
26680
26689
26698
26682
26645
26601
26542
26452
26378
26349
26320
26270
26216
26164
26098
26019
25953
25902
25847
25797
25768
25754
25721
25658
25597
25563
25542
25535
25589
25710
25875
26104
26417
26778
27136
27491
27860
28213
28530
28841
29176
29524
29857
30180
30512
30817
31072
31291
31473
31604
31684
31755
31838
31894
31903
31903
31913
31892
31824
31753
31693
31628
31565
31532
31528
31521
31496
31465
31420
31349
31279
31256
31265
31269
31279
31303
31292
31216
31109
31008
30914
30809
30713
30639
30549
30423
30289
30166
30032
29877
29748
29672
29609
29541
29489
29461
29420
29351
29294
29264
29238
29216
29216
29230
29223
29196
29173
29142
29072
28969
28873
28788
28691
28601
28546
28505
28432
28339
28263
28184
28067
27921
27781
27634
27464
27314
27206
27123
27049
26996
26973
26943
26889
26844
26810
26748
26653
26568
26508
26452
26397
26371
26378
26383
26371
26365
26353
26294
26198
26103
26015
25925
25855
25839
25862
25874
25873
25880
25873
25828
25766
25720
25698
25683
25679
25697
25700
25672
25630
25584
25521
25435
25368
25342
25323
25295
25282
25291
25284
25240
25186
25134
25059
24962
24875
24803
24718
24627
24559
24505
24433
24352
24285
24198
24052
23888
23778
23721
23680
23668
23709
23778
23843
23906
24001
24125
24263
24451
24709
25010
25335
25689
26072
26436
26760
27081
27407
27720
28018
28332
28678
29007
29302
29589
29859
30065
30195
30295
30393
30474
30539
30619
30703
30740
30746
30753
30735
30673
30604
30564
30537
30494
30445
30415
30381
30325
30267
30221
30175
30117
30078
30073
30061
30026
29996
29974
29922
29831
29753
29705
29664
29624
29596
29581
29558
29522
29492
29472
29443
29413
29415
29448
29479
29511
29557
29591
29573
29523
29492
29476
29448
29435
29467
29515
29531
29525
29530
29506
29423
29329
29258
29194
29126
29073
29042
28992
28913
28833
28754
28630
28461
28294
28143
27994
27850
27739
27664
27580
27473
27370
27278
27167
27038
26934
26856
26778
26716
26692
26683
26657
26613
26571
26516
26428
26349
26315
26304
26276
26237
26213
26176
26106
26031
25960
25876
25776
25705
25691
25685
25664
25649
25633
25590
25523
25477
25458
25445
25440
25457
25487
25498
25474
25437
25399
25349
25310
25304
25300
25252
25168
25081
24979
24850
24737
24674
24651
24631
24605
24592
24576
24549
24547
24575
24612
24667
24780
24964
25178
25397
25643
25922
26211
26506
26842
27220
27593
27947
28307
28671
29003
29302
29606
29914
30200
30483
30786
31070
31290
31463
31615
31721
31767
31800
31851
31901
31918
31906
31894
31863
31795
31736
31714
31711
31710
31721
31758
31778
31760
31735
31708
31662
31602
31571
31576
31573
31549
31521
31488
31428
31340
31261
31198
31129
31059
31006
30948
30852
30736
30650
30598
30558
30537
30549
30570
30569
30544
30523
30502
30464
30460
30514
30575
30616
30648
30670
30661
30615
30582
30582
30575
30545
30524
30519
30487
30411
30331
30262
30178
30073
29986
29934
29877
29810
29756
29700
29612
29504
29391
29263
29119
29002
28938
28901
28848
28775
28716
28656
28572
28502
28470
28464
28453
28445
28464
28464
28431
28398
28361
28290
28186
28101
28058
28024
27980
27944
27911
27852
27766
27681
27598
27500
27414
27381
27383
27378
27370
27375
27364
27305
27223
27178
27167
27158
27160
27184
27197
27168
27107
27042
26978
26896
26814
26755
26670
26531
26376
26226
26067
25903
25763
25661
25550
25417
25307
25235
25167
25098
25062
25062
25059
25031
24996
24949
24869
24789
24771
24814
24892
25020
25208
25433
25669
25927
26234
26582
26947
27343
27785
28232
28644
29031
29417
29792
30136
30484
30849
31201
31527
31839
32131
32353
32496
32610
32712
32787
32837
32890
32955
32998
32995
32972
32935
32869
32784
32724
32687
32642
32602
32585
32568
32516
32446
32412
32416
32419
32418
32426
32412
32352
32283
32230
32176
32114
32050
31997
31931
31830
31733
31657
31578
31493
31435
31412
31371
31294
31225
31177
31130
31095
31102
31136
31157
31157
31158
31155
31126
31088
31077
31089
31084
31057
31024
30971
30883
30793
30737
30699
30645
30578
30517
30436
30317
30197
30103
30024
29940
29855
29780
29675
29523
29373
29244
29113
28973
28864
28795
28726
28640
28561
28489
28390
28260
28140
28050
27970
27895
27847
27821
27782
27724
27667
27592
27477
27351
27252
27173
27086
27008
26958
26915
26856
26787
26732
26684
26617
26546
26485
26422
26359
26309
26278
26228
26147
26065
25985
25882
25759
25650
25567
25483
25401
25349
25323
25291
25244
25203
25155
25066
24953
24866
24804
24739
24682
24640
24575
24464
24326
24202
24101
24014
23953
23930
23915
23892
23880
23892
23933
24011
24156
24377
24637
24930
25275
25665
26053
26425
26826
27273
27730
28181
28644
29113
29553
29954
30332
30689
31006
31303
31608
31897
32136
32343
32537
32690
32781
32843
32915
32996
33057
33112
33179
33219
33201
33154
33107
33071
33041
33032
33058
33077
33069
33064
33064
33058
33050
33058
33079
33073
33026
32968
32916
32851
32779
32746
32749
32740
32714
32703
32699
32656
32581
32520
32481
32456
32467
32531
32613
32664
32680
32693
32701
32687
32698
32759
32821
32857
32878
32896
32897
32870
32860
32891
32927
32950
32976
33001
32990
32932
32865
32807
32735
32648
32566
32486
32378
32249
32132
32024
31907
31803
31743
31705
31644
31566
31508
31458
31385
31313
31274
31257
31236
31212
31193
31156
31094
31034
30989
30946
30896
30864
30864
30838
30766
30696
30640
30572
30499
30456
30451
30431
30379
30335
30305
30266
30229
30218
30224
30209
30173
30146
30117
30067
30019
30002
29994
29944
29872
29826
29790
29743
29721
29738
29754
29735
29673
29590
29495
29379
29281
29225
29174
29118
29074
29042
29030
29058
29153
29316
29500
29692
29931
30224
30539
30874
31260
31690
32129
32567
33007
33416
33766
34098
34459
34827
35159
35463
35753
35995
36167
36296
36413
36513
36574
36601
36612
36580
36493
36404
36341
36292
36254
36246
36269
36277
36246
36203
36152
36086
36017
35977
35976
35977
35962
35945
35917
35848
35738
35622
35510
35392
35269
35152
35029
34869
34694
34553
34451
34361
34291
34246
34191
34117
34067
34071
34110
34156
34201
34254
34282
34265
34262
34295
34326
34350
34377
34385
34350
34279
34213
34159
34088
34000
33915
33824
33712
33593
33503
33455
33423
33391
33366
33322
33229
33108
33008
32925
32835
32752
32688
32611
32499
32366
32243
32132
32017
31916
31847
31771
31673
31580
31502
31429
31365
31324
31308
31268
31183
31096
31028
30965
30907
30884
30896
30901
30894
30892
30885
30847
30789
30744
30707
30652
30588
30528
30449
30333
30211
30127
30072
30007
29926
29849
29762
29654
29571
29538
29521
29495
29454
29409
29354
29271
29200
29164
29121
29062
29010
28959
28867
28731
28611
28530
28455
28376
28314
28270
28220
28171
28163
28199
28249
28323
28450
28609
28766
28944
29199
29527
29883
30267
30694
31123
31519
31910
32329
32761
33177
33578
33988
34369
34697
35021
35361
