40616
40556
40505
40459
40407
40346
40280
40204
40125
40051
39986
39925
39864
39806
39751
39692
39631
39574
39520
39467
39420
39380
39341
39298
39254
39215
39178
39144
39119
39106
39092
39072
39052
39031
38996
38943
38888
38846
38812
38779
38754
38744
38738
38720
38693
38670
38648
38624
38601
38577
38546
38509
38471
38434
38393
38349
38309
38284
38271
38266
38273
38302
38353
38425
38532
38674
38843
39036
39256
39501
39762
40030
40301
40564
40813
41054
41288
41505
41691
41843
41970
42070
42144
42200
42255
42298
42319
42329
42333
42324
42306
42284
42262
42232
42196
42165
42138
42112
42089
42070
42057
42036
42001
41958
41911
41853
41783
41712
41644
41570
41490
41417
41351
41288
41230
41186
41160
41145
41143
41151
41159
41165
41178
41210
41254
41301
41343
41368
41377
41380
41384
41392
41394
41385
41372
41357
41335
41301
41265
41237
41211
41180
41143
41103
41059
41008
40952
40894
40833
40775
40724
40675
40615
40542
40463
40378
40289
40209
40138
40078
40022
39972
39933
39893
39849
39813
39783
39751
39710
39654
39595
39538
39481
39429
39382
39339
39297
39262
39234
39207
39178
39151
39125
39095
39062
39033
39007
38977
38944
38915
38889
38857
38819
38778
38740
38705
38673
38648
38625
38593
38554
38521
38495
38464
38429
38395
38360
38326
38295
38270
38241
38208
38185
38183
38200
38234
38294
38381
38494
38635
38807
39012
39236
39471
39719
39970
40219
40459
40689
40905
41100
41275
41443
41599
41723
41808
41866
41906
41923
41929
41941
41948
41941
41925
41910
41893
41868
41835
41797
41758
41722
41693
41668
41635
41591
41532
41466
41397
41323
41247
41174
41105
41029
40951
40878
40812
40754
40707
40671
40645
40628
40629
40644
40656
40663
40679
40701
40719
40731
40747
40767
40782
40797
40815
40830
40839
40845
40850
40854
40851
40837
40817
40791
40762
40733
40701
40652
40584
40511
40444
40372
40290
40209
40141
40086
40039
39992
39941
39889
39837
39789
39742
39689
39629
39576
39530
39485
39438
39396
39352
39294
39225
39173
39143
39121
39096
39054
38997
38939
38887
38845
38809
38773
38743
38726
38714
38702
38690
38669
38642
38613
38585
38559
38524
38478
38437
38402
38364
38322
38288
38266
38245
38220
38192
38160
38133
38120
38119
38123
38124
38124
38138
38174
38234
38327
38463
38636
38826
39026
39236
39445
39659
39880
40102
40319
40529
40733
40927
41097
41234
41348
41444
41514
41559
41584
41596
41591
41569
41538
41504
41470
41435
41399
41359
41307
41249
41196
41147
41092
41035
40980
40916
40837
40755
40677
40590
40494
40401
40319
40246
40178
40118
40076
40049
40026
40004
39988
39980
39983
39997
40019
40040
40061
40093
40139
40185
40215
40241
40274
40306
40334
40353
40361
40365
40366
40362
40351
40332
40305
40276
40247
40206
40151
40094
40039
39975
39907
39850
39802
39748
39687
39624
39564
39508
39458
39408
39346
39276
39209
39155
39108
39057
39005
38959
38908
38853
38805
38769
38736
38699
38656
38607
38555
38501
38452
38412
38372
38328
38282
38230
38173
38115
38064
38023
37991
37971
37964
37963
37958
37954
37957
37970
37992
38025
38078
38154
38252
38380
38539
38716
38901
39103
39325
39547
39758
39967
40178
40375
40550
40713
40864
40990
41089
41166
41225
41261
41272
41264
41244
41222
41201
41165
41112
41047
40978
40911
40845
40783
40726
40675
40623
40559
40482
40397
40302
40201
40102
40007
39914
39828
39754
39687
39625
39568
39523
39495
39474
39456
39450
39458
39473
39488
39508
39534
39559
39584
39613
39642
39665
39685
39709
39731
39746
39757
39768
39777
39770
39750
39730
39712
39689
39655
39619
39576
39523
39469
39422
39378
39330
39282
39232
39170
39103
39044
38995
38950
38896
38833
38769
38705
38642
38586
38543
38503
38459
38415
38374
38329
38274
38217
38166
38118
38077
38049
38025
37991
37951
37920
37891
37855
37821
37797
37777
37748
37715
37680
37642
37598
37556
37523
37501
37489
37491
37503
37517
37534
37570
37638
37736
37856
38004
38185
38399
38636
38891
39154
39417
39683
39951
40209
40446
40658
40852
41027
41173
41292
41399
41494
41568
41620
41660
41686
41689
41672
41645
41607
41563
41525
41499
41472
41432
41385
41340
41297
41259
41227
41193
41149
41088
41019
40950
40880
40807
40734
40663
40594
40527
40468
40418
40374
40335
40300
40273
40252
40242
40241
40246
40254
40268
40294
40326
40355
40380
40406
40437
40462
40477
40488
40495
40498
40505
40513
40513
40505
40487
40457
40421
40388
40357
40318
40265
40206
40153
40109
40065
40017
39973
39933
39890
39846
39801
39743
39670
39592
39521
39455
39386
39319
39262
39208
39153
39106
39071
39033
38986
38937
38884
38822
38761
38718
38691
38673
38653
38628
38602
38573
38540
38505
38465
38425
38384
38343
38306
38272
38238
38212
38197
38188
38183
38185
38194
38209
38235
38279
38346
38439
38564
38722
38908
39114
39334
39571
39818
40066
40313
40556
40788
41005
41205
41387
41547
41685
41804
41906
41993
42059
42108
42145
42158
42151
42140
42136
42126
42100
42069
42043
42019
41997
41978
41962
41944
41920
41893
41860
41822
41777
41726
41667
41601
41529
41454
41370
41277
41187
41110
41041
40977
40923
40885
40861
40850
40849
40859
40876
40901
40933
40966
40994
41016
41045
41082
41111
41127
41141
41155
41160
41154
41153
41157
41148
41125
41101
41080
41058
41028
40992
40950
40899
40845
40791
40736
40679
40621
40567
40516
40459
40397
40336
40274
40206
40137
40077
40029
39981
39929
39875
39819
39769
39729
39695
39657
39611
39565
39521
39474
39427
39386
39352
39316
39282
39257
39234
39204
39162
39115
39071
39031
38998
38971
38938
38894
38847
38809
38783
38763
38751
38748
38750
38756
38770
38804
38866
38955
39073
39224
39403
39600
39813
40044
40287
40532
40776
41021
41265
41502
41722
41924
42102
42252
42371
42466
42549
42624
42680
42709
42724
42738
42746
42740
42720
42690
42658
42627
42596
42565
42541
42516
42481
42439
42398
42354
42301
42241
42178
42111
42036
41961
41893
41828
41761
41696
41639
41589
41537
41488
41445
41407
41378
41363
41363
41366
41370
41388
41418
41446
41474
41512
41555
41589
41612
41631
41642
41639
41630
41630
41631
41617
41596
41579
41564
41536
41492
41445
41401
41354
41305
41253
41194
41134
41074
41016
40957
40891
40830
40776
40717
40655
40601
40559
40524
40487
40443
40388
40326
40258
40194
40138
40092
40053
40017
39976
39929
39885
39847
39811
39775
39737
39696
39652
39605
39559
39517
39472
39428
39396
39375
39358
39341
39324
39307
39287
39264
39240
39217
39193
39164
39136
39114
39093
39081
39083
39097
39122
39158
39215
39300
39406
39539
39709
39912
40130
40353
40594
40849
41102
41350
41598
41833
42045
42235
42401
42537
42647
42738
42814
42878
42928
42966
42991
42993
42977
42948
42911
42871
42835
42809
42791
42772
42746
42721
42702
42676
42638
42598
42556
42506
42455
42407
42359
42301
42229
42149
42069
41995
41934
41886
41848
41816
41790
41767
41741
41724
41730
41751
41773
41792
41813
41839
41863
41885
41907
41936
41959
41969
41977
41986
41984
41965
41941
41918
41887
41844
41807
41784
41758
41724
41683
41631
41571
41507
41444
41380
41317
41257
41201
41141
41078
41022
40970
40909
40846
40792
40744
40694
40636
40569
40499
40427
40358
40298
40251
40212
40167
40118
40074
40034
39996
39961
39927
39890
39851
39813
39774
39733
39694
39654
39608
39562
39523
39494
39470
39445
39422
39399
39368
39331
39295
39262
39227
39188
39149
39121
39103
39088
39075
39072
39076
39085
39110
39164
39257
39384
39538
39717
39916
40129
40353
40585
40821
41063
41303
41535
41751
41947
42122
42283
42425
42541
42633
42705
42758
42796
42827
42849
42854
42843
42826
42806
42777
42739
42705
42675
42639
42597
42556
42512
42465
42418
42369
42315
42252
42181
42103
42020
41940
41870
41810
41760
41712
41659
41602
41552
41513
41488
41470
41456
41448
41461
41492
41524
41553
41587
41621
41651
41678
41705
41729
41746
41762
41780
41796
41796
41779
41759
41733
41696
41656
41618
41577
41530
41483
41436
41381
41326
41277
41224
41160
41090
41025
40967
40913
40863
40818
40774
40725
40669
40616
40567
40513
40460
40417
40381
40340
40284
40229
40181
40131
40081
40038
39996
39946
39897
39858
39824
39789
39759
39735
39705
39665
39625
39595
39563
39525
39496
39473
39440
39400
39361
39328
39302
39280
39257
39230
39217
39234
39275
39339
39419
39513
39626
39757
39904
40071
40264
40473
40687
40905
41124
41337
41538
41729
41914
42088
42231
42340
42431
42502
42548
42583
42613
42636
42647
42644
42632
42616
42594
42569
42539
42505
42460
42400
42336
42272
42207
42136
42053
41963
41870
41775
41686
41601
41523
41455
41396
41335
41278
41230
41185
41145
41120
41118
41128
41141
41157
41177
41195
41213
41244
41287
41333
41372
41405
41439
41464
41476
41488
41500
41511
41517
41518
41512
41492
41469
41448
41421
41383
41339
41295
41247
41190
41134
41083
41028
40960
40888
40825
40767
40705
40645
40595
40549
40492
40426
40356
40283
40215
40160
40117
40077
40033
39985
39937
39886
39834
39787
39752
39722
39687
39650
39613
39571
39527
39483
39446
39409
39376
39345
39309
39270
39235
39207
39190
39180
39186
39223
39289
39374
39476
39601
39758
39935
40125
40334
40558
40787
41017
41246
41466
41667
41845
42009
42162
42298
42418
42521
42600
42650
42686
42725
42755
42764
42758
42741
42715
42681
42647
42613
42568
42511
42453
42393
42323
42243
42168
42096
42011
41915
41820
41729
41643
41565
41491
41417
41340
41261
41195
41148
41106
41065
41036
41020
41011
41021
41053
41087
41112
41134
41153
41155
41147
41154
41182
41214
41242
41268
41289
41301
41312
41323
41336
41340
41329
41304
41267
41220
41170
41119
41066
41006
40941
40884
40833
40776
40714
40658
40604
40544
40480
40419
40363
40308
40252
40198
40145
40094
40057
40030
39996
39955
39913
39867
39813
39746
39678
39615
39556
39500
39449
39397
39344
39293
39247
39204
39159
39112
39074
39048
39021
38995
38985
38993
39012
39043
39099
39181
39290
39431
39613
39824
40048
40287
40544
40807
41065
41319
41572
41817
42045
42255
42446
42619
42768
42888
42988
43072
43143
43197
43228
43244
43248
43236
43208
43174
43147
43126
43105
43077
43036
42992
42949
42897
42840
42789
42742
42694
42645
42595
42532
42456
42374
42292
42210
42130
42063
42014
41972
41926
41884
41857
41841
41832
41831
41840
41856
41878
41912
41953
41987
42011
42031
42052
42069
42080
42091
42107
42117
42115
42109
42106
42103
42094
42079
42056
42018
41966
41908
41844
41779
41721
41670
41619
41562
41501
41442
41381
41317
41261
41217
41177
41134
41096
41061
41018
40960
40896
40831
40766
40705
40653
40605
40550
40489
40437
40397
40359
40324
40291
40256
40215
40168
40123
40084
40047
40012
39984
39955
39922
39893
39871
39847
39825
39813
39820
39860
39933
40028
40147
40296
40472
40668
40881
41105
41337
41580
41831
42091
42354
42602
42829
43028
43202
43360
43498
43605
43684
43747
43797
43831
43856
43884
43912
43922
43913
43899
43879
43858
43843
43829
43810
43779
43745
43714
43681
43641
43596
43543
43483
43415
43346
43280
43211
43136
43068
43018
42974
42926
42876
42826
42778
42735
42704
42687
42683
42693
42714
42739
42756
42769
42789
42816
42842
42865
42891
42924
42953
42969
42978
42985
42984
42971
42952
42928
42899
42862
42822
42775
42719
42663
42612
42558
42504
42457
42412
42354
42281
42212
42150
42085
42025
41979
41939
41895
41849
41807
41765
41715
41664
41615
41564
41511
41460
41410
41359
41309
41263
41221
41178
41136
41098
41066
41029
40992
40960
40931
40903
40868
40829
40793
40759
40726
40692
40664
40648
40642
40648
40663
40680
40705
40748
40815
40911
41040
41201
41381
41570
41772
42000
42250
42509
42765
43013
43247
43459
43648
43821
43977
44112
44231
44337
44420
44476
44511
44532
44536
44528
44520
44520
44523
44516
44506
44501
44501
44499
44495
44490
44477
44455
44428
44391
44338
44268
44196
44126
44046
43965
43896
43838
43778
43713
43656
43607
43560
43520
43492
43474
43463
43458
43459
43464
43469
43474
43482
43489
43494
43515
43548
43573
43582
43584
43589
43599
43610
43621
43635
43639
43622
43589
43546
43497
43450
43410
43374
43326
43262
43193
43127
43058
42991
42932
42881
42826
42763
42702
42643
42584
42530
42481
42430
42374
42323
42276
42225
42166
42111
42066
42024
41985
41948
41908
41863
41814
41767
41732
41703
41672
41638
41605
41569
41531
41495
41459
41419
41380
41352
41332
41308
41283
41257
41223
41181
41139
41104
41070
41039
41018
41013
41019
41033
41058
41099
41156
41230
41330
41461
41618
41799
42006
42231
42460
42690
42927
43163
43387
43597
43802
44002
44182
44339
44476
44589
44673
44734
44786
44829
44859
44878
44889
44888
44874
44856
44840
44824
44805
44783
44758
44725
44683
44641
44607
44575
44535
44490
44443
44386
44315
44240
44174
44110
44043
43973
43906
43846
43797
43758
43727
43697
43662
43636
43627
43624
43618
43621
43642
43673
43707
43745
43785
43820
43846
43864
43872
43865
43853
43841
43819
43787
43753
43719
43681
43637
43593
43550
43495
43429
43363
43300
43233
43161
43092
43028
42965
42904
42852
42804
42750
42690
42633
42579
42522
42459
42395
42332
42270
42217
42170
42125
42075
42020
41965
41910
41851
41788
41729
41675
41623
41577
41539
41501
41463
41431
41403
41371
41328
41276
41222
41173
41130
41097
41076
41062
41049
41035
41018
40997
40976
40950
40919
40881
40836
40792
40748
40702
40658
40623
40587
40541
40497
40464
40444
40428
40425
40444
40489
40567
40684
40837
41013
41206
41419
41652
41903
42156
42401
42638
42864
43081
43286
43472
43634
43773
43892
43984
44044
44079
44106
44128
44141
44146
44144
44134
44114
44089
44065
44040
44008
43974
43946
43922
43892
43859
43829
43790
43731
43658
43582
43502
43413
43320
43233
43156
43086
43024
42970
42921
42878
42849
42835
42824
42805
42789
42787
42800
42823
42847
42861
42874
42891
42909
42920
42925
42929
42940
42957
42967
42973
42978
42970
42940
42901
42863
42824
42779
42731
42684
42634
42573
42505
42438
42369
42303
42239
42170
42096
42024
41957
41897
41828
41749
41677
41621
41566
41508
41457
41411
41359
41306
41267
41241
41212
41174
41134
41089
41042
40996
40954
40913
40866
40819
40777
40727
40668
40606
40550
40504
40469
40447
40434
40423
40406
40383
40362
40343
40322
40300
40274
40242
40202
40161
40126
40104
40105
40131
40173
40229
40307
40417
40550
40692
40848
41025
41215
41409
41603
41798
41988
42163
42322
42475
42619
42747
42858
42952
43025
43081
43124
43157
43174
43176
43171
43157
43123
43071
43022
42994
42975
42944
42898
42841
42785
42732
42673
42605
42526
42438
42349
42259
42167
42076
41987
41898
41811
41736
41682
41645
41610
41574
41552
41543
41538
41538
41549
41571
41593
41609
41626
41645
41666
41692
41718
41736
41742
41750
41763
41765
41752
41733
41712
41689
41664
41630
41587
41538
41488
41438
41387
41335
41283
41231
41180
41127
41070
41015
40962
40903
40840
40781
40724
40659
40592
40533
40480
40419
40353
40290
40225
40159
40103
40057
40011
39957
39900
39851
39803
39755
39716
39689
39667
39640
39609
39578
39543
39500
39452
39407
39368
39335
39307
39278
39247
39217
39196
39185
39184
39199
39228
39260
39296
39347
39427
39541
39682
39847
40037
40246
40461
40681
40906
41131
41344
41539
41711
41866
42005
42135
42257
42358
42433
42496
42548
42576
42586
42587
42579
42557
42527
42502
42482
42451
42415
42390
42369
42337
42295
42255
42208
42142
42061
41982
41906
41825
41744
41667
41596
41525
41455
41386
41318
41257
41212
41175
41139
41112
41098
41093
41090
41096
41117
41142
41165
41190
41221
41255
41281
41302
41328
41356
41372
41374
41371
41367
41358
41347
41340
41319
41270
41208
41151
41101
41051
41003
40959
40911
40855
40795
40731
40664
40598
40539
40486
40429
40359
40284
40216
40161
40111
40061
40011
39960
39907
39857
39813
39776
39741
39709
39675
39638
39601
39565
39525
39481
39438
39396
39344
39283
39228
39186
39147
39104
39061
39026
38999
38970
38944
38924
38903
38880
38862
38851
38846
38840
38835
38837
38855
38902
38977
39074
39189
39320
39483
39678
39888
40107
40341
40583
40814
41031
41245
41446
41619
41775
41923
42059
42170
42255
42326
42385
42421
42435
42437
42432
42415
42385
42351
42311
42268
42224
42184
42147
42115
42089
42061
42023
41974
41922
41876
41826
41766
41702
41635
41558
41469
41378
41300
41237
41184
41136
41091
41049
41016
40995
40985
40980
40985
41003
41025
41049
41075
41101
41125
41141
41151
41164
41185
41199
41203
41204
41201
41196
41193
41189
41176
41144
41098
41051
41011
40978
40948
40914
40872
40821
40760
40694
40627
40562
40498
40433
40370
40311
40254
40193
40130
40076
40031
39983
39925
39864
39809
39757
39704
39651
39606
39570
39531
39485
39440
39396
39349
39302
39257
39214
39173
39140
39114
39084
39048
39010
38973
38935
38891
38844
38798
38760
38737
38723
38709
38689
38667
38647
38630
38618
38617
38635
38667
38712
38777
38876
39011
39169
39352
39565
39795
40030
40262
40489
40711
40927
41135
41332
41514
41673
41806
41922
42025
42111
42184
42236
42267
42282
42288
42290
42284
42268
42250
42233
42212
42190
42172
42151
42118
42079
42041
42002
41956
41905
41843
41767
41684
41605
41534
41464
41386
41311
41243
41180
41117
41052
40994
40945
40911
40897
40895
40894
40887
40887
40899
40917
40946
40991
41044
41087
41114
41135
41152
41156
41148
41138
41126
41113
41104
41091
41063
41023
40978
40933
40887
40835
40779
40727
40678
40623
40560
40494
40425
40356
40291
40229
40170
40115
40067
40027
39982
39916
39842
39775
39716
39661
39608
39560
39515
39467
39421
39377
39336
39299
39263
39226
39185
39136
39084
39030
38980
38941
38915
38897
38877
38855
38830
38796
38752
38707
38666
38624
38576
38530
38496
38469
38443
38421
38403
38380
38357
38347
38350
38366
38398
38460
38551
38663
38792
38946
39131
39335
39548
39775
40014
40256
40495
40728
40951
41154
41337
41499
41631
41736
41820
41888
41938
41976
42004
42019
42017
42000
41972
41939
41899
41851
41807
41776
41747
41711
41671
41628
41577
41521
41465
41404
41332
41252
41179
41108
41028
40938
40856
40789
40729
40679
40637
40589
40536
40492
40470
40467
40478
40497
40518
40534
40548
40569
40600
40627
40643
40655
40675
40701
40723
40737
40745
40744
40733
40718
40699
40677
40646
40609
40571
40530
40486
40441
40397
40350
40300
40251
40201
40140
40073
40013
39959
39897
39826
39751
39679
39609
39545
39491
39445
39396
39346
39298
39250
39201
39149
39093
39036
38978
38925
38875
38819
38763
38720
38696
38678
38656
38633
38607
38571
38525
38482
38447
38417
38390
38362
38331
38295
38254
38214
38174
38132
38103
38095
38103
38115
38139
38186
38249
38319
38407
38522
38663
38826
39012
39221
39444
39669
39897
40130
40359
40577
40788
40990
41167
41307
41419
41521
41606
41666
41702
41721
41733
41740
41734
41715
41683
41641
41594
41543
41484
41422
41361
41303
41244
41183
41128
41079
41025
40966
40906
40839
40763
40682
40600
40519
40442
40380
40332
40288
40247
40219
40205
40195
40186
40190
40214
40249
40291
40341
40389
40424
40451
40480
40507
40533
40557
40576
40585
40579
40559
40533
40511
40487
40463
40441
40413
40381
40348
40314
40277
40235
40190
40148
40104
40051
39992
39939
39889
39839
39792
39746
39693
39632
39570
39515
39460
39406
39358
39313
39265
39214
39164
39113
39054
38993
38942
38903
38866
38826
38791
38757
38717
38672
38632
38597
38561
38525
38490
38451
38411
38375
38347
38332
38328
38336
38357
38385
38423
38484
38575
38702
38863
39050
39249
39455
39667
39883
40099
40309
40516
40717
40906
41081
41241
41378
41492
41585
41660
41723
41770
41792
41792
41788
41784
41774
41756
41728
41694
41656
41613
41563
41509
41451
41392
41331
41268
41202
41136
41061
40970
40869
40769
40681
40603
40530
40460
40396
40338
40290
40254
40225
40207
40204
40212
40220
40229
40244
40271
40301
40327
40351
40377
40405
40424
40440
40464
40494
40520
40538
40553
40563
40560
40542
40516
40483
40450
40419
40386
40346
40294
40236
40174
40101
40015
39934
39872
39813
39757
39712
39671
39623
39574
39532
39496
39453
39403
39350
39299
39245
39185
39129
39076
39017
38959
38902
38838
38772
38714
38670
38634
38603
38582
38571
38555
38528
38496
38468
38440
38404
38366
38332
38307
38291
38284
38286
38299
38328
38378
38448
38543
38669
38827
39004
39202
39424
39667
39923
40180
40430
40681
40926
41151
41361
41561
41745
41904
42036
42146
42242
42319
42372
42407
42419
42416
42408
42397
42383
42361
42334
42309
42284
42260
42239
42217
42189
42151
42104
42051
41989
41921
41848
41772
41692
41616
41549
41482
41413
41351
41300
41250
41196
41149
41115
41090
41074
41076
41099
41138
41185
41240
41300
41350
41390
41437
41487
41529
41562
41584
41585
41565
41534
41503
41477
41455
41434
41413
41390
41355
41308
41259
41212
41158
41097
41040
40987
40933
40877
40823
40772
40720
40665
40613
40560
40500
40435
40371
40315
40269
40226
40181
40135
40084
40037
40005
39970
39926
39878
39825
39765
39703
39652
39613
39570
39521
39475
39436
39398
39360
39328
39303
39286
39279
39283
39288
39281
39266
39254
39240
39227
39234
39266
39313
39379
39473
39593
39729
39881
40061
40270
40497
40734
40984
41249
41509
41754
41995
42231
42444
42618
42763
42891
43002
43097
43173
43229
43266
43284
43291
43289
43281
43271
43259
43238
43212
43189
43174
43159
43139
43117
43096
43071
43041
43008
42971
42932
42885
42828
42765
42701
42634
42565
42497
42428
42361
42308
42272
42241
42208
42173
42146
42132
42131
42142
42154
42166
42179
42196
42219
42244
42271
42302
42332
42348
42349
42344
42340
42332
42325
42315
42298
42273
42244
42211
42171
42125
42075
42026
41974
41910
41836
41754
41666
41583
41516
41463
41408
41345
41293
41256
41212
41155
41096
41035
40976
40929
40891
40854
40812
40766
40719
40667
40609
40558
40519
40485
40443
40401
40370
40343
40313
40281
40251
40223
40193
40160
40127
40099
40070
40026
39975
39927
39884
39864
39874
39884
39879
39872
39874
39893
39937
40008
40108
40231
40375
40539
40727
40935
41157
41394
41645
41902
42156
42402
42635
42849
43040
43223
43397
43548
43671
43768
43840
43888
43926
43957
43973
43969
43956
43948
43944
43934
43920
43908
43897
43891
43882
43870
43853
43828
43790
43738
43673
43595
43515
43442
43370
43304
43247
43193
43133
43073
43024
42980
42940
42911
42898
42899
42903
42904
42906
42911
42915
42922
42941
42965
42985
43013
43048
43073
43084
43091
43105
43118
43123
43118
43107
43091
43065
43031
42990
42948
42910
42869
42824
42771
42715
42654
42588
42522
42462
42407
42350
42286
42222
42164
42107
42051
41992
41934
41884
41836
41789
41742
41689
41630
41573
41519
41466
41418
41376
41338
41300
41263
41233
41202
41164
41120
41086
41060
41025
40980
40942
40910
40874
40835
40805
40778
40744
40710
40685
40662
40634
40602
40577
40557
40536
40515
40498
40487
40484
40503
40545
40601
40674
40772
40897
41047
41221
41425
41659
41906
42148
42391
42641
42889
43125
43343
43540
43718
43878
44021
44140
44233
44305
44367
44426
44472
44501
44519
44519
44503
44484
44469
44457
44437
44407
44372
44333
44296
44268
44249
44234
44212
44184
44149
44087
44002
43921
43853
43780
43695
43608
43526
43451
43384
43332
43298
43281
43271
43271
43281
43294
43311
43340
43378
43413
43443
43477
43513
43540
43561
43586
43615
43633
43632
43625
43617
43598
43565
43526
43485
43437
43387
43343
43301
43257
43217
43177
43131
43080
43031
42980
42916
42842
42774
42716
42659
42599
42540
42482
42418
42350
42288
42235
42177
42109
42046
41989
41929
41872
41827
41789
41746
41701
41660
41619
41577
41534
41498
41467
41428
41392
41365
41334
41301
41268
41237
41201
41156
41111
41076
41041
41003
40966
40942
40923
40899
40880
40864
40856
40863
40889
40933
40996
41085
41204
41345
41507
41701
41918
42147
42382
42616
42850
43076
43295
43515
43724
43911
44073
44213
44327
44409
44466
44515
44562
44598
44614
44614
44611
44599
44576
44560
44555
44547
44531
44510
44486
44449
44404
44366
44332
44288
44237
44182
44119
44041
43950
43859
43769
43676
43590
43523
43471
43421
43374
43342
43327
43318
43312
43314
43325
43342
43369
43403
43439
43473
43505
43540
43564
43572
43579
43589
43594
43595
43591
43581
43566
43549
43533
43512
43481
43442
43405
43370
43332
43292
43246
43189
43123
43053
42985
42918
42851
42788
42729
42669
42606
42544
42489
42434
42375
42317
42260
42197
42125
42057
42008
41966
41916
41866
41822
41776
41726
41675
41629
41586
41544
41500
41449
41395
41346
41302
41259
41209
41151
41096
41048
41004
40970
40945
40921
40894
40864
40835
40806
40777
40756
40750
40757
40767
40784
40820
40875
40956
41070
41221
41397
41586
41788
42007
42238
42474
42713
42950
43174
43379
43569
43743
43902
44045
44172
44280
44367
44432
44477
44506
44519
44521
44520
44514
44501
44483
44460
44426
44385
44346
44315
44283
44237
44179
44123
44063
43993
43920
43849
43774
43687
43595
43513
43442
43373
43307
43244
43191
43150
43116
43087
43063
43051
43050
43063
43086
43113
43142
43175
43209
43243
43283
43322
43343
43346
43343
43338
43329
43323
43320
43320
43313
43302
43291
43269
43230
43180
43123
43063
42998
42926
42854
42789
42731
42680
42631
42579
42518
42453
42383
42308
42231
42162
42102
42045
41989
41931
41870
41811
41760
41719
41684
41648
41603
41558
41518
41482
41449
41418
41385
41349
41312
41276
41237
41193
41152
41119
41090
41063
41042
41024
40999
40970
40943
40919
40901
40892
40897
40916
40945
40988
41056
41151
41269
41415
41587
41771
41961
42162
42378
42608
42847
43089
43323
43536
43725
43894
44047
44177
44284
44376
44455
44509
44540
44557
44567
44565
44542
44511
44481
44452
44419
44378
44332
44281
44218
44154
44094
44034
43973
43906
43833
43755
43677
43599
43516
43430
43353
43288
43228
43174
43135
43111
43096
43082
43070
43071
43082
43096
43118
43150
43187
43222
43252
43282
43310
43337
43367
43395
43412
43418
43420
43419
43407
43387
43365
43338
43305
43269
43234
43200
43156
43104
43056
43012
42970
42928
42890
42848
42794
42735
42682
42628
42564
42499
42434
42360
42281
42206
42144
42090
42035
41984
41941
41900
41859
41820
41785
41752
41714
41671
41626
41578
41524
41463
41404
41350
41302
41257
41213
41174
41144
41117
41088
41059
41037
41024
41017
41023
41047
41087
41146
41220
41314
41430
41567
41728
41916
42131
42362
42595
42830
43069
43305
43530
43749
43965
44163
44329
44471
44595
44694
44771
44831
44879
44913
44929
44929
44918
44901
44880
44854
44825
44795
44764
44726
44680
44628
44577
44527
44476
44424
44367
44305
44234
44152
44065
43982
43899
43816
43735
43664
43603
43551
43513
43489
43476
43463
43454
43456
43472
43496
43533
43582
43632
43679
43724
43765
43798
43827
43852
43867
43873
43874
43867
43851
43829
43803
43775
43740
43692
43637
43585
43537
43485
43431
43382
43333
43279
43220
43159
43096
43035
42979
42933
42896
42857
42809
42756
42715
42687
42663
42639
42604
42552
42491
42425
42358
42295
42236
42177
42125
42081
42040
42002
41967
41936
41909
41874
41832
41800
41783
41770
41752
41729
41705
41672
41631
41592
41561
41534
41506
41476
41446
41414
41384
41361
41346
41337
41334
41345
41380
41438
41516
41619
41751
41912
42095
42299
42520
42754
43004
43266
43529
43784
44028
44266
44495
44706
44895
45063
45208
45322
45411
45482
45536
45577
45608
45625
45630
45632
45638
45643
45637
45622
45610
45605
45599
45594
45585
45572
45552
45523
45494
45462
45413
45352
45288
45223
45149
45065
44987
44925
44866
44811
44767
44731
44693
44661
44652
44662
44673
44680
44691
44701
44709
44726
44758
44791
44813
44831
44855
44877
44890
44897
44901
44903
44899
44888
44872
44850
44816
44773
44722
44667
44608
44550
44493
44431
44369
44306
44237
44162
44089
44027
43975
43919
43858
43798
43734
43665
43597
43534
43476
43416
43358
43303
43243
43183
43132
43089
43049
43010
42978
42947
42904
42850
42799
42756
42710
42659
42611
42565
42518
42482
42463
42459
42454
42441
42426
42410
42387
42363
42339
42315
42287
42255
42218
42178
42139
42107
42088
42082
42088
42111
42149
42199
42265
42359
42488
42644
42816
43001
43205
43419
43635
43855
44091
44339
44590
44836
45065
45266
45432
45563
45668
45752
45822
45878
45917
45944
45969
45997
46024
46040
46043
46038
46025
46001
45972
45948
45929
45902
45867
45834
45797
45750
45698
45646
45588
45521
45451
45381
45306
45222
45142
45072
45006
44946
44902
44877
44862
44842
44827
44819
44813
44812
44823
44839
44857
44879
44907
44930
44943
44962
44992
45020
45030
45027
45021
45006
44986
44970
44951
44922
44882
44836
44786
44727
44663
44603
44550
44494
44427
44355
44290
44231
44171
44110
44048
43983
43908
43832
43759
43693
43634
43574
43511
43448
43384
43322
43254
43182
43120
43072
43035
42994
42949
42908
42875
42838
42793
42749
42711
42676
42642
42615
42592
42563
42526
42485
42439
42391
42349
42318
42295
42270
42242
42210
42177
42143
42110
42077
42041
42008
41978
41949
41927
41915
41909
41911
41929
41972
42039
42124
42231
42363
42520
42701
42906
43127
43365
43613
43856
44088
44314
44530
44730
44912
45078
45224
45351
45463
45559
45633
45689
45732
45762
45781
45792
45795
45785
45760
45729
45704
45682
45655
45626
45602
45577
45547
45511
45469
45418
45355
45284
45214
45141
45057
44968
44889
44817
44748
44689
44644
44605
44570
44544
44528
44514
44505
44499
44497
44502
44521
44549
44570
44588
44604
44621
44640
44653
44664
44679
44692
44695
44685
44667
44645
44620
44590
44555
44514
44470
44425
44377
44320
44252
44177
44102
44030
43963
43905
43848
43784
43712
43641
43575
43508
43443
43387
43338
43288
43231
43175
43121
43063
43000
42937
42883
42834
42789
42746
42704
42660
42612
42561
42513
42472
42439
42409
42371
42320
42263
42213
42173
42137
42100
42071
42052
42026
41992
41954
41908
41859
41815
41774
41731
41685
41644
41605
41568
41539
41516
41495
41475
41462
41467
41495
41543
41611
41703
41813
41939
42084
42252
42442
42646
42856
43075
43299
43519
43728
43932
44127
44299
44453
44591
44707
44795
44858
44915
44965
45003
45031
45047
45047
45033
45010
44984
44957
44926
44893
44855
44803
44738
44671
44610
44549
44484
44418
44342
44255
44162
44068
43980
43898
43816
43740
43671
43604
43545
43502
43475
43457
43447
43449
43459
43468
43476
43491
43511
43529
43546
43561
43571
43582
43597
43610
43616
43617
43615
43611
43604
43597
43592
43585
43566
43533
43499
43463
43414
43358
43301
43244
43182
43114
43050
42985
42912
42839
42778
42723
42668
42616
42564
42499
42422
42342
42268
42200
42134
42072
42009
41945
41880
41823
41783
41751
41717
41686
41667
41656
41640
41603
41548
41487
41426
41369
41319
41270
41225
41185
41150
41119
41093
41067
41038
41003
40966
40935
40912
40888
40859
40837
40829
40829
40838
40859
40890
40941
41025
41144
41293
41463
41658
41872
42089
42307
42528
42743
42946
43137
43321
43495
43652
43789
43910
44017
44100
44159
44209
44246
44259
44251
44237
44221
44189
44138
44086
44033
43975
43920
43869
43816
43757
43687
43614
43538
43452
43358
43262
43172
43086
43010
42948
42888
42830
42779
42735
42694
42652
42620
42598
42579
42564
42565
42581
42595
42600
42612
42635
42655
42674
42700
42731
42752
42754
42754
42759
42763
42766
42772
42770
42751
42715
42678
42646
42612
42580
42550
42508
42454
42399
42345
42287
42228
42172
42115
42052
41987
41928
41876
41820
41763
41711
41663
41610
41552
41500
41457
41410
41354
41302
41252
41196
41135
41072
41011
40948
40886
40832
40783
40733
40686
40646
40609
40571
40536
40501
40460
40419
40389
40372
40364
40361
40361
40365
40379
40411
40473
40565
40681
40819
40985
41171
41365
41567
41784
42008
42224
42429
42631
42827
42999
43146
43283
43406
43498
43564
43615
43645
43648
43633
43617
43597
43567
43535
43504
43464
43413
43361
43314
43262
43204
43142
43083
43019
42943
42855
42749
42645
42556
42475
42394
42302
42204
42119
42051
41987
41929
41885
41852
41824
41803
41798
41810
41828
41845
41865
41882
41899
41926
41958
41988
42015
42037
42050
42053
42051
42047
42045
42042
42029
42009
41987
41957
41918
41878
41841
41801
41755
41703
41642
41575
41509
41447
41390
41329
41262
41192
41126
41063
41001
40948
40904
40860
40816
40770
40720
40663
40601
40540
40483
40426
40374
40331
40291
40244
40188
40129
40070
40017
39974
39936
39891
39837
39782
39733
39682
39633
39598
39586
39584
39583
39593
39616
39652
39707
39789
39898
40038
40207
40398
40605
40830
41080
41351
41623
41884
42133
42371
42591
42780
42940
43086
43219
43329
43424
43510
43579
43623
43646
43650
43635
43608
43577
43546
43513
43478
43445
43412
43374
43332
43292
43258
43220
43177
43131
43075
43004
42925
42852
42787
42720
42650
42582
42512
42435
42360
42297
42247
42207
42182
42168
42153
42139
42131
42133
42144
42163
42188
42214
42233
42248
42265
42289
42314
42334
42349
42361
42365
42363
42357
42344
42322
42291
42255
42216
42171
42126
42083
42039
41986
41923
41853
41780
41700
41623
41553
41487
41421
41364
41323
41289
41247
41199
41150
41095
41033
40972
40910
40841
40771
40710
40657
40601
40542
40491
40456
40421
40375
40322
40274
40227
40179
40137
40108
40066
40001
39939
39894
39860
39833
39816
39811
39816
39832
39862
39905
39967
40058
40179
40324
40494
40697
40927
41165
41403
41643
41891
42146
42403
42653
42884
43091
43271
43435
43581
43696
43784
43851
43899
43934
43960
43971
43963
43940
43910
43881
43853
43822
43791
43764
43737
43703
43660
43616
43572
43524
43476
43431
43391
43341
43277
43205
43130
43053
42983
42923
42865
42808
42759
42720
42686
42654
42629
42612
42599
42591
42595
42614
42643
42675
42708
42741
42770
42796
42823
42845
42853
42851
42847
42837
42812
42780
42753
42731
42708
42682
42661
42639
42606
42570
42533
42482
42418
42349
42280
42216
42152
42090
42028
41957
41879
41806
41741
41677
41610
41542
41476
41413
41354
41297
41240
41184
41138
41104
41076
41045
41002
40953
40906
40860
40818
40786
40756
40718
40680
40644
40606
40561
40510
40461
40414
40365
40319
40280
40243
40203
40167
40145
40132
40121
40120
40137
40168
40211
40270
40344
40436
40550
40698
40882
41096
41332
41585
41846
42101
42349
42593
42837
43069
43280
43465
43624
43761
43876
43976
44058
44115
44158
44194
44215
44218
44209
44198
44188
44173
44153
44127
44090
44047
44008
43973
43936
43891
43838
43785
43741
43705
43673
43639
43602
43556
43491
43408
43318
43228
43150
43088
43037
42994
42969
42961
42963
42970
42983
42998
43012
43032
43063
43094
43117
43137
43161
43184
43195
43194
43188
43175
43153
43133
43117
43093
43058
43022
42992
42963
42922
42871
42815
42759
42705
42652
42598
42544
42490
42438
42384
42322
42260
42201
42138
42068
41997
41937
41889
41840
41791
41747
41702
41652
41603
41559
41516
41472
41430
41390
41343
41296
41256
41223
41195
41162
41127
41091
41054
41017
40980
40939
40897
40861
40829
40797
40759
40726
40702
40681
40660
40640
40627
40625
40633
40661
40711
40779
40863
40973
41115
41278
41455
41655
41875
42106
42345
42583
42818
43044
43254
43448
43633
43798
43934
44046
44140
44218
44273
44308
44327
44335
44335
44328
44312
44293
44272
44251
44227
44195
44158
44127
44103
44073
44031
43977
43914
43845
43770
43699
43632
43558
43475
43396
43323
43255
43194
43143
43102
43071
43053
43048
43044
43041
43049
43072
43100
43123
43144
43166
43193
43232
43277
43318
43345
43356
43362
43363
43345
43312
43283
43262
43235
43202
43171
43138
43096
43052
43018
42989
42953
42909
42863
42814
42757
42699
42641
42583
42524
42468
42413
42355
42300
42252
42209
42169
42128
42086
42041
41984
41913
41843
41785
41735
41691
41652
41611
41567
41524
41483
41442
41398
41360
41332
41302
41262
41217
41181
41152
41125
41105
41100
41108
41116
41125
41143
41174
41226
41306
41413
41540
41682
41848
42036
42232
42435
42649
42871
43086
43290
43488
43679
43852
44003
44139
44257
44353
44428
44494
44553
44593
44616
44638
44658
44668
44673
44672
44654
44613
44563
44508
44446
44380
44314
44250
44186
44116
44042
43973
43901
43819
43731
43651
43578
43507
43440
43376
43313
43253
43210
43189
43180
43181
43194
43213
43226
43237
43257
43285
43307
43329
43360
43395
43424
43448
43470
43489
43500
43502
43499
43490
43463
43418
43366
43312
43255
43200
43152
43102
43042
42978
42920
42856
42791
42739
42699
42655
42600
42547
42500
42446
42387
42332
42280
42223
42160
42098
42031
41952
41872
41806
41743
41677
41614
41556
41503
41455
41414
41378
41344
41309
41271
41237
41205
41175
41152
41131
41096
41045
40993
40954
40920
40884
40849
40821
40796
40771
40754
40749
40752
40764
40797
40864
40964
41094
41253
41430
41618
41827
42060
42313
42573
42833
43099
43367
43620
43852
44065
44258
44428
44574
44695
44796
44873
44928
44971
45001
45019
45036
45050
45051
45033
45001
44973
44948
44924
44907
44902
44899
44890
44869
44826
44767
44703
44642
44584
44518
44445
44382
44329
44270
44204
44143
44092
44042
43989
43941
43903
43875
43859
43857
43858
43860
43872
43900
43929
43953
43972
43986
43995
44003
44017
44037
44057
44071
44081
44081
44067
44041
44010
43979
43942
43897
43846
43785
43720
43660
43600
43538
43472
43407
43344
43272
43194
43122
43057
42992
42928
42867
42808
42748
42683
42609
42535
42467
42407
42353
42301
42251
42198
42142
42088
42033
41978
41935
41903
41870
41835
41806
41773
41730
41681
41641
41613
41584
41547
41515
41487
41454
41424
41408
41402
41393
41377
41352
41317
41277
41241
41213
41195
41183
41184
41206
41247
41308
41401
41532
41695
41882
42095
42330
42578
42829
43076
43319
43558
43795
44027
44241
44424
44583
44728
44857
44960
45039
45106
45163
45204
45233
45262
45277
45269
45254
45245
45234
45223
45215
45209
45201
45183
45159
45130
45091
45044
44992
44939
44878
44803
44718
44628
44534
44444
44369
44312
44258
44202
44155
44120
44085
44053
44038
44036
44033
44029
44035
44057
44082
44106
44130
44144
44151
44159
44172
44181
44181
44175
44171
44162
44146
44132
44119
44098
44059
44011
43957
43898
43835
43774
43720
43667
43608
43546
43484
43421
43352
43277
43206
43144
43092
43042
42989
42930
42865
42794
42715
42633
42555
42481
42411
42341
42284
42245
42204
42150
42090
42033
41981
41921
41860
41815
41784
41755
41727
41699
41663
41624
41587
41555
41523
41495
41478
41466
41452
41436
41419
41398
41369
41338
41310
41281
41242
41195
41147
41096
41037
40977
40921
40868
40814
40768
40733
40706
40682
40669
40673
40691
40725
40780
40858
40955
41067
41205
41381
41586
41815
42065
42324
42584
42842
43097
43349
43593
43827
44047
44242
44406
44538
44647
44732
44794
44842
44882
44911
44926
44928
44924
44916
44898
44877
44864
44858
44848
44828
44806
44784
44756
44721
44683
44644
44598
44542
44473
44392
44302
44213
44136
44064
43985
43908
43841
43784
43738
43702
43678
43661
43644
43634
43631
43635
43645
43660
43681
43706
43731
43756
43782
43802
43814
43820
43814
43796
43780
43767
43749
43719
43677
43636
43592
43541
43488
43437
43385
43323
43253
43188
43130
43076
43027
42979
42928
42876
42825
42772
42711
42649
42591
42540
42487
42428
42374
42328
42277
42220
42170
42127
42082
42032
41986
41945
41897
41850
41812
41781
41753
41727
41698
41665
41632
41605
41586
41572
41559
41543
41522
41495
41467
41445
41428
41407
41376
41343
41311
41277
41242
41213
41187
41154
41113
41073
41033
40982
40924
40873
40830
40789
40747
40712
40683
40654
40630
40615
40613
40622
40649
40701
40772
40856
40958
41092
41262
41465
41693
41938
42191
42444
42695
42945
43183
43403
43607
43796
43967
44114
44231
44322
44389
44440
44482
44515
44537
44540
44530
44512
44489
44462
44430
44396
44366
44341
44322
44303
44278
44248
44218
44181
44132
44078
44020
43951
43871
43788
43708
43628
43550
43484
43439
43407
43372
43339
43319
43305
43289
43284
43298
43317
43335
43362
43399
43436
43475
43517
43557
43588
43606
43613
43612
43601
43578
43545
43502
43452
43404
43369
43338
43297
43248
43197
43138
43073
43011
42957
42905
42844
42779
42716
42649
42585
42527
42471
42410
42340
42276
42220
42165
42115
42069
42018
41955
41891
41834
41786
41733
41676
41627
41587
41543
41500
41468
41442
41408
41370
41340
41312
41276
41234
41195
41160
41126
41090
41057
41025
40986
40942
40902
40860
40812
40767
40734
40703
40669
40646
40635
40628
40620
40616
40618
40616
40610
40610
40620
40646
40699
40782
40889
41016
41170
41351
41546
41755
41980
42214
42448
42678
42905
43132
43352
43553
43725
43867
43976
44054
44113
44156
44184
44200
44209
44208
44188
44158
44136
44126
44118
44109
44102
44092
44071
44038
44004
43970
43929
43880
43825
43761
43690
43617
43539
43449
43353
43262
43179
43106
43038
42977
42931
42899
42873
42857
42856
42866
42878
42890
42898
42902
42908
42924
42946
42964
42973
42977
42980
42978
42975
42977
42978
42965
42936
42906
42873
42829
42774
42723
42676
42631
42591
42556
42517
42470
42413
42353
42292
42229
42166
42099
42025
41943
41856
41773
41697
41628
41571
41522
41473
41420
41366
41323
41288
41252
41220
41193
41162
41118
41070
41025
40977
40927
40889
40855
40815
40775
40739
40709
40680
40647
40606
40557
40503
40452
40414
40385
40352
40312
40275
40239
40202
40167
40139
40113
40082
40065
40071
40093
40126
40171
40238
40327
40436
40569
40727
40909
41110
41325
41555
41791
42024
42256
42483
42692
42879
43052
43211
43350
43466
43560
43631
43678
43709
43726
43728
43719
43701
43670
43625
43573
43524
43478
43433
43390
43349
43312
43272
43224
43173
43122
43065
42990
42903
42809
42717
42625
42533
42448
42367
42284
42206
42139
42086
42050
42023
42003
41996
42002
42017
42032
42044
42059
42088
42128
42171
42210
42243
42267
42276
42278
42287
42298
42297
42284
42269
42248
42221
42186
42142
42090
42032
41974
41917
41854
41783
41715
41653
41581
41503
41430
41364
41294
41216
41135
41052
40968
40889
40814
40745
40682
40627
40582
40544
40503
40459
40420
40382
40338
40293
40249
40197
40134
40068
40008
39945
39878
39818
39766
39720
39672
39631
39598
39559
39513
39473
39445
39424
39406
39392
39380
39365
39350
39341
39337
39343
39369
39422
39506
39615
39746
39903
40078
40265
40460
40673
40910
41153
41392
41625
41842
42034
42202
42353
42485
42599
42700
42785
42849
42885
42902
42913
42912
42894
42870
42844
42811
42766
42713
42658
42599
42538
42482
42426
42363
42298
42228
42152
42069
41981
41891
41797
41701
41609
41519
41432
41356
41300
41263
41240
41220
41206
41198
41192
41189
41190
41202
41225
41249
41276
41308
41336
41360
41382
41403
41420
41434
41452
41468
41467
41450
41433
41421
41405
41385
41369
41346
41306
41253
41199
41143
41081
41020
40966
40916
40861
40799
40739
40684
40630
40580
40531
40482
40428
40374
40319
40261
40200
40147
40106
40062
40002
39934
39872
39817
39767
39721
39682
39649
39619
39583
39537
39483
39430
39374
39314
39263
39224
39191
39160
39131
39109
39108
39132
39168
39217
39291
39390
39508
39648
39819
40013
40223
40447
40678
40910
41137
41363
41584
41788
41974
42146
42304
42444
42562
42658
42739
42802
42843
42862
42869
42864
42854
42837
42804
42756
42702
42643
42578
42497
42398
42306
42233
42152
42054
41954
41851
41743
41647
41569
41504
41437
41368
41303
41241
41186
41145
41114
41087
41063
41050
41052
41062
41081
41111
41149
41185
41217
41255
41299
41333
41353
41372
41394
41413
41429
41439
41435
41421
41401
41377
41352
41320
41285
41252
41221
41182
41137
41098
41058
41008
40952
40904
40860
40815
40767
40716
40662
40609
40556
40500
40434
40362
40298
40240
40179
40116
40058
40000
39938
39878
39824
39767
39704
39643
39592
39555
39517
39476
39438
39403
39367
39339
39321
39306
39289
39273
39266
39277
39311
39369
39452
39560
39690
39849
40036
40241
40458
40687
40925
41168
41410
41655
41898
42124
42323
42507
42685
42846
42980
43099
43209
43290
43341
43371
43385
43382
43371
43353
43321
43278
43237
43203
43168
43124
43074
43026
42973
42909
42838
42765
42688
42607
42527
42448
42365
42280
42200
42131
42068
42001
41941
41889
41836
41785
41750
41736
41731
41726
41733
41753
41772
41790
41811
41839
41871
41903
41936
41965
41987
42004
42025
42044
42050
42045
42038
42023
41999
41974
41948
41912
41862
41802
41743
41684
41624
41570
41522
41473
41423
41376
41330
41277
41218
41158
41104
41049
40991
40936
40883
40825
40764
40702
40645
40594
40551
40518
40487
40445
40389
40336
40291
40239
40183
40130
40080
40030
39979
39939
39914
39890
39868
39856
39846
39839
39846
39882
39948
40044
40179
40347
40533
40735
40961
41211
41468
41724
41983
42243
42494
42732
42967
43193
43389
43555
43703
43840
43956
44043
44108
44153
44172
44178
44180
44172
44148
44115
44086
44058
44032
44011
43986
43951
43908
43859
43809
43750
43680
43615
43563
43505
43426
43338
43258
43186
43123
43071
43026
42982
42934
42891
42858
42833
42815
42804
42794
42789
42792
42804
42818
42828
42843
42874
42916
42951
42979
43005
43024
43030
43027
43030
43038
43038
43035
43028
43009
42976
42933
42888
42847
42806
42765
42720
42663
42596
42531
42468
42400
42324
42255
42197
42134
42061
41990
41926
41864
41803
41753
41711
41670
41628
41589
41546
41496
41449
41404
41355
41299
41243
41189
41127
41062
41003
40952
40907
40867
40838
40817
40800
40782
40761
40738
40716
40708
40722
40750
40782
40826
40900
41011
41144
41294
41474
41682
41908
42150
42411
42680
42938
43188
43438
43679
43898
44095
44275
44428
44552
44655
44747
44824
44883
44928
44966
44993
45002
44994
44981
44959
44929
44898
44869
44840
44809
44779
44750
44718
44683
44644
44593
44528
44451
44369
44284
44194
44102
44017
43939
43865
43800
43750
43709
43673
43648
43644
43660
43681
43697
43716
43738
43757
43776
43801
43825
43843
43857
43871
43879
43878
43876
43879
43884
43882
43884
43891
43886
43868
43847
43823
43790
43746
43698
43650
43593
43525
43455
43388
43324
43260
43189
43107
43021
42946
42882
42821
42755
42688
42628
42578
42526
42469
42415
42362
42313
42268
42228
42191
42152
42110
42063
42012
41961
41913
41869
41826
41784
41754
41731
41699
41656
41613
41574
41533
41491
41458
41433
41414
41404
41411
41438
41485
41558
41658
41774
41900
42050
42232
42440
42665
42907
43166
43430
43688
43946
44198
44426
44626
44805
44967
45108
45226
45326
45406
45456
45477
45484
45486
45478
45458
45436
45412
45384
45352
45323
45300
45276
45254
45233
45209
45179
45144
45105
45057
44995
44922
44845
44765
44679
44597
44526
44469
44414
44354
44301
44258
44225
44206
44202
44207
44219
44239
44266
44290
44303
44314
44334
44356
44372
44378
44378
44377
44379
44390
44404
44409
44403
44396
44389
44368
44334
44301
44264
44215
44156
44094
44027
43951
43880
43816
43751
43682
43616
43556
43499
43440
43384
43334
43281
43222
43162
43103
43040
42974
42915
42859
42796
42726
42659
42603
42557
42522
42504
42499
42491
42473
42452
42427
42394
42350
42302
42248
42189
42136
42092
42050
42007
41963
41923
41890
41860
41834
41814
41800
41794
41794
41806
41835
41889
41970
42079
42208
42354
42515
42692
42881
43086
43314
43557
43799
44030
44259
44486
44697
44887
45061
45219
45359
45474
45564
45634
45685
45726
45762
45786
45793
45785
45762
45727
45690
45658
45633
45605
45565
45524
45486
45438
45380
45317
45254
45192
45128
45062
44990
44909
44819
44728
44649
44580
44521
44468
44416
44364
44323
44299
44291
44290
44288
44290
44294
44295
44302
44325
44354
44381
44404
44424
44440
44447
44452
44450
44431
44406
44389
44379
44362
44333
44303
44278
44246
44197
44140
44081
44020
43956
43894
43833
43771
43709
43642
43568
43490
43416
43352
43295
43236
43176
43122
43072
43020
42967
42917
42869
42817
42761
42706
42647
42583
42524
42475
42433
42397
42370
42350
42322
42285
42248
42217
42184
42141
42093
42049
42005
41957
41911
41873
41841
41812
41785
41753
41719
41685
41656
41636
41619
41606
41606
41624
41645
41673
41729
41817
41923
42047
42199
42381
42585
42808
43042
43273
43494
43713
43930
44140
44336
44524
44693
44832
44939
45029
45114
45184
45229
45255
45270
45276
45272
45262
45247
45229
45214
45196
45172
45142
45101
45051
44991
44923
44857
44800
44746
44680
44604
44533
44463
44382
44295
44219
44156
44098
44043
43997
43958
43919
43882
43856
43842
43840
43849
43872
43900
43926
43948
43970
43987
43996
44002
44011
44019
44030
44048
44066
44070
44065
44059
44046
44019
43983
43945
43901
43856
43815
43774
43720
43656
43591
43533
43481
43432
43387
43344
43293
43231
43159
43079
43000
42937
42890
42845
42794
42739
42688
42641
42593
42546
42506
42471
42434
42397
42367
42337
42293
42237
42182
42131
42083
42039
42001
41961
41919
41878
41842
41813
41787
41767
41759
41766
41777
41790
41814
41851
41901
41972
42072
42203
42353
42521
42703
42890
43079
43275
43476
43670
43856
44039
44219
44381
44518
44634
44730
44806
44860
44892
44904
44901
44890
44884
44879
44862
44831
44797
44764
44721
44669
44616
44553
44474
44394
44316
44228
44126
44023
43922
43821
43719
43619
43529
43451
43386
43336
43294
43256
43227
43213
43211
43211
43214
43224
43243
43263
43279
43296
43312
43329
43351
43375
43397
43417
43439
43460
43466
43455
43442
43435
43428
43413
43388
43353
43310
43260
43211
43162
43106
43046
42983
42918
42854
42792
42737
42684
42625
42563
42514
42476
42440
42410
42381
42339
42283
42220
42153
42087
42025
41971
41921
41867
41814
41767
41726
41681
41630
41576
41524
41473
41422
41373
41335
41301
41265
41233
41211
41193
41172
41154
41145
41146
41158
41192
41255
41344
41453
41587
41751
41937
42144
42376
42625
42874
43117
43361
43602
43829
44036
44233
44422
44590
44735
44863
44970
45052
45110
45151
45176
45179
45171
45161
45146
45123
45100
45072
45032
44987
44943
44907
44876
44837
44787
44730
44664
44585
44508
44436
44361
44281
44204
44136
44075
44013
43953
43894
43835
43781
43735
43695
43663
43644
43638
43636
43640
43660
43694
43728
43758
43787
43817
43847
43877
43907
43935
43957
43963
43952
43932
43909
43881
43853
43832
43810
43781
43745
43700
43644
43581
43516
43453
43389
43323
43263
43210
43152
43091
43036
42980
42914
42839
42763
42691
42629
42578
42530
42473
42409
42351
42304
42256
42206
42161
42121
42081
42032
41974
41916
41860
41814
41779
41752
41730
41710
41691
41670
41646
41626
41612
41604
41593
41587
41600
41637
41692
41770
41886
42036
42208
42405
42620
42841
43066
43298
43534
43762
43978
44191
44403
44598
44763
44906
45027
45119
45190
45251
45311
45371
45425
45468
45489
45476
45440
45398
45355
45312
45271
45238
45216
45190
45153
45110
45063
45007
44936
44855
44771
44690
44611
44539
44477
44416
44355
44296
44237
44183
44139
44107
44088
44074
44063
44059
44059
44063
44077
44107
44146
44181
44213
44251
44285
44312
44336
44358
44372
44369
44363
44356
44342
44323
44307
44291
44268
44237
44202
44159
44102
44036
43968
43902
43835
43769
43707
43637
43561
43490
43427
43370
43314
43256
43200
43145
43087
43033
42992
42956
42917
42880
42843
42798
42743
42689
42644
42599
42547
42495
42450
42411
42372
42326
42272
42213
42157
42106
42061
42023
41992
41964
41942
41930
41928
41937
41957
41991
42042
42123
42238
42379
42537
42716
42918
43132
43355
43591
43829
44063
44297
44529
44751
44959
45144
45301
45427
45522
45598
45666
45721
45759
45784
45803
45810
45801
45784
45764
45744
45727
45713
45694
45667
45637
45605
45564
45513
45458
45406
45349
45276
45191
45111
45034
44950
44869
44802
44743
44683
44627
44578
44531
44490
44466
44457
44452
44457
44473
44497
44524
44546
44574
44610
44636
44647
44658
44669
44671
44663
44659
44660
44649
44629
44612
44597
44574
44545
44513
44478
44437
44397
44358
44312
44257
44195
44134
44076
44022
43975
43931
43880
43819
43757
43700
43650
43601
43549
43487
43419
43354
43297
43243
43183
43116
43061
43014
42970
42930
42898
42872
42839
42800
42762
42720
42670
42609
42549
42498
42454
42414
42382
42349
42306
42260
42219
42180
42148
42133
42135
42149
42174
42219
42290
42384
42494
42628
42795
42983
43179
43386
43608
43835
44057
44274
44488
44694
44890
45071
45230
45365
45484
45593
45689
45764
45819
45854
45868
45866
45863
45860
45850
45834
45814
45792
45771
45753
45733
45710
45679
45631
45577
45525
45466
45397
45319
45237
45154
45068
44985
44910
44835
44759
44690
44630
44581
44545
44522
44506
44493
44487
44498
44525
44550
44573
44603
44629
44639
44640
44647
44658
44665
44670
44674
44678
44678
44666
44644
44613
44574
44541
44513
44477
44424
44362
44298
44232
44167
44112
44069
44020
43953
43879
43805
43734
43664
43594
43524
43452
43374
43298
43226
43157
43093
43035
42981
42923
42865
42811
42757
42701
42652
42606
42554
42500
42455
42420
42386
42347
42309
42271
42227
42179
42134
42091
42050
42008
41973
41944
41905
41864
41836
41828
41826
41824
41831
41847
41860
41875
41914
41989
42087
42204
42347
42516
42700
42899
43118
43348
43577
43799
44017
44224
44415
44586
44740
44876
44992
45091
45174
45235
45270
45291
45310
45322
45317
45304
45292
45276
45249
45213
45175
45127
45071
45028
44999
44974
44948
44917
44871
44802
44715
44625
44531
44432
44341
44266
44201
44139
44083
44039
44002
43967
43937
43921
43920
43920
43920
43929
43943
43954
43967
43985
44008
44033
44058
44076
44077
44067
44061
44061
44056
44041
44017
43982
43937
43888
43851
43825
43792
43749
43706
43663
43609
43545
43481
43416
43342
43268
43201
43135
43059
42983
42916
42855
42797
42747
42704
42665
42619
42567
42516
42464
42411
42367
42336
42304
42253
42192
42136
42085
42034
41984
41937
41891
41843
41791
41737
41690
41647
41605
41566
41533
41504
41480
41465
41455
41451
41458
41477
41511
41563
41637
41731
41844
41977
42131
42303
42491
42696
42909
43114
43304
43482
43653
43818
43974
44117
44243
44343
44417
44478
44527
44557
44569
44576
44584
44581
44564
44542
44517
44485
44451
44418
44385
44345
44299
44244
44177
44101
44023
43945
43859
43761
43664
43575
43492
43413
43346
43294
43246
43194
43148
43120
43105
43099
43105
43122
43138
43151
43169
43188
43206
43221
43235
43250
43258
43260
43261
43262
43261
43258
43255
43242
43218
43188
43160
43131
43097
43068
43041
42997
42934
42868
42812
42759
42698
42631
42568
42513
42453
42388
42327
42267
42206
42148
42094
42035
41969
41909
41857
41806
41753
41710
41676
41638
41594
41555
41521
41480
41430
41377
41323
41267
41215
41169
41123
41071
41020
40978
40946
40924
40913
40910
40911
40920
40947
40998
41063
41137
41224
41336
41478
41645
41835
42039
42246
42452
42661
42869
43071
43261
43445
43613
43754
43870
43974
44067
44136
44177
44202
44217
44220
44214
44208
44197
44178
44161
44150
44131
44092
44044
43997
43949
43901
43859
43811
43751
43685
43614
43538
43456
43374
43297
43225
43159
43094
43033
42986
42947
42906
42872
42856
42852
42853
42857
42869
42888
42916
42948
42982
43009
43025
43036
43046
43056
43068
43084
43093
43091
43088
43085
43070
43042
43014
42994
42973
42939
42897
42858
42815
42761
42707
42658
42615
42572
42531
42489
42439
42383
42329
42282
42241
42200
42161
42119
42065
41998
41932
41873
41814
41757
41710
41665
41614
41563
41518
41471
41419
41363
41308
41252
41190
41127
41076
41035
40996
40960
40931
40904
40876
40851
40838
40835
40844
40875
40930
41003
41093
41209
41358
41531
41723
41930
42147
42363
42570
42778
42995
43213
43430
43638
43833
44008
44156
44278
44375
44454
44525
44593
44649
44686
44712
44730
44737
44732
44721
44719
44722
44720
44721
44724
44724
44719
44710
44695
44673
44640
44589
44519
44440
44357
44275
44204
44142
44082
44018
43959
43913
43879
43852
43828
43806
43789
43775
43761
43749
43749
43764
43787
43814
43841
43864
43886
43908
43925
43931
43926
43914
43900
43891
43878
43857
43832
43802
43769
43730
43688
43643
43586
43523
43472
43433
43380
43305
43230
43164
43103
43050
43005
42957
42898
42831
42771
42716
42658
42602
42559
42521
42473
42416
42356
42292
42220
42150
42090
42041
42001
41971
41944
41914
41872
41819
41765
41710
41655
41608
41565
41515
41461
41414
41385
41368
41361
41364
41369
41373
41389
41430
41498
41590
41707
41851
42012
42185
42375
42588
42820
43054
43285
43505
43702
43874
44037
44199
44350
44485
44603
44698
44767
44812
44845
44879
44908
44923
44928
44929
44923
44911
44898
44886
44872
44850
44831
44817
44800
44772
44734
44688
44630
44563
44495
44426
44349
44263
44178
44095
44008
43930
43873
43829
43790
43757
43738
43734
43737
43742
43746
43747
43748
43758
43776
43793
43803
43810
43823
43838
43851
43857
43857
43851
43837
43814
43787
43750
43702
43653
43609
43565
43515
43462
43411
43356
43294
43229
43164
43091
43016
42951
42891
42824
42759
42707
42666
42626
42582
42534
42482
42426
42373
42323
42276
42233
42197
42160
42111
42048
41982
41917
41851
41785
41725
41671
41620
41577
41543
41505
41460
41419
41392
41368
41336
41297
41262
41234
41210
41197
41198
41207
41218
41242
41297
41384
41497
41633
41791
41970
42168
42381
42603
42827
43048
43262
43468
43663
43841
44002
44153
44286
44397
44487
44565
44624
44660
44682
44698
44700
44691
44673
44651
44630
44612
44593
44572
44544
44509
44473
44440
44401
44351
44291
44220
44136
44046
43966
43898
43828
43756
43691
43630
43574
43528
43492
43460
43425
43393
43368
43347
43335
43341
43360
43376
43387
43406
43429
43447
43458
43467
43470
43469
43469
43473
43475
43461
43431
43396
43361
43317
43264
43216
43166
43102
43034
42976
42927
42875
42821
42768
42713
42648
42575
42503
42434
42367
42302
42242
42183
42118
42056
42010
41964
41908
41853
41807
41763
41715
41665
41612
41557
41504
41456
41412
41364
41314
41263
41206
41145
41088
41041
41007
40974
40934
40895
40864
40840
40820
40811
40816
40822
40826
40841
40864
40891
40931
41001
41096
41215
41363
41537
41728
41920
42114
42315
42519
42726
42940
43155
43352
43517
43660
43786
43889
43971
44038
44087
44120
44140
44150
44149
44139
44121
44104
44085
44059
44033
44009
43981
43943
43892
43837
43789
43744
43691
43634
43568
43482
43385
43288
43194
43102
43021
42956
42903
42856
42820
42795
42776
42763
42759
42766
42774
42782
42794
42811
42833
42856
42879
42905
42933
42962
42992
43017
43026
43017
43000
42983
42963
42933
42895
42850
42795
42732
42673
42623
42578
42534
42484
42424
42355
42287
42222
42152
42081
42019
41967
41919
41871
41828
41786
41735
41680
41629
41583
41538
41498
41463
41419
41364
41306
41251
41200
41152
41110
41069
41028
40986
40946
40912
40882
40846
40808
40777
40745
40706
40666
40635
40607
40575
40546
40532
40536
40553
40585
40638
40708
40798
40909
41035
41174
41323
41489
41677
41878
42087
42307
42536
42754
42954
43144
43313
43450
43560
43653
43728
43789
43844
43888
43905
43897
43878
43861
43844
43819
43790
43763
43730
43685
43641
43604
43559
43503
43442
43378
43305
43225
43145
43063
42975
42883
42801
42730
42658
42585
42530
42499
42478
42462
42457
42456
42455
42467
42495
42526
42555
42584
42608
42624
42632
42638
42651
42669
42678
42676
42667
42658
42637
42602
42566
42529
42490
42460
42431
42392
42345
42295
42240
42171
42093
42021
41960
41900
41837
41779
41724
41661
41591
41527
41473
41427
41393
41363
41321
41269
41217
41166
41116
41068
41026
40995
40959
40911
40862
40816
40768
40719
40672
40629
40589
40553
40512
40470
40429
40393
40364
40342
40323
40306
40288
40274
40268
40278
40309
40353
40400
40455
40530
40631
40752
40893
41060
41251
41455
41671
41898
42127
42345
42547
42736
42913
43073
43220
43348
43449
43529
43598
43657
43700
43725
43743
43756
43756
43753
43753
43753
43743
43721
43697
43669
43634
43596
43559
43525
43489
43449
43410
43367
43309
43232
43146
43066
42995
42935
42879
42816
42746
42686
42641
42613
42601
42600
42611
42627
42648
42678
42715
42748
42768
42780
42794
42813
42832
42845
42850
42845
42840
42841
42846
42840
42816
42785
42753
42710
42652
42592
42534
42474
42412
42354
42293
42228
42170
42122
42078
42022
41952
41885
41826
41771
41718
41670
41627
41584
41544
41503
41452
41390
41325
41267
41216
41164
41118
41079
41038
40984
40930
40891
40859
40826
40794
40765
40734
40701
40662
40614
40562
40514
40472
40441
40417
40396
40378
40362
40342
40321
40305
40303
40313
40329
40357
40404
40469
40552
40665
40809
40977
41176
41397
41623
41848
42075
42299
42508
42703
42900
43099
43284
43444
43584
43710
43813
43890
43949
43996
44032
44058
44071
44072
44062
44047
44035
44028
44020
44010
44005
44002
43993
43972
43944
43912
43871
43825
43775
43711
43642
43576
43510
43439
43361
43280
43207
43145
43088
43033
42988
42956
42935
42922
42921
42926
42929
42935
42942
42955
42972
42989
43009
43024
43030
43033
43033
43029
43020
43005
42982
42946
42901
42864
42835
42799
42755
42712
42672
42624
42564
42499
42433
42368
42310
42257
42198
42133
42068
42007
41943
41876
41814
41757
41696
41629
41567
41516
41472
41427
41386
41345
41300
41256
41214
41173
41133
41096
41058
41009
40954
40904
40869
40837
40797
40758
40731
40711
40686
40661
40637
40603
40560
40518
40483
40452
40417
40383
40350
40322
40303
40294
40300
40314
40340
40391
40472
40575
40697
40840
41004
41184
41380
41595
41825
42060
42292
42514
42722
42914
43098
43274
43437
43578
43693
43791
43872
43926
43953
43971
43983
43983
43972
43962
43950
43933
43918
43904
43882
43850
43820
43788
43748
43696
43639
43578
43511
43444
43377
43309
43236
43158
43083
43009
42932
42857
42796
42753
42729
42722
42724
42728
42734
42749
42775
42799
42813
42826
42843
42860
42874
42888
42901
42904
42894
42877
42860
42840
42816
42790
42766
42737
42694
42639
42583
42529
42480
42433
42390
42343
42282
42215
42154
42094
42029
41957
41882
41809
41739
41678
41622
41568
41523
41479
41430
41373
41305
41244
41192
41143
41105
41070
41023
40970
40921
40878
40831
40777
40730
40688
40645
40599
40555
40520
40489
40462
40443
40429
40415
40402
40400
40417
40444
40477
40528
40597
40678
40772
40889
41034
41195
41370
41571
41791
42009
42223
42441
42656
42854
43031
43194
43343
43464
43556
43630
43688
43724
43743
43751
43747
43731
43708
43685
43662
43635
43612
43590
43559
43518
43473
43428
43368
43285
43200
43118
43030
42941
42859
42781
42693
42600
42519
42452
42393
42344
42311
42285
42262
42242
42231
42221
42217
42226
42253
42291
42327
42355
42379
42398
42415
42436
42452
42460
42460
42455
42453
42452
42445
42431
42411
42381
42337
42285
42229
42170
42114
42055
41986
41912
41838
41766
41691
41619
41563
41519
41477
41433
41386
41340
41295
41251
41203
41149
41086
41010
40927
40848
40775
40704
40640
40588
40544
40495
40446
40407
40374
40335
40299
40270
40237
40193
40149
40113
40081
40049
40027
40011
39996
39988
39998
40032
40087
40165
40270
40394
40530
40684
40867
41076
41301
41543
41796
42048
42288
42514
42735
42947
43141
43314
43466
43590
43687
43766
43836
43892
43927
43948
43964
43973
43970
43959
43942
43917
43882
43843
43805
43767
43731
43699
43664
43628
43597
43569
43529
43472
43418
43362
43287
43199
43114
43029
42940
42854
42781
42723
42683
42652
42627
42615
42610
42611
42627
42662
42699
42715
42717
42715
42713
42716
42741
42787
42820
42820
42809
42802
42791
42773
42750
42723
42690
42650
42603
42552
42497
42442
42389
42330
42259
42182
42112
42045
41975
41910
41853
41803
41753
41703
41660
41615
41564
41512
41464
41411
41345
41270
41199
41132
41065
41009
40966
40925
40882
40840
40802
40758
40702
40649
40605
40565
40526
40487
40452
40423
40393
40364
40335
40311
40299
40295
40287
40279
40293
40331
40383
40453
40555
40695
40870
41071
41299
41548
41806
42070
42339
42607
42864
43100
43318
43514
43681
43824
43956
44071
44163
44238
44302
44353
44388
44406
44411
44404
44381
44349
44318
44290
44260
44227
44193
44160
44132
44110
44093
44072
44026
43954
43876
43796
43713
43635
43565
43493
43416
43343
43282
43227
43172
43127
43096
43076
43060
43044
43036
43039
43044
43054
43071
43093
43110
43122
43134
43144
43150
43159
43168
43172
43176
43176
43167
43145
43116
43089
43049
42991
42929
42872
42812
42748
42683
42618
42549
42479
42414
42353
42294
42230
42164
42101
42032
41959
41892
41834
41774
41707
41638
41575
41513
41451
41400
41361
41321
41272
41226
41181
41130
41074
41022
40978
40933
40893
40860
40828
40791
40747
40702
40662
40628
40595
40561
40528
40489
40450
40423
40413
40418
40442
40485
40545
40619
40717
40848
41011
41197
41403
41624
41861
42116
42383
42657
42921
43159
43376
43576
43760
43930
44078
44204
44305
44382
44444
44487
44505
44509
44506
44492
44460
44416
44376
44338
44299
44267
44239
44210
44182
44151
44113
44068
44013
43953
43890
43817
43741
43667
43588
43498
43402
43309
43228
43159
43106
43066
43025
42981
42942
42917
42903
42900
42906
42922
42941
42961
42986
43022
43058
43088
43116
43143
43166
43182
43192
43187
43162
43119
43073
43029
42986
42937
42885
42833
42767
42686
42603
42529
42460
42394
42332
42270
42198
42117
42036
41959
41883
41812
41757
41711
41661
41610
41564
41513
41451
41388
41332
41282
41228
41171
41117
41066
41011
40949
40894
40853
40817
40788
40761
40722
40669
40603
40536
40477
40422
40371
40325
40279
40234
40191
40155
40126
40099
40081
40084
40099
40122
40164
40230
40323
40442
40592
40779
40993
41227
41489
41764
42029
42280
42528
42768
42984
43176
43352
43509
43641
43754
43848
43921
43970
44000
44020
44027
44019
44005
43982
43947
43907
43871
43839
43805
43762
43712
43655
43589
43518
43446
43373
43298
43222
43142
43058
42968
42873
42778
42686
42595
42502
42416
42342
42287
42261
42259
42271
42284
42294
42305
42322
42343
42364
42393
42429
42459
42487
42520
42550
42567
42578
42591
42594
42577
42553
42532
42511
42485
42454
42414
42360
42303
42248
42187
42116
42034
41956
41884
41811
41741
41674
41606
41534
41456
41384
41318
41251
41183
41123
41064
41000
40939
40885
40828
40763
40701
40653
40610
40562
40511
40463
40411
40357
40301
40248
40201
40158
40121
40086
40044
39996
39952
39922
39897
39873
39855
39840
39820
39804
39804
39822
39846
39876
39935
40031
40155
40306
40490
40701
40932
41181
41446
41716
41980
42240
42492
42723
42927
43104
43263
43404
43525
43627
43709
43768
43808
43835
43852
43857
43851
43837
43811
43778
43743
43699
43645
43586
43528
43469
43404
43325
43239
43156
43074
42982
42881
42782
42691
42601
42513
42441
42385
42330
42280
42246
42223
42207
42202
42211
42232
42251
42263
42277
42293
42315
42351
42394
42430
42456
42475
42488
42493
42498
42505
42515
42513
42493
42464
42428
42381
42327
42277
42231
42178
42120
42064
42006
41938
41866
41805
41750
41690
41628
41567
41502
41431
41357
41287
41221
41158
41098
41037
40974
40911
40853
40800
40747
40696
40652
40609
40554
40491
40439
40404
40369
40329
40281
40214
40141
40090
40052
40015
39981
39959
39955
39962
39977
40013
40085
40190
40316
40468
40645
40836
41037
41253
41492
41749
42007
42258
42501
42726
42930
43122
43304
43460
43583
43682
43764
43825
43865
43895
43921
43931
43922
43903
43876
43842
43801
43755
43707
43653
43597
43548
43500
43441
43374
43303
43226
43137
43044
42957
42874
42786
42693
42608
42532
42465
42411
42371
42342
42318
42302
42291
42282
42282
42299
42324
42347
42366
42395
42435
42466
42486
42497
42501
42498
42490
42494
42506
42506
42497
42490
42480
42456
42422
42388
42344
42286
42223
42166
42117
42067
42013
41950
41878
41805
41738
41679
41617
41548
41483
41422
41359
41297
41244
41195
41140
41072
41004
40939
40869
40794
40725
40670
40618
40561
40505
40446
40382
40317
40260
40215
40176
40141
40114
40095
40085
40095
40130
40183
40255
40356
40494
40663
40850
41052
41278
41524
41782
42050
42324
42599
42865
43114
43345
43555
43747
43922
44072
44192
44277
44333
44365
44378
44384
44390
44394
44385
44363
44335
44302
44263
44226
44197
44169
44129
44072
44016
43965
43904
43837
43767
43690
43600
43500
43399
43302
43202
43103
43019
42952
42895
42852
42827
42810
42800
42800
42814
42835
42854
42874
42898
42923
42947
42975
43014
43058
43097
43134
43168
43197
43221
43234
43227
43201
43159
43111
43058
42999
42939
42881
42821
42752
42680
42613
42544
42470
42401
42335
42264
42183
42103
42036
41975
41910
41844
41787
41729
41669
41612
41555
41493
41420
41343
41269
41200
41140
41083
41025
40964
40902
40849
40806
40761
40716
40684
40661
40634
40604
40588
40594
40615
40657
40728
40824
40938
41075
41251
41461
41693
41945
42214
42485
42755
43023
43288
43540
43777
44003
44212
44392
44539
44664
44771
44850
44902
44933
44946
44937
44911
44883
44855
44819
44778
44744
44711
44668
44614
44565
44522
44465
44396
44329
44252
44157
44061
43971
43879
43784
43696
43615
43537
43465
43399
43342
43296
43257
43225
43200
43182
43177
43183
43198
43218
43239
43260
43280
43303
43333
43366
43393
43408
43414
43415
43409
43397
43385
43378
43374
43366
43347
43320
43284
43236
43183
43131
43080
43023
42954
42882
42811
42741
42683
42635
42592
42544
42486
42431
42378
42326
42279
42233
42185
42134
42078
42017
41950
41879
41811
41747
41680
41610
41545
41487
41433
41384
41344
41310
41275
41238
41209
41192
41181
41178
41189
41218
41268
41347
41465
41624
41807
42011
42235
42473
42721
42974
43232
43494
43752
43998
44231
44443
44634
44805
44957
45082
45178
45244
45279
45287
45279
45265
45253
45235
45212
45187
45154
45113
45072
45038
45016
44988
44941
44878
44808
44731
44647
44569
44496
44412
44315
44220
44131
44046
43970
43908
43862
43825
43792
43763
43741
43734
43737
43747
43765
43790
43821
43856
43889
43922
43960
43998
44029
44051
44072
44093
44103
44101
44095
44087
44066
44025
43975
43921
43860
43800
43745
43694
43637
43567
43497
43435
43373
43311
43252
43190
43128
43070
43011
42950
42885
42821
42756
42692
42632
42580
42531
42470
42399
42335
42290
42253
42214
42178
42140
42092
42033
41978
41931
41889
41850
41811
41765
41717
41678
41653
41643
41644
41661
41701
41759
41833
41936
42077
42245
42432
42640
42870
43114
43367
43625
43881
44125
44350
44562
44761
44937
45081
45197
45294
45372
45434
45482
45513
45522
45517
45509
45495
45468
45432
45397
45362
45320
45275
45231
45180
45112
45032
44952
44870
44784
44691
44592
44490
44383
44282
44192
44111
44035
43972
43922
43878
43842
43823
43818
43818
43818
43829
43853
43882
43911
43943
43980
44017
44048
44070
44081
44081
44073
44064
44058
44050
44041
44029
44005
43966
43917
43867
43813
43752
43690
43636
43587
43532
43473
43411
43344
43271
43202
43142
43085
43017
42943
42876
42813
42752
42691
42628
42555
42472
42388
42311
42238
42169
42113
42068
42024
41979
41943
41908
41861
41810
41770
41736
41696
41655
41626
41605
41585
41572
41580
41608
41657
41738
41848
41976
42119
42287
42480
42686
42897
43117
43351
43592
43831
44070
44301
44509
44691
44853
44990
45098
45178
45239
45284
45310
45314
45305
45283
45249
45208
45170
45138
45098
45051
45005
44952
44889
44820
44748
44670
44585
44496
44404
44301
44190
44086
43993
43905
43821
43742
43670
43606
43551
43514
43502
43501
43500
43505
43519
43535
43546
43557
43575
43599
43622
43642
43657
43666
43668
43666
43662
43653
43639
43621
43600
43569
43528
43487
43451
43408
43364
43325
43284
43232
43171
43107
43042
42974
42906
42844
42786
42731
42677
42625
42566
42494
42423
42364
42306
42241
42179
42128
42074
42008
41941
41883
41828
41774
41722
41669
41609
41544
41480
41423
41373
41327
41285
41245
41205
41167
41142
41132
41134
41157
41208
41280
41366
41475
41620
41798
41996
42215
42455
42696
42925
43146
43362
43567
43757
43939
44109
44252
44361
44445
44512
44565
44606
44637
44652
44645
44619
44588
44552
44503
44444
44387
44336
44282
44221
44158
44091
44007
43912
43818
43724
43624
43525
43428
43330
43226
43127
43049
42994
42945
42894
42847
42807
42776
42759
42764
42783
42803
42824
42847
42870
42891
42911
42932
42952
42973
42996
43017
43024
43014
42984
42939
42892
42855
42827
42801
42765
42720
42675
42627
42565
42498
42449
42416
42387
42359
42331
42296
42250
42197
42143
42082
42013
41941
41873
41807
41740
41678
41616
41544
41466
41393
41331
41276
41230
41192
41152
41098
41037
40980
40928
40872
40816
40769
40729
40694
40666
40646
40625
40606
40606
40635
40687
40763
40867
41000
41155
41322
41500
41700
41918
42149
42391
42641
42885
43112
43318
43508
43674
43811
43929
44027
44101
44152
44190
44216
44219
44197
44162
44124
44081
44035
43990
43942
43889
43835
43785
43737
43684
43629
43569
43495
43404
43307
43209
43105
42994
42883
42786
42707
42641
42582
42536
42494
42456
42431
42418
42415
42424
42444
42474
42506
42539
42577
42617
42648
42666
42684
42703
42714
42722
42729
42732
42724
42702
42668
42625
42569
42509
42455
42404
42353
42304
42264
42234
42199
42154
42104
42051
41993
41931
41867
41795
41718
41645
41584
41533
41483
41435
41389
41338
41275
41208
41145
41083
41015
40951
40896
40846
40791
40739
40692
40649
40616
40597
40588
40579
40573
40584
40614
40659
40722
40810
40923
41062
41232
41430
41644
41863
42086
42326
42570
42799
43013
43224
43417
43579
43715
43830
43917
43978
44022
44053
44070
44070
44058
44040
44011
43970
43930
43892
43844
43790
43735
43678
43611
43534
43450
43357
43252
43138
43025
42922
42824
42731
42652
42585
42519
42458
42406
42358
42315
42280
42261
42259
42266
42283
42310
42342
42374
42404
42437
42464
42483
42507
42536
42557
42566
42578
42594
42603
42594
42577
42558
42534
42503
42469
42435
42393
42341
42288
42239
42183
42115
42048
41986
41924
41868
41819
41772
41727
41692
41659
41617
41562
41505
41451
41395
41335
41273
41219
41172
41120
41060
40991
40917
40844
40777
40720
40667
40622
40595
40584
40584
40598
40638
40703
40791
40909
41060
41241
41444
41669
41919
42182
42449
42719
42988
43244
43484
43711
43926
44121
44286
44421
44531
44613
44668
44703
44725
44738
44741
44736
44725
44700
44661
44621
44591
44560
44514
44462
44413
44359
44296
44225
44153
44075
43991
43906
43818
43722
43625
43542
43469
43396
43327
43268
43224
43194
43176
43165
43160
43153
43149
43159
43178
43197
43215
43240
43263
43280
43302
43333
43361
43375
43383
43383
43371
43349
43326
43313
43301
43280
43249
43210
43165
43117
43069
43018
42961
42898
42838
42782
42717
42645
42580
42517
42445
42375
42315
42250
42170
42085
42001
41913
41826
41754
41710
41678
41642
41605
41570
41532
41488
41449
41416
41377
41328
41285
41252
41219
41192
41188
41213
41259
41327
41415
41522
41654
41818
42012
42230
42464
42710
42976
43255
43531
43799
44059
44304
44523
44718
44898
45055
45176
45269
45351
45420
45472
45508
45527
45530
45520
45506
45490
45462
45422
45385
45359
45333
45296
45254
45212
45170
45128
45084
45028
44949
44853
44755
44661
44563
44469
44383
44306
44234
44169
44116
44072
44027
43992
43981
43989
44003
44017
44034
44052
44074
44108
44153
44193
44217
44236
44251
44255
44245
44230
44214
44190
44163
44139
44115
44088
44056
44021
43982
43937
43888
43835
43774
43711
43653
43598
43544
43486
43420
43355
43291
43219
43146
43083
43021
42949
42873
42802
42734
42670
42607
42549
42497
42451
42411
42367
42310
42240
42172
42118
42069
42015
41959
41909
41865
41821
41782
41748
41719
41698
41700
41733
