24520
24635
24752
24873
24994
25114
25233
25353
25469
25578
25680
25773
25856
25925
25982
26027
26060
26081
26092
26091
26081
26066
26051
26040
26021
25991
25955
25921
25887
25855
25831
25817
25811
25813
25820
25825
25828
25831
25839
25853
25870
25886
25901
25915
25924
25928
25928
25925
25919
25911
25904
25897
25889
25879
25866
25852
25835
25820
25805
25792
25780
25768
25754
25738
25724
25711
25698
25685
25676
25670
25667
25665
25664
25664
25662
25656
25645
25627
25610
25594
25575
25552
25523
25492
25458
25424
25391
25357
25322
25284
25245
25208
25174
25140
25107
25072
25036
25000
24964
24924
24884
24846
24807
24763
24718
24673
24628
24584
24541
24500
24461
24425
24394
24367
24342
24321
24302
24282
24257
24230
24202
24174
24145
24118
24090
24061
24031
23996
23958
23924
23894
23868
23840
23804
23760
23718
23678
23639
23604
23571
23537
23507
23480
23456
23438
23426
23420
23427
23446
23479
23526
23589
23664
23752
23855
23975
24105
24242
24383
24525
24662
24795
24923
25045
25159
25261
25349
25426
25489
25537
25576
25611
25638
25658
25673
25687
25701
25714
25723
25727
25725
25717
25709
25700
25690
25679
25666
25653
25643
25640
25644
25657
25677
25697
25716
25736
25759
25782
25802
25815
25820
25814
25802
25788
25773
25760
25749
25740
25733
25727
25722
25719
25718
25722
25727
25730
25733
25735
25737
25741
25745
25750
25756
25765
25777
25793
25811
25828
25840
25846
25849
25849
25848
25847
25847
25845
25843
25841
25839
25833
25826
25816
25805
25789
25768
25745
25719
25691
25661
25629
25596
25567
25540
25516
25497
25475
25454
25436
25421
25407
25394
25379
25359
25333
25306
25282
25258
25233
25207
25182
25155
25124
25091
25057
25022
24990
24966
24949
24931
24909
24880
24847
24810
24769
24726
24679
24630
24584
24541
24500
24465
24437
24407
24373
24341
24314
24289
24266
24241
24209
24172
24132
24090
24052
24024
24005
24001
24017
24051
24104
24180
24279
24397
24528
24670
24824
24989
25162
25337
25512
25684
25849
26009
26163
26306
26437
26559
26669
26765
26850
26925
26986
27035
27075
27108
27135
27159
27177
27192
27205
27220
27238
27259
27284
27312
27342
27374
27409
27441
27472
27504
27540
27576
27611
27646
27681
27713
27749
27788
27824
27852
27870
27881
27884
27877
27864
27849
27834
27818
27798
27777
27757
27740
27727
27717
27710
27708
27708
27709
27712
27719
27731
27746
27761
27773
27782
27793
27808
27824
27841
27858
27873
27887
27901
27912
27919
27922
27920
27915
27907
27894
27878
27859
27842
27826
27810
27791
27769
27744
27716
27684
27648
27610
27572
27534
27496
27462
27429
27392
27354
27315
27273
27229
27186
27148
27115
27085
27055
27025
26994
26961
26928
26892
26853
26814
26777
26738
26702
26673
26651
26634
26617
26597
26575
26553
26531
26506
26480
26457
26434
26410
26380
26347
26317
26296
26284
26272
26256
26235
26212
26184
26148
26110
26074
26036
25996
25954
25910
25873
25843
25822
25809
25803
25806
25823
25859
25913
25981
26065
26163
26278
26408
26551
26703
26858
27015
27175
27341
27508
27669
27824
27972
28111
28239
28356
28461
28554
28637
28708
28768
28817
28854
28882
28906
28922
28932
28939
28945
28948
28953
28959
28967
28976
28983
28992
29004
29018
29032
29049
29068
29088
29104
29116
29125
29129
29132
29135
29134
29129
29122
29111
29092
29067
29038
29007
28973
28938
28901
28865
28828
28795
28771
28754
28738
28721
28705
28690
28674
28660
28648
28637
28627
28615
28601
28582
28559
28536
28518
28505
28494
28484
28473
28455
28430
28401
28374
28348
28319
28286
28244
28191
28133
28075
28019
27965
27912
27861
27810
27757
27702
27647
27591
27536
27482
27431
27382
27334
27288
27246
27208
27169
27129
27092
27055
27018
26980
26939
26894
26848
26805
26765
26721
26673
26622
26571
26520
26466
26412
26361
26311
26262
26214
26167
26119
26073
26032
25996
25963
25930
25896
25861
25823
25782
25734
25677
25613
25545
25475
25404
25333
25261
25191
25123
25061
25002
24948
24900
24859
24824
24792
24765
24749
24748
24765
24800
24848
24909
24986
25078
25183
25302
25434
25573
25714
25856
25995
26125
26246
26358
26457
26544
26618
26680
26731
26774
26808
26831
26846
26856
26860
26859
26851
26835
26812
26785
26761
26741
26729
26723
26722
26723
26726
26734
26745
26758
26771
26786
26804
26823
26841
26858
26874
26888
26898
26905
26904
26896
26880
26859
26839
26823
26811
26796
26780
26766
26758
26754
26749
26737
26720
26702
26686
26674
26667
26664
26668
26677
26690
26705
26721
26735
26746
26755
26759
26756
26747
26735
26726
26716
26706
26693
26677
26663
26652
26637
26617
26594
26574
26553
26529
26496
26458
26417
26374
26326
26275
26221
26168
26121
26079
26042
26007
25976
25949
25921
25887
25848
25807
25768
25729
25690
25653
25619
25590
25564
25542
25528
25521
25517
25513
25509
25503
25492
25474
25455
25435
25413
25390
25367
25346
25327
25309
25290
25271
25256
25245
25236
25225
25210
25189
25168
25153
25145
25144
25151
25165
25189
25226
25283
25362
25460
25573
25697
25831
25971
26116
26271
26433
26594
26753
26905
27050
27184
27303
27408
27499
27573
27630
27675
27712
27741
27763
27779
27792
27802
27808
27813
27818
27822
27828
27835
27844
27857
27872
27893
27918
27948
27976
28001
28029
28062
28098
28135
28168
28191
28203
28204
28198
28188
28181
28178
28179
28178
28169
28155
28141
28132
28126
28120
28111
28104
28098
28091
28081
28070
28058
28048
28038
28029
28024
28023
28022
28018
28013
28009
28007
28006
28011
28022
28034
28043
28049
28052
28051
28042
28027
28009
27987
27964
27941
27918
27894
27870
27846
27819
27788
27752
27713
27674
27637
27603
27565
27528
27495
27463
27430
27395
27358
27320
27279
27235
27188
27140
27094
27051
27010
26973
26941
26913
26890
26872
26854
26835
26817
26800
26783
26764
26742
26715
26683
26650
26619
26588
26555
26520
26488
26460
26435
26410
26384
26357
26328
26295
26257
26215
26174
26129
26083
26038
25997
25956
25916
25877
25840
25805
25768
25732
25700
25670
25642
25620
25604
25596
25597
25609
25636
25683
25752
25843
25953
26080
26222
26373
26531
26695
26865
27038
27208
27370
27522
27662
27787
27898
27993
28072
28136
28189
28232
28263
28289
28313
28332
28344
28353
28363
28372
28382
28396
28411
28424
28433
28443
28454
28468
28483
28500
28522
28546
28570
28600
28636
28672
28702
28732
28763
28790
28813
28829
28839
28842
28838
28826
28805
28779
28750
28721
28696
28673
28653
28637
28625
28617
28614
28612
28610
28609
28611
28618
28630
28643
28653
28659
28662
28660
28656
28649
28644
28643
28645
28647
28646
28641
28631
28622
28615
28609
28602
28594
28579
28558
28535
28511
28487
28465
28443
28422
28401
28378
28350
28319
28286
28249
28208
28168
28128
28088
28047
28006
27963
27923
27889
27858
27826
27794
27764
27736
27705
27673
27639
27605
27570
27537
27508
27480
27451
27421
27390
27354
27314
27269
27222
27174
27129
27090
27061
27036
27012
26989
26968
26950
26932
26917
26901
26881
26858
26833
26806
26775
26739
26702
26667
26631
26596
26561
26527
26495
26465
26438
26412
26382
26348
26312
26273
26231
26188
26144
26097
26049
26002
25958
25916
25873
25831
25801
25784
25779
25786
25808
25850
25912
25993
26089
26201
26330
26469
26617
26772
26930
27090
27254
27422
27590
27751
27901
28035
28153
28256
28340
28408
28462
28506
28539
28565
28584
28594
28598
28599
28603
28607
28611
28615
28623
28636
28650
28665
28686
28714
28746
28778
28812
28847
28877
28905
28932
28961
28987
29009
29026
29043
29055
29064
29070
29071
29065
29056
29043
29029
29014
28999
28985
28971
28956
28939
28919
28897
28872
28851
28833
28816
28801
28787
28772
28756
28738
28720
28705
28693
28681
28671
28663
28654
28646
28637
28626
28607
28584
28559
28532
28501
28465
28425
28381
28334
28284
28235
28189
28142
28096
28052
28010
27969
27927
27889
27855
27819
27780
27736
27685
27626
27563
27500
27438
27374
27308
27242
27174
27105
27038
26972
26907
26842
26779
26719
26663
26611
26564
26518
26472
26426
26384
26343
26302
26260
26218
26176
26135
26092
26046
25999
25952
25907
25860
25810
25762
25715
25670
25628
25591
25558
25524
25485
25445
25405
25363
25320
25275
25228
25183
25140
25099
25061
25023
24984
24945
24903
24856
24805
24758
24716
24680
24651
24626
24605
24589
24582
24587
24608
24642
24689
24752
24833
24927
25034
25154
25286
25428
25580
25738
25898
26056
26209
26356
26494
26621
26733
26830
26912
26976
27022
27054
27078
27092
27094
27084
27066
27045
27021
26997
26975
26957
26940
26923
26903
26883
26869
26859
26849
26837
26826
26818
26815
26817
26827
26841
26853
26864
26876
26888
26898
26905
26908
26906
26898
26887
26876
26864
26845
26822
26798
26774
26749
26726
26704
26683
26661
26640
26623
26610
26602
26599
26599
26601
26600
26597
26595
26597
26596
26590
26582
26569
26553
26536
26521
26506
26486
26463
26439
26414
26385
26353
26321
26287
26250
26208
26163
26114
26061
26004
25951
25905
25864
25824
25787
25748
25708
25668
25633
25601
25572
25543
25515
25486
25456
25424
25391
25358
25326
25293
25258
25221
25185
25151
25121
25093
25068
25047
25028
25009
24993
24979
24964
24948
24936
24926
24916
24906
24894
24878
24854
24823
24792
24764
24737
24711
24683
24658
24636
24615
24596
24579
24558
24529
24498
24473
24455
24446
24452
24472
24508
24562
24638
24732
24838
24954
25081
25213
25348
25487
25628
25768
25904
26037
26170
26297
26417
26530
26632
26723
26799
26861
26907
26939
26958
26968
26970
26968
26964
26961
26959
26958
26960
26963
26967
26971
26978
26987
26999
27011
27017
27021
27024
27027
27032
27040
27048
27056
27063
27070
27075
27079
27080
27078
27077
27074
27064
27044
27016
26988
26965
26942
26918
26893
26868
26851
26842
26840
26843
26850
26860
26872
26883
26889
26890
26890
26891
26892
26888
26879
26869
26857
26846
26837
26830
26817
26798
26775
26751
26721
26690
26661
26634
26606
26574
26536
26496
26452
26403
26351
26298
26243
26188
26136
26088
26048
26013
25975
25934
25891
25848
25804
25760
25717
25676
25634
25593
25552
25514
25479
25448
25419
25391
25364
25333
25294
25248
25198
25149
25101
25054
25011
24972
24933
24893
24856
24823
24793
24763
24733
24701
24668
24635
24598
24555
24506
24457
24411
24368
24325
24284
24244
24204
24168
24139
24119
24111
24119
24144
24183
24237
24309
24404
24515
24638
24772
24916
25066
25215
25363
25509
25653
25799
25942
26072
26191
26298
26396
26484
26556
26612
26650
26674
26684
26685
26681
26673
26662
26647
26633
26621
26611
26605
26605
26607
26614
26623
26633
26639
26642
26644
26650
26662
26683
26710
26738
26765
26792
26819
26845
26868
26890
26909
26925
26937
26942
26942
26938
26929
26910
26883
26856
26827
26801
26778
26758
26740
26727
26720
26718
26723
26732
26741
26752
26764
26779
26796
26815
26833
26845
26852
26852
26846
26835
26821
26804
26780
26752
26724
26700
26677
26657
26638
26616
26589
26562
26539
26517
26489
26455
26421
26383
26338
26288
26235
26179
26124
26071
26019
25972
25929
25889
25853
25819
25784
25747
25709
25674
25644
25616
25590
25568
25549
25536
25525
25513
25496
25476
25457
25437
25413
25385
25354
25321
25287
25249
25211
25170
25127
25084
25045
25011
24984
24964
24953
24955
24976
25017
25077
25157
25256
25372
25498
25632
25776
25926
26079
26231
26383
26533
26681
26826
26968
27103
27226
27336
27430
27506
27568
27616
27653
27676
27686
27687
27686
27686
27685
27689
27697
27703
27706
27709
27719
27733
27749
27768
27789
27812
27839
27870
27904
27934
27958
27979
28001
28020
28033
28043
28049
28048
28038
28021
27996
27969
27943
27921
27900
27881
27865
27849
27831
27812
27795
27778
27757
27737
27720
27710
27704
27699
27691
27678
27662
27648
27636
27625
27615
27606
27596
27585
27567
27542
27515
27493
27475
27458
27439
27412
27379
27347
27318
27290
27261
27230
27198
27171
27146
27120
27092
27063
27037
27014
26994
26975
26953
26925
26893
26861
26830
26800
26771
26741
26709
26676
26640
26599
26553
26506
26460
26417
26375
26337
26306
26276
26241
26205
26167
26128
26092
26059
26030
26005
25986
25978
25981
25999
26033
26082
26145
26225
26323
26438
26568
26707
26850
26993
27133
27266
27393
27513
27626
27730
27823
27907
27982
28048
28102
28143
28173
28194
28210
28221
28225
28224
28223
28224
28227
28232
28240
28250
28254
28256
28257
28254
28247
28240
28238
28241
28248
28260
28273
28287
28301
28316
28331
28342
28345
28341
28333
28322
28309
28296
28280
28260
28235
28205
28171
28137
28107
28081
28061
28046
28035
28027
28021
28020
28024
28032
28039
28044
28049
28056
28066
28074
28078
28076
28068
28055
28037
28017
27996
27972
27949
27928
27907
27881
27848
27810
27768
27721
27670
27621
27572
27518
27460
27404
27350
27298
27249
27200
27151
27102
27052
27000
26950
26902
26858
26814
26767
26718
26672
26627
26578
26525
26472
26420
26369
26319
26270
26222
26177
26131
26083
26031
25976
25923
25872
25820
25767
25717
25673
25636
25603
25576
25555
25541
25536
25545
25572
25615
25673
25743
25827
25921
26024
26134
26253
26376
26498
26620
26744
26863
26972
27070
27154
27223
27284
27339
27382
27414
27436
27446
27444
27430
27406
27376
27343
27313
27288
27266
27245
27224
27206
27194
27187
27186
27186
27186
27182
27180
27185
27195
27206
27220
27233
27240
27236
27223
27202
27173
27140
27104
27064
27021
26978
26933
26889
26847
26807
26771
26742
26721
26705
26692
26681
26670
26661
26651
26637
26617
26595
26571
26549
26531
26513
26495
26480
26468
26452
26434
26412
26388
26364
26341
26317
26288
26254
26215
26175
26133
26088
26041
25994
25951
25909
25867
25826
25787
25753
25719
25683
25642
25598
25550
25502
25457
25414
25374
25337
25300
25261
25220
25178
25136
25094
25055
25019
24984
24948
24910
24870
24829
24790
24757
24728
24702
24674
24643
24608
24572
24538
24506
24473
24441
24411
24388
24372
24363
24365
24377
24398
24429
24475
24537
24614
24704
24805
24914
25028
25147
25267
25386
25500
25613
25724
25825
25909
25982
26046
26101
26145
26179
26202
26215
26224
26235
26244
26249
26250
26250
26249
26244
26237
26230
26228
26228
26233
26244
26260
26278
26300
26324
26349
26375
26402
26423
26436
26442
26442
26434
26420
26399
26374
26349
26331
26318
26305
26290
26274
26259
26244
26232
26221
26211
26205
26200
26194
26188
26184
26180
26175
26174
26177
26183
26190
26198
26206
26212
26216
26215
26213
26209
26203
26198
26193
26185
26175
26165
26154
26140
26123
26104
26084
26065
26046
26024
25999
25972
25946
25920
25895
25869
25842
25812
25786
25762
25739
25713
25684
25654
25627
25605
25587
25573
25560
25545
25525
25503
25481
25460
25442
25425
25412
25401
25387
25368
25348
25326
25300
25268
25233
25201
25171
25144
25117
25090
25061
25028
24994
24962
24933
24909
24895
24889
24892
24909
24941
24985
25042
25109
25187
25276
25376
25488
25608
25730
25851
25968
26082
26197
26309
26413
26507
26592
26669
26737
26793
26839
26878
26910
26931
26945
26951
26951
26948
26944
26943
26946
26954
26966
26981
26998
27015
27032
27052
27074
27098
27120
27141
27166
27195
27224
27251
27274
27291
27302
27307
27311
27312
27312
27311
27306
27293
27274
27252
27229
27205
27187
27173
27161
27149
27138
27129
27119
27109
27103
27103
27107
27111
27116
27122
27126
27126
27123
27117
27108
27099
27087
27071
27054
27038
27024
27012
27001
26986
26968
26948
26925
26898
26871
26846
26818
26785
26750
26717
26684
26654
26627
26604
26585
26567
26542
26510
26473
26434
26395
26355
26314
26274
26234
26196
26160
26129
26101
26072
26043
26014
25984
25955
25930
25910
25889
25868
25849
25828
25805
25778
25749
25719
25693
25670
25648
25625
25598
25569
25540
25511
25487
25463
25435
25406
25377
25342
25302
25261
25222
25183
25143
25100
25057
25013
24972
24933
24895
24857
24819
24783
24750
24719
24688
24656
24625
24595
24567
24545
24531
24529
24544
24580
24636
24711
24803
24911
25031
25159
25293
25430
25567
25700
25826
25949
26066
26174
26274
26361
26434
26497
26556
26608
26651
26685
26711
26728
26733
26731
26728
26727
26727
26726
26727
26731
26737
26746
26756
26770
26786
26804
26828
26855
26888
26927
26968
27008
27043
27070
27093
27108
27117
27122
27120
27109
27091
27069
27047
27027
27009
26992
26976
26960
26946
26933
26920
26905
26887
26867
26851
26837
26827
26822
26820
26818
26816
26816
26819
26823
26825
26827
26827
26828
26826
26820
26810
26799
26785
26767
26747
26725
26703
26683
26664
26643
26622
26597
26566
26531
26497
26464
26431
26399
26367
26333
26294
26253
26212
26171
26127
26084
26044
26008
25977
25952
25931
25909
25884
25862
25846
25831
25812
25787
25757
25725
25697
25674
25654
25636
25616
25599
25581
25557
25527
25494
25461
25426
25388
25349
25312
25278
25245
25214
25186
25162
25138
25112
25082
25050
25015
24978
24942
24909
24877
24844
24811
24779
24746
24708
24666
24624
24584
24547
24513
24480
24445
24410
24375
24337
24295
24253
24209
24163
24115
24062
24005
23944
23882
23821
23762
23707
23657
23615
23580
23555
23545
23553
23580
23621
23677
23745
23824
23914
24021
24142
24266
24390
24512
24630
24744
24851
24947
25031
25105
25168
25222
25267
25302
25328
25342
25341
25329
25311
25289
25265
25235
25202
25171
25144
25123
25104
25089
25081
25075
25071
25068
25065
25061
25057
25054
25055
25059
25065
25071
25071
25066
25060
25051
25040
25029
25014
24996
24976
24955
24932
24906
24874
24839
24804
24768
24731
24695
24665
24643
24629
24617
24599
24573
24546
24521
24497
24472
24449
24428
24408
24389
24368
24344
24320
24298
24278
24260
24238
24212
24182
24149
24117
24085
24055
24026
23994
23959
23922
23882
23837
23787
23733
23680
23631
23588
23550
23513
23476
23439
23401
23364
23331
23296
23258
23217
23173
23128
23083
23037
22990
22947
22907
22867
22828
22791
22753
22715
22680
22643
22605
22569
22534
22499
22461
22420
22378
22334
22291
22246
22202
22162
22127
22091
22056
22021
21986
21953
21922
21892
21861
21827
21787
21741
21693
21646
21601
21560
21521
21481
21438
21395
21355
21318
21286
21257
21232
21208
21187
21170
21161
21157
21163
21181
21211
21254
21312
21381
21460
21548
21646
21752
21862
21971
22080
22188
22294
22392
22479
22553
22615
22665
22704
22735
22762
22784
22800
22811
22813
22808
22798
22783
22770
22760
22751
22744
22740
22737
22731
22723
22717
22718
22723
22727
22731
22739
22756
22778
22801
22822
22839
22852
22860
22865
22868
22868
22868
22867
22866
22863
22861
22861
22862
22863
22859
22851
22840
22829
22820
22818
22822
22827
22826
22822
22820
22817
22816
22817
22822
22830
22838
22848
22860
22872
22886
22904
22923
22939
22946
22944
22932
22912
22888
22864
22842
22825
22813
22801
22789
22777
22764
22752
22742
22730
22714
22696
22673
22650
22628
22607
22588
22571
22555
22537
22517
22496
22474
22451
22428
22408
22389
22371
22358
22349
22340
22331
22320
22308
22294
22276
22255
22234
22214
22194
22174
22151
22122
22091
22061
22038
22022
22007
21986
21961
21936
21914
21894
21876
21860
21848
21843
21848
21863
21887
21918
21958
22014
22087
22173
22271
22381
22499
22620
22743
22870
22998
23127
23255
23379
23494
23600
23701
23792
23871
23936
23992
24042
24086
24120
24144
24156
24160
24161
24159
24155
24145
24133
24124
24120
24118
24118
24120
24128
24142
24160
24178
24197
24214
24232
24252
24277
24305
24326
24340
24345
24346
24345
24340
24333
24326
24323
24323
24325
24325
24321
24313
24303
24292
24281
24269
24256
24245
24241
24241
24245
24251
24254
24257
24260
24264
24271
24279
24283
24283
24284
24284
24282
24278
24275
24273
24270
24265
24255
24240
24223
24202
24177
24147
24112
24073
24033
23991
23951
23916
23887
23860
23836
23812
23787
23760
23731
23701
23667
23628
23591
23555
23520
23488
23458
23429
23402
23376
23349
23321
23292
23262
23231
23204
23181
23158
23133
23108
23084
23060
23038
23017
22993
22970
22950
22933
22917
22902
22887
22870
22849
22826
22801
22771
22739
22709
22681
22654
22632
22617
22603
22589
22567
22536
22501
22466
22433
22401
22366
22327
22287
22253
22231
22221
22223
22239
22265
22304
22354
22417
22493
22577
22670
22772
22884
23002
23123
23245
23368
23487
23603
23716
23825
23927
24021
24103
24172
24230
24278
24318
24350
24373
24388
24394
24394
24389
24380
24371
24361
24354
24351
24349
24352
24358
24368
24384
24400
24416
24434
24456
24477
24495
24509
24523
24535
24549
24565
24578
24583
24582
24576
24567
24555
24542
24530
24515
24499
24485
24473
24458
24439
24416
24392
24369
24347
24328
24311
24296
24282
24269
24256
24244
24233
24227
24225
24227
24234
24245
24256
24264
24267
24269
24269
24265
24257
24247
24237
24225
24207
24184
24155
24123
24087
24052
24018
23985
23954
23924
23894
23864
23831
23794
23754
23714
23676
23639
23602
23564
23525
23483
23440
23399
23364
23332
23304
23279
23260
23246
23230
23212
23188
23161
23132
23103
23077
23051
23020
22987
22954
22925
22897
22869
22840
22812
22781
22746
22712
22680
22645
22608
22570
22531
22488
22440
22390
22339
22288
22239
22190
22141
22092
22047
22001
21949
21893
21842
21795
21749
21701
21652
21606
21564
21526
21490
21456
21428
21406
21388
21380
21385
21405
21443
21497
21566
21652
21757
21878
22009
22145
22284
22420
22552
22676
22789
22891
22984
23070
23149
23216
23268
23307
23334
23351
23359
23362
23362
23358
23348
23335
23315
23286
23255
23229
23206
23185
23167
23153
23142
23135
23126
23115
23107
23102
23099
23093
23085
23077
23068
23057
23045
23032
23014
22993
22965
22932
22896
22860
22828
22801
22777
22753
22731
22712
22693
22674
22651
22629
22610
22596
22583
22570
22557
22542
22526
22510
22495
22481
22468
22457
22448
22438
22428
22416
22404
22393
22378
22358
22334
22304
22269
22230
22192
22151
22105
22056
22011
21970
21933
21899
21865
21830
21794
21758
21724
21690
21656
21620
21584
21548
21509
21469
21430
21391
21352
21316
21283
21247
21210
21172
21136
21102
21069
21034
21002
20973
20945
20915
20881
20843
20807
20775
20744
20715
20684
20653
20620
20584
20546
20509
20473
20443
20420
20401
20379
20356
20333
20309
20286
20263
20243
20224
20207
20190
20172
20153
20135
20119
20110
20111
20121
20141
20174
20223
20286
20362
20453
20560
20678
20799
20922
21044
21166
21290
21414
21534
21642
21741
21834
21917
21988
22047
22096
22133
22161
22184
22201
22212
22216
22214
22209
22203
22197
22189
22178
22165
22149
22132
22116
22101
22090
22083
22081
22085
22090
22098
22110
22125
22141
22157
22173
22189
22201
22207
22206
22200
22189
22174
22157
22142
22129
22115
22099
22085
22078
22080
22086
22095
22103
22112
22124
22138
22149
22157
22161
22163
22165
22169
22171
22169
22164
22160
22155
22147
22137
22124
22113
22102
22092
22082
22072
22060
22044
22023
22000
21976
21952
21927
21897
21867
21834
21799
21763
21730
21697
21667
21640
21616
21594
21572
21550
21528
21506
21482
21457
21431
21403
21375
21347
21316
21285
21253
21223
21194
21165
21141
21121
21102
21081
21056
21027
20999
20971
20940
20907
20872
20837
20807
20780
20756
20731
20705
20679
20654
20629
20603
20580
20559
20539
20519
20500
20482
20464
20455
20460
20478
20512
20564
20630
20710
20801
20904
21018
21141
21274
21411
21550
21687
21819
21944
22064
22178
22283
22378
22464
22541
22606
22662
22712
22754
22787
22813
22836
22858
22873
22883
22889
22892
22892
22889
22881
22872
22864
22857
22853
22850
22846
22845
22851
22862
22875
22889
22903
22920
22937
22952
22962
22967
22971
22973
22969
22958
22947
22940
22935
22931
22926
22919
22909
22900
22891
22884
22875
22868
22861
22856
22853
22853
22857
22863
22868
22871
22875
22878
22879
22878
22874
22864
22849
22831
22811
22790
22771
22751
22731
22712
22692
22674
22656
22637
22617
22597
22574
22548
22518
22486
22456
22428
22396
22362
22328
22294
22261
22230
22200
22171
22144
22118
22088
22054
22021
21991
21963
21931
21899
21868
21839
21809
21778
21751
21730
21713
21698
21681
21661
21636
21610
21586
21563
21540
21517
21491
21464
21438
21413
21389
21366
21344
21322
21298
21270
21245
21221
21198
21176
21154
21130
21107
21083
21058
21034
21008
20980
20951
20921
20887
20858
20841
20835
20843
20865
20904
20959
21029
21114
21218
21340
21474
21612
21752
21895
22039
22182
22320
22450
22575
22695
22808
22911
23003
23087
23162
23228
23284
23328
23361
23383
23397
23404
23410
23411
23407
23400
23393
23387
23382
23378
23381
23391
23405
23419
23433
23450
23468
23490
23514
23540
23566
23587
23599
23607
23612
23615
23616
23613
23606
23596
23587
23580
23573
23565
23558
23552
23543
23531
23516
23501
23485
23466
23450
23439
23434
23434
23437
23441
23445
23452
23458
23462
23463
23461
23456
23453
23454
23459
23461
23458
23453
23444
23430
23411
23387
23362
23336
23311
23286
23264
23243
23218
23187
23152
23115
23077
23039
23003
22969
22936
22906
22876
22842
22805
22767
22732
22704
22677
22646
22617
22593
22573
22554
22532
22508
22484
22462
22442
22420
22397
22373
22348
22322
22296
22267
22238
22210
22184
22160
22139
22121
22103
22084
22062
22036
22009
21982
21958
21938
21919
21900
21880
21860
21838
21814
21781
21742
21700
21660
21619
21577
21536
21499
21462
21430
21403
21383
21370
21366
21377
21405
21448
21508
21584
21675
21781
21897
22021
22149
22281
22416
22553
22694
22832
22968
23103
23232
23353
23464
23564
23649
23720
23780
23827
23861
23882
23890
23890
23887
23882
23876
23867
23855
23837
23817
23799
23786
23778
23774
23775
23781
23788
23795
23804
23812
23818
23828
23843
23857
23869
23881
23893
23900
23904
23908
23912
23914
23914
23910
23900
23882
23856
23830
23802
23773
23744
23720
23697
23674
23650
23630
23617
23613
23616
23621
23623
23624
23625
23627
23625
23619
23608
23595
23578
23556
23528
23497
23463
23424
23381
23336
23295
23261
23234
23206
23174
23142
23110
23079
23050
23022
22993
22962
22928
22890
22847
22800
22746
22687
22629
22573
22516
22459
22401
22342
22288
22241
22198
22158
22119
22084
22050
22015
21979
21940
21899
21859
21818
21775
21733
21695
21661
21628
21594
21559
21523
21488
21453
21415
21373
21331
21290
21248
21201
21151
21107
21067
21032
21002
20978
20955
20929
20897
20857
20815
20776
20740
20703
20661
20623
20594
20576
20575
20591
20619
20659
20716
20790
20880
20981
21090
21205
21328
21458
21590
21721
21848
21975
22098
22208
22308
22398
22479
22549
22606
22651
22684
22707
22722
22728
22727
22720
22709
22693
22672
22649
22625
22600
22577
22556
22535
22519
22509
22509
22515
22527
22542
22559
22574
22592
22613
22631
22641
22646
22651
22660
22671
22680
22682
22674
22662
22651
22641
22632
22626
22619
22611
22602
22591
22578
22563
22551
22545
22544
22547
22550
22554
22561
22568
22575
22582
22587
22588
22584
22580
22577
22573
22567
22562
22557
22549
22540
22530
22515
22498
22484
22473
22460
22443
22425
22409
22392
22377
22364
22347
22324
22293
22256
22221
22189
22162
22137
22113
22089
22067
22047
22028
22008
21989
21973
21958
21943
21926
21912
21896
21880
21865
21849
21833
21816
21796
21776
21756
21733
21707
21678
21649
21620
21591
21563
21536
21510
21485
21461
21436
21411
21384
21358
21332
21310
21291
21279
21276
21283
21302
21333
21381
21450
21536
21639
21756
21884
22022
22167
22316
22467
22617
22763
22904
23034
23154
23262
23359
23446
23515
23570
23618
23658
23685
23704
23714
23717
23716
23712
23708
23703
23698
23695
23696
23701
23708
23718
23728
23739
23752
23768
23786
23801
23815
23830
23844
23856
23867
23878
23885
23887
23886
23882
23880
23879
23879
23877
23869
23855
23838
23822
23808
23799
23793
23788
23781
23775
23774
23778
23785
23797
23818
23844
23868
23887
23903
23917
23928
23934
23938
23939
23932
23923
23914
23905
23893
23881
23866
23851
23834
23817
23801
23783
23763
23745
23728
23708
23683
23656
23627
23597
23566
23537
23508
23480
23450
23420
23388
23353
23318
23286
23254
23221
23189
23159
23131
23102
23073
23047
23025
23001
22975
22947
22917
22886
22857
22829
22799
22771
22747
22727
22709
22691
22672
22653
22632
22608
22587
22566
22545
22523
22499
22472
22447
22426
22407
22389
22369
22345
22313
22275
22234
22193
22151
22112
22075
22043
22021
22011
22010
22020
22047
22090
22147
22217
22302
22403
22520
22649
22787
22931
23077
23223
23370
23513
23655
23794
23925
24047
24161
24263
24348
24418
24471
24510
24538
24554
24561
24563
24562
24557
24550
24543
24537
24536
24541
24548
24556
24563
24569
24578
24589
24602
24617
24637
24658
24680
24708
24737
24765
24792
24820
24849
24877
24902
24923
24940
24949
24950
24947
24941
24929
24910
24886
24855
24822
24793
24769
24751
24743
24742
24745
24749
24752
24756
24767
24781
24798
24818
24837
24849
24859
24866
24869
24869
24865
24858
24848
24835
24821
24808
24797
24786
24768
24748
24726
24702
24679
24658
24639
24621
24603
24581
24555
24524
24493
24465
24438
24409
24379
24352
24322
24290
24258
24226
24194
24163
24139
24118
24095
24071
24049
24027
24002
23972
23939
23908
23877
23845
23815
23791
23769
23750
23733
23718
23704
23686
23665
23645
23623
23597
23568
23535
23500
23465
23430
23395
23360
23322
23279
23234
23186
23136
23088
23039
22993
22948
22905
22865
22828
22791
22755
22719
22680
22641
22605
22574
22552
22544
22553
22579
22623
22686
22765
22862
22972
23095
23226
23365
23506
23646
23783
23913
24040
24163
24277
24378
24465
24539
24600
24648
24687
24722
24750
24770
24784
24790
24788
24783
24775
24766
24756
24743
24732
24726
24721
24717
24716
24719
24724
24731
24740
24754
24771
24789
24807
24822
24830
24835
24840
24843
24843
24839
24831
24816
24799
24780
24761
24739
24714
24687
24662
24635
24608
24581
24558
24538
24518
24498
24479
24460
24445
24436
24430
24421
24409
24393
24376
24361
24349
24342
24339
24338
24340
24347
24351
24344
24326
24300
24274
24251
24229
24205
24176
24145
24115
24084
24051
24018
23986
23954
23923
23889
23850
23809
23770
23731
23689
23641
23592
23546
23502
23460
23419
23381
23345
23311
23278
23250
23219
23183
23142
23097
23050
23004
22961
22923
22892
22863
22834
22803
22772
22741
22709
22672
22633
22595
22558
22524
22492
22461
22431
22403
22375
22345
22313
22281
22250
22216
22178
22139
22105
22077
22057
22044
22039
22045
22062
22085
22114
22156
22216
22299
22404
22523
22652
22788
22926
23063
23202
23338
23467
23590
23707
23820
23921
24004
24070
24122
24162
24193
24218
24239
24253
24260
24260
24257
24256
24257
24255
24249
24239
24228
24221
24218
24220
24224
24233
24245
24260
24274
24290
24306
24325
24346
24367
24388
24410
24433
24451
24464
24471
24474
24476
24475
24469
24453
24433
24413
24395
24381
24369
24362
24358
24358
24360
24366
24375
24387
24400
24414
24426
24436
24444
24450
24455
24461
24471
24487
24504
24520
24530
24531
24523
24508
24492
24472
24449
24425
24398
24370
24342
24316
24294
24273
24252
24229
24206
24183
24158
24128
24097
24064
24028
23990
23950
23906
23863
23820
23778
23740
23710
23688
23670
23655
23640
23624
23608
23593
23580
23568
23552
23532
23509
23487
23465
23445
23427
23409
23388
23364
23338
23312
23291
23275
23261
23245
23229
23212
23191
23170
23149
23125
23102
23083
23068
23060
23059
23065
23080
23109
23154
23216
23295
23392
23507
23637
23777
23921
24066
24210
24354
24494
24628
24754
24870
24974
25066
25147
25216
25273
25320
25360
25395
25428
25458
25481
25494
25501
25506
25511
25515
25520
25526
25534
25542
25548
25553
25559
25571
25592
25619
25650
25683
25717
25748
25775
25797
25815
25830
25840
25846
25846
25842
25835
25825
25812
25800
25784
25769
25758
25752
25749
25747
25747
25749
25751
25752
25755
25757
25758
25759
25761
25763
25763
25765
25769
25775
25778
25775
25767
25753
25738
25724
25711
25698
25686
25672
25657
25639
25619
25598
25578
25555
25528
25501
25474
25449
25423
25398
25372
25344
25312
25276
25240
25203
25169
25137
25108
25078
25051
25024
24995
24964
24932
24900
24874
24850
24824
24795
24766
24742
24722
24702
24681
24659
24635
24606
24573
24541
24513
24490
24474
24461
24452
24440
24423
24401
24378
24351
24319
24286
24250
24211
24170
24133
24101
24070
24037
24004
23975
23949
23925
23899
23876
23857
23843
23835
23837
23850
23876
23916
23976
24057
24156
24273
24404
24546
24696
24851
25008
25162
25312
25455
25591
25718
25837
25949
26050
26139
26218
26288
26348
26397
26434
26459
26474
26482
26487
26492
26494
26495
26498
26504
26514
26528
26549
26575
26601
26627
26654
26680
26708
26738
26771
26808
26847
26886
26923
26951
26971
26985
26995
26999
27001
27000
26998
26993
26985
26974
26964
26953
26943
26929
26913
26899
26890
26884
26880
26877
26876
26881
26890
26901
26912
26925
26942
26959
26972
26980
26984
26982
26977
26969
26959
26947
26934
26921
26905
26887
26869
26853
26839
26824
26812
26802
26788
26769
26742
26710
26670
26627
26585
26547
26512
26476
26440
26405
26371
26337
26308
26278
26245
26212
26179
26145
26107
26069
26035
26004
25973
25943
25913
25884
25857
25832
25804
25775
25743
25712
25685
25660
25635
25612
25593
25577
25559
25539
25516
25490
25461
25429
25393
25357
25321
25288
25259
25229
25201
25174
25148
25121
25093
25062
25030
24998
24968
24940
24912
24878
24842
24805
24770
24741
24720
24712
24719
24743
24784
24842
24914
24999
25096
25205
25326
25454
25588
25729
25872
26011
26149
26285
26419
26544
26655
26749
26826
26892
26950
26997
27029
27047
27054
27055
27050
27042
27034
27030
27029
27029
27031
27036
27040
27047
27058
27074
27091
27110
27131
27154
27178
27202
27227
27253
27277
27297
27315
27327
27335
27336
27328
27313
27292
27264
27230
27194
27158
27119
27078
27040
27005
26974
26943
26915
26893
26880
26873
26866
26857
26847
26836
26827
26815
26799
26786
26775
26767
26757
26743
26725
26705
26682
26657
26635
26615
26598
26582
26565
26548
26531
26513
26488
26458
26425
26394
26366
26342
26316
26286
26254
26216
26172
26125
26080
26035
25992
25950
25908
25872
25836
25799
25757
25713
25671
25630
25592
25554
25515
25473
25430
25388
25345
25303
25264
25229
25195
25163
25132
25099
25065
25029
24992
24957
24922
24886
24847
24804
24758
24708
24660
24618
24583
24551
24522
24494
24465
24433
24398
24359
24323
24287
24252
24221
24199
24187
24187
24197
24217
24250
24299
24363
24440
24532
24641
24762
24892
25027
25163
25298
25427
25550
25668
25778
25877
25962
26037
26102
26157
26202
26235
26256
26264
26259
26247
26232
26215
26197
26180
26161
26143
26130
26119
26111
26108
26114
26127
26141
26155
26168
26179
26189
26201
26212
26223
26234
26247
26261
26275
26285
26293
26300
26302
26297
26288
26277
26267
26257
26242
26225
26211
26203
26199
26195
26195
26198
26205
26212
26220
26227
26235
26246
26256
26265
26272
26275
26275
26272
26267
26261
26253
26242
26228
26214
26200
26181
26156
26128
26100
26071
26040
26006
25968
25928
25885
25842
25800
25758
25716
25675
25637
25603
25574
25548
25520
25488
25454
25419
25384
25351
25322
25296
25272
25250
25233
25216
25199
25181
25161
25134
25100
25066
25036
25007
24981
24961
24945
24928
24905
24873
24836
24798
24759
24714
24668
24622
24579
24537
24499
24464
24433
24411
24400
24401
24415
24440
24478
24528
24592
24670
24760
24863
24978
25105
25239
25378
25522
25671
25819
25959
26087
26208
26321
26423
26514
26595
26663
26713
26748
26770
26785
26796
26805
26814
26821
26828
26837
26848
26859
26868
26872
26875
26879
26883
26889
26896
26903
26912
26929
26955
26987
27018
27045
27070
27094
27115
27132
27143
27146
27139
27120
27091
27056
27020
26984
26950
26923
26901
26881
26864
26856
26854
26853
26852
26854
26857
26859
26857
26853
26850
26849
26844
26834
26824
26816
26813
26815
26816
26814
26813
26813
26809
26797
26782
26765
26746
26723
26696
26665
26631
26591
26545
26499
26453
26411
26372
26335
26298
26262
26227
26196
26165
26133
26102
26074
26043
26012
25982
25952
25918
25879
25838
25797
25757
25721
25687
25655
25626
25599
25572
25547
25527
25508
25489
25468
25445
25416
25383
25348
25313
25280
25249
25218
25185
25154
25124
25093
25059
25025
24992
24955
24914
24873
24834
24797
24758
24719
24682
24646
24611
24575
24540
24507
24482
24467
24459
24463
24480
24512
24563
24632
24717
24817
24930
25055
25190
25331
25477
25629
25782
25936
26087
26232
26365
26486
26592
26683
26756
26814
26861
26899
26929
26952
26967
26979
26990
27000
27009
27016
27024
27032
27040
27047
27054
27063
27074
27091
27117
27144
27168
27186
27199
27211
27226
27244
27263
27286
27308
27327
27339
27345
27346
27347
27347
27343
27334
27325
27314
27301
27284
27266
27248
27229
27211
27197
27187
27182
27180
27180
27181
27180
27175
27166
27152
27138
27129
27123
27118
27114
27110
27106
27098
27085
27068
27047
27024
27001
26981
26961
26940
26915
26888
26856
26818
26779
26739
26697
26655
26614
26571
26528
26485
26444
26405
26364
26321
26279
26241
26205
26172
26142
26112
26080
26048
26020
25999
25982
25962
25939
25913
25887
25858
25825
25790
25755
25722
25690
25662
25633
25603
25575
25552
25531
25504
25473
25439
25406
25374
25341
25305
25267
25228
25189
25153
25115
25075
25037
25001
24966
24929
24891
24854
24819
24783
24745
24711
24676
24636
24591
24548
24507
24473
24442
24408
24368
24328
24292
24264
24248
24246
24259
24290
24339
24405
24491
24597
24716
24842
24972
25105
25241
25375
25507
25635
25758
25874
25982
26077
26157
26223
26278
26323
26357
26379
26388
26385
26376
26361
26340
26318
26292
26262
26232
26204
26179
26156
26136
26119
26105
26095
26089
26086
26087
26091
26096
26102
26109
26116
26122
26126
26125
26119
26108
26095
26078
26056
26029
25998
25965
25936
25910
25882
25851
25819
25786
25752
25718
25688
25660
25633
25607
25584
25565
25547
25533
25519
25505
25493
25480
25464
25443
25423
25404
25383
25357
25329
25301
25271
25234
25188
25140
25097
25059
25023
24985
24946
24906
24865
24820
24773
24725
24675
24623
24569
24517
24465
24414
24361
24304
24246
24191
24139
24089
24045
24007
23973
23942
23910
23875
23833
23786
23739
23694
23648
23599
23549
23499
23449
23400
23353
23311
23276
23246
23217
23190
23163
23135
23104
23070
23035
23000
22967
22931
22891
22848
22803
22758
22709
22657
22605
22552
22500
22451
22403
22357
22313
22273
22237
22204
22172
22140
22110
22083
22056
22030
22003
21980
21964
21956
21960
21974
22002
22044
22102
22175
22260
22356
22464
22582
22707
22840
22978
23114
23246
23374
23497
23609
23711
23804
23885
23953
24008
24049
24082
24107
24123
24127
24120
24104
24085
24066
24045
24026
24012
24000
23989
23981
23975
23968
23961
23957
23955
23958
23963
23968
23974
23982
23989
23993
23994
23991
23986
23983
23981
23980
23979
23977
23971
23960
23947
23932
23916
23898
23880
23862
23846
23832
23817
23804
23794
23785
23779
23778
23781
23784
23784
23782
23780
23779
23780
23778
23774
23772
23769
23766
23763
23759
23752
23742
23729
23710
23689
23664
23635
23603
23574
23551
23533
23516
23498
23478
23458
23440
23423
23403
23378
23352
23327
23305
23282
23256
23227
23196
23163
23128
23092
23063
23038
23019
23002
22986
22971
22954
22937
22917
22895
22876
22864
22855
22848
22843
22837
22827
22813
22797
22782
22767
22753
22735
22715
22691
22665
22637
22607
22575
22544
22517
22496
22478
22463
22448
22434
22424
22417
22416
22423
22444
22479
22528
22594
22678
22777
22891
23015
23145
23284
23427
23569
23710
23848
23980
24100
24210
24309
24397
24474
24538
24590
24628
24654
24669
24677
24683
24687
24689
24685
24677
24668
24660
24652
24647
24643
24642
24647
24656
24667
24685
24709
24733
24754
24775
24795
24815
24837
24859
24872
24876
24876
24872
24868
24860
24848
24832
24817
24801
24781
24754
24725
24697
24673
24652
24636
24625
24617
24609
24605
24609
24619
24630
24640
24646
24645
24640
24633
24621
24605
24587
24571
24561
24553
24548
24541
24530
24515
24497
24478
24460
24444
24428
24409
24385
24356
24325
24290
24250
24206
24159
24111
24065
24020
23978
23941
23910
23883
23856
23826
23796
23764
23730
23693
23654
23616
23578
23541
23507
23474
23441
23408
23377
23350
23324
23295
23263
23228
23188
23147
23107
23067
23027
22989
22954
22920
22886
22850
22815
22784
22756
22732
22712
22694
22674
22650
22624
22596
22564
22526
22484
22442
22404
22370
22339
22308
22278
22247
22213
22178
22141
22098
22052
22005
21962
21925
21898
21883
21881
21893
21918
21962
22030
22116
22214
22326
22450
22584
22724
22862
22996
23130
23268
23404
23533
23656
23769
23868
23954
24030
24096
24151
24196
24231
24257
24276
24287
24290
24285
24275
24265
24258
24253
24247
24240
24233
24229
24230
24235
24244
24253
24263
24277
24296
24318
24341
24366
24392
24416
24432
24443
24448
24452
24452
24448
24445
24440
24430
24417
24402
24386
24371
24360
24352
24350
24353
24359
24364
24368
24371
24374
24374
24372
24369
24367
24366
24363
24363
24367
24372
24375
24377
24378
24379
24381
24383
24385
24386
24381
24367
24348
24327
24300
24272
24246
24218
24189
24162
24137
24111
24083
24056
24031
24004
23972
23934
23897
23864
23831
23795
23757
23720
23686
23655
23626
23598
23565
23528
23492
23459
23429
23396
23361
23324
23287
23254
23226
23200
23171
23143
23116
23089
23063
23037
23010
22980
22950
22919
22885
22851
22818
22785
22751
22711
22670
22629
22588
22545
22503
22466
22429
22390
22348
22307
22265
22220
22172
22123
22074
22025
21980
21939
21901
21866
21831
21795
21755
21711
21665
21616
21563
21511
21464
21422
21388
21365
21351
21348
21363
21398
21452
21525
21614
21714
21823
21939
22064
22194
22327
22460
22593
22721
22839
22948
23048
23140
23224
23293
23346
23387
23414
23430
23438
23441
23438
23431
23425
23416
23403
23390
23376
23361
23344
23328
23313
23299
23289
23283
23280
23281
23284
23289
23293
23297
23302
23308
23315
23324
23331
23335
23336
23330
23315
23294
23269
23243
23216
23187
23152
23115
23077
23041
23008
22980
22958
22942
22928
22912
22895
22880
22866
22853
22840
22828
22819
22807
22790
22771
22753
22734
22714
22695
22675
22655
22635
22614
22589
22558
22525
22489
22448
22404
22360
22315
22270
22223
22170
22114
22057
22004
21953
21905
21860
21814
21769
21727
21686
21644
21604
21568
21532
21491
21449
21407
21364
21322
21281
21241
21202
21164
21128
21095
21065
21039
21011
20979
20944
20908
20871
20835
20803
20777
20755
20733
20713
20691
20665
20637
20607
20577
20549
20519
20488
20457
20426
20395
20364
20336
20310
20283
20254
20223
20195
20166
20137
20106
20075
20045
20017
19993
19976
19971
19982
20011
20059
20121
20193
20273
20366
20472
20592
20726
20870
21018
21163
21300
21432
21559
21679
21793
21898
21989
22067
22133
22189
22233
22266
22288
22298
22296
22289
22281
22273
22263
22254
22244
22233
22219
22202
22184
22171
22160
22150
22140
22136
22139
22148
22161
22178
22200
22225
22248
22268
22285
22299
22305
22305
22299
22287
22268
22245
22223
22204
22187
22170
22151
22134
22119
22108
22100
22092
22086
22082
22079
22081
22091
22107
22125
22143
22160
22172
22179
22182
22184
22182
22177
22168
22156
22145
22136
22128
22117
22100
22080
22062
22043
22020
21997
21976
21955
21933
21907
21879
21848
21816
21785
21757
21734
21713
21690
21666
21642
21617
21590
21558
21523
21488
21452
21415
21380
21350
21323
21295
21268
21242
21217
21192
21168
21146
21127
21109
21091
21068
21043
21017
20989
20963
20942
20924
20907
20890
20875
20858
20837
20815
20797
20781
20764
20745
20726
20708
20691
20678
20670
20669
20680
20702
20733
20774
20829
20903
20997
21108
21232
21368
21513
21661
21815
21972
22131
22293
22451
22600
22737
22863
22979
23086
23179
23253
23307
23348
23381
23407
23425
23437
23441
23439
23434
23427
23419
23412
23407
23404
23406
23411
23417
23425
23435
23445
23456
23463
23466
23468
23474
23486
23496
23502
23506
23510
23511
23508
23496
23477
23452
23425
23398
23374
23350
23323
23291
23254
23215
23171
23126
23084
23048
23018
22992
22971
22951
22930
22911
22898
22892
22891
22892
22892
22889
22887
22884
22876
22863
22849
22834
22810
22779
22748
22720
22695
22671
22644
22613
22581
22552
22524
22498
22472
22446
22417
22388
22360
22331
22303
22272
22238
22200
22160
22117
22072
22028
21980
21930
21883
21838
21792
21747
21704
21663
21625
21588
21548
21507
21467
21426
21387
21350
21316
21281
21244
21208
21170
21131
21090
21046
21001
20956
20913
20873
20836
20800
20763
20727
20688
20645
20603
20566
20533
20500
20463
20427
20393
20360
20327
20292
20255
20219
20192
20179
20185
20210
20250
20305
20375
20459
20557
20667
20785
20908
21034
21161
21288
21412
21530
21642
21746
21840
21926
21997
22055
22102
22141
22172
22191
22194
22181
22157
22124
22086
22048
22010
21976
21944
21911
21878
21844
21807
21774
21746
21725
21712
21705
21704
21708
21713
21720
21726
21728
21724
21714
21701
21687
21672
21657
21640
21617
21586
21554
21524
21496
21470
21443
21413
21382
21354
21333
21317
21305
21299
21299
21298
21294
21292
21293
21297
21305
21316
21326
21334
21337
21338
21338
21339
21341
21345
21349
21355
21360
21360
21354
21342
21325
21305
21282
21258
21231
21203
21176
21150
21125
21101
21073
21046
21021
20995
20968
20939
20909
20879
20847
20812
20780
20750
20719
20686
20655
20630
20607
20583
20556
20529
20505
20483
20463
20443
20421
20398
20376
20357
20345
20336
20326
20313
20297
20283
20274
20268
20262
20257
20251
20248
20252
20263
20283
20314
20359
20419
20493
20584
20694
20822
20965
21115
21272
21435
21601
21767
21933
22093
22245
22388
22520
22640
22747
22839
22915
22977
23029
23074
23111
23140
23163
23182
23197
23210
23219
23224
23230
23235
23241
23245
23249
23252
23256
23263
23272
23280
23290
23304
23321
23342
23368
23396
23421
23440
23455
23465
23474
23480
23486
23491
23492
23488
23477
23465
23454
23445
23443
23446
23451
23453
23459
23473
23491
23509
23526
23539
23551
23562
23574
23588
23601
23615
23629
23643
23656
23670
23684
23698
23709
23716
23718
23716
23705
23689
23671
23651
23628
23604
23580
23553
23525
23496
23466
23432
23396
23358
23321
23286
23252
23216
23178
23141
23110
23085
23064
23048
23036
23027
23018
23009
23000
22991
22983
22972
22958
22941
22923
22905
22885
22858
22827
22795
22762
22726
22690
22654
22620
22592
22567
22545
22525
22504
22480
22453
22422
22393
22367
22343
22323
22307
22298
22301
22322
22361
22416
22485
22570
22673
22793
22929
23076
23232
23397
23567
23734
23897
24053
24204
24353
24498
24637
24764
24881
24990
25087
25171
25241
25293
25328
25348
25363
25377
25388
25396
25407
25422
25439
25454
25469
25488
25509
25532
25561
25597
25637
25674
25708
25739
25767
25794
25820
25845
25866
25881
25892
25894
25886
25873
25859
25847
25836
25826
25817
25809
25803
25798
25792
25784
25780
25781
25784
25789
25796
25807
25821
25837
25857
25876
25892
25903
25913
25922
25927
25926
25921
25912
25902
25890
25875
25861
25847
25829
25804
25778
25752
25725
25694
25659
25621
25583
25544
25508
25476
25444
25408
25372
25340
25312
25289
25269
25251
25230
25209
25187
25163
25138
25115
25094
25074
25055
25042
25032
25025
25017
25011
25007
25001
24992
24981
24966
24948
24930
24913
24894
24872
24850
24827
24801
24770
24739
24707
24677
24647
24619
24594
24569
24543
24514
24483
24450
24419
24391
24364
24336
24311
24292
24285
24290
24309
24342
24390
24452
24533
24635
24758
24897
25045
25199
25361
25524
25688
25852
26015
26173
26322
26459
26585
26697
26795
26879
26950
27008
27055
27094
27119
27131
27136
27133
27126
27120
27117
27117
27116
27118
27128
27146
27167
27192
27225
27269
27321
27374
27426
27477
27526
27571
27614
27652
27686
27717
27741
27754
27761
27768
27774
27781
27787
27793
27795
27793
27789
27785
27784
27788
27791
27795
27799
27803
27805
27808
27811
27813
27818
27825
27833
27841
27850
27856
27861
27863
27864
27860
27856
27855
27855
27852
27845
27832
27814
27794
27771
27744
27714
27680
27640
27593
27542
27493
27446
27401
27357
27316
27276
27236
27193
27148
27098
27046
26996
26949
26905
26863
26824
26787
26747
26704
26662
26625
26587
26549
26511
26476
26441
26404
26366
26329
26288
26243
26198
26153
26109
26065
26022
25982
25943
25903
25861
25819
25775
25729
25682
25634
25588
25544
25504
25465
25423
25379
25331
25278
25225
25173
25120
25067
25014
24958
24904
24854
24807
24762
24717
24678
24649
24631
24630
24651
24693
24754
24832
24924
25031
25151
25281
25419
25560
25706
25854
26000
26140
26276
26403
26522
26634
26739
26832
26913
26979
27034
27075
27104
27126
27140
27150
27157
27161
27163
27164
27166
27172
27182
27194
27205
27220
27240
27260
27281
27306
27331
27355
27375
27392
27405
27414
27422
27430
27435
27436
27434
27428
27418
27403
27385
27361
27327
27286
27240
27194
27150
27105
27063
27031
27008
26994
26986
26982
26979
26978
26980
26983
26983
26982
26986
26991
26993
26993
26991
26983
26969
26952
26931
26907
26881
26854
26829
26802
26772
26742
26711
26680
26647
26614
26586
26558
26528
26498
26467
26432
26390
26343
26297
26252
26204
26154
26110
26074
26039
26007
25975
25942
25908
25876
25846
25819
25791
25762
25732
25703
25676
25649
25623
25599
25579
25561
25543
25521
25497
25476
25457
25437
25417
25400
25383
25364
25342
25316
25285
25252
25219
25187
25160
25137
25122
25118
25124
25141
25168
25205
25255
25317
25395
25487
25594
25712
25840
25975
26117
26261
26406
26548
26682
26807
26921
27026
27123
27209
27283
27346
27400
27444
27481
27513
27542
27570
27597
27624
27652
27677
27699
27714
27728
27744
27763
27784
27807
27831
27853
27872
27886
27898
27909
27917
27924
27931
27938
27941
27942
27940
27931
27918
27903
27892
27882
27869
27852
27833
27813
27796
27780
27764
27749
27737
27730
27727
27724
27719
27714
27710
27710
27716
27726
27739
27755
27771
27790
27811
27832
27847
27858
27861
27854
27840
27821
27799
27778
27763
27755
27751
27748
27741
27729
27708
27677
27633
27585
27540
27500
27463
27432
27407
27384
27365
27346
27328
27306
27281
27258
27237
27219
27205
27194
27182
27169
27156
27143
27128
27114
27097
27078
27061
27047
27032
27015
26998
26982
26969
26952
26929
26899
26869
26841
26813
26785
26756
26723
26688
26652
26616
26579
26540
26502
26471
26446
26422
26399
26377
26356
26342
26343
26362
26399
26457
26534
26629
26740
26866
27007
27158
27312
27467
27623
27777
27924
28061
28188
28304
28408
28500
28582
28654
28719
28779
28832
28878
28914
28944
28969
28989
29008
29022
29031
29040
29054
29071
29091
29115
29145
29181
29221
29261
29302
29340
29376
29408
29438
29465
29490
29512
29530
29542
29549
29547
29535
29512
29482
29448
29408
29366
29323
29283
29248
29218
29192
29164
29134
29104
29075
29048
29021
28993
28965
28935
28905
28882
28865
28849
28833
28817
28803
28793
28781
28767
28749
28728
28708
28687
28667
28648
28626
28599
28568
28536
28499
28461
28424
28384
28342
28301
28262
28223
28182
28137
28088
28039
27994
27951
27907
27864
27822
27777
27730
27679
27627
27574
27521
27470
27419
27366
27314
27267
27227
27190
27158
27130
27105
27080
27054
27024
26994
26964
26933
26901
26867
26830
26789
26746
26704
26663
26621
26580
26542
26508
26477
26446
26411
26371
26330
26292
26256
26223
26190
26161
26135
26111
26087
26060
26029
25995
25963
25938
25922
25919
25933
25967
26019
26088
26177
26282
26400
26532
26676
26831
26996
27163
27326
27482
27632
27775
27908
28034
28149
28248
28331
28396
28446
28484
28508
28520
28520
28515
28508
28499
28489
28479
28472
28472
28478
28485
28494
28512
28538
28567
28595
28622
28648
28674
28700
28727
28751
28768
28781
28788
28787
28780
28768
28750
28726
28695
28657
28614
28570
28529
28490
28452
28412
28372
28336
28301
28265
28229
28197
28169
28148
28134
28127
28122
28115
28106
28094
28080
28063
28043
28022
27999
27979
27960
27939
27917
27892
27861
27827
27793
27756
27717
27678
27638
27596
27553
27509
27462
27414
27367
27323
27275
27225
27174
27124
27075
27027
26979
26928
26873
26817
26765
26717
26668
26616
26562
26509
26457
26403
26346
26290
26235
26185
26139
26096
26058
26026
25997
25969
25941
25910
25872
25829
25780
25727
25674
25625
25581
25542
25504
25462
25412
25357
25303
25254
25212
25174
25139
25105
25071
25034
24997
24962
24929
24894
24855
24808
24756
24702
24651
24604
24561
24525
24499
24483
24482
24497
24529
24578
24643
24723
24816
24924
25043
25169
25303
25444
25589
25736
25884
26025
26154
26266
26361
26445
26519
26580
26631
26670
26697
26713
26720
26721
26714
26700
26681
26661
26639
26614
26586
26554
26522
26497
26481
26476
26479
26487
26499
26514
26530
26544
26556
26568
26580
26589
26597
26604
26605
26600
26592
26577
26556
26526
26490
26449
26408
26369
26334
26303
26275
26248
26223
26200
26177
26154
26130
26103
26075
26052
26036
26021
26004
25986
25971
25960
25952
25945
25936
25923
25907
25887
25865
25837
25801
25759
25715
25669
25625
25583
25541
25498
25456
25416
25380
25342
25299
25255
25209
25165
25124
25087
25048
25004
24959
24911
24865
24823
24784
24748
24714
24679
24641
24606
24575
24545
24520
24495
24466
24432
24396
24360
24326
24295
24268
24242
24212
24177
24141
24107
24077
24049
24022
23997
23974
23952
23931
23907
23881
23855
23831
23809
23790
23775
23762
23750
23737
23724
23716
23716
23723
23741
23776
23828
23897
23983
24084
24196
24318
24454
24599
24747
24891
25031
25169
25304
25432
25552
25660
25757
25839
25906
25961
26006
26041
26065
26076
26076
26070
26060
26051
26044
26040
26036
26027
26016
26008
26002
25998
25997
25999
26006
26017
26030
26044
26062
26084
26107
26128
26146
26159
26163
26161
26156
26146
26129
26105
26081
26058
26036
26014
25993
25974
25958
25943
25932
25926
25923
25920
25917
25915
25916
25918
25924
25934
25946
25960
25974
25984
25987
25986
25982
25978
25974
25965
25947
25926
25906
25887
25869
25849
25831
25814
25792
25761
25723
25681
25637
25588
25538
25487
25440
25396
25351
25307
25263
25222
25180
25133
25083
25033
24984
24936
24890
24844
24798
24750
24698
24644
24590
24535
24481
24425
24370
24315
24264
24220
24184
24151
24118
24081
24041
24002
23963
23926
23890
23850
23804
23755
23707
23660
23613
23567
23524
23481
23434
23383
23329
23276
23227
23183
23143
23108
23078
23055
23040
23028
23017
23008
23005
23016
23040
23071
23113
23170
23244
23337
23447
23570
23701
23843
23996
24154
24312
24468
24620
24766
24906
25033
25147
25250
25344
25430
25506
25571
25625
25670
25706
25734
25751
25760
25765
25770
25775
25781
25789
25797
25802
25806
25813
25824
25842
25866
25891
25916
25941
25965
25990
26012
26029
26042
26054
26063
26069
26070
26063
26048
26031
26015
25995
25970
25941
25911
25879
25849
25824
25800
25776
25750
25721
25692
25663
25636
25614
25593
25572
25551
25534
25525
25521
25523
25525
25529
25533
25535
25537
25537
25535
25531
25523
25509
25489
25468
25441
25406
25370
25336
25306
25276
25248
25218
25185
25145
25100
25055
25008
24961
24914
24866
24816
24767
24724
24687
24653
24622
24593
24564
24535
24509
24486
24464
24439
24410
24382
24354
24323
24289
24254
24224
24196
24172
24148
24122
24092
24058
24023
23987
23948
23910
23875
23842
23809
23775
23742
23714
23690
23666
23638
23607
23575
23545
23517
23491
23465
23436
23401
23359
23315
23271
23230
23188
23142
23097
23054
23013
22973
22937
22908
22889
22882
22890
22915
22960
23025
23108
23204
23312
23433
23569
23716
23866
24018
24168
24311
24444
24569
24689
24801
24899
24985
25058
25118
25165
25201
25225
25238
25242
25236
25221
25201
25178
25154
25127
25098
25069
25040
25012
24983
24954
24929
24912
24902
24897
24895
24894
24894
24892
24887
24880
24872
24861
24847
24832
24814
24793
24771
24744
24715
24687
24662
24637
24610
24583
24556
24528
24501
24478
24460
24444
24427
24409
24394
24379
24364
24347
24327
24303
24277
24253
24234
24216
24199
24181
24166
24150
24131
24110
24089
24065
24035
23997
23953
23906
23861
23820
23778
23734
23689
23642
23593
23543
23492
23438
23382
23326
23270
23216
23163
23108
23055
23004
22956
22909
22863
22819
22777
22734
22688
22643
22603
22568
22531
22492
22451
22408
22365
22322
22279
22238
22196
22152
22104
22054
22001
21948
21895
21849
21809
21772
21738
21707
21678
21647
21614
21581
21547
21510
21469
21424
21377
21334
21295
21258
21223
21190
21155
21119
21086
21057
21033
21009
20984
20960
20941
20929
20928
20940
20968
21008
21060
21126
21209
21308
21423
21550
21686
21825
21962
22096
22226
22353
22474
22586
22686
22776
22855
22921
22972
23013
23043
23064
23077
23084
23081
23069
23053
23034
23015
22999
22983
22965
22949
22934
22918
22903
22892
22884
22880
22878
22878
22880
22884
22894
22906
22917
22925
22933
22944
22956
22966
22974
22977
22981
22984
22985
22981
22975
22969
22963
22953
22941
22932
22928
22925
22929
22935
22942
22948
22952
22953
22955
22958
22963
22971
22977
22977
22970
22957
22944
22934
22926
22922
22920
22920
22919
22913
22902
22889
22878
22865
22849
22829
22807
22784
22762
22743
22726
22707
22687
22668
22648
22625
22602
22573
22538
22499
22461
22424
22392
22366
22345
22324
22303
22283
22265
22248
22229
22207
22182
22158
22139
22127
22117
22111
22109
22104
22095
22082
22066
22049
22030
22010
21987
21962
21935
21907
21879
21850
21819
21791
21766
21744
21728
21718
21715
21716
21725
21746
21780
21831
21898
21980
22073
22177
22293
22418
22548
22684
22821
22957
23091
23220
23346
23468
23583
23688
23782
23865
23935
23993
24043
24082
24110
24130
24142
24148
24151
24153
24153
24155
24158
24163
24168
24179
24194
24212
24230
24245
24259
24276
24293
24304
24310
24314
24324
24338
24351
24360
24365
24366
24366
24367
24364
24353
24338
24327
24317
24306
24292
24277
24263
24250
24240
24233
24225
24219
24215
24214
24216
24218
24217
24217
24218
24219
24222
24225
24222
24216
24211
24204
24197
24193
24193
24191
24183
24166
24141
24114
24086
24057
24028
23999
23965
23928
23894
23863
23833
23799
23761
23722
23685
23645
23605
23564
23521
23477
23435
23396
23359
23327
23300
23271
23238
23205
23179
23155
23130
23104
23078
23053
23030
23007
22988
22974
22965
22962
22958
22951
22941
22932
22922
22913
22901
22885
22867
22852
22840
22828
22815
22804
22794
22781
22763
22739
22710
22681
22652
22620
22586
22553
22516
22473
22433
22398
22368
22345
22334
22338
22355
22386
22431
22493
22572
22665
22771
22887
23013
23150
23296
23450
23610
23774
23937
24094
24239
24368
24485
24591
24684
24759
24820
24869
24906
24932
24952
24966
24972
24973
24971
24969
24964
24959
24955
24950
24947
24950
24960
24971
24979
24988
24999
25012
25028
25046
25065
25085
25108
25132
25154
25170
25179
25185
25192
25196
25197
25194
25189
25183
25174
25161
25145
25125
25105
25089
25076
25067
25058
25051
25048
25047
25046
25042
25037
25031
25027
25027
25029
25027
25025
25024
25024
25023
25022
25021
25017
25014
25012
25010
25004
24988
24965
24939
24911
24884
24857
24829
24797
24762
24723
24678
24630
24583
24539
24499
24461
24427
24398
24372
24342
24312
24283
24252
24218
24185
24154
24119
24081
24044
24010
23975
23940
23907
23878
23850
23823
23798
23778
23761
23745
23725
23700
23667
23630
23594
23563
23537
23516
23495
23472
23446
23418
23390
23360
23329
23298
23266
23234
23204
23173
23145
23121
23095
23065
23034
22999
22960
22917
22870
22823
22778
22736
22699
22666
22634
22604
22582
22570
22569
22578
22603
22644
22701
22772
22852
22942
23046
23166
23297
23435
23578
23722
23868
24015
24161
24305
24444
24568
24677
24770
24848
24910
24955
24988
25015
25037
25052
25060
25065
25069
25070
25067
25061
25058
25058
25058
25057
25056
25053
25051
25052
25056
25063
25074
25084
25094
25107
25119
25126
25130
25132
25132
25130
25123
25111
25096
25078
25054
25024
24990
24954
24915
24874
24834
24797
24766
24738
24713
24691
24671
24653
24637
24626
24616
24607
24603
24602
24598
24588
24576
24563
24551
24543
24533
24518
24499
24475
24450
24420
24384
24343
24300
24257
24218
24184
24152
24119
24086
24051
24010
23966
23919
23869
23817
23765
23711
23656
23599
23538
23476
23417
23359
23296
23230
23166
23106
23050
22997
22946
22899
22856
22818
22782
22743
22703
22664
22627
22587
22549
22512
22472
22430
22388
22349
22311
22273
22233
22194
22156
22119
22081
22044
22012
21981
21951
21915
21874
21831
21789
21747
21703
21659
21615
21570
21525
21478
21430
21383
21339
21297
21253
21209
21164
21121
21082
21052
21032
21026
21034
21052
21081
21125
21186
21263
21357
21462
21580
21709
21842
21973
22101
22224
22341
22448
22544
22632
22716
22793
22859
22911
22949
22973
22984
22986
22981
22973
22962
22951
22940
22929
22913
22895
22875
22851
22824
22796
22771
22748
22732
22725
22725
22729
22737
22750
22769
22793
22811
22823
22829
22831
22826
22813
22795
22774
22749
22721
22696
22678
22662
22649
22638
22630
22620
22612
22610
22610
22611
22614
22619
22623
22625
22627
22631
22632
22627
22618
22610
22606
22603
22604
22608
22613
22615
22612
22604
22592
22577
22562
22549
22536
22516
22493
22470
22445
22418
22390
22364
22337
22309
22280
22253
22227
22203
22179
22155
22135
22119
22104
22086
22064
22039
22011
21982
21955
21932
21914
21897
21874
21848
21822
21797
21774
21757
21741
21725
21706
21687
21667
21646
21626
21606
21586
21563
21538
21514
21492
21469
21446
21424
21403
21383
21363
21342
21318
21291
21267
21246
21228
21212
21200
21192
21190
21195
21208
21233
21270
21320
21382
21460
21554
21662
21783
21917
22060
22210
22364
22516
22663
22804
22937
23060
23170
23269
23361
23445
23516
23573
23618
23651
23671
23680
23679
23670
23656
23639
23623
23610
23600
23596
23599
23606
23615
23626
23636
23645
23649
23651
23655
23663
23673
23683
23693
23700
23708
23718
23726
23731
23733
23735
23738
23740
23735
23723
23708
23693
23677
23661
23641
23621
23605
23596
23593
23593
23592
23597
23608
23620
23632
23644
23655
23666
23674
23676
23677
23678
23678
23678
23680
23682
23678
23669
23658
23646
23631
23617
23605
23591
23571
23546
23520
23493
23462
23426
23387
23345
23302
23257
23213
23176
23146
23119
23091
23063
23035
23008
22982
22953
22922
22891
22860
22831
22804
22779
22750
22721
22690
22657
22628
22605
22586
22568
22547
22524
22501
22481
22460
22437
22417
22399
22381
22362
22342
22320
22298
22274
22249
22223
22195
22163
22133
22104
22072
22036
21999
21965
21932
21901
21876
21851
21825
21800
21774
21748
21730
21722
21720
21726
21741
21770
21816
21878
21956
22046
22147
22261
22389
22528
22678
22836
22995
23152
23307
23459
23608
23747
23871
23981
24077
24157
24221
24275
24320
24357
24387
24409
24425
24435
24441
24444
24444
24442
24441
24441
24437
24431
24429
24434
24447
24461
24476
24494
24517
24545
24577
24609
24639
24668
24696
24719
24738
24751
24760
24765
24768
24767
24764
24756
24740
24719
24696
24674
24656
24641
24628
24617
24609
24604
24599
24596
24598
24601
24602
24604
24607
24612
24617
24623
24631
24640
24646
24646
24640
24633
24625
24614
24599
24583
24566
24548
24530
24507
24479
24450
24419
24386
24355
24327
24301
24278
24256
24234
24211
24189
24172
24158
24141
24117
24088
24054
24013
23968
23925
23885
23846
23810
23778
23749
23721
23698
23678
23658
23636
23615
23595
23575
23552
23527
23500
23469
23436
23400
23364
23331
23301
23271
23242
23215
23189
23161
23132
23103
23074
23043
23013
22983
22953
22923
22893
22863
22832
22802
22769
22733
22692
22650
22608
22564
22519
22475
22434
22393
22354
22319
22290
22271
22266
22280
22314
22368
22439
22523
22620
22729
22848
22978
23118
23266
23421
23576
23729
23879
24025
24166
24296
24410
24510
24594
24663
24720
24766
24801
24824
24841
24853
24857
24852
24842
24828
24813
24797
24777
24755
24735
24723
24718
24720
24724
24732
24744
24758
24771
24781
24790
24800
24812
24822
24825
24825
24823
24819
24815
24810
24800
24783
24760
24730
24693
24653
24616
24581
24543
24502
24468
24440
24416
24399
24386
24375
24366
24357
24346
24332
24316
24297
24277
24258
24239
24221
24206
24192
24178
24166
24152
24134
24114
24092
24066
24031
23991
23946
23897
23846
23794
23745
23699
23660
23624
23593
23563
23528
23486
23440
23394
23348
23302
23258
23216
23177
23141
23103
23060
23016
22974
22936
22900
22862
22824
22783
22741
22701
22663
22623
22582
22543
22505
22467
22429
22392
22358
22329
22297
22261
22225
22193
22164
22139
22119
22098
22074
22043
22005
21964
21921
21876
21830
21783
21734
21684
21633
21581
21532
21488
21448
21408
21372
21340
21311
21283
21258
21242
21239
21251
21276
21317
21375
21450
21539
21639
21746
21858
21975
22100
22232
22364
22492
22616
22735
22846
22946
23036
23117
23189
23251
23303
23340
23362
23370
23366
23352
23331
23309
23287
23260
23230
23201
23175
23151
23131
23116
23106
23099
23096
23098
23106
23118
23132
23150
23171
23193
23215
23235
23251
23265
23273
23274
23268
23252
23225
23191
23153
23119
23091
23071
23062
23061
23065
23073
23085
23101
23119
23134
23145
23154
23161
23169
23179
23190
23200
23207
23210
23212
23214
23216
23216
23215
23209
23202
23191
23175
23158
23141
23125
23106
23083
23061
23037
23013
22992
22970
22948
22930
22914
22895
22877
22856
22831
22798
22762
22728
22696
22660
22623
22587
22550
22515
22482
22453
22431
22417
22409
22403
22399
22398
22395
22388
22376
22360
22341
22318
22294
22272
22253
22233
22212
22190
22167
22146
22126
22108
22092
22080
22067
22052
22034
22015
21992
21964
21936
21914
21899
21894
21900
21916
21944
21989
22053
22135
22235
22349
22473
22608
22750
22893
23034
23179
23320
23440
23547
23658
23776
23895
24010
24107
24183
24246
24302
24350
24390
24418
24435
24446
24454
24454
24446
24438
24426
24406
24389
24387
24396
24413
24436
24463
24493
24526
24562
24599
24632
24659
24681
24697
24702
24699
24690
24680
24668
24650
24627
24603
24580
24559
24541
24526
24511
24497
24483
24469
24454
24443
24438
24437
24437
24441
24449
24460
24470
24483
24502
24522
24542
24557
24566
24573
24583
24590
24589
24581
24566
24545
24524
24500
24471
24437
24404
24370
24334
24300
24272
24248
24228
24212
24200
24190
24173
24150
24122
24089
24051
24012
23974
23934
23894
23857
23826
23800
23777
23755
23731
23706
23686
23669
23652
23633
23611
23588
23566
23540
23514
23489
23465
23439
23410
23383
23356
23328
23301
23274
23246
23220
23194
23162
23127
23097
23074
23051
23025
22998
22972
22949
22923
22896
22866
22835
22808
22785
22762
22739
22718
22699
22688
22691
22714
22757
22822
22906
23004
23112
23231
23362
23503
23655
23814
23973
24129
24277
24414
24542
24664
24780
24884
24970
25038
25092
25132
25155
25170
25182
25188
25187
25180
25172
25163
25154
25145
25137
25131
25128
25129
25136
25147
25163
25183
25206
25233
25263
25293
25326
25359
25387
25409
25429
25446
25461
25473
25482
25489
25491
25490
25489
25489
25494
25504
25518
25532
25548
25566
25584
25603
25622
25641
25656
25667
25676
25688
25705
25726
25746
25768
25794
25819
25842
25861
25875
25884
25893
25900
25900
25894
25886
25877
25870
25862
25854
25843
25829
25816
25804
25794
25782
25766
25745
25720
25690
25657
25622
25588
25552
25519
25488
25459
25428
25397
25367
25335
25297
25259
25223
25192
25162
25128
25087
25043
24998
24954
24912
24873
24837
24801
24765
24729
24694
24660
24625
24588
24550
24512
24471
24423
24367
24308
24250
24194
24141
24090
24040
23992
23944
23897
23852
23807
23763
23721
23680
23640
23598
23554
23507
23455
23400
23348
23309
23283
23267
23264
23276
23305
23354
23423
23511
23612
23722
23838
23959
24084
24210
24333
24450
24557
24653
24739
24813
24871
24917
24950
24970
24984
24993
24993
24981
24959
24929
24892
24849
24803
24759
24717
24680
24649
24625
24607
24591
24579
24573
24569
24570
24579
24592
24608
24621
24628
24627
24622
24615
24604
24582
24551
24514
24474
24433
24390
24345
24302
24261
24224
24191
24163
24135
24109
24084
24060
24035
24010
23989
23973
23960
23953
23950
23948
23943
23933
23919
23906
23892
23874
23852
23827
23802
23776
23747
23717
23685
23651
23612
23572
23536
23504
23474
23442
23411
23380
23348
23314
23279
23243
23209
23176
23142
23106
23063
23017
22971
22926
22882
22841
22804
22769
22735
22701
22670
22641
22611
22582
22556
22531
22508
22483
22457
22434
22414
22393
22374
22358
22346
22334
22319
22301
22280
22258
22233
22207
22180
22154
22127
22098
22068
22038
22006
21975
21951
21933
21921
21918
21921
21930
21948
21979
22022
22080
22151
22236
22330
22431
22538
22653
22771
22892
23015
23137
23254
23361
23458
23547
23624
23686
23739
23783
23816
23841
23857
23865
23866
23864
23862
23859
23854
23845
23837
23830
23828
23836
23851
23868
23888
23911
23934
23957
23983
24012
24041
24066
24085
24102
24116
24124
24125
24121
24115
24107
24102
24099
24089
24071
24052
24032
24007
23973
23935
23899
23863
23828
23797
23775
23761
23751
23740
23731
23725
23726
23730
23735
23739
23744
23749
23753
23759
23764
23769
23771
23767
23764
23762
23759
23749
23734
23714
23689
23658
23622
23584
23544
23507
23476
23448
23424
23401
23382
23364
23341
23313
23286
23259
23233
23208
23182
23157
23131
23103
23079
23059
23043
23026
23008
22989
22969
22948
22927
22909
22891
22871
22849
22825
22797
22765
22730
22695
22662
22632
22607
22582
22558
22532
22505
22479
22455
22433
22415
22399
22383
22363
22341
22317
22290
22263
22239
22220
22209
22208
22224
22260
22314
22382
22465
22560
22668
22786
22910
23038
23172
23308
23445
23574
23696
23815
23931
24039
24137
24224
24301
24366
24418
24458
24487
24505
24514
24518
24518
24515
24509
24505
24503
24498
24492
24487
24486
24489
24497
24509
24526
24550
24576
24600
24623
24644
24668
24695
24721
24742
24759
24774
24786
24794
24795
24790
24781
24770
24759
24744
24723
24698
24673
24648
24628
24614
24605
24598
24593
24593
24596
24604
24612
24615
24617
24622
24630
24640
24651
24660
24665
24667
24664
24657
24648
24639
24626
24609
24590
24573
24556
24532
24502
24475
24453
24431
24405
24372
24336
24298
24261
24228
24193
24153
24112
24072
24032
23990
23947
23907
23868
23829
23793
23761
23734
23711
23689
23664
23640
23616
23592
23568
23546
23524
23503
23481
23459
23438
23418
23399
23380
23361
23341
23322
23301
23274
23243
23210
23175
23139
23102
23067
23029
22989
22952
22919
22887
22853
22817
22783
22752
22725
22702
22684
22666
22646
22629
22614
22602
22593
22593
22604
22627
22663
22713
22777
22859
22962
23086
23227
23381
23544
23712
23880
24040
24191
24330
24453
24559
24653
24735
24807
24871
24924
24969
25008
25039
25058
25068
25071
25069
25066
25063
25060
25054
25046
25043
25049
25060
25075
25098
25124
25155
25190
25229
25266
25301
25334
25364
25388
25409
25428
25441
25447
25445
25438
25427
25416
25404
25390
25374
25360
25349
25340
25328
25310
25287
25265
25246
25227
25205
25183
25164
25149
25134
25122
25110
25097
25082
25067
25052
25037
25022
25006
24990
24972
24951
24925
24891
24854
24821
24793
24766
24736
24706
24674
24637
24598
24560
24523
24484
24441
24398
24353
24307
24257
24207
24154
24101
24050
24003
23960
23919
23879
23840
23799
23754
23707
23658
23611
23567
23529
23494
23460
23427
23397
23367
23336
23302
23267
23236
23205
23175
23148
23121
23092
23064
23040
23018
22997
22977
22959
22940
22917
22892
22864
22831
22792
22747
22701
22657
22620
22591
22565
22539
22512
22486
22457
22426
22397
22373
22359
22355
22363
22390
22433
22492
22564
22650
22751
22864
22984
23107
23233
23365
23500
23635
23766
23893
24010
24111
24195
24264
24319
24364
24401
24430
24451
24462
24461
24450
24431
24408
24381
24350
24320
24294
24268
24239
24209
24186
24169
24156
24147
24145
24147
24153
24161
24168
24173
24181
24191
24200
24203
24200
24191
24174
24151
24123
24095
24065
24034
24003
23974
23947
23924
23900
23876
23855
23834
23815
23800
23790
23784
23780
23773
23762
23747
23732
23714
23692
23673
23660
23653
23648
23647
23648
23649
23645
23634
23619
23604
23586
23564
23544
23528
23517
23509
23505
23503
23503
23505
23507
23507
23502
23493
23481
23468
23454
23441
23427
23413
23403
23398
23395
23389
23379
23364
23345
23322
23295
23264
23234
23208
23183
23160
23140
23122
23106
23091
23077
23060
23038
23009
22975
22938
22901
22866
22832
22799
22765
22729
22688
22641
22592
22548
22509
22476
22449
22430
22423
22429
22453
22494
22554
22632
22725
22829
22942
23065
23200
23345
23495
23648
23799
23943
24079
24207
24328
24439
24538
24625
24700
24763
24815
24855
24883
24905
24924
24940
24950
24954
24955
24956
24961
24967
24968
24961
24946
24932
24920
24911
24905
24900
24895
24891
24891
24895
24902
24909
24913
24910
24903
24895
24883
24868
24850
24831
24808
24782
24754
24726
24705
24691
24681
24675
24669
24660
24649
24638
24628
24618
24607
24594
24582
24570
24559
24554
24554
24558
24565
24572
24580
24587
24595
24606
24617
24624
24625
24622
24618
24608
24592
24573
24551
24526
24501
24475
24447
24415
24376
24331
24284
24239
24196
24152
24100
24044
23987
23935
23881
23825
23770
23716
23662
23615
23578
23551
23528
23504
23483
23470
23463
23457
23448
23432
23413
23390
23365
23336
23302
23261
23218
23177
23140
23105
23070
23036
23003
22969
22934
22900
22862
22819
22772
22723
22673
22621
22569
22519
22477
22448
22434
22434
22451
22487
22543
22621
22720
22837
22967
23109
23257
23408
23558
23704
23847
23988
24127
24260
24387
24506
24612
24707
24791
24864
24927
24979
25016
25040
25055
25062
25062
25055
25040
25022
25006
24994
24983
24974
24965
24960
24958
24961
24970
24981
24990
24998
25007
25015
25023
25034
25048
25064
25081
25092
25099
25102
25100
25091
25077
25058
25035
25008
24975
24940
24904
24870
24838
24809
24781
24759
24743
24734
24729
24726
24723
24717
24710
24702
24697
24694
24694
24699
24704
24704
24698
24685
24665
24642
24616
24588
24558
24530
24505
24482
24455
24426
24398
24374
24352
24329
24306
24281
24253
24221
24183
24136
24086
24034
23980
23927
23876
23826
23780
23738
23701
23667
23635
23606
23579
23551
23521
23490
23458
23428
23400
23372
23343
23313
23282
23246
23203
23158
23115
23079
23048
23018
22988
22958
22928
22894
22860
22828
22800
22772
22741
22710
22680
22655
22634
22617
22607
22607
22620
22650
22699
22767
22851
22945
23049
23164
23292
23431
23581
23742
23907
24069
24224
24373
24515
24648
24768
24873
24962
25040
25105
25155
25186
25197
25196
25186
25169
25144
25111
25074
25036
25003
24975
24948
24923
24901
24880
24863
24850
24841
24835
24831
24827
24822
24819
24817
24811
24804
24794
24780
24760
24734
24702
24666
24628
24590
24552
24515
24477
24437
24395
24354
24317
24289
24271
24259
24249
24242
24238
24238
24241
24242
24238
24230
24218
24203
24184
24159
24132
24101
24066
24028
23990
23955
23922
23889
23858
23828
23797
23763
23725
23684
23639
23594
23547
23494
23437
23381
23327
23272
23215
23155
23097
23043
22985
22923
22858
22792
22729
22670
22612
22554
22497
22444
22393
22343
22292
22245
22203
22164
22128
22095
22061
22027
21994
21961
21924
21885
21847
21807
21772
21744
21719
21696
21674
21656
21643
21645
21664
21694
