50442
50326
50215
50115
50033
49967
49917
49882
49855
49828
49806
49800
49812
49827
49834
49845
49858
49865
49863
49859
49847
49822
49790
49764
49745
49722
49705
49705
49719
49739
49767
49806
49848
49890
49940
50004
50065
50112
50153
50195
50225
50234
50236
50234
50222
50202
50181
50158
50127
50086
50037
49980
49913
49839
49762
49685
49602
49508
49411
49315
49216
49121
49035
48953
48868
48781
48704
48637
48569
48499
48434
48373
48312
48252
48197
48139
48079
48031
47999
47968
47928
47890
47862
47838
47810
47781
47757
47731
47696
47665
47643
47622
47602
47581
47557
47526
47493
47469
47455
47438
47415
47390
47368
47343
47312
47285
47259
47231
47206
47190
47178
47162
47147
47129
47101
47067
47042
47033
47034
47027
47009
46989
46971
46949
46928
46911
46893
46874
46860
46846
46826
46805
46794
46793
46790
46778
46757
46732
46701
46667
46634
46606
46576
46548
46529
46516
46508
46519
46560
46626
46722
46872
47105
47425
47821
48287
48811
49363
49907
50425
50899
51311
51654
51941
52178
52364
52494
52579
52631
52652
52636
52591
52530
52453
52364
52271
52175
52067
51956
51859
51778
51700
51621
51555
51507
51467
51434
51413
51407
51406
51410
51422
51436
51448
51465
51485
51493
51484
51468
51453
51431
51387
51327
51270
51218
51162
51104
51055
51015
50981
50958
50948
50945
50947
50957
50974
50991
51008
51033
51061
51083
51099
51119
51143
51156
51154
51149
51142
51122
51090
51051
51000
50934
50856
50778
50696
50605
50510
50422
50334
50231
50120
50019
49925
49828
49727
49633
49548
49465
49384
49305
49220
49126
49033
48949
48868
48787
48711
48645
48583
48517
48460
48417
48376
48338
48305
48271
48231
48192
48159
48131
48102
48075
48054
48035
48009
47982
47962
47945
47917
47879
47845
47814
47781
47747
47720
47698
47670
47638
47616
47597
47572
47546
47525
47504
47477
47451
47434
47414
47381
47341
47301
47255
47204
47155
47113
47074
47032
46999
46975
46948
46914
46882
46859
46839
46820
46807
46797
46783
46766
46752
46736
46716
46698
46691
46693
46693
46687
46677
46660
46637
46618
46607
46597
46582
46562
46549
46541
46526
46508
46493
46477
46455
46437
46423
46405
46381
46363
46353
46345
46338
46335
46332
46326
46326
46355
46427
46543
46713
46962
47298
47714
48201
48742
49300
49849
50370
50847
51260
51595
51857
52061
52210
52303
52350
52360
52333
52276
52204
52123
52025
51911
51797
51691
51579
51449
51316
51195
51083
50979
50891
50824
50774
50739
50718
50713
50714
50720
50738
50766
50790
50811
50836
50857
50863
50856
50844
50827
50798
50763
50733
50705
50672
50641
50623
50614
50604
50595
50598
50617
50639
50664
50696
50726
50748
50769
50793
50808
50810
50810
50813
50806
50781
50749
50716
50674
50618
50550
50471
50385
50298
50213
50127
50023
49901
49776
49652
49525
49401
49279
49152
49023
48905
48798
48694
48587
48490
48411
48342
48269
48191
48117
48047
47977
47914
47859
47807
47760
47725
47695
47656
47605
47556
47518
47483
47451
47423
47401
47375
47343
47316
47297
47272
47242
47218
47204
47189
47175
47166
47157
47147
47139
47136
47134
47124
47110
47104
47101
47087
47067
47047
47022
46994
46971
46958
46940
46915
46898
46888
46871
46842
46814
46794
46778
46760
46744
46731
46715
46695
46679
46664
46641
46616
46601
46590
46576
46561
46558
46564
46565
46560
46560
46559
46550
46539
46534
46529
46518
46506
46497
46483
46465
46453
46457
46468
46475
46477
46481
46483
46476
46465
46462
46461
46453
46442
46433
46420
46399
46380
46367
46353
46338
46330
46333
46338
46345
46364
46403
46474
46598
46794
47069
47419
47838
48313
48821
49327
49812
50267
50682
51034
51317
51537
51688
51776
51820
51826
51795
51728
51640
51540
51422
51281
51129
50990
50859
50722
50586
50457
50333
50218
50120
50038
49963
49893
49839
49804
49778
49761
49760
49772
49780
49783
49792
49799
49792
49770
49742
49708
49666
49621
49574
49526
49478
49439
49420
49417
49414
49415
49430
49454
49483
49523
49575
49630
49685
49742
49801
49849
49879
49903
49924
49931
49917
49891
49858
49815
49759
49700
49640
49572
49501
49430
49356
49277
49198
49125
49057
48982
48901
48829
48765
48691
48606
48530
48463
48392
48320
48251
48185
48123
48074
48037
48001
47959
47917
47882
47843
47797
47754
47720
47686
47649
47617
47597
47574
47546
47519
47495
47466
47439
47423
47414
47398
47378
47358
47341
47319
47291
47270
47260
47251
47242
47237
47231
47217
47199
47182
47160
47132
47111
47098
47081
47053
47027
47012
46999
46977
46950
46932
46919
46905
46891
46879
46871
46868
46870
46870
46861
46844
46826
46807
46781
46752
46735
46727
46713
46692
46677
46669
46659
46646
46639
46630
46612
46592
46582
46581
46580
46579
46582
46583
46583
46600
46654
46745
46874
47062
47331
47679
48089
48554
49061
49582
50087
50561
50993
51366
51670
51913
52104
52236
52305
52322
52303
52254
52184
52098
51991
51866
51733
51602
51474
51341
51201
51064
50936
50812
50698
50602
50521
50446
50386
50345
50312
50279
50253
50243
50242
50231
50206
50175
50137
50087
50031
49972
49907
49838
49776
49725
49681
49646
49632
49642
49662
49681
49708
49745
49789
49838
49888
49929
49958
49980
50011
50046
50072
50087
50098
50104
50104
50094
50073
50035
49981
49922
49867
49805
49727
49637
49552
49471
49386
49292
49200
49108
49012
48912
48814
48715
48618
48534
48464
48395
48320
48252
48193
48137
48078
48027
47987
47945
47898
47859
47820
47768
47710
47664
47630
47592
47550
47514
47485
47458
47438
47427
47415
47395
47374
47357
47342
47321
47297
47277
47261
47250
47241
47230
47210
47180
47150
47123
47091
47054
47026
47016
47009
46990
46968
46949
46928
46908
46896
46888
46872
46852
46838
46830
46818
46805
46797
46791
46778
46762
46748
46734
46716
46698
46688
46678
46661
46642
46628
46614
46593
46569
46547
46523
46496
46481
46479
46476
46466
46454
46449
46448
46447
46445
46440
46430
46417
46406
46398
46384
46364
46349
46336
46322
46309
46309
46316
46318
46319
46332
46350
46360
46362
46364
46366
46373
46397
46442
46512
46622
46796
47049
47376
47761
48190
48648
49118
49580
50025
50444
50810
51107
51341
51517
51637
51706
51735
51734
51703
51641
51560
51469
51363
51243
51118
50995
50871
50742
50616
50495
50376
50263
50163
50079
50007
49952
49918
49909
49911
49923
49953
49993
50028
50049
50057
50051
50029
49999
49965
49919
49865
49816
49776
49739
49700
49668
49647
49631
49617
49610
49614
49622
49632
49645
49655
49655
49650
49649
49652
49646
49630
49614
49598
49569
49530
49494
49461
49419
49368
49313
49253
49185
49110
49033
48950
48863
48782
48709
48639
48563
48481
48406
48339
48272
48209
48157
48112
48065
48019
47977
47935
47891
47857
47834
47807
47772
47742
47722
47698
47668
47642
47627
47607
47578
47551
47527
47500
47474
47451
47427
47403
47385
47375
47366
47354
47344
47339
47329
47311
47295
47289
47282
47260
47229
47205
47186
47167
47151
47143
47137
47133
47135
47134
47118
47093
47074
47062
47044
47020
47004
47000
46995
46988
46980
46966
46943
46918
46899
46885
46873
46865
46861
46860
46858
46863
46875
46880
46870
46855
46845
46842
46841
46843
46845
46841
46832
46828
46828
46823
46810
46801
46798
46788
46766
46744
46733
46727
46722
46722
46728
46733
46732
46732
46731
46723
46713
46709
46709
46701
46687
46680
46677
46665
46644
46626
46614
46602
46596
46601
46611
46626
46660
46721
46806
46922
47090
47323
47616
47957
48332
48736
49153
49561
49947
50305
50622
50892
51113
51283
51396
51448
51453
51423
51356
51262
51152
51028
50885
50726
50567
50415
50271
50138
50017
49899
49783
49676
49586
49510
49438
49368
49311
49270
49239
49215
49198
49183
49167
49155
49145
49123
49084
49042
49008
48974
48935
48899
48869
48843
48822
48813
48816
48826
48841
48867
48904
48947
48996
49055
49118
49174
49225
49280
49336
49380
49414
49443
49466
49474
49466
49452
49428
49389
49341
49292
49234
49165
49095
49037
48988
48930
48866
48808
48752
48692
48632
48578
48522
48461
48403
48350
48299
48251
48207
48160
48106
48057
48021
47990
47956
47922
47894
47870
47841
47807
47781
47765
47744
47712
47686
47670
47650
47626
47611
47604
47596
47589
47584
47573
47560
47553
47554
47552
47545
47538
47533
47521
47502
47487
47483
47478
47467
47457
47452
47439
47418
47399
47386
47375
47364
47359
47358
47352
47343
47336
47322
47299
47280
47272
47267
47260
47250
47242
47231
47213
47192
47178
47168
47158
47155
47160
47163
47157
47150
47146
47141
47131
47122
47118
47114
47105
47096
47093
47086
47067
47053
47054
47055
47051
47044
47038
47029
47018
47012
47011
47007
47000
47010
47040
47085
47155
47276
47454
47679
47954
48291
48680
49093
49516
49947
50369
50755
51096
51392
51636
51818
51940
52011
52034
52016
51971
51910
51829
51724
51612
51504
51390
51260
51122
50991
50863
50736
50617
50514
50420
50329
50246
50169
50094
50030
49985
49954
49929
49911
49904
49903
49888
49860
49829
49797
49751
49691
49635
49592
49555
49526
49507
49496
49487
49487
49495
49509
49526
49554
49596
49636
49667
49694
49723
49749
49770
49791
49812
49824
49822
49810
49789
49755
49715
49674
49625
49564
49497
49433
49366
49285
49198
49119
49043
48956
48860
48775
48703
48630
48553
48480
48412
48349
48295
48251
48213
48174
48137
48104
48065
48021
47985
47960
47929
47890
47855
47829
47801
47769
47744
47728
47716
47707
47707
47710
47707
47704
47708
47711
47701
47682
47667
47655
47640
47623
47612
47603
47585
47568
47558
47547
47525
47501
47482
47463
47435
47408
47395
47392
47390
47385
47380
47376
47370
47366
47364
47360
47358
47360
47360
47353
47345
47344
47344
47338
47330
47325
47324
47322
47317
47312
47306
47295
47283
47276
47267
47253
47236
47222
47209
47189
47162
47140
47130
47123
47113
47104
47099
47099
47104
47105
47100
47096
47094
47091
47081
47061
47041
47029
47018
47001
46982
46968
46956
46951
46954
46960
46963
46964
46965
46961
46950
46940
46939
46948
46965
46997
47063
47172
47328
47546
47832
48176
48553
48950
49362
49778
50173
50532
50849
51115
51326
51481
51589
51654
51678
51672
51642
51581
51486
51367
51235
51089
50930
50766
50607
50453
50308
50182
50075
49975
49878
49796
49731
49672
49617
49574
49541
49509
49483
49469
49457
49435
49406
49381
49359
49329
49296
49272
49252
49232
49213
49194
49171
49144
49118
49101
49092
49089
49100
49124
49148
49167
49188
49210
49229
49243
49256
49264
49264
49253
49239
49222
49198
49168
49136
49094
49038
48978
48925
48877
48823
48762
48700
48639
48572
48508
48454
48402
48341
48281
48230
48182
48135
48093
48057
48015
47967
47924
47896
47874
47844
47812
47788
47767
47743
47719
47700
47679
47658
47644
47635
47627
47621
47616
47608
47593
47575
47563
47554
47536
47511
47492
47480
47467
47454
47446
47432
47414
47403
47398
47391
47383
47380
47381
47379
47371
47364
47362
47357
47348
47338
47329
47318
47308
47306
47307
47301
47285
47272
47261
47252
47250
47257
47267
47273
47276
47279
47287
47294
47298
47300
47293
47277
47260
47250
47243
47236
47232
47229
47219
47200
47179
47163
47149
47131
47115
47109
47107
47104
47105
47106
47101
47098
47102
47112
47118
47119
47122
47126
47123
47116
47111
47111
47106
47097
47090
47078
47062
47048
47041
47035
47025
47018
47017
47015
47006
46994
46981
46967
46947
46928
46918
46917
46921
46935
46966
47013
47075
47167
47304
47485
47709
47980
48299
48653
49018
49383
49744
50087
50395
50668
50903
51090
51222
51306
51346
51336
51283
51206
51111
50990
50848
50701
50559
50409
50252
50099
49949
49802
49664
49538
49421
49312
49216
49137
49076
49028
48989
48964
48948
48928
48902
48881
48865
48847
48827
48806
48779
48745
48717
48702
48689
48676
48673
48681
48691
48703
48723
48751
48779
48802
48824
48842
48856
48872
48897
48930
48950
48954
48960
48970
48971
48966
48958
48937
48900
48854
48801
48741
48681
48624
48571
48516
48455
48392
48335
48284
48237
48194
48157
48117
48073
48036
48010
47982
47944
47905
47875
47846
47814
47782
47752
47721
47694
47675
47655
47625
47591
47565
47548
47527
47507
47506
47520
47529
47528
47523
47512
47499
47491
47485
47476
47457
47432
47411
47391
47364
47336
47317
47310
47305
47299
47294
47288
47277
47269
47263
47251
47232
47216
47206
47193
47178
47167
47158
47145
47132
47127
47131
47140
47153
47165
47173
47168
47154
47144
47139
47131
47128
47136
47145
47146
47147
47156
47165
47161
47149
47137
47124
47109
47095
47087
47082
47079
47082
47088
47088
47080
47077
47078
47074
47062
47049
47039
47028
47018
47013
47013
47012
47016
47035
47072
47129
47211
47335
47499
47693
47923
48197
48505
48829
49161
49497
49823
50121
50377
50590
50762
50886
50966
51009
51011
50975
50914
50838
50743
50630
50505
50379
50250
50115
49980
49851
49726
49601
49484
49371
49260
49157
49075
49018
48972
48932
48904
48887
48869
48849
48835
48824
48806
48779
48750
48716
48678
48647
48629
48614
48596
48577
48569
48568
48565
48566
48574
48585
48591
48597
48610
48627
48644
48664
48688
48708
48724
48733
48732
48721
48702
48681
48659
48630
48594
48556
48518
48471
48420
48373
48325
48266
48205
48154
48107
48059
48015
47984
47958
47926
47894
47868
47838
47801
47771
47747
47718
47687
47665
47660
47663
47657
47645
47634
47621
47603
47590
47583
47572
47553
47532
47512
47494
47481
47476
47478
47474
47461
47449
47437
47421
47407
47407
47412
47411
47408
47412
47414
47409
47401
47398
47400
47397
47392
47392
47394
47389
47387
47390
47384
47372
47366
47363
47354
47341
47333
47333
47333
47327
47325
47331
47336
47340
47348
47354
47351
47341
47332
47324
47312
47296
47285
47282
47278
47275
47277
47281
47278
47270
47270
47278
47280
47274
47269
47267
47259
47249
47247
47244
47234
47226
47224
47220
47207
47196
47194
47194
47183
47170
47165
47162
47162
47166
47165
47160
47156
47155
47154
47148
47145
47161
47209
47285
47397
47555
47759
48004
48293
48619
48963
49302
49625
49931
50208
50441
50634
50794
50911
50977
51006
51008
50980
50921
50838
50742
50635
50509
50372
50234
50093
49946
49803
49671
49552
49442
49345
49261
49183
49108
49047
49004
48968
48936
48911
48894
48879
48868
48859
48848
48828
48803
48782
48769
48750
48729
48713
48696
48673
48656
48652
48653
48651
48652
48664
48686
48708
48731
48752
48762
48761
48761
48766
48768
48756
48747
48749
48752
48746
48738
48728
48709
48686
48667
48652
48634
48609
48588
48572
48550
48527
48506
48480
48442
48398
48361
48332
48295
48254
48219
48186
48153
48129
48115
48102
48084
48065
48055
48049
48038
48022
48009
47997
47984
47975
47980
47987
47985
47983
47988
47991
47986
47980
47977
47974
47971
47967
47961
47949
47939
47936
47933
47922
47909
47906
47911
47909
47900
47893
47889
47878
47871
47876
47884
47887
47895
47910
47918
47916
47909
47905
47906
47900
47891
47891
47894
47888
47876
47868
47867
47871
47878
47882
47881
47876
47875
47880
47885
47887
47893
47904
47907
47904
47902
47901
47898
47898
47907
47915
47917
47917
47919
47919
47914
47910
47917
47930
47931
47923
47919
47920
47920
47921
47927
47932
47933
47940
47953
47962
47964
47971
47986
48001
48010
48022
48050
48092
48149
48230
48341
48479
48645
48846
49076
49327
49590
49858
50118
50353
50556
50735
50890
51008
51086
51134
51151
51125
51062
50974
50863
50738
50612
50490
50368
50245
50131
50029
49933
49835
49741
49658
49588
49526
49475
49434
49398
49361
49330
49307
49287
49272
49268
49271
49268
49262
49258
49252
49240
49226
49224
49229
49232
49237
49256
49286
49314
49342
49374
49407
49435
49463
49488
49501
49498
49496
49502
49508
49504
49497
49494
49487
49474
49458
49444
49423
49392
49365
49341
49310
49267
49223
49183
49144
49107
49075
49049
49021
48990
48963
48946
48932
48917
48909
48904
48892
48872
48854
48834
48805
48777
48760
48754
48745
48728
48713
48704
48697
48694
48694
48688
48675
48664
48661
48660
48651
48637
48628
48621
48612
48605
48602
48599
48589
48577
48567
48557
48549
48549
48555
48561
48565
48569
48570
48569
48574
48586
48592
48585
48568
48553
48537
48519
48503
48492
48487
48481
48476
48476
48473
48466
48462
48463
48462
48461
48464
48468
48471
48476
48481
48482
48477
48472
48470
48463
48450
48442
48441
48442
48438
48431
48429
48431
48439
48463
48507
48571
48658
48780
48945
49146
49379
49642
49931
50233
50533
50816
51075
51297
51486
51645
51774
51860
51904
51914
51900
51859
51787
51696
51592
51478
51363
51253
51145
51034
50925
50825
50736
50647
50554
50469
50395
50325
50262
50216
50184
50157
50140
50134
50127
50109
50080
50049
50017
49983
49951
49920
49888
49856
49830
49810
49791
49780
49781
49792
49801
49806
49816
49828
49836
49841
49849
49862
49871
49871
49872
49877
49877
49874
49868
49855
49833
49803
49774
49748
49715
49671
49624
49574
49524
49484
49452
49419
49387
49362
49342
49322
49303
49289
49272
49249
49221
49196
49172
49143
49115
49098
49087
49072
49055
49042
49028
49009
48988
48969
48954
48938
48924
48913
48904
48893
48881
48872
48868
48863
48859
48859
48859
48853
48844
48836
48827
48815
48803
48794
48785
48773
48757
48746
48744
48747
48748
48748
48744
48739
48738
48737
48731
48722
48713
48710
48713
48719
48727
48738
48742
48739
48732
48717
48700
48687
48679
48674
48673
48675
48675
48665
48648
48637
48632
48622
48609
48601
48597
48590
48582
48581
48589
48594
48598
48606
48613
48612
48603
48592
48576
48548
48518
48503
48504
48513
48520
48530
48543
48554
48569
48584
48596
48614
48651
48722
48832
48974
49147
49363
49619
49901
50200
50506
50804
51080
51333
51562
51758
51910
52022
52098
52138
52136
52100
52041
51958
51853
51738
51616
51480
51339
51208
51088
50976
50874
50787
50711
50636
50555
50480
50417
50363
50316
50281
50254
50227
50205
50193
50188
50176
50161
50156
50159
50158
50150
50140
50133
50128
50124
50119
50110
50103
50110
50121
50127
50133
50139
50145
50151
50145
50129
50118
50110
50097
50079
50062
50044
50029
50021
50016
50006
49984
49957
49931
49900
49858
49812
49772
49732
49689
49650
49619
49590
49565
49543
49520
49490
49452
49416
49385
49358
49337
49322
49302
49278
49259
49245
49227
49205
49185
49170
49161
49155
49150
49143
49133
49130
49137
49147
49146
49141
49137
49132
49120
49101
49084
49072
49059
49042
49028
49015
49000
48987
48980
48977
48972
48969
48972
48976
48980
48985
48995
49004
49011
49021
49033
49035
49032
49034
49041
49049
49051
49043
49032
49024
49019
49015
49010
49001
48990
48985
48984
48978
48971
48969
48970
48972
48974
48979
48987
48992
48995
48996
48994
48986
48981
48985
48992
48994
48997
49001
49001
48995
48987
48981
48975
48970
48970
48972
48970
48964
48959
48956
48952
48947
48951
48962
48975
48987
49002
49020
49043
49070
49105
49151
49216
49309
49437
49596
49781
49997
50241
50504
50763
51008
51239
51449
51627
51771
51884
51965
52008
52015
51991
51938
51864
51780
51693
51599
51495
51387
51285
51191
51102
51018
50938
50859
50786
50723
50666
50613
50569
50540
50522
50509
50493
50479
50469
50463
50462
50463
50460
50446
50422
50399
50375
50351
50331
50323
50325
50330
50340
50352
50359
50360
50365
50373
50378
50376
50372
50372
50372
50367
50360
50353
50344
50333
50328
50326
50314
50294
50275
50263
50250
50229
50203
50179
50158
50138
50120
50101
50070
50034
50005
49982
49956
49932
49912
49894
49878
49869
49861
49848
49832
49819
49810
49802
49790
49774
49764
49760
49761
49767
49776
49780
49780
49778
49779
49778
49772
49765
49759
49752
49745
49739
49733
49728
49727
49732
49739
49739
49730
49718
49709
49707
49712
49721
49723
49716
49708
49705
49705
49703
49704
49707
49709
49708
49708
49710
49708
49707
49712
49715
49713
49704
49691
49680
49670
49661
49652
49644
49635
49622
49607
49594
49585
49584
49593
49606
49612
49617
49625
49629
49626
49618
49614
49612
49604
49589
49576
49568
49564
49564
49570
49579
49590
49614
49659
49722
49807
49922
50075
50261
50473
50710
50967
51225
51473
51708
51925
52111
52263
52384
52467
52510
52524
52516
52484
52423
52339
52245
52142
52024
51899
51776
51659
51548
51449
51362
51281
51203
51135
51081
51036
50990
50948
50914
50884
50855
50827
50804
50784
50763
50743
50723
50698
50666
50635
50612
50591
50575
50568
50570
50572
50572
50579
50591
50601
50611
50622
50636
50650
50664
50681
50694
50702
50707
50713
50711
50703
50700
50701
50692
50671
50647
50630
50616
50599
50581
50561
50532
50497
50465
50440
50414
50384
50356
50329
50295
50257
50225
50204
50189
50174
50156
50133
50110
50093
50084
50077
50071
50068
50068
50064
50056
50054
50060
50068
50071
50068
50065
50062
50054
50041
50026
50012
49999
49990
49984
49977
49966
49953
49947
49948
49949
49950
49952
49951
49946
49947
49957
49966
49972
49977
49981
49980
49974
49969
49969
49976
49988
50000
50007
50007
50005
50004
49999
49988
49978
49970
49961
49949
49936
49925
49917
49906
49894
49882
49867
49848
49831
49820
49816
49815
49817
49822
49829
49831
49831
49840
49847
49848
49851
49855
49853
49846
49842
49835
49816
49795
49788
49801
49827
49857
49895
49958
50057
50196
50371
50577
50810
51070
51350
51635
51908
52161
52394
52601
52775
52913
53015
53080
53109
53109
53084
53027
52938
52833
52720
52594
52457
52317
52184
52061
51946
51840
51744
51656
51574
51501
51435
51376
51329
51296
51267
51238
51216
51207
51205
51199
51187
51174
51163
51154
51145
51139
51134
51130
51129
51134
51146
51157
51164
51172
51181
51193
51209
51229
51249
51270
51296
51322
51341
51353
51361
51369
51371
51359
51338
51317
51300
51283
51261
51238
51212
51184
51160
51133
51101
51071
51049
51031
51009
50984
50961
50940
50921
50903
50886
50869
50847
50826
50806
50786
50765
50746
50727
50709
50690
50672
50660
50653
50642
50627
50610
50592
50577
50565
50556
50546
50534
50519
50505
50495
50489
50489
50492
50488
50480
50473
50469
50466
50460
50453
50449
50443
50435
50428
50422
50412
50403
50394
50381
50366
50354
50348
50346
50341
50334
50326
50316
50302
50288
50278
50267
50254
50247
50247
50249
50248
50247
50246
50244
50239
50233
50230
50232
50241
50253
50261
50258
50247
50238
50233
50226
50213
50197
50179
50165
50158
50159
50157
50150
50144
50143
50140
50132
50121
50114
50114
50113
50112
50114
50119
50132
50160
50204
50262
50343
50461
50630
50853
51122
51424
51748
52076
52392
52688
52961
53199
53396
53557
53686
53772
53810
53813
53793
53745
53665
53558
53431
53290
53140
52993
52853
52715
52583
52462
52350
52243
52146
52067
52003
51938
51875
51828
51793
51762
51736
51717
51698
51672
51641
51612
51582
51551
51521
51495
51473
51452
51434
51425
51426
51434
51446
51456
51463
51469
51476
51483
51487
51489
51493
51503
51518
51531
51544
51554
51557
51556
51552
51537
51506
51470
51437
51403
51365
51329
51303
51281
51253
51216
51179
51141
51104
51072
51046
51018
50995
50983
50974
50962
50948
50937
50928
50915
50895
50873
50855
50837
50817
50801
50787
50773
50763
50757
50750
50741
50734
50729
50722
50714
50705
50697
50686
50672
50664
50659
50651
50641
50633
50624
50605
50584
50573
50571
50575
50581
50587
50590
50591
50592
50597
50596
50587
50581
50588
50597
50599
50593
50583
50570
50556
50545
50540
50536
50527
50518
50505
50484
50455
50431
50414
50402
50394
50393
50394
50394
50390
50381
50368
50353
50335
50321
50316
50316
50314
50310
50308
50317
50350
50413
50508
50635
50804
51021
51281
51568
51873
52195
52527
52851
53154
53435
53685
53894
54058
54179
54255
54289
54294
54276
54228
54149
54049
53939
53817
53685
53552
53423
53295
53169
53047
52928
52811
52705
52618
52539
52460
52389
52334
52292
52254
52212
52169
52128
52087
52043
51998
51956
51915
51881
51856
51836
51816
51806
51805
51805
51801
51805
51823
51846
51865
51883
51905
51927
51949
51976
52003
52023
52036
52047
52056
52053
52046
52040
52034
52021
51997
51962
51919
51871
51817
51756
51690
51617
51545
51483
51427
51369
51317
51273
51235
51197
51158
51126
51098
51070
51041
51014
50989
50965
50943
50922
50896
50865
50842
50827
50811
50790
50769
50754
50747
50740
50731
50727
50730
50732
50732
50725
50702
50674
50656
50649
50640
50626
50613
50604
50594
50583
50572
50564
50555
50541
50527
50515
50503
50492
50486
50480
50469
50457
50451
50450
50450
50449
50448
50441
50428
50419
50418
50419
50417
50422
50436
50447
50447
50439
50422
50400
50375
50352
50331
50308
50287
50277
50273
50268
50261
50262
50274
50295
50333
50397
50496
50635
50828
51082
51386
51730
52107
52509
52915
53305
53671
54007
54307
54559
54761
54916
55022
55086
55119
55126
55106
55062
55001
54926
54844
54753
54656
54562
54473
54385
54301
54221
54134
54052
53989
53942
53894
53846
53808
53780
53752
53717
53678
53639
53597
53552
53500
53436
53359
53273
53186
53104
53020
52938
52870
52818
52776
52741
52719
52710
52705
52703
52706
52713
52721
52737
52766
52795
52812
52824
52837
52848
52845
52830
52817
52801
52774
52735
52686
52626
52553
52476
52401
52322
52234
52148
52072
52000
51926
51853
51784
51716
51652
51595
51538
51479
51429
51389
51355
51319
51284
51257
51237
51213
51191
51181
51173
51160
51151
51147
51142
51132
51125
51125
51123
51115
51104
51096
51087
51072
51054
51038
51023
51008
50994
50973
50944
50921
50912
50909
50900
50889
50884
50882
50878
50872
50866
50855
50840
50828
50822
50815
50804
50792
50780
50761
50732
50696
50666
50641
50618
50600
50584
50567
50548
50532
50523
50515
50505
50501
50505
50509
50508
50505
50504
50500
50494
50487
50479
50469
50466
50472
50478
50478
50474
50474
50478
50481
50485
50491
50493
50486
50480
50480
50484
50493
50511
50539
50578
50637
50730
50876
51083
51353
51691
52086
52515
52968
53436
53899
54334
54722
55060
55346
55577
55752
55870
55935
55948
55912
55845
55758
55652
55528
55401
55272
55138
55000
54868
54750
54637
54525
54424
54334
54248
54168
54107
54063
54025
53991
53966
53945
53917
53882
53849
53813
53764
53703
53634
53555
53465
53377
53294
53208
53119
53037
52972
52918
52866
52821
52786
52759
52741
52729
52717
52701
52680
52666
52657
52647
52635
52629
52628
52623
52615
52609
52604
52590
52571
52553
52534
52503
52464
52432
52405
52372
52333
52299
52268
52231
52189
52151
52114
52069
52020
51972
51922
51871
51828
51797
51766
51730
51696
51670
51646
51621
51603
51585
51561
51538
51521
51507
51488
51466
51448
51435
51418
51397
51383
51373
51359
51344
51329
51306
51277
51250
51231
51211
51183
51154
51131
51117
51099
51074
51052
51034
51015
50993
50976
50956
50934
50919
50914
50907
50899
50899
50907
50911
50910
50914
50929
50945
50954
50961
50966
50966
50969
50978
50987
50996
51006
51018
51031
51041
51043
51042
51040
51028
51009
50991
50972
50950
50931
50921
50911
50897
50882
50870
50855
50838
50832
50837
50840
50837
50833
50834
50837
50840
50850
50870
50899
50945
51032
51169
51342
51546
51797
52094
52419
52764
53124
53475
53791
54064
54296
54478
54605
54684
54722
54719
54678
54609
54522
54416
54283
54126
53963
53796
53633
53482
53336
53188
53045
52926
52837
52758
52677
52606
52550
52502
52463
52435
52415
52398
52386
52380
52380
52379
52373
52375
52385
52395
52403
52420
52443
52455
52460
52471
52484
52490
52498
52513
52528
52537
52545
52555
52560
52555
52546
52542
52543
52538
52532
52530
52530
52532
52538
52542
52543
52545
52557
52575
52583
52581
52580
52582
52578
52571
52572
52583
52597
52613
52632
52650
52663
52675
52693
52717
52737
52752
52774
52802
52825
52845
52864
52878
52881
52885
52895
52900
52900
52906
52923
52944
52960
52981
53009
53033
53050
53068
53092
53116
53136
53153
53168
53179
53193
53214
53237
53251
53260
53278
53301
53319
53339
53361
53379
53393
53407
53425
53439
53440
53434
53436
53446
53453
53461
53476
53495
53516
53542
53575
53602
53619
53638
53661
53682
53701
53724
53749
53773
53795
53815
53826
53830
53836
53848
53866
53891
53934
54003
54102
54236
54405
54605
54831
55078
55344
55616
55871
56098
56299
56481
56633
56739
56801
56833
56834
56803
56750
56679
56585
56472
56353
56227
56091
55948
55809
55673
55539
55407
55285
55183
55090
55002
54928
54867
54816
54780
54760
54747
54735
54728
54725
54719
54708
54695
54686
54680
54674
54672
54673
54668
54657
54648
54646
54643
54637
54640
54653
54667
54676
54686
54701
54715
54722
54729
54731
54724
54710
54704
54703
54699
54697
54702
54708
54708
54704
54698
54684
54662
54641
54620
54591
54555
54521
54493
54464
54430
54397
54372
54350
54327
54306
54293
54290
54293
54302
54310
54307
54298
54296
54308
54324
54335
54341
54344
54341
54340
54346
54355
54361
54366
54369
54371
54372
54374
54380
54390
54402
54412
54421
54428
54432
54436
54438
54434
54427
54423
54419
54413
54411
54417
54426
54432
54437
54443
54450
54456
54458
54460
54463
54463
54461
54459
54454
54443
54431
54424
54416
54408
54403
54395
54386
54377
54371
54368
54365
54358
54353
54357
54374
54407
54462
54554
54691
54879
55120
55413
55746
56109
56490
56878
57255
57609
57930
58202
58414
58569
58671
58722
58724
58682
58599
58481
58337
58175
58000
57811
57615
57427
57256
57097
56948
56808
56679
56557
56444
56343
56252
56170
56097
56031
55964
55892
55824
55769
55722
55671
55619
55571
55525
55478
55433
55390
55353
55327
55313
55308
55307
55309
55319
55339
55362
55380
55400
55424
55449
55467
55478
55487
55501
55519
55532
55533
55519
55494
55468
55442
55410
55368
55323
55276
55227
55173
55118
55070
55026
54980
54931
54882
54837
54801
54776
54754
54731
54711
54700
54690
54675
54660
54649
54640
54630
54623
54622
54628
54636
54645
54650
54652
54653
54656
54659
54658
54656
54663
54676
54683
54682
54682
54683
54684
54684
54682
54680
54680
54683
54685
54688
54691
54692
54689
54682
54673
54666
54666
54663
54647
54627
54615
54609
54603
54597
54596
54602
54613
54622
54624
54621
54615
54612
54610
54607
54601
54601
54607
54612
54613
54610
54610
54613
54615
54617
54623
54631
54640
54650
54660
54665
54662
54655
54649
54643
54637
54635
54635
54636
54636
54634
54632
54635
54644
54668
54723
54818
54962
55166
55434
55767
56159
56592
57039
57483
57912
58307
58647
58924
59140
59299
59401
59449
59451
59414
59343
59245
59128
58993
58839
58674
58512
58358
58206
58058
57915
57784
57666
57562
57471
57398
57343
57297
57258
57227
57205
57190
57177
57157
57126
57094
57064
57027
56973
56908
56843
56783
56726
56674
56632
56598
56569
56545
56529
56517
56509
56507
56508
56509
56515
56533
56559
56583
56601
56617
56633
56641
56637
56624
56605
56575
56537
56500
56464
56418
56369
56328
56287
56239
56186
56130
56076
56022
55967
55911
55854
55798
55752
55712
55675
55637
55603
55577
55550
55515
55477
55441
55406
55371
55342
55317
55290
55265
55248
55237
55226
55213
55206
55204
55203
55200
55195
55189
55183
55180
55178
55175
55176
55179
55178
55169
55153
55131
55107
55087
55065
55040
55018
55003
54993
54992
55000
55012
55021
55025
55027
55026
55019
55010
55004
55002
54992
54971
54947
54928
54919
54921
54929
54935
54937
54935
54931
54924
54919
54921
54927
54932
54936
54947
54961
54970
54972
54974
54980
54987
54992
54997
54997
54991
54981
54969
54953
54935
54921
54910
54903
54902
54907
54910
54904
54891
54880
54873
54867
54862
54858
54856
54852
54844
54833
54827
54827
54832
54851
54902
55001
55159
55389
55693
56059
56478
56934
57403
57861
58295
58696
59050
59345
59575
59742
59850
59902
59901
59853
59766
59644
59496
59330
59143
58939
58730
58522
58311
58102
57909
57732
57564
57407
57271
57156
57056
56970
56900
56843
56797
56765
56751
56742
56722
56694
56668
56637
56602
56569
56544
56531
56525
56521
56519
56523
56529
56537
56544
56549
56549
56549
56553
56554
56546
56533
56523
56520
56523
56531
56545
56559
56573
56591
56607
56613
56610
56604
56591
56562
56525
56492
56464
56433
56399
56361
56326
56296
56265
56228
56185
56142
56104
56069
56037
56006
55974
55936
55893
55849
55813
55786
55765
55744
55725
55715
55712
55712
55713
55716
55719
55720
55723
55725
55720
55714
55712
55710
55703
55698
55694
55686
55671
55650
55630
55616
55602
55582
55558
55537
55524
55514
55497
55475
55454
55437
55426
55412
55395
55382
55375
55369
55360
55348
55339
55333
55327
55318
55302
55281
55261
55253
55252
55245
55230
55216
55205
55193
55179
55161
55147
55139
55131
55116
55099
55085
55071
55059
55052
55048
55046
55050
55055
55054
55051
55052
55056
55057
55058
55060
55061
55060
55060
55061
55058
55053
55052
55055
55051
55037
55021
55009
55000
54993
54990
54991
54992
54992
54996
55012
55048
55109
55206
55352
55555
55818
56138
56497
56872
57246
57606
57937
58221
58458
58647
58785
58864
58892
58882
58834
58739
58603
58440
58262
58072
57878
57687
57502
57326
57167
57028
56903
56790
56692
56609
56528
56451
56389
56340
56293
56248
56208
56172
56135
56097
56066
56041
56016
55992
55970
55953
55941
55934
55928
55921
55914
55914
55919
55917
55905
55893
55889
55892
55905
55928
55954
55979
55998
56010
56019
56027
56033
56043
56057
56067
56074
56082
56087
56086
56079
56067
56055
56042
56026
56008
55991
55979
55977
55978
55967
55940
55915
55901
55891
55880
55865
55847
55827
55809
55792
55774
55752
55729
55706
55681
55655
55632
55618
55611
55606
55598
55587
55574
55559
55542
55528
55516
55506
55499
55490
55476
55452
55422
55399
55385
55378
55372
55371
55372
55375
55377
55376
55374
55372
55374
55379
55381
55377
55368
55362
55358
55351
55345
55342
55338
55333
55328
55324
55319
55312
55305
55300
55291
55277
55266
55264
55265
55267
55274
55291
55311
55324
55335
55351
55380
55430
55513
55645
55840
56103
56440
56844
57294
57774
58269
58754
59199
59590
59924
60197
60406
60563
60677
60750
60784
60786
60758
60706
60634
60550
60461
60365
60265
60165
60059
59940
59815
59692
59570
59441
59311
59186
59062
58937
58816
58707
58608
58514
58432
58365
58304
58239
58165
58081
57994
57911
57833
57759
57691
57634
57594
57567
57551
57545
57552
57578
57616
57660
57712
57775
57841
57901
57959
58023
58091
58157
58215
58260
58288
58293
58281
58256
58216
58158
58089
58010
57920
57822
57722
57617
57503
57382
57260
57137
57013
56888
56769
56660
56558
56460
56369
56285
56202
56120
56042
55973
55913
55860
55814
55774
55737
55705
55676
55645
55613
55586
55564
55540
55515
55493
55476
55459
55436
55403
55370
55340
55307
55274
55245
55223
55201
55179
55162
55148
55134
55123
55115
55111
55113
55119
55119
55110
55097
55088
55080
55069
55060
55053
55043
55033
55027
55026
55024
55022
55020
55018
55014
55010
55006
55005
55001
54993
54986
54981
54967
54945
54928
54916
54903
54885
54868
54853
54835
54819
54811
54812
54819
54826
54829
54834
54850
54894
54982
55131
55353
55656
56040
56492
56993
57522
58050
58548
59004
59412
59758
60030
60229
60365
60445
60471
60449
60395
60315
60209
60081
59935
59769
59584
59388
59189
58993
58804
58623
58451
58287
58129
57977
57834
57705
57594
57501
57419
57344
57273
57216
57171
57132
57095
57059
57024
56988
56947
56899
56853
56813
56780
56758
56749
56747
56754
56775
56810
56856
56909
56973
57049
57131
57217
57308
57399
57479
57549
57607
57653
57687
57706
57713
57713
57698
57662
57604
57529
57442
57345
57242
57132
57016
56896
56773
56646
56520
56402
56294
56188
56085
55994
55912
55834
55759
55689
55624
55564
55508
55458
55417
55382
55350
55320
55293
55266
55239
55220
55207
55191
55172
55156
55143
55128
55105
55082
55063
55043
55023
55006
54992
54987
54985
54981
54978
54972
54965
54959
54950
54937
54932
54936
54942
54947
54957
54967
54973
54972
54968
54963
54954
54940
54924
54909
54892
54873
54858
54850
54842
54830
54815
54801
54793
54789
54783
54774
54766
54761
54759
54759
54767
54795
54858
54964
55124
55359
55685
56091
56555
57060
57591
58116
58603
59038
59418
59738
59993
60183
60316
60399
60435
60430
60393
60332
60249
60148
60036
59914
59779
59636
59485
59323
59155
58989
58833
58687
58554
58433
58319
58211
58114
58032
57963
57904
57851
57801
57749
57695
57638
57573
57500
57421
57345
57271
57198
57129
57074
57041
57030
57030
57038
57054
57074
57098
57129
57172
57228
57289
57347
57406
57462
57509
57548
57580
57603
57619
57630
57629
57609
57578
57543
57504
57455
57398
57339
57279
57216
57149
57079
57005
56926
56846
56768
56696
56630
56567
56508
56453
56397
56345
56297
56246
56194
56153
56128
56109
56085
56060
56038
56017
55997
55977
55957
55937
55920
55907
55897
55885
55874
55865
55855
55840
55824
55813
55799
55778
55756
55736
55713
55682
55645
55611
55582
55548
55509
55469
55422
55366
55311
55263
55216
55172
55134
55100
55065
55036
55017
55002
54988
54978
54976
54979
54985
54995
55011
55034
55059
55076
55086
55096
55122
55179
55280
55436
55666
55983
56387
56854
57352
57867
58384
58883
59336
59731
60065
60337
60548
60706
60812
60866
60874
60850
60801
60726
60623
60500
60368
60229
60082
59930
59773
59608
59438
59269
59103
58943
58786
58631
58480
58332
58188
58045
57901
57760
57622
57484
57349
57217
57084
56954
56835
56731
56640
56558
56483
56412
56346
56286
56231
56186
56158
56141
56127
56120
56122
56130
56137
56142
56149
56153
56150
56140
56125
56107
56084
56062
56045
56029
56010
55988
55966
55942
55917
55888
55857
55829
55805
55785
55772
55766
55766
55771
55777
55776
55776
55784
55793
55798
55793
55784
55779
55776
55773
55773
55775
55778
55778
55782
55791
55797
55796
55794
55791
55784
55777
55776
55781
55788
55798
55811
55825
55839
55849
55855
55864
55880
55896
55903
55902
55897
55894
55893
55895
55898
55900
55896
55887
55874
55863
55855
55840
55819
55805
55798
55795
55791
55785
55777
55769
55758
55747
55739
55734
55728
55721
55714
55699
55679
55660
55642
55622
55601
55581
55564
55552
55554
55579
55635
55729
55869
56066
56323
56636
56996
57387
57791
58191
58579
58940
59255
59515
59722
59878
59978
60020
60017
59982
59916
59820
59700
59562
59411
59252
59087
58918
58750
58586
58431
58283
58138
58006
57890
57783
57684
57598
57519
57443
57374
57314
57262
57215
57168
57123
57078
57037
56999
56969
56947
56926
56901
56877
56859
56844
56828
56811
56798
56792
56793
56800
56812
56822
56828
56831
56833
56829
56819
56806
56790
56765
56729
56694
56656
56613
56569
56528
56491
56456
56422
56383
56344
56310
56281
56254
56227
56202
56178
56153
56129
56108
56094
56087
56083
56080
56084
56094
56103
56110
56120
56133
56145
56154
56162
56168
56172
56174
56175
56177
56177
56173
56167
56162
56156
56151
56150
56151
56150
56145
56139
56132
56120
56108
56103
56101
56095
56084
56073
56062
56047
56033
56025
56020
56014
56005
55993
55979
55960
55934
55905
55877
55847
55820
55795
55768
55741
55721
55709
55704
55702
55704
55708
55707
55703
55702
55708
55720
55742
55784
55853
55954
56092
56277
56513
56789
57095
57423
57756
58079
58380
58646
58871
59048
59173
59245
59270
59248
59188
59096
58977
58836
58683
58525
58369
58225
58091
57970
57865
57774
57696
57628
57565
57507
57457
57410
57361
57315
57273
57234
57197
57162
57130
57097
57062
57025
56991
56963
56939
56913
56887
56865
56847
56833
56823
56817
56819
56829
56846
56865
56887
56915
56947
56974
56991
57003
57016
57026
57031
57032
57028
57018
57002
56987
56969
56942
56905
56867
56831
56797
56762
56731
56701
56672
56642
56612
56585
56562
56540
56519
56504
56499
56497
56498
56499
56499
56503
56508
56513
56520
56531
56546
56559
56566
56571
56572
56570
56566
56565
56573
56591
56608
56618
56627
56639
56652
56663
56673
56680
56685
56690
56695
56697
56700
56704
56703
56691
56675
56660
56642
56616
56591
56580
56578
56583
56606
56663
56766
56927
57158
57462
57828
58249
58710
59190
59664
60103
60494
60828
61099
61303
61439
61515
61539
61516
61457
61371
61257
61118
60961
60789
60601
60400
60191
59973
59749
59527
59315
59114
58926
58754
58600
58459
58332
58217
58111
58015
57930
57858
57793
57731
57668
57613
57569
57534
57501
57474
57452
57428
57405
57395
57397
57407
57420
57436
57457
57481
57507
57543
57586
57627
57664
57700
57731
57755
57774
57787
57791
57781
57762
57743
57723
57700
57677
57650
57611
57556
57501
57450
57394
57329
57263
57208
57159
57113
57075
57045
57015
56982
56950
56923
56898
56875
56861
56854
56849
56844
56836
56825
56808
56788
56768
56749
56732
56720
56714
56712
56706
56694
56684
56683
56685
56692
56706
56719
56726
56729
56729
56722
56708
56694
56686
56676
56665
56661
56666
56667
56664
56664
56670
56672
56664
56651
56636
56619
56597
56577
56567
56562
56559
56555
56551
56544
56537
56535
56534
56531
56528
56529
56530
56529
56524
56521
56522
56524
56523
56523
56528
56536
56544
56560
56603
56693
56849
57090
57419
57831
58313
58842
59382
59904
60391
60830
61204
61504
61738
61911
62024
62080
62085
62050
61983
61888
61774
61644
61496
61336
61170
60999
60825
60651
60481
60314
60148
59991
59850
59723
59607
59501
59406
59325
59259
59205
59159
59116
59068
59010
58943
58868
58791
58721
58661
58607
58562
58533
58521
58515
58514
58524
58545
58573
58604
58639
58680
58723
58769
58823
58884
58942
58992
59032
59060
59075
59080
59079
59071
59052
59017
58965
58899
58826
58750
58668
58578
58481
58384
58293
58201
58103
58006
57913
57824
57739
57664
57597
57536
57481
57431
57386
57345
57312
57286
57265
57243
57217
57192
57165
57132
57100
57082
57072
57060
57044
57029
57017
57005
56990
56971
56955
56945
56944
56948
56952
56954
56957
56967
56972
56968
56964
56963
56957
56944
56928
56914
56903
56894
56887
56884
56877
56867
56860
56854
56843
56832
56826
56820
56808
56792
56775
56762
56752
56739
56723
56707
56689
56675
56669
56666
56662
56656
56651
56643
56630
56619
56610
56599
56585
56573
56564
56561
56564
56574
56596
56635
56702
56816
56997
57256
57603
58038
58544
59094
59663
60230
60768
61253
61670
62015
62285
62484
62622
62710
62750
62744
62702
62632
62524
62384
62235
62092
61944
61782
61608
61433
61262
61096
60937
60785
60647
60526
60420
60327
60245
60172
60110
60057
60003
59945
59887
59833
59779
59721
59659
59592
59523
59459
59410
59380
59363
59358
59369
59396
59433
59484
59553
59636
59728
59827
59929
60028
60117
60190
60245
60287
60322
60346
60357
60356
60341
60315
60279
60229
60162
60084
59996
59895
59782
59661
59529
59387
59239
59093
58948
58807
58676
58556
58443
58334
58235
58151
58081
58014
57948
57887
57828
57769
57709
57648
57592
57542
57497
57462
57435
57411
57395
57384
57373
57363
57356
57353
57349
57341
57329
57318
57309
57304
57304
57303
57295
57283
57277
57277
57274
57268
57264
57262
57261
57261
57263
57271
57280
57281
57273
57258
57237
57214
57194
57176
57157
57139
57126
57118
57105
57082
57049
57014
56983
56962
56949
56931
56904
56880
56862
56845
56826
56807
56792
56779
56767
56757
56749
56741
56729
56719
56716
56717
56722
56729
56732
56727
56714
56700
56689
56678
56668
56663
56660
56658
56658
56663
56673
56683
56697
56720
56754
56810
56909
57072
57316
57649
58068
58565
59120
59697
60261
60782
61242
61635
61962
62219
62400
62513
62574
62590
62545
62452
62335
62198
62035
61844
61631
61413
61196
60979
60764
60556
60352
60152
59967
59802
59650
59510
59387
59279
59184
59102
59032
58971
58913
58859
58815
58774
58723
58663
58605
58553
58509
58473
58445
58423
58407
58394
58384
58379
58379
58384
58400
58427
58458
58495
58537
58574
58602
58624
58639
58640
58625
58599
58564
58521
58470
58414
58355
58291
58224
58158
58089
58014
57940
57877
57821
57763
57708
57662
57620
57580
57543
57513
57488
57467
57447
57425
57401
57378
57359
57342
57328
57317
57313
57313
57309
57300
57295
57299
57304
57305
57309
57318
57332
57345
57354
57355
57348
57333
57316
57302
57295
57292
57292
57291
57284
57276
57277
57281
57279
57274
57271
57271
57277
57290
57305
57315
57322
57330
57340
57344
57342
57342
57346
57350
57352
57355
57360
57363
57362
57361
57362
57360
57352
57342
57333
57325
57318
57314
57315
57320
57330
57351
57373
57391
57407
57422
57433
57440
57443
57446
57450
57453
57451
57445
57440
57437
57441
57448
57450
57442
57434
57433
57430
57424
57423
57426
57428
57430
57435
57444
57456
57478
57523
57605
57737
57934
58205
58546
58942
59376
59837
60303
60753
61169
61535
61841
62081
62256
62365
62414
62415
62381
62315
62202
62039
61849
61647
61436
61213
60989
60773
60564
60363
60173
59996
59833
59685
59557
59446
59350
59272
59211
59167
59130
59095
59062
59030
58994
58955
58918
58886
58857
58826
58798
58775
58757
58746
58741
58743
58753
58772
58799
58827
58849
58876
58909
58939
58958
58972
58985
58996
58999
58992
58979
58962
58939
58914
58884
58846
58800
58753
58706
58654
58598
58545
58497
58452
58406
58359
58315
58271
58224
58179
58138
58098
58067
58047
58031
58010
57990
57975
57963
57955
57948
57940
57932
57927
57923
57911
57893
57874
57861
57854
57848
57840
57834
57832
57828
57819
57809
57797
57787
57779
57770
57763
57760
57759
57758
57751
57730
57706
57691
57680
57668
57657
57653
57652
57650
57652
57666
57689
57706
57718
57726
57729
57730
57733
57739
57742
57740
57741
57749
57757
57758
57758
57763
57768
57773
57783
57803
57834
57887
57977
58120
58324
58598
58949
59368
59836
60338
60854
61359
61828
62244
62598
62886
63108
63269
63374
63417
63397
63332
63232
63096
62933
62759
62585
62399
62200
62006
61829
61657
61474
61285
61103
60930
60765
60610
60469
60342
60219
60102
59993
59888
59787
59695
59612
59532
59452
59379
59312
59245
59178
59117
59065
59021
58982
58947
58917
58892
58866
58842
58820
58799
58785
58777
58767
58750
58732
58720
58706
58686
58667
58653
58637
58614
58587
58561
58535
58504
58468
58432
58398
58366
58339
58321
58309
58302
58301
58300
58299
58294
58288
58283
58279
58278
58283
58291
58292
58286
58284
58282
58275
58268
58265
58262
58253
58242
58236
58235
58234
58231
58225
58216
58202
58182
58158
58132
58109
58092
58078
58063
58047
58035
58024
58010
57993
57980
57968
57954
57938
57928
57922
57911
57895
57878
57863
57851
57841
57835
57832
57828
57826
57827
57831
57833
57836
57844
57849
57844
57834
57824
57816
57805
57789
57774
57767
57764
57762
57764
57772
57777
57780
57778
57768
57757
57756
57761
57763
57760
57760
57768
57774
57771
57765
57760
57757
57753
57753
57760
57785
57839
57936
58097
58336
58655
59049
59498
59977
60469
60956
61412
61814
62149
62414
62606
62730
62796
62810
62774
62691
62577
62441
62274
62080
61874
61658
61432
61205
60987
60781
60586
60400
60225
60065
59921
59793
59681
59586
59511
59449
59394
59341
59290
59242
59202
59168
59135
59102
59070
59040
59012
58986
58962
58940
58925
58917
58914
58913
58916
58926
58943
58964
58984
59004
59028
59052
59073
59090
59103
59114
59125
59135
59138
59129
59112
59093
59071
59040
59002
58966
58933
58903
58872
58838
58801
58765
58738
58725
58710
58682
58651
58628
58610
58593
58576
58558
58536
58522
58519
58521
58520
58510
58489
58470
58458
58446
58433
58424
58421
58417
58411
58403
58393
58381
58367
58352
58335
58323
58321
58322
58319
58311
58299
58288
58277
58265
58250
58233
58216
58205
58203
58207
58213
58218
58222
58226
58230
58238
58248
58256
58260
58257
58252
58241
58223
58207
58201
58197
58191
58188
58185
58179
58169
58158
58146
58133
58120
58108
58095
58079
58063
58055
58055
58057
58059
58061
58061
58062
58062
58054
58043
58034
58026
58022
58021
58019
58019
58022
58023
58018
58012
58009
58004
57993
57983
57980
57982
57982
57982
57985
57991
57994
57996
58002
58017
58041
58089
58180
58328
58547
58847
59218
59642
60104
60584
61059
61506
61911
62263
62552
62774
62935
63037
63079
63062
62997
62892
62750
62583
62399
62202
61992
61776
61566
61365
61168
60973
60786
60616
60463
60326
60210
60114
60033
59962
59898
59836
59775
59722
59680
59643
59605
59568
59536
59511
59488
59462
59430
59398
59372
59353
59337
59325
59312
59299
59293
59289
59283
59280
59281
59284
59288
59292
59293
59295
59298
59302
59304
59298
59284
59270
59256
59239
59213
59181
59146
59105
59061
59014
58962
58907
58856
58811
58770
58731
58699
58678
58664
58650
58634
58623
58616
58609
58600
58588
58579
58577
58579
58582
58584
58582
58577
58575
58571
58562
58550
58534
58513
58490
58470
58457
58448
58441
58435
58434
58439
58444
58446
58447
58446
58445
58451
58463
58473
58469
58452
58434
58418
58405
58398
58393
58385
58374
58366
58366
58370
58376
58386
58396
58404
58411
58412
58405
58393
58381
58370
58362
58352
58340
58329
58321
58314
58318
58331
58340
58342
58344
58353
58363
58373
58387
58402
58419
58433
58442
58447
58448
58446
58447
58449
58450
58453
58461
58470
58474
58475
58480
58490
58499
58509
58518
58526
58533
58539
58546
58554
58562
58568
58574
58587
58613
58661
58740
58857
59021
59240
59506
59807
60127
60453
60771
61069
61333
61551
61723
61851
61931
61966
61957
61903
61803
61668
61510
61335
61154
60978
60806
60640
60487
60351
60225
60105
59999
59912
59840
59779
59729
59691
59662
59642
59627
59613
59600
59588
59573
59551
59524
59501
59489
59483
59478
59473
59469
59464
59455
59444
59441
59447
59451
59449
59446
59448
59455
59462
59470
59484
59500
59514
59524
59529
59525
59512
59493
59472
59447
59422
59400
59379
59353
59328
59311
59294
59269
59240
59215
59192
59167
59144
59128
59116
59107
59099
59090
59077
59066
59061
59059
59051
59038
59028
59022
59015
59007
58999
58990
58983
58979
58980
58985
58989
58989
58986
58979
58970
58959
58950
58942
58937
58931
58925
58918
58907
58898
58899
58905
58906
58904
58905
58906
58903
58901
58905
58912
58919
58923
58924
58921
58917
58913
58910
58906
58901
58897
58892
58883
58871
58862
58856
58852
58852
58859
58869
58878
58885
58894
58904
58912
58913
58909
58903
58897
58890
58885
58882
58884
58889
58896
58897
58888
58875
58867
58864
58860
58856
58849
58842
58838
58835
58830
58825
58824
58823
58821
58814
58804
58803
58821
58858
58919
59018
59164
59359
59597
59872
60172
60482
60789
61086
61359
61592
61783
61926
62016
62049
62040
62000
61931
61830
61703
61558
61401
61237
61073
60913
60762
60627
60509
60407
60318
60243
60182
60132
60089
60053
60025
60002
59978
59953
59933
59914
59890
59859
59831
59815
59806
59794
59777
59758
59740
59726
59715
59706
59696
59690
59688
59691
59698
59716
59737
59746
59744
59737
59734
59736
59738
59737
59734
59733
59730
59726
59722
59715
59703
59687
59664
59634
59601
59573
59548
59518
59486
59455
59425
59390
59353
59322
59299
59284
59273
59266
59264
59266
59270
59275
59277
59270
59257
59246
59238
59226
59214
59206
59202
59196
59188
59179
59174
59174
59176
59179
59177
59171
59161
59149
59137
59126
59116
59109
59101
59091
59081
59074
59063
59047
59028
59016
59009
59001
58993
58991
58998
59009
59018
59023
59022
59023
59031
59037
59031
59019
59012
59012
59009
58999
58986
58975
58967
58958
58944
58929
58911
58892
58878
58870
58866
58865
58865
58863
58859
58858
58860
58860
58860
58865
58872
58873
58869
58868
58874
58880
58882
58882
58880
58876
58868
58856
58845
58837
58829
58816
58802
58788
58776
58766
58755
58744
58737
58738
58740
58737
58734
58730
58725
58730
58764
58844
58972
59146
59369
59642
59959
60307
60675
61045
61397
61719
62004
62238
62412
62530
62600
62621
62590
62519
62417
62289
62143
61989
61831
61669
61502
61333
61164
61002
60849
60709
60586
60474
60370
60277
60199
60136
60086
60050
60027
60008
59984
59957
59929
59902
59876
59850
59823
59794
59768
59751
59743
59734
59720
59702
59687
59679
59672
59670
59674
59683
59697
59713
59729
59739
59748
59760
59770
59769
59759
59750
59743
59732
59712
59684
59653
59625
59596
59560
59520
59482
59450
59422
59393
59361
59334
59310
59286
59260
59237
59217
59198
59180
59166
59159
59155
59150
59143
59130
59109
59086
59069
59056
59043
59035
59037
59042
59042
59038
59031
59025
59022
59019
59012
59004
58997
58991
58988
58984
58977
58971
58967
58960
58946
58933
58926
58924
58924
58922
58918
58914
58911
58911
58910
58905
58896
58888
58883
58876
58867
58861
58857
58853
58850
58852
58849
58840
58833
58830
58825
58817
58807
58797
58788
58785
58786
58786
58785
58788
58792
58794
58797
58801
58804
58804
58794
58780
58771
58770
58771
58767
58764
58766
58766
58764
58762
58760
58758
58755
58751
58744
58732
58721
58716
58715
58714
58714
58717
58719
58713
58703
58699
58704
58713
58731
58766
58832
58935
59072
59241
59442
59671
59921
60187
60457
60716
60953
61158
61321
61440
61520
61561
61558
61511
61430
61324
61198
61061
60922
60781
60636
60495
60364
60245
60142
60057
59986
59923
59861
59802
59751
59705
59666
59636
59616
59604
59598
59593
59587
59581
59570
59556
59540
59522
59505
59490
59478
59471
59465
59459
59451
59442
59434
59433
59435
59433
59430
59431
59437
59442
59444
59450
59458
59457
59449
59443
59439
59429
59417
59404
59386
59362
59338
59314
59289
59261
59233
59206
59184
59169
59156
59142
59129
59117
59108
59100
59091
59081
59071
59061
59048
59036
59029
59029
59030
59031
59033
59034
59029
59015
59003
58996
58989
58980
58971
58966
58959
58951
58947
58948
58950
58948
58942
58939
58943
58946
58947
58944
58935
58923
58911
58900
58890
58885
58883
58884
58893
58909
58920
58923
58921
58915
58906
58894
58883
58875
58870
58867
58862
58862
58871
58880
58883
58883
58882
58881
58882
58884
58886
58885
58883
58884
58890
58899
58901
58889
58872
58859
58851
58844
58837
58831
58830
58830
58827
58822
58819
58817
58809
58797
58788
58787
58790
58788
58783
58778
58774
58770
58766
58766
58768
58771
58781
58809
58861
58936
59035
59166
59328
59520
59738
59971
60208
60443
60673
60885
61066
61210
61312
61369
61380
61354
61305
61230
61127
61007
60882
60752
60615
60478
60350
60229
60113
60008
59918
59842
59779
59723
59674
59632
59596
59571
59552
59531
59507
59483
59463
59447
59436
59434
59434
59430
59422
59416
59411
59402
59390
59386
59386
59384
59384
59390
59397
59398
59403
59417
59432
59443
59456
59473
59488
59497
59501
59503
59503
59501
59496
59489
59480
59467
59445
59419
59396
59373
59352
59331
59306
59281
59265
59253
59240
59228
59222
59218
59210
59197
59182
59164
59143
59121
59104
59092
59079
59069
59065
59062
59053
59042
59030
59018
59005
58996
58991
58982
58966
58949
58938
58929
58917
58909
58906
58904
58897
58890
58886
58881
58875
58871
58872
58871
58864
58854
58847
58844
58837
58827
58822
58820
58817
58814
58810
58807
58808
58810
58809
58807
58801
58791
58780
58769
58759
58753
58749
58747
58749
58755
58758
58758
58758
58760
58755
58742
58730
58722
58720
58717
58711
58708
58709
58712
58709
58703
58697
58692
58691
58689
58683
58674
58667
58659
58647
58640
58643
58651
58666
58700
58763
58860
59001
59189
59425
59706
60019
60340
60650
60939
61203
61436
61629
61779
61888
61963
62004
61997
61948
61878
61792
61676
61536
61389
61241
61087
60927
60772
60623
60485
60360
60249
60155
60077
60011
59958
59912
59870
59834
59809
59790
59771
59755
59745
59733
59711
59682
59656
59632
59605
59577
59557
59545
59538
59534
59534
59536
59537
59538
59540
59546
59560
59575
59586
59593
59594
59595
59595
59588
59576
59565
59556
59543
59525
59508
59491
59470
59447
59421
59392
59360
59328
59298
59273
59254
59234
59210
59185
59161
59137
59111
59084
59061
59046
59036
59030
59025
59021
59017
59010
58999
58993
58991
58985
58975
58967
58959
58947
58930
58913
58899
58886
58873
58866
58867
58872
58875
58875
58875
58870
58864
58861
58862
58861
58854
58840
58824
58812
58805
58803
58799
58793
58789
58796
58807
58810
58808
58806
58801
58791
58775
58761
58752
58746
58744
58746
58748
58751
58754
58755
58755
58753
58750
58746
58742
58735
58727
58719
58711
58706
58707
58709
58706
58698
58691
58685
58674
58661
58656
58655
58653
58651
58648
58643
58632
58622
58617
58619
58625
58631
58639
58649
58658
58663
58668
58671
58671
58671
58675
58676
58671
58670
58671
58664
58655
58652
58656
58664
58681
58718
58780
58875
59007
59180
59401
59672
59977
60296
60613
60915
61194
61440
61644
61806
61932
62018
62057
62054
62025
61967
61874
61748
61605
61450
61281
61106
60938
60782
60633
60490
60361
60250
60151
60061
59979
59904
59838
59781
59734
59695
59664
59637
59610
59587
59570
59554
59538
59522
59507
59494
59485
59474
59459
59446
59440
59437
59428
59413
59402
59396
59388
59380
59371
59363
59359
59362
59366
59366
59366
59365
59362
59355
59337
59314
59294
59277
59260
59243
59228
59216
59202
59188
59172
59153
59132
59113
59095
59079
59068
59065
59065
59064
59064
59066
59065
59057
59045
59037
59032
59023
59015
59015
59018
59021
59022
59025
59026
59021
59013
59004
58994
58986
58983
58982
58976
58969
58964
58959
58951
58936
58920
58902
58883
58866
58858
58858
58858
58857
58861
58867
58874
58884
58896
58903
58899
58889
58878
58868
58862
58857
58850
58848
58854
58861
58869
58874
58873
58865
58850
58831
58811
58795
58782
58774
58773
58778
58786
58795
58799
58799
58799
58802
58802
58802
58804
58804
58801
58799
58795
58788
58782
58783
58787
58790
58792
58799
58804
58805
58805
58803
58793
58776
58762
58751
58740
58729
58722
58720
58719
58715
58714
58720
58726
58729
58734
58739
58740
58739
58740
58741
58741
58741
58750
58772
58809
58865
58941
59038
59156
59291
59439
59595
59751
59900
60036
60153
60248
60318
60360
60376
60364
60326
60260
60175
60085
59996
59908
59818
59730
59654
59589
59527
59470
59427
59394
59359
59323
59291
59269
59256
59248
59245
59248
59254
59259
59263
59267
59268
59263
59252
59237
59218
59198
59180
59162
59144
59130
59123
59123
59132
59143
59153
59158
59159
59156
59156
59167
59182
59194
59201
59202
59197
59189
59181
59171
59163
59165
59172
59174
59169
59161
59149
59136
59122
59110
59103
59100
59096
59092
59082
59069
59055
59038
59025
59015
59002
58989
58980
58975
58976
58982
58987
58988
58986
58983
58979
58974
58972
58970
58966
58964
58965
58968
58967
58966
58970
58971
58961
58942
58923
58912
58903
58891
58881
58879
58877
58872
58867
58859
58850
58841
58839
58846
58857
58864
58865
58864
58861
58854
58845
58837
58830
58822
58816
58814
58816
58815
58808
58798
58791
58785
58778
58774
58769
58762
58757
58754
58753
58755
58760
58768
58779
58792
58806
58816
58824
58834
58844
58845
58841
58837
58835
58823
58807
58798
58795
58798
58814
58850
58913
59005
59127
59279
59459
59663
59886
60118
60347
60565
60763
60930
61062
61156
61219
61251
61248
61216
61166
61093
60997
60885
60765
60637
60508
60381
60264
60161
60066
59980
59905
59838
59778
59722
59673
59633
59598
59565
59538
59518
59503
59484
59457
59430
59406
59386
59366
59348
59333
59322
59316
59311
59306
59301
59298
59296
59293
59293
59297
59299
59298
59301
59310
59317
59324
59336
59352
59364
59370
59372
59374
59378
59380
59380
59377
59367
59353
59339
59327
59312
59293
59273
59248
59214
59176
59142
59113
59089
59073
59066
59064
59059
59048
59040
59033
59024
59015
59009
59002
58989
58974
58964
58959
58953
58944
58940
58937
58936
58939
58943
58944
58941
58935
58927
58916
58902
58893
58889
58883
58875
58873
58877
58881
58885
58887
58884
58878
58873
58872
58871
58868
58866
58865
58866
58869
58875
58879
58885
58892
58894
58891
58885
58879
58874
58874
58878
58882
58884
58881
58867
58851
58840
58833
58822
58806
58796
58796
58807
58819
58828
58835
58842
58844
58843
58843
58843
58839
58835
58834
58833
58832
58832
58829
58816
58796
58782
58772
58761
58751
58747
58750
58760
58786
58835
58910
59018
59163
59336
59532
59743
59962
60180
60386
60571
60731
60863
60963
61029
61060
61058
61024
60966
60892
60801
60694
60578
60462
60350
60242
60135
60039
59954
59878
59813
59763
59721
59676
59635
59603
59578
59554
59532
59513
59498
59486
59475
59464
59454
59440
59422
59402
59388
59381
59379
59379
59374
59370
59372
59375
59376
59377
59376
59374
59371
59372
59379
59385
59388
59388
59392
59396
59392
59385
59383
59377
59362
59345
59333
59322
59307
59293
59287
59288
59287
59282
59276
59269
59261
59248
59236
59226
59218
59215
59211
59200
59185
59170
59157
59141
59126
59117
59113
59110
59108
59108
59110
59107
59101
59097
59091
59079
59064
59052
59042
59030
59017
59005
58997
58990
58987
58986
58982
58976
58970
58963
58955
58945
58937
58931
58927
58925
58922
58921
58922
58922
58918
58908
58897
58886
58878
58871
58866
58857
58845
58838
58840
58844
58849
58856
58866
58871
58871
58866
58857
58842
58826
58808
58794
58785
58778
58772
58769
58766
58762
58754
58746
58734
58719
58704
58692
58686
58684
58682
58683
58688
58697
58705
58714
58724
58731
58730
58721
58710
58699
58682
58664
58650
58637
58620
58608
58608
58612
58616
58625
58648
58695
58777
58897
59063
59281
59543
59840
60161
60495
60829
61153
61459
61735
61977
62188
62350
62446
62487
62500
62483
62419
62312
62183
62040
61880
61711
61546
61391
61240
61093
60961
60845
60737
60635
60542
60460
60386
60319
60260
60210
60165
60128
60094
60060
60025
59990
59957
59925
59895
59867
59845
59823
59801
59785
59776
59771
59766
59764
59766
59774
59783
59792
59805
59823
59846
59871
59890
59902
59912
59921
59926
59926
59921
59917
59911
59895
59869
59841
59814
59782
59743
59704
59671
59639
59604
59566
59526
59484
59439
59391
59345
59306
59275
59248
59226
59207
59191
59173
59148
59121
59100
59083
59061
59028
58996
58972
58953
58936
58927
58923
58914
58897
58878
58862
58850
58843
58837
58832
58828
58820
58810
58802
58796
58790
58782
58772
58762
58755
58753
58752
58745
58737
58735
58730
58720
58710
58707
58707
58706
58705
58708
58708
58700
58686
58675
58664
58647
58628
58615
58607
58602
58597
58592
58588
58582
58574
58571
58569
58565
58561
58558
58553
58552
58557
58566
58570
58571
58574
58572
58561
58542
58522
58507
58500
58497
58496
58495
58494
58491
58486
58480
58472
58465
58460
58453
58448
58448
58449
58443
58436
58433
58435
58432
58427
58429
58452
58503
58582
58699
58859
59062
59312
59610
59947
60307
60673
61034
61385
61711
61997
62235
62420
62554
62646
62696
62700
62664
62604
62518
62397
62255
62114
61974
61823
61660
61506
61365
61227
61095
60983
60885
60787
60688
60604
60537
60475
60422
60384
60349
60304
60251
60193
60132
60066
59998
59933
59878
59831
59793
59770
59756
59751
59757
59775
59796
59807
59813
59826
59844
59863
59880
59899
59924
59955
59988
60019
60043
60062
60072
60074
60068
60051
60027
59993
59946
59888
59827
59767
59703
59634
59567
59505
59448
59391
59334
59279
59228
59180
59136
59099
59063
59022
58981
58947
58917
58885
58849
58815
58789
58771
58759
58750
58737
58725
58717
58707
58690
58668
58648
58631
58613
58598
58589
58581
58572
58564
58555
58547
58543
58542
58540
58538
58535
58535
58534
58525
58510
58497
58487
58475
58466
58463
58466
58473
58476
58472
58465
58457
58446
58432
58418
58404
58393
58390
58388
58377
58363
58357
58358
58354
58346
58343
58344
58342
58340
58340
58340
58341
58342
58338
58330
58323
58318
58313
58307
58299
58292
58287
58278
58267
58256
58246
58231
58211
58190
58176
58170
58172
58183
58193
58199
58210
58227
58238
58239
58238
58241
58239
58228
58223
58234
58263
58308
58381
58494
58657
58872
59142
59459
59808
60177
60558
60940
61298
61628
61929
62187
62385
62522
62608
62647
62637
62583
62495
62376
62225
62054
61878
61697
61508
61325
61156
60993
60838
60697
60575
60463
60353
60248
60155
60072
59998
59930
59866
59808
59760
59722
59690
59658
59627
59595
59566
59547
59535
59528
59522
59512
59504
59505
59512
59520
59528
59539
59554
59574
59596
59615
59631
59645
59654
59659
59662
59660
59655
59652
59645
59630
59608
59588
59564
59533
59499
59461
59419
59374
59326
59279
59239
59210
59187
59160
59126
59093
59068
59049
59029
59006
58984
58964
58942
58924
58914
58907
58897
58883
58868
58853
58835
58818
58808
58801
58796
58795
58795
58789
58780
58776
58774
58770
58764
58759
58758
58755
58748
58739
58728
58717
58706
58698
58695
58691
58686
58682
58679
58676
58671
58663
58655
58647
58638
58629
58621
58613
58603
58599
58597
58589
58575
58557
58542
58530
58516
58503
58498
58497
58493
58486
58480
58474
58469
58463
58459
58455
58453
58452
58447
58445
58446
58450
58449
58440
58425
58412
58403
58394
58387
58386
58387
58382
58372
58363
58351
58341
58336
58333
58328
58322
58317
58312
58307
58309
58330
58375
58447
58551
58695
58888
59131
59416
59729
60063
60412
60764
61108
61421
61692
61931
62131
62272
62348
62379
62377
62335
62261
62173
62068
61939
61794
61648
61506
61354
61190
61037
60896
60753
60608
60475
60354
60237
60127
60033
59955
59885
59820
59759
59708
59662
59616
59573
59534
59504
59482
59470
59464
59460
59453
59445
59439
59432
59427
59431
59439
59449
59460
59473
59492
59515
59542
59571
59596
59615
59630
59643
59648
59644
59638
59634
59627
59610
59589
59569
59549
59522
59487
59446
59404
59360
59314
59270
59228
59190
59160
59132
59100
59073
59057
59047
59032
59012
58994
58981
58964
58943
58923
58909
58898
58890
58881
58872
58863
58857
58852
58842
58829
58821
58819
58819
58815
58811
58811
58810
58803
58792
58786
58783
58777
58772
58767
58757
58747
58743
58737
58725
58711
58700
58688
58675
58666
58660
58654
58650
58649
58650
58655
58664
58667
58665
58657
58648
58642
58644
58642
58636
58629
58626
58626
58626
58627
58631
58636
58640
58639
58632
58624
58618
58614
58612
58612
58610
58607
58602
58593
58581
58574
58566
58552
58534
58521
58514
58511
58508
58509
58515
58523
58532
58542
58550
58551
58551
58555
58562
58570
58586
58617
58665
58735
58836
58968
59127
59310
59516
59740
59973
60206
60429
60632
60805
60948
61062
61145
61189
61202
61193
61157
61094
61016
60927
60821
60699
60573
60451
60337
60233
60137
60050
59971
59898
59830
59765
59704
59656
59627
59607
59583
59555
59526
59497
59468
59441
59423
59416
59419
59425
59429
59430
59427
59421
59417
59412
59405
59397
59389
59381
59372
59368
59372
59380
59388
59395
59402
59407
59410
59417
59423
59425
59422
59421
59420
59415
59402
59386
59370
59349
59321
59294
59272
59255
59237
59214
59187
59159
59134
59112
59092
59076
59065
59057
59052
59048
59046
59046
59045
59042
59037
59036
59038
59035
59025
59016
59012
59007
59002
58995
58987
58980
58973
58966
58957
58943
58929
58919
58908
58891
58870
58853
58847
58846
58843
58841
58840
58837
58835
58835
58833
58828
58823
58822
58819
58811
58802
58798
58798
58800
58806
58813
58820
58825
58828
58830
58823
58811
58803
58794
58778
58766
58765
58767
58765
58761
58762
58766
58769
58768
58765
58760
58754
58748
58745
58743
58742
58743
58744
58741
58731
58721
58716
58717
58721
58731
58746
58769
58804
58860
58954
59088
59260
59471
59719
59997
60290
60585
60868
61128
61365
61575
61745
61872
61969
62039
62069
62059
62015
61942
61841
61719
61587
61453
61314
61169
61022
60877
60737
60606
60495
60403
60326
60256
60193
60135
60074
60012
59956
59910
59872
59838
59802
59766
59730
59699
59675
59654
59633
59613
59605
59605
59605
59611
59629
59655
59682
59709
59737
59771
59807
59836
59858
59876
59896
59916
59930
59934
59930
59926
59924
59916
59899
59874
59845
59812
59774
59730
59686
59646
59608
59571
59534
59490
59443
59402
59365
59326
59287
59254
59229
59208
59187
59164
59144
59128
59112
59095
59081
59070
59060
59051
59041
59029
59016
59005
58991
58978
58966
58952
58936
58921
58909
58899
58884
58867
58854
58847
58842
58833
58819
58807
58797
58787
58779
58772
58763
58754
58746
58741
58737
58731
58725
58718
58709
58699
58688
58679
58673
58671
58676
58685
58687
58688
58693
58697
58694
58689
58683
58671
58658
58647
58634
58618
58605
58599
58601
58603
58598
58591
58585
58582
58578
58572
58561
58547
58531
58517
58504
58487
58467
58454
58451
58450
58450
58456
58468
58482
58503
58545
58609
58702
58840
59038
59298
59607
59950
60316
60694
61068
61434
61779
62081
62329
62532
62686
62779
62817
62817
62787
62728
62644
62542
62424
62287
62145
62009
61877
61738
61594
61461
61338
61216
61100
61002
60920
60840
60760
60686
60618
60556
60502
60458
60417
60372
60320
60265
60210
60155
60105
60064
60024
59984
59952
59938
59938
59945
59956
59973
59995
60024
60056
60084
60104
60122
60144
60172
60202
60229
60253
60271
60280
60281
60276
60264
60245
60220
60187
60147
60098
60046
59999
59953
59902
59852
59811
59772
59731
59687
59642
59598
59556
59514
59475
59441
59411
59388
59369
59347
59318
59285
59253
59224
59203
59186
59165
59139
59109
59081
59053
59024
59001
58988
58982
58975
58967
58961
58959
58961
58964
58962
58955
58947
58939
58932
58924
58916
58913
58915
58912
58896
58878
58865
58855
58846
58839
58834
58832
58833
58834
58833
58826
58815
58805
58797
58789
58778
58764
58754
58750
58745
58740
58737
58735
58732
58731
58733
58735
58735
58733
58732
58730
58728
58734
58743
58747
58745
58742
58739
58734
58726
58713
58698
58689
58689
58698
58703
58698
58687
58680
58673
58661
58647
58638
58632
58626
58620
58614
58616
58627
58646
58677
58726
58802
58921
59096
59324
59600
59922
60277
60651
61031
61404
61747
62037
62274
62465
62607
62692
62718
62699
62642
62553
62449
62335
62201
62050
61897
61747
61593
61437
61288
61153
61025
60905
60800
60706
60619
60540
60471
60412
60357
60306
60260
60220
60181
60135
60088
60048
60017
59988
59961
59941
59928
59917
59907
59900
59896
59894
59895
59902
59913
59923
59934
59943
59951
59959
59968
59979
59989
59995
59997
59996
59991
59982
59966
59946
59925
59903
59884
59863
59834
59804
59778
59752
59725
59697
59665
59627
59583
59531
59479
59436
59402
59376
59350
59320
59287
59258
59235
59212
59190
59175
59170
59165
59156
59145
59132
59123
59118
59115
59111
59106
59105
59106
59103
59096
59090
59089
59089
59083
59076
59068
59058
59051
59045
59039
59033
59030
59028
59026
59025
59023
59026
59032
59033
59028
59019
59009
59001
58995
58989
58986
58986
58984
58975
58967
58959
58945
58931
58922
58913
58906
58903
58903
58905
58904
58903
58900
58898
58897
58898
58895
58888
58878
58874
58876
58875
58875
58880
58884
58883
58880
58878
58876
58871
58868
58864
58854
58841
58829
58820
58808
58795
58790
58792
58793
58789
58784
58781
58779
58778
58776
58776
58781
58792
58817
58859
58927
59031
59180
59378
59619
59902
60222
60562
60898
61223
61532
61807
62040
62235
62389
62493
62548
62560
62535
62475
62388
62280
62155
62009
61852
61695
61531
61360
61197
61054
60921
60794
60679
60578
60485
60399
60319
60251
60197
60155
60122
60092
60061
60029
60000
59977
59957
59933
59911
59891
59870
59846
59822
59805
59801
59810
59827
59847
59871
59896
59920
59942
59961
59982
60012
60047
60077
60098
60112
60117
60112
60101
60091
60080
60067
60050
60029
60002
59968
59930
59892
59855
59816
59779
59746
59711
59670
59631
59602
59578
59554
59527
59505
59486
59468
59450
59431
59411
59395
59383
59377
59371
59363
59357
59355
59349
59337
59322
59309
59297
59284
59273
59266
59260
59254
59249
59244
59235
59226
59221
59217
59209
59200
59194
59188
59179
59168
59159
59152
59145
59138
59135
59134
59133
59128
59119
59111
59102
59091
59080
59071
59063
59062
59067
59069
59066
59060
59052
59042
59031
59026
59024
59020
59013
59005
58996
58981
58964
58955
58954
58950
58946
58945
58943
58936
58927
58916
58905
58895
58888
58880
58867
58850
58835
58824
58814
58807
58806
58808
58810
58810
58810
58810
58806
58801
58799
58801
58807
58821
58854
58915
59013
59161
59371
59639
59953
60301
60676
61059
61432
61782
62102
62379
62603
62773
62887
62942
62951
62931
62882
62799
62685
62552
62406
62243
62065
61893
61736
61581
61420
61273
61150
61039
60934
60843
60769
60697
60623
60551
60481
60410
60339
60272
60211
60157
60113
60081
60059
60040
60021
60005
59991
59981
59973
59966
59965
59971
59980
59992
60007
60023
60041
60062
60083
60099
60113
60128
60141
60153
60166
60180
60190
60189
60178
60158
60131
60101
60069
60031
59982
59928
59881
59836
59790
59744
59698
59655
59610
59564
59524
59488
59449
59406
59367
59337
59311
59288
59271
59260
59254
59250
59243
59236
59229
59220
59212
59203
59194
59188
59187
59184
59178
59171
59161
59147
59131
59118
59109
59100
59086
59071
59060
59052
59047
59048
59050
59046
59036
59020
58999
58975
58953
58940
58933
58929
58930
58938
58950
58960
58968
58976
58985
58989
58986
58979
58972
58969
58970
58972
58971
58964
58953
58943
58935
58926
58916
58907
58896
58885
58878
58874
58866
58857
58853
58853
58852
58848
58845
58843
58842
58838
58829
58822
58819
58818
58818
58816
58809
58798
58785
58775
58766
58757
58749
58740
58728
58714
58708
58705
58695
58687
58690
58706
58742
58808
58920
59088
59314
59596
59932
60313
60720
61140
61563
61967
62336
62671
62960
63179
63333
63440
63499
63503
63461
63387
63289
63165
63025
62882
62734
62575
62412
62250
62089
61928
61772
61628
61491
61367
61261
61167
61074
60986
60912
60849
60785
60716
60656
60611
60566
60514
60466
60424
60385
60348
60322
60317
60322
60331
60348
60366
60377
60390
60413
60441
60467
60491
60522
60558
60587
60611
60638
60664
60680
60688
60690
60683
60666
60639
60599
60546
60486
60431
60377
60313
60237
60163
60094
60021
59939
59852
59770
59691
59613
59538
59467
59403
59351
59313
59284
59251
59213
59177
59147
59117
59084
59055
59033
59011
58986
58962
58948
58944
58951
58965
58989
59019
59042
59054
59057
59049
59036
59021
59007
58994
58986
58984
58985
58986
58988
58994
59001
59004
59005
59010
59014
59018
59024
59036
59051
59063
59068
59066
59056
59045
59039
59044
59052
59062
59074
59087
59096
59102
59109
59116
59126
59138
59150
59158
59159
59155
59150
59147
59147
59147
59147
59148
59146
59146
59149
59149
59144
59136
59133
59135
59133
59128
59131
59138
59138
59130
59116
59097
59077
59057
59042
59035
59034
59040
59051
59060
59064
59068
59074
59079
59083
59095
59125
59180
59274
59423
59637
59911
60240
60611
61009
61420
61828
62211
62555
62855
63115
63324
63465
63543
63580
63569
63501
63390
63254
63101
62932
62756
62580
62403
62221
62040
61872
61709
61541
61378
61236
61117
61008
60908
60820
60741
60665
60597
60538
60485
60432
60380
60335
60300
60272
60255
60252
60251
60247
60254
60274
60298
60326
60369
60433
60506
60584
60675
60775
60881
60997
61131
61274
61406
61527
61643
61742
61808
61845
61867
61871
61850
61811
61766
61711
61634
61536
61425
61304
61170
61027
60885
60745
60606
60474
60356
60247
60144
60054
59976
59907
59844
59789
59746
59711
59685
59666
59651
59638
59628
59619
59606
59585
59562
59546
59534
59517
59494
59474
59464
59459
59449
59437
59428
59426
59432
59443
59455
59461
59459
59451
59442
59432
59422
59416
59408
59395
59384
59378
59374
59369
59365
59367
59371
59374
59375
59376
59380
59383
59387
59393
59395
59389
59377
59360
59337
59311
59287
59268
59252
59236
59229
59230
59233
59234
59235
59238
59242
59249
59264
59294
59346
59422
59527
59672
59858
60080
60335
60618
60916
61225
61541
61841
62107
62340
62539
62692
62795
62857
62881
62865
62812
62740
62662
62568
62457
62341
62216
62075
61922
61770
61631
61500
61380
61276
61182
61088
60995
60916
60852
60782
60706
60641
60586
60531
60483
60450
60419
60385
60346
60304
60269
60241
60216
60197
60190
60191
60195
60204
60218
60238
60264
60293
60319
60341
60374
60423
