29668
29638
29655
29666
29645
29631
29637
29625
29587
29563
29562
29535
29472
29409
29353
29272
29179
29119
29082
29013
28916
28840
28781
28701
28620
28574
28527
28431
28315
28230
28166
28082
27995
27942
27881
27775
27676
27618
27563
27481
27397
27329
27245
27134
27045
27004
26958
26882
26814
26763
26691
26604
26546
26520
26487
26447
26444
26482
26528
26600
26740
26933
27130
27336
27600
27918
28245
28593
28987
29379
29722
30047
30391
30727
31018
31280
31535
31752
31901
32028
32166
32272
32323
32363
32410
32432
32424
32437
32482
32508
32502
32505
32523
32514
32472
32449
32450
32431
32399
32383
32360
32285
32176
32091
32015
31900
31770
31668
31569
31440
31320
31249
31202
31142
31085
31059
31024
30947
30882
30864
30849
30815
30792
30786
30762
30715
30686
30689
30678
30640
30613
30600
30560
30492
30448
30428
30383
30308
30240
30174
30081
29983
29922
29882
29816
29735
29677
29614
29512
29414
29366
29336
29280
29212
29165
29109
29010
28912
28852
28791
28708
28627
28562
28478
28367
28280
28230
28168
28078
28009
27975
27934
27889
27897
27972
28080
28216
28409
28650
28896
29163
29503
29907
30319
30734
31177
31609
31983
32329
32691
33042
33334
33583
33833
34057
34220
34355
34488
34590
34648
34710
34802
34873
34898
34920
34962
34989
34989
35004
35040
35048
35014
34976
34947
34893
34818
34766
34728
34656
34553
34473
34417
34349
34282
34244
34196
34096
33972
33875
33792
33685
33575
33498
33417
33303
33206
33155
33122
33087
33066
33068
33052
33004
32975
32983
32978
32937
32902
32883
32836
32754
32681
32621
32541
32445
32369
32306
32214
32095
31999
31918
31816
31714
31648
31595
31503
31385
31289
31205
31097
30992
30926
30872
30789
30695
30618
30530
30403
30283
30203
30120
30008
29909
29843
29766
29658
29575
29542
29510
29476
29490
29560
29642
29732
29886
30114
30371
30654
31002
31397
31769
32122
32504
32904
33268
33611
33968
34304
34572
34800
35029
35243
35410
35554
35710
35840
35911
35976
36060
36123
36155
36188
36231
36246
36223
36213
36237
36250
36237
36238
36255
36241
36192
36159
36141
36097
36024
35959
35892
35785
35664
35581
35521
35430
35313
35210
35105
34967
34833
34748
34685
34602
34514
34454
34396
34307
34229
34186
34145
34084
34022
33971
33895
33787
33704
33667
33631
33583
33547
33522
33465
33372
33290
33222
33126
33010
32929
32875
32790
32674
32578
32497
32390
32276
32197
32135
32038
31917
31821
31741
31634
31528
31462
31409
31335
31258
31194
31115
31002
30901
30836
30763
30666
30577
30507
30418
30302
30209
30159
30100
30020
29956
29920
29883
29864
29921
30055
30215
30403
30655
30951
31247
31560
31935
32347
32738
33106
33486
33853
34166
34455
34755
35030
35245
35422
35587
35723
35822
35921
36039
36132
36178
36213
36257
36284
36291
36326
36402
36468
36500
36532
36578
36604
36602
36611
36639
36643
36623
36604
36565
36474
36360
36274
36200
36096
35981
35898
35814
35686
35552
35458
35383
35289
35200
35149
35097
35013
34936
34892
34851
34798
34762
34758
34735
34672
34613
34583
34539
34469
34418
34394
34352
34282
34217
34150
34048
33925
33835
33769
33681
33586
33519
33455
33359
33257
33188
33134
33052
32960
32898
32833
32720
32600
32515
32435
32333
32232
32148
32057
31941
31849
31803
31746
31655
31572
31512
31436
31336
31258
31212
31156
31088
31044
31012
30940
30831
30738
30666
30579
30492
30436
30385
30299
30200
30148
30145
30152
30191
30298
30442
30587
30759
30988
31253
31528
31846
32227
32616
32977
33338
33704
34042
34340
34630
34920
35163
35348
35520
35687
35808
35886
35976
36087
36176
36236
36303
36368
36396
36415
36475
36557
36605
36621
36643
36662
36644
36619
36627
36639
36613
36564
36528
36482
36400
36321
36280
36231
36149
36070
36002
35908
35781
35673
35607
35543
35464
35398
35354
35295
35218
35158
35118
35065
35009
34990
34988
34946
34876
34834
34813
34771
34726
34708
34687
34619
34529
34464
34415
34339
34258
34208
34154
34060
33953
33860
33764
33646
33544
33484
33416
33311
33208
33126
33029
32911
32817
32755
32680
32582
32499
32434
32345
32233
32151
32102
32038
31962
31911
31868
31783
31674
31595
31532
31447
31365
31326
31294
31219
31119
31040
30969
30872
30779
30722
30660
30571
30489
30426
30350
30255
30193
30185
30179
30152
30154
30201
30257
30317
30441
30641
30866
31110
31415
31763
32097
32413
32750
33091
33395
33677
33980
34279
34522
34712
34892
35049
35147
35223
35318
35422
35502
35569
35651
35719
35744
35767
35813
35850
35861
35885
35939
35970
35952
35930
35925
35901
35849
35815
35802
35764
35698
35648
35611
35540
35434
35339
35251
35138
35025
34961
34929
34875
34803
34752
34703
34622
34537
34489
34455
34396
34338
34321
34307
34261
34213
34189
34152
34076
34005
33959
33909
33851
33809
33789
33746
33660
33572
33499
33411
33302
33218
33169
33105
33020
32952
32892
32791
32663
32566
32492
32393
32286
32215
32152
32049
31922
31816
31722
31609
31510
31457
31410
31336
31259
31204
31131
31014
30905
30834
30774
30706
30650
30615
30557
30462
30376
30312
30233
30134
30062
30015
29949
29865
29801
29743
29644
29519
29427
29363
29276
29176
29104
29047
28968
28892
28866
28876
28882
28914
29013
29142
29263
29403
29591
29799
30005
30252
30562
30890
31207
31536
31876
32174
32408
32622
32833
33003
33129
33260
33408
33529
33612
33703
33795
33834
33829
33840
33868
33871
33878
33928
33990
34009
33991
33981
33977
33946
33916
33925
33933
33903
33858
33823
33770
33677
33598
33561
33520
33450
33385
33336
33262
33160
33083
33046
32997
32924
32871
32844
32800
32733
32686
32666
32632
32587
32563
32538
32473
32390
32346
32339
32320
32289
32278
32254
32180
32094
32045
32005
31935
31853
31787
31712
31599
31493
31430
31370
31286
31207
31156
31098
31016
30952
30917
30859
30763
30677
30607
30508
30381
30284
30225
30157
30071
29999
29923
29812
29698
29633
29597
29527
29432
29365
29318
29251
29188
29163
29133
29059
28966
28891
28814
28708
28614
28563
28503
28401
28308
28250
28191
28113
28047
28002
27937
27849
27788
27767
27748
27725
27739
27791
27848
27924
28069
28275
28485
28695
28941
29207
29450
29693
29973
30258
30497
30707
30931
31151
31327
31474
31630
31765
31844
31914
32009
32088
32128
32161
32202
32220
32203
32202
32232
32244
32222
32211
32221
32214
32188
32184
32201
32191
32143
32094
32047
31971
31882
31824
31779
31694
31580
31487
31417
31340
31271
31238
31202
31128
31055
31020
31006
30980
30964
30983
30992
30954
30912
30895
30869
30820
30783
30770
30734
30661
30599
30565
30519
30451
30399
30362
30293
30197
30126
30082
30021
29950
29910
29878
29800
29696
29633
29596
29526
29434
29363
29291
29185
29085
29026
28976
28899
28811
28740
28668
28572
28487
28438
28374
28274
28183
28115
28039
27947
27878
27838
27784
27708
27645
27599
27535
27458
27410
27382
27320
27226
27145
27078
26988
26894
26837
26793
26714
26618
26558
26523
26480
26461
26503
26567
26620
26692
26816
26980
27154
27355
27608
27872
28119
28376
28655
28918
29155
29401
29664
29889
30058
30215
30375
30503
30594
30687
30786
30858
30897
30937
30977
30982
30976
31008
31053
31056
31030
31023
31016
30972
30930
30936
30950
30925
30876
30843
30803
30725
30651
30611
30567
30499
30440
30398
30336
30240
30156
30104
30046
29971
29916
29888
29845
29780
29737
29724
29705
29674
29660
29653
29618
29572
29563
29576
29563
29527
29502
29473
29406
29331
29286
29245
29174
29086
29009
28928
28814
28706
28641
28580
28503
28440
28402
28350
28267
28193
28145
28083
27994
27916
27855
27775
27672
27589
27532
27461
27378
27320
27279
27208
27105
27018
26953
26875
26800
26759
26729
26661
26564
26485
26419
26331
26253
26220
26198
26145
26075
26020
25964
25883
25820
25804
25792
25766
25768
25813
25859
25891
25958
26082
26218
26354
26532
26758
26986
27205
27456
27739
28001
28236
28476
28701
28871
29006
29157
29307
29402
29458
29524
29578
29582
29574
29597
29629
29629
29612
29613
29603
29557
29525
29538
29548
29529
29510
29502
29460
29371
29292
29249
29198
29122
29059
29012
28936
28830
28747
28701
28653
28600
28579
28575
28534
28465
28422
28401
28357
28306
28285
28266
28213
28161
28149
28159
28148
28131
28139
28136
28089
28037
28009
27978
27930
27900
27908
27904
27857
27806
27775
27732
27661
27594
27541
27465
27355
27256
27177
27082
26980
26918
26888
26837
26763
26707
26664
26595
26520
26486
26470
26420
26346
26293
26247
26166
26080
26032
25992
25921
25845
25793
25729
25629
25545
25507
25472
25422
25394
25401
25406
25402
25443
25546
25663
25782
25945
26156
26366
26569
26814
27095
27359
27605
27870
28130
28336
28499
28665
28833
28963
29064
29176
29273
29319
29354
29422
29492
29523
29535
29565
29584
29555
29525
29523
29513
29480
29460
29465
29451
29398
29353
29335
29299
29232
29171
29127
29058
28964
28892
28845
28783
28714
28678
28659
28607
28532
28487
28466
28432
28400
28406
28424
28409
28375
28361
28347
28299
28256
28253
28254
28229
28200
28183
28145
28076
28024
28007
27987
27950
27926
27918
27888
27830
27782
27752
27702
27634
27586
27551
27481
27377
27279
27187
27079
26975
26912
26873
26812
26734
26678
26636
26572
26511
26488
26469
26410
26326
26251
26177
26083
26005
25962
25918
25854
25808
25792
25773
25745
25759
25845
25955
26072
26234
26447
26661
26867
27114
27411
27716
28023
28366
28731
29053
29330
29608
29876
30091
30280
30491
30702
30868
31001
31136
31247
31295
31324
31379
31435
31462
31481
31520
31543
31526
31519
31546
31572
31586
31616
31663
31682
31656
31625
31601
31555
31492
31453
31438
31402
31335
31275
31226
31148
31058
31009
30984
30933
30867
30826
30789
30719
30651
30634
30643
30635
30620
30628
30629
30584
30535
30519
30513
30488
30469
30467
30441
30369
30300
30259
30210
30140
30086
30048
29983
29884
29795
29726
29637
29528
29450
29406
29343
29259
29194
29138
29055
28975
28941
28924
28873
28796
28735
28675
28583
28497
28453
28418
28356
28291
28251
28197
28100
28011
27962
27918
27861
27831
27847
27869
27881
27922
28020
28151
28309
28527
28812
29117
29425
29757
30108
30434
30739
31072
31423
31738
32024
32314
32583
32780
32922
33065
33205
33304
33390
33509
33626
33699
33751
33812
33862
33878
33896
33948
33995
34013
34038
34085
34108
34087
34065
34064
34053
34020
33992
33974
33931
33856
33786
33728
33655
33575
33521
33486
33423
33333
33257
33185
33085
32988
32938
32907
32855
32795
32765
32744
32694
32653
32660
32679
32671
32652
32640
32607
32544
32496
32486
32464
32401
32333
32278
32203
32098
32012
31960
31892
31798
31716
31650
31554
31433
31339
31280
31214
31143
31095
31051
30974
30885
30832
30801
30743
30669
30614
30554
30455
30347
30264
30192
30098
30009
29953
29889
29787
29684
29605
29521
29417
29335
29292
29248
29188
29151
29147
29140
29128
29162
29259
29377
29516
29723
29987
30256
30536
30862
31214
31544
31874
32242
32617
32946
33245
33548
33830
34054
34236
34413
34569
34672
34759
34868
34969
35045
35125
35228
35306
35332
35351
35390
35421
35436
35471
35537
35591
35619
35650
35689
35694
35660
35633
35616
35571
35498
35446
35410
35345
35266
35209
35148
35038
34902
34793
34703
34598
34504
34457
34423
34362
34293
34247
34198
34114
34040
34007
33981
33942
33918
33920
33900
33840
33782
33745
33691
33603
33530
33490
33439
33369
33317
33280
33210
33106
33014
32936
32839
32736
32664
32599
32497
32375
32277
32182
32052
31923
31838
31775
31691
31596
31526
31453
31342
31230
31143
31049
30938
30857
30823
30784
30713
30642
30581
30492
30373
30276
30208
30127
30033
29965
29926
29874
29807
29759
29725
29655
29552
29468
29407
29330
29256
29230
29242
29253
29281
29365
29480
29600
29753
29970
30229
30502
30811
31181
31566
31933
32307
32698
33054
33349
33628
33910
34160
34374
34596
34827
35014
35145
35265
35381
35456
35499
35555
35627
35676
35710
35767
35833
35864
35869
35893
35932
35947
35958
36004
36057
36067
36046
36033
36003
35921
35827
35755
35673
35557
35447
35377
35307
35209
35109
35015
34898
34756
34640
34571
34509
34442
34406
34397
34370
34319
34281
34252
34194
34116
34070
34058
34036
34004
33994
33990
33949
33880
33826
33777
33695
33612
33565
33523
33453
33371
33305
33225
33097
32968
32877
32796
32709
32641
32604
32554
32469
32395
32343
32273
32179
32104
32061
32003
31912
31831
31770
31683
31568
31481
31417
31336
31254
31208
31176
31114
31029
30961
30901
30818
30739
30698
30663
30597
30516
30454
30385
30281
30176
30098
30018
29925
29857
29829
29788
29710
29643
29603
29553
29477
29418
29398
29387
29385
29436
29544
29669
29812
30010
30254
30503
30769
31100
31488
31883
32293
32748
33205
33597
33936
34271
34581
34827
35044
35273
35489
35661
35816
35981
36126
36231
36322
36417
36477
36486
36501
36542
36576
36594
36634
36701
36744
36752
36769
36795
36786
36741
36707
36688
36643
36583
36553
36537
36489
36416
36355
36289
36184
36068
35990
35928
35839
35757
35722
35696
35637
35567
35522
35473
35395
35328
35297
35262
35206
35169
35170
35156
35109
35073
35060
35025
34960
34907
34875
34820
34740
34678
34635
34561
34453
34367
34300
34210
34119
34073
34040
33962
33851
33758
33668
33544
33423
33348
33288
33198
33099
33027
32950
32836
32725
32642
32553
32444
32353
32297
32226
32134
32069
32036
31982
31896
31821
31757
31659
31534
31434
31365
31287
31207
31163
31133
31063
30969
30896
30825
30715
30594
30507
30439
30351
30265
30217
30169
30081
29980
29899
29809
29686
29576
29501
29440
29391
29397
29477
29584
29699
29860
30080
30317
30567
30872
31234
31603
31968
32365
32785
33178
33542
33914
34268
34547
34762
34977
35188
35352
35496
35659
35814
35912
35969
36033
36082
36080
36064
36074
36090
36085
36088
36124
36158
36170
36190
36228
36231
36181
36130
36096
36033
35936
35864
35827
35777
35704
35648
35604
35530
35431
35347
35273
35165
35035
34944
34890
34816
34735
34691
34657
34581
34481
34397
34312
34186
34057
33969
33892
33792
33691
33616
33528
33401
33286
33212
33143
33060
33003
32976
32920
32820
32730
32664
32576
32462
32369
32300
32216
32119
32059
32026
31960
31866
31789
31707
31583
31449
31352
31275
31170
31055
30970
30885
30761
30634
30545
30476
30392
30315
30274
30227
30144
30054
29973
29876
29759
29670
29629
29577
29488
29402
29337
29247
29128
29039
28989
28930
28849
28784
28735
28654
28545
28464
28410
28336
28257
28227
28233
28226
28218
28260
28337
28413
28526
28722
28976
29243
29547
29924
30318
30678
31033
31402
31756
32078
32405
32753
33068
33328
33569
33793
33952
34047
34132
34223
34287
34326
34382
34453
34488
34484
34489
34504
34488
34466
34484
34521
34522
34491
34476
34462
34406
34345
34324
34306
34247
34167
34101
34015
33878
33746
33655
33571
33472
33398
33365
33313
33215
33120
33049
32971
32894
32859
32868
32866
32838
32823
32820
32781
32707
32660
32646
32619
32585
32584
32589
32540
32451
32379
32312
32212
32115
32068
32031
31956
31865
31800
31725
31609
31491
31399
31302
31183
31089
31040
30981
30883
30784
30704
30607
30481
30375
30302
30221
30124
30052
30009
29952
29876
29813
29757
29665
29543
29446
29370
29271
29171
29113
29074
28999
28904
28836
28765
28649
28537
28482
28451
28394
28329
28292
28246
28156
28061
27991
27919
27832
27781
27792
27819
27850
27924
28050
28189
28336
28537
28801
29083
29379
29724
30100
30449
30764
31090
31412
31686
31941
32227
32518
32757
32951
33138
33296
33388
33451
33530
33609
33652
33679
33732
33777
33775
33757
33750
33727
33676
33651
33670
33669
33624
33582
33558
33511
33429
33362
33321
33263
33183
33116
33057
32962
32837
32726
32626
32507
32402
32357
32342
32295
32224
32176
32135
32057
31979
31949
31945
31922
31898
31904
31899
31845
31785
31747
31700
31628
31572
31556
31535
31480
31424
31382
31313
31208
31115
31042
30952
30846
30768
30716
30645
30551
30467
30384
30269
30145
30067
30020
29944
29851
29780
29705
29589
29470
29396
29343
29262
29165
29094
29018
28899
28788
28725
28671
28592
28523
28480
28411
28292
28182
28103
28021
27924
27852
27815
27760
27678
27613
27560
27473
27350
27247
27173
27091
27017
27005
27047
27092
27145
27251
27390
27521
27681
27916
28206
28502
28809
29159
29515
29827
30128
30447
30758
31035
31302
31573
31797
31948
32075
32199
32291
32338
32377
32426
32450
32438
32431
32437
32414
32356
32308
32281
32236
32180
32156
32149
32100
32014
31946
31886
31791
31688
31629
31590
31521
31435
31369
31300
31195
31094
31027
30967
30888
30825
30803
30773
30706
30644
30610
30578
30537
30520
30536
30539
30513
30497
30498
30472
30412
30366
30345
30311
30263
30243
30243
30207
30135
30079
30029
29946
29855
29803
29767
29696
29595
29506
29414
29287
29167
29097
29047
28974
28900
28854
28795
28692
28591
28514
28427
28319
28231
28179
28121
28040
27970
27916
27838
27729
27633
27570
27503
27421
27363
27327
27265
27181
27123
27081
27018
26960
26960
27009
27068
27157
27316
27516
27715
27940
28229
28548
28858
29184
29548
29908
30232
30546
30862
31149
31381
31602
31837
32045
32208
32348
32472
32551
32582
32610
32652
32666
32649
32649
32668
32655
32607
32563
32517
32441
32363
32330
32324
32294
32251
32229
32202
32131
32048
31993
31951
31884
31811
31765
31710
31619
31531
31472
31412
31339
31293
31291
31288
31266
31258
31281
31291
31265
31246
31248
31229
31188
31170
31178
31165
31123
31092
31063
30993
30905
30855
30831
30785
30726
30691
30652
30565
30459
30387
30330
30248
30172
30133
30096
30034
29971
29938
29894
29810
29730
29677
29608
29510
29434
29395
29339
29252
29175
29116
29031
28918
28822
28747
28653
28544
28469
28430
28379
28324
28316
28344
28357
28367
28431
28542
28664
28821
29052
29335
29624
29938
30310
30698
31057
31416
31794
32156
32479
32797
33130
33431
33679
33908
34128
34301
34415
34519
34634
34717
34759
34810
34877
34915
34921
34935
34962
34963
34950
34967
34997
34990
34954
34935
34916
34859
34799
34774
34746
34675
34580
34506
34428
34312
34199
34122
34050
33956
33875
33834
33784
33697
33619
33577
33543
33505
33488
33494
33477
33430
33395
33382
33350
33304
33294
33315
33310
33280
33263
33244
33177
33078
33009
32968
32910
32843
32798
32747
32650
32548
32490
32449
32378
32296
32244
32188
32093
31998
31929
31859
31771
31700
31667
31613
31512
31413
31338
31245
31128
31036
30976
30899
30790
30690
30603
30497
30390
30340
30334
30317
30297
30323
30394
30480
30610
30832
31128
31441
31766
32140
32541
32926
33324
33769
34223
34640
35026
35397
35712
35947
36157
36373
36554
36689
36814
36938
37023
37061
37103
37163
37206
37230
37271
37330
37371
37385
37405
37429
37416
37379
37370
37386
37372
37332
37307
37276
37195
37091
37014
36949
36851
36741
36663
36585
36464
36334
36231
36131
36008
35901
35845
35798
35737
35703
35700
35677
35620
35577
35563
35540
35500
35481
35483
35463
35421
35393
35373
35313
35218
35146
35103
35043
34972
34929
34891
34804
34683
34581
34487
34364
34249
34187
34147
34084
34003
33931
33844
33714
33586
33494
33402
33291
33195
33126
33040
32920
32815
32743
32654
32537
32436
32357
32258
32138
32049
32006
31970
31945
31976
32049
32114
32184
32324
32539
32785
33078
33441
33837
34221
34607
35031
35473
35884
36276
36679
37049
37343
37594
37832
38031
38173
38297
38424
38510
38539
38561
38594
38603
38579
38570
38583
38574
38535
38512
38508
38480
38437
38431
38448
38429
38373
38323
38271
38177
38063
37986
37927
37834
37725
37640
37546
37401
37248
37139
37052
36952
36860
36811
36768
36699
36641
36610
36570
36502
36459
36461
36452
36405
36360
36335
36289
36217
36170
36160
36128
36057
35986
35919
35816
35689
35600
35544
35465
35371
35302
35227
35109
34981
34890
34818
34722
34611
34522
34427
34293
34167
34092
34027
33939
33851
33780
33687
33552
33431
33352
33269
33162
33067
33000
32917
32806
32708
32630
32534
32428
32365
32344
32317
32289
32302
32347
32388
32449
32592
32809
33051
33324
33662
34031
34386
34755
35175
35612
36012
36385
36756
37093
37364
37600
37821
37992
38094
38181
38287
38368
38404
38434
38478
38492
38460
38430
38417
38389
38343
38325
38330
38308
38257
38216
38173
38085
37974
37899
37857
37794
37712
37648
37583
37475
37343
37238
37143
37015
36886
36799
36726
36633
36539
36475
36399
36280
36171
36107
36049
35972
35917
35900
35872
35814
35769
35747
35695
35612
35547
35506
35442
35352
35277
35216
35122
34996
34890
34804
34694
34582
34521
34482
34401
34284
34184
34086
33949
33813
33722
33645
33545
33445
33372
33288
33159
33035
32948
32857
32739
32628
32539
32439
32313
32209
32148
32079
31980
31890
31824
31735
31619
31531
31483
31432
31378
31361
31371
31366
31361
31420
31547
31692
31868
32111
32387
32655
32942
33289
33662
34005
34334
34676
34985
35227
35439
35645
35814
35936
36055
36190
36287
36321
36340
36366
36367
36330
36306
36313
36306
36271
36246
36233
36189
36117
36065
36035
35985
35924
35889
35862
35787
35675
35592
35530
35441
35352
35303
35258
35172
35067
34985
34908
34803
34710
34663
34624
34570
34535
34532
34512
34455
34409
34400
34387
34347
34312
34288
34235
34143
34063
34011
33948
33875
33833
33812
33761
33683
33624
33570
33479
33386
33341
33313
33242
33139
33053
32970
32852
32738
32673
32619
32529
32424
32339
32246
32117
31987
31886
31783
31663
31567
31508
31437
31329
31228
31155
31070
30967
30900
30882
30866
30840
30846
30890
30937
30990
31100
31269
31458
31676
31956
32277
32585
32881
33212
33566
33891
34197
34513
34802
35028
35214
35392
35543
35643
35723
35819
35891
35913
35929
35962
35974
35950
35941
35972
35994
35988
35987
35996
35976
35921
35871
35833
35768
35684
35630
35600
35542
35459
35393
35327
35225
35112
35036
34979
34892
34797
34734
34675
34584
34496
34451
34427
34382
34346
34353
34359
34330
34297
34278
34237
34163
34105
34082
34047
33984
33930
33895
33837
33746
33672
33622
33556
33476
33419
33377
33302
33199
33116
33041
32933
32811
32721
32651
32559
32464
32402
32339
32232
32112
32026
31963
31885
31814
31780
31743
31668
31591
31534
31459
31350
31253
31188
31122
31046
30997
30988
30986
30992
31045
31153
31286
31445
31667
31946
32228
32506
32820
33160
33481
33792
34131
34472
34763
35003
35232
35427
35543
35629
35743
35859
35932
35984
36060
36130
36162
36196
36254
36302
36323
36349
36390
36396
36347
36301
36285
36261
36218
36196
36201
36185
36130
36072
36026
35961
35876
35814
35765
35678
35561
35464
35381
35278
35185
35138
35110
35050
34968
34914
34879
34823
34779
34782
34791
34768
34732
34708
34670
34596
34534
34509
34480
34426
34369
34321
34253
34157
34076
34026
33963
33872
33789
33724
33629
33501
33392
33313
33224
33131
33074
33027
32938
32824
32739
32675
32590
32499
32437
32376
32277
32163
32080
32008
31912
31823
31773
31723
31645
31569
31513
31443
31349
31280
31264
31267
31284
31359
31505
31669
31832
32032
32283
32543
32808
33126
33486
33832
34163
34509
34842
35111
35333
35562
35796
35988
36147
36307
36441
36515
36567
36648
36738
36800
36855
36933
36996
37013
37024
37057
37079
37074
37073
37104
37128
37114
37095
37087
37058
37004
36963
36941
36891
36799
36701
36611
36501
36384
36303
36246
36163
36059
35975
35898
35794
35693
35643
35626
35586
35540
35531
35527
35488
35432
35396
35363
35299
35239
35217
35196
35148
35100
35069
35020
34928
34832
34754
34670
34571
34491
34435
34361
34262
34183
34130
34057
33953
33866
33799
33706
33602
33544
33516
33461
33386
33328
33263
33156
33032
32938
32863
32772
32689
32650
32617
32550
32469
32399
32317
32201
32105
32059
32008
31925
31845
31785
31706
31595
31508
31473
31454
31442
31483
31590
31714
31845
32023
32255
32503
32776
33118
33512
33894
34262
34648
35026
35352
35646
35950
36243
36483
36696
36924
37130
37274
37381
37482
37562
37602
37645
37721
37787
37821
37862
37917
37945
37935
37933
37955
37966
37947
37937
37950
37937
37886
37842
37806
37738
37640
37562
37505
37430
37348
37294
37236
37127
36993
36894
36820
36729
36644
36606
36584
36532
36467
36430
36397
36331
36275
36267
36261
36224
36191
36181
36146
36063
35982
35924
35854
35759
35684
35639
35576
35477
35386
35314
35220
35100
34996
34912
34809
34694
34602
34521
34406
34266
34152
34063
33959
33859
33796
33740
33650
33537
33440
33349
33231
33121
33052
32987
32893
32805
32739
32655
32544
32461
32423
32371
32283
32200
32139
32064
31960
31869
31804
31728
31640
31583
31554
31504
31438
31398
31373
31334
31319
31381
31496
31612
31755
31970
32223
32465
32723
33037
33383
33719
34070
34461
34840
35170
35475
35770
36017
36194
36350
36517
36661
36762
36850
36944
37005
37024
37044
37071
37070
37044
37042
37068
37074
37063
37071
37090
37069
37017
36982
36960
36911
36852
36823
36802
36739
36642
36553
36458
36322
36181
36078
35990
35887
35793
35734
35670
35572
35485
35431
35373
35295
35243
35239
35237
35211
35187
35172
35126
35047
34980
34935
34870
34787
34731
34697
34631
34538
34470
34415
34334
34254
34217
34186
34102
33986
33888
33794
33667
33545
33471
33412
33327
33239
33173
33091
32968
32852
32770
32687
32587
32497
32432
32355
32242
32131
32043
31946
31836
31749
31689
31614
31519
31437
31363
31266
31163
31098
31057
30983
30881
30799
30723
30612
30501
30445
30434
30429
30437
30499
30593
30684
30810
31009
31257
31527
31833
32191
32544
32861
33183
33529
33852
34131
34404
34682
34913
35079
35231
35381
35491
35561
35634
35716
35761
35760
35757
35752
35707
35648
35633
35642
35616
35562
35529
35497
35429
35362
35343
35340
35302
35235
35179
35110
34996
34888
34825
34763
34673
34597
34558
34504
34410
34319
34249
34172
34082
34023
34008
33989
33952
33931
33924
33893
33835
33794
33779
33754
33721
33716
33722
33682
33603
33544
33504
33439
33364
33321
33282
33201
33095
33010
32926
32809
32700
32631
32568
32485
32408
32354
32280
32159
32042
31965
31887
31785
31693
31624
31537
31414
31302
31217
31124
31027
30967
30929
30853
30746
30660
30584
30481
30376
30312
30268
30188
30088
30024
29986
29944
29938
30012
30131
30255
30406
30620
30870
31116
31398
31741
32105
32464
32835
33217
33565
33857
34138
34423
34665
34847
35010
35165
35271
35326
35373
35427
35452
35455
35479
35520
35523
35487
35467
35460
35424
35378
35361
35354
35313
35253
35217
35180
35101
35015
34964
34912
34824
34718
34625
34522
34384
34254
34164
34074
33965
33876
33824
33763
33679
33621
33603
33577
33534
33514
33521
33511
33469
33441
33432
33399
33350
33330
33323
33270
33175
33095
33031
32944
32862
32824
32797
32730
32623
32518
32413
32282
32161
32090
32028
31939
31845
31769
31681
31560
31458
31399
31338
31251
31172
31112
31034
30932
30847
30788
30715
30628
30563
30517
30446
30343
30245
30150
30025
29896
29812
29765
29710
29658
29651
29668
29674
29704
29804
29956
30125
30337
30631
30966
31297
31642
32021
32403
32764
33139
33545
33926
34251
34554
34851
35100
35286
35452
35616
35736
35810
35889
35973
36012
36005
36009
36032
36035
36031
36059
36091
36075
36029
36011
36017
36005
35988
35994
35996
35953
35882
35825
35763
35658
35546
35469
35391
35284
35180
35098
34995
34848
34711
34612
34516
34411
34337
34309
34277
34220
34175
34149
34099
34031
33996
33998
33981
33936
33899
33864
33794
33707
33650
33616
33554
33472
33411
33348
33245
33134
33057
32993
32902
32807
32745
32678
32574
32465
32369
32259
32121
31999
31921
31838
31729
31636
31569
31485
31373
31274
31197
31105
31002
30929
30883
30811
30708
30617
30535
30424
30305
30236
30197
30132
30056
30016
29994
29962
29960
30032
30159
30301
30474
30718
31000
31282
31602
31980
32373
32752
33146
33565
33954
34279
34584
34890
35164
35387
35598
35809
35973
36075
36161
36250
36306
36330
36377
36447
36485
36488
36496
36495
36454
36407
36404
36420
36402
36356
36328
36299
36234
36163
36121
36087
36022
35943
35885
35811
35692
35574
35483
35384
35265
35169
35115
35058
34982
34918
34874
34810
34717
34640
34592
34539
34478
34445
34430
34385
34314
34259
34211
34131
34042
33994
33966
33904
33817
33751
33686
33586
33488
33431
33384
33305
33216
33155
33086
32974
32865
32789
32710
32610
32526
32473
32397
32279
32166
32080
31987
31873
31783
31729
31662
31563
31468
31385
31273
31137
31028
30942
30839
30738
30675
30627
30538
30414
30311
30225
30118
30010
29935
29866
29769
29677
29638
29640
29653
29709
29841
30014
30200
30432
30723
31037
31356
31721
32142
32564
32959
33360
33771
34144
34466
34780
35096
35365
35581
35785
35974
36098
36163
36229
36301
36338
36358
36409
36456
36450
36415
36403
36405
36378
36345
36349
36357
36324
36277
36244
36198
36116
36040
35997
35938
35835
35735
35655
35561
35446
35349
35283
35203
35092
34992
34918
34829
34722
34646
34604
34547
34475
34427
34387
34312
34220
34164
34139
34100
34058
34045
34025
33956
33868
33805
33758
33693
33634
33612
33581
33506
33415
33333
33241
33126
33028
32965
32878
32749
32640
32564
32471
32343
32229
32145
32050
31936
31840
31769
31676
31554
31455
31385
31305
31221
31176
31148
31080
30975
30890
30810
30695
30585
30522
30478
30401
30309
30241
30169
30056
29947
29876
29809
29720
29642
29609
29587
29555
29568
29660
29794
29953
30172
30457
30762
31067
31410
31797
32186
32568
32976
33401
33790
34133
34465
34771
35007
35187
35364
35534
35656
35749
35853
35936
35959
35948
35947
35948
35917
35881
35880
35874
35826
35765
35712
35640
35538
35456
35415
35369
35288
35204
35132
35035
34906
34789
34702
34605
34488
34391
34318
34227
34110
34008
33929
33841
33757
33720
33709
33672
33615
33574
33534
33464
33395
33370
33363
33327
33276
33250
33219
33146
33065
33004
32934
32842
32770
32739
32698
32619
32543
32488
32409
32291
32182
32104
32020
31919
31838
31777
31684
31553
31436
31338
31219
31090
31001
30947
30876
30786
30710
30633
30518
30397
30314
30252
30171
30085
30025
29960
29857
29758
29698
29643
29566
29488
29425
29342
29224
29118
29051
28986
28908
28853
28839
28823
28796
28812
28888
28989
29113
29311
29589
29897
30219
30588
30984
31357
31713
32103
32517
32905
33264
33623
33948
34194
34384
34565
34718
34807
34870
34951
35015
35031
35029
35038
35023
34962
34905
34878
34839
34768
34703
34658
34587
34477
34376
34302
34212
34099
34008
33946
33861
33748
33648
33556
33433
33291
33187
33118
33039
32959
32910
32867
32786
32686
32619
32575
32511
32457
32455
32463
32436
32397
32376
32337
32251
32171
32129
32085
32023
31980
31962
31919
31837
31767
31722
31655
31557
31473
31414
31331
31211
31101
31005
30876
30719
30591
30495
30390
30291
30232
30189
30105
29994
29910
29837
29730
29627
29569
29523
29448
29361
29296
29234
29140
29053
29007
28959
28881
28799
28723
28629
28504
28392
28316
28232
28126
28043
27990
27917
27811
27714
27637
27554
27477
27462
27505
27555
27621
27742
27903
28060
28228
28463
28763
29088
29447
29862
30297
30700
31081
31474
31843
32149
32431
32716
32966
33150
33308
33466
33576
33611
33621
33632
33614
33557
33509
33489
33454
33387
33330
33282
33200
33090
33005
32946
32872
32786
32728
32678
32580
32438
32317
32220
32106
31994
31928
31877
31791
31685
31596
31523
31438
31366
31340
31323
31274
31221
31186
31145
31086
31048
31049
31041
30998
30962
30950
30921
30861
30820
30808
30773
30699
30631
30577
30496
30389
30312
30262
30191
30110
30062
30023
29940
29826
29733
29651
29549
29454
29404
29364
29284
29181
29097
29002
28861
28729
28646
28569
28475
28394
28339
28268
28172
28093
28045
27988
27909
27840
27789
27719
27620
27542
27501
27456
27404
27386
27396
27403
27427
27526
27693
27884
28109
28406
28746
29082
29426
29816
30232
30627
31013
31412
31780
32075
32324
32558
32758
32905
33032
33166
33267
33311
33333
33355
33344
33287
33238
33222
33191
33124
33062
33017
32942
32830
32730
32647
32538
32418
32335
32273
32176
32053
31956
31870
31754
31638
31568
31519
31443
31355
31293
31235
31148
31073
31045
31037
31017
31007
31027
31035
31002
30965
30947
30916
30855
30805
30781
30736
30656
30594
30564
30523
30463
30430
30426
30404
30351
30308
30272
30196
30087
30007
29953
29874
29788
29736
29689
29599
29486
29396
29325
29240
29156
29106
29052
28952
28841
28754
28663
28546
28447
28397
28348
28274
28210
28174
28122
28034
27957
27919
27887
27849
27852
27909
27975
28051
28191
28399
28637
28914
29269
29682
30091
30494
30930
31378
31795
32199
32626
33045
33399
33697
33985
34240
34428
34596
34781
34941
35049
35130
35211
35261
35258
35250
35271
35283
35266
35250
35251
35227
35161
35100
35070
35029
34964
34915
34887
34829
34735
34651
34578
34470
34345
34257
34190
34088
33967
33881
33819
33740
33669
33645
33640
33606
33553
33522
33488
33417
33352
33337
33338
33327
33327
33347
33338
33279
33224
33197
33156
33085
33023
32984
32924
32835
32757
32691
32596
32474
32376
32306
32222
32129
32068
32026
31952
31855
31784
31725
31637
31547
31495
31458
31384
31285
31206
31124
30997
30867
30782
30712
30624
30541
30489
30424
30324
30227
30161
30099
30036
30026
30088
30177
30276
30429
30648
30889
31149
31479
31885
32318
32764
33259
33779
34257
34684
35105
35511
35856
36159
36467
36757
36978
37139
37291
37418
37485
37531
37598
37656
37674
37677
37689
37684
37643
37613
37626
37634
37611
37594
37594
37568
37499
37432
37380
37302
37198
37112
37040
36943
36818
36707
36610
36489
36355
36258
36189
36104
36013
35952
35898
35814
35726
35683
35667
35630
35587
35580
35578
35544
35501
35477
35448
35385
35328
35309
35284
35229
35182
35157
35111
35023
34939
34870
34783
34670
34569
34492
34398
34279
34172
34079
33964
33836
33748
33696
33630
33555
33505
33452
33345
33216
33119
33048
32960
32867
32807
32747
32642
32523
32431
32349
32249
32157
32106
32058
31989
31947
31965
32014
32080
32201
32396
32625
32873
33186
33577
34000
34437
34920
35440
35938
36389
36832
37266
37652
38002
38358
38693
38946
39123
39281
39419
39500
39559
39644
39735
39784
39804
39838
39859
39832
39809
39825
39843
39836
39827
39833
39812
39738
39669
39637
39596
39521
39448
39386
39287
39147
39018
38911
38788
38653
38550
38472
38362
38220
38093
37986
37868
37760
37701
37665
37600
37517
37462
37421
37356
37298
37287
37291
37264
37220
37185
37143
37067
36994
36956
36916
36849
36775
36704
36611
36488
36381
36313
36238
36137
36046
35973
35878
35750
35627
35525
35409
35278
35178
35106
35006
34883
34779
34683
34550
34406
34309
34242
34150
34054
33995
33944
33852
33735
33639
33540
33405
33281
33204
33146
33081
33036
33038
33045
33035
33063
33161
33295
33458
33699
34034
34409
34798
35234
35715
36186
36637
37109
37594
38039
38442
38839
39211
39508
39745
39972
40171
40302
40396
40501
40606
40669
40699
40744
40785
40787
40784
40808
40834
40837
40836
40856
40858
40822
40783
40754
40706
40629
40564
40530
40477
40382
40288
40196
40059
39880
39721
39584
39427
39268
39158
39080
38981
38860
38764
38685
38584
38492
38449
38426
38370
38297
38252
38212
38133
38050
38001
37966
37906
37848
37824
37795
37729
37656
37595
37512
37389
37278
37210
37137
37037
36947
36871
36757
36594
36432
36291
36138
35975
35855
35782
35702
35603
35520
35438
35317
35180
35087
35030
34953
34865
34802
34732
34613
34480
34382
34302
34197
34091
34021
33950
33847
33743
33664
33578
33466
33371
33317
33260
33181
33117
33085
33058
33033
33064
33170
33311
33485
33735
34062
34421
34797
35220
35682
36138
36594
37090
37602
38060
38455
38831
39170
39432
39649
39866
40058
40179
40250
40322
40375
40373
40370
40412
40459
40478
40493
40514
40502
40443
40397
40388
40357
40288
40228
40191
40135
40043
39962
39905
39830
39731
39654
39593
39491
39346
39220
39115
38983
38842
38741
38663
38558
38439
38360
38307
38226
38144
38110
38089
38036
37974
37934
37890
37814
37743
37709
37666
37588
37514
37463
37394
37291
37201
37145
37073
36970
36880
36810
36706
36562
36435
36340
36230
36107
36010
35925
35802
35647
35518
35421
35319
35217
35148
35082
34972
34836
34724
34625
34504
34386
34308
34229
34110
33984
33881
33774
33642
33529
33461
33390
33291
33199
33128
33036
32906
32788
32703
32610
32504
32439
32425
32417
32422
32492
32626
32781
32968
33240
33586
33947
34320
34739
35179
35591
35990
36414
36837
37206
37530
37841
38104
38280
38406
38520
38606
38642
38662
38699
38711
38678
38643
38627
38593
38529
38485
38481
38462
38406
38361
38336
38282
38198
38130
38087
38023
37935
37857
37779
37653
37492
37361
37263
37151
37034
36949
36869
36749
36615
36515
36439
36347
36266
36232
36214
36172
36130
36112
36077
35993
35918
35883
35847
35787
35736
35708
35656
35569
35495
35446
35378
35280
35195
35133
35056
34959
34886
34837
34761
34658
34569
34483
34365
34235
34141
34068
33974
33872
33802
33729
33612
33497
33426
33367
33271
33157
33070
32981
32854
32724
32617
32508
32386
32286
32226
32156
32052
31955
31876
31779
31662
31575
31533
31502
31474
31488
31548
31624
31726
31908
32166
32447
32757
33125
33521
33896
34262
34660
35064
35422
35753
36096
36411
36649
36828
36990
37121
37193
37249
37331
37394
37410
37417
37437
37444
37420
37408
37429
37434
37400
37372
37364
37326
37246
37169
37106
37016
36897
36791
36688
36545
36376
36246
36149
36031
35906
35820
35742
35626
35505
35428
35383
35326
35270
35253
35236
35181
35119
35087
35064
35020
34988
34996
34998
34972
34951
34946
34908
34824
34748
34704
34648
34567
34500
34450
34370
34253
34143
34055
33953
33838
33755
33696
33603
33475
33372
33292
33187
33079
33015
32971
32894
32791
32701
32615
32500
32387
32313
32243
32139
32027
31940
31850
31730
31629
31580
31535
31471
31424
31415
31408
31395
31422
31506
31616
31757
31970
32256
32571
32899
33267
33674
34072
34459
34874
35303
35693
36040
36380
36686
36918
37107
37301
37485
37613
37699
37788
37851
37847
37814
37800
37791
37761
37745
37770
37787
37770
37755
37760
37746
37693
37648
37633
37601
37529
37455
37390
37296
37169
37062
36988
36901
36799
36715
36637
36517
36374
36269
36201
36118
36034
35989
35954
35888
35826
35809
35810
35783
35747
35745
35737
35681
35626
35610
35588
35532
35476
35437
35371
35257
35148
35069
34986
34886
34800
34735
34647
34528
34423
34340
34244
34137
34057
33999
33924
33829
33746
33666
33553
33434
33358
33302
33212
33095
32993
32895
32771
32650
32571
32503
32409
32310
32241
32174
32074
31993
31969
31971
31982
32042
32178
32351
32540
32788
33116
33473
33833
34226
34655
35074
35470
35878
36292
36669
37010
37346
37659
37897
38076
38258
38445
38592
38702
38814
38909
38947
38952
38974
39006
39013
39016
39047
39069
39052
39023
39008
38970
38883
38806
38775
38740
38668
38590
38522
38430
38304
38192
38110
38015
37900
37810
37747
37657
37536
37431
37348
37252
37164
37129
37125
37099
37054
37029
37003
36935
36856
36818
36802
36757
36693
36649
36595
36496
36394
36327
36267
36181
36098
36043
35977
35878
35783
35707
35617
35499
35403
35346
35281
35187
35103
35037
34954
34840
34731
34632
34514
34389
34300
34237
34158
34068
34004
33952
33862
33743
33649
33579
33489
33399
33349
33309
33238
33159
33113
33087
33058
33077
33187
33356
33554
33807
34134
34490
34843
35233
35673
36119
36548
36991
37444
37852
38198
38522
38825
39063
39243
39419
39591
39717
39810
39914
40011
40057
40072
40114
40173
40201
40209
40231
40238
40197
40149
40136
40131
40093
40050
40039
40016
39941
39851
39770
39661
39513
39385
39304
39214
39091
38982
38907
38814
38685
38574
38495
38407
38308
38239
38201
38142
38056
37982
37927
37858
37793
37779
37790
37760
37700
37660
37621
37543
37463
37424
37392
37324
37234
37162
37094
36996
36900
36841
36773
36662
36546
36451
36350
36223
36110
36028
35931
35801
35683
35594
35493
35376
35290
35237
35174
35095
35025
34951
34841
34722
34646
34591
34495
34367
34266
34185
34081
33979
33919
33856
33751
33648
33602
33596
33589
33604
33687
33811
33942
34128
34404
34730
35080
35481
35937
36391
36809
37236
37690
38108
38463
38794
39110
39376
39592
39804
40010
40164
40270
40372
40467
40518
40544
40592
40641
40639
40604
40596
40611
40608
40604
40631
40649
40616
40567
40547
40530
40477
40407
40356
40287
40164
40036
39935
39823
39688
39566
39473
39366
39222
39089
38986
38879
38768
38694
38661
38616
38546
38488
38449
38389
38319
38291
38291
38264
38210
38167
38124
38042
37954
37908
37874
37799
37695
37610
37530
37418
37315
37260
37206
37119
37025
36939
36838
36705
36578
36486
36389
36262
36143
36050
35947
35823
35724
35660
35581
35479
35394
35324
35221
35093
34999
34936
34855
34760
34683
34607
34491
34358
34258
34179
34074
33960
33872
33779
33648
33520
33440
33392
33344
33315
33342
33390
33436
33538
33732
33976
34245
34573
34968
35374
35769
36186
36626
37043
37423
37805
38189
38520
38784
39021
39237
39396
39509
39633
39764
39849
39893
39946
40000
40015
40013
40035
40063
40056
40033
40034
40029
39982
39932
39920
39913
39872
39821
39789
39731
39611
39485
39391
39288
39163
39054
38967
38859
38717
38588
38492
38385
38256
38157
38093
38010
37909
37847
37825
37790
37743
37724
37715
37663
37577
37518
37486
37433
37373
37343
37308
37228
37134
37066
36998
36885
36769
36704
36636
36518
36401
36318
36230
36118
36021
35955
35873
35752
35641
35559
35462
35336
35229
35153
35064
34951
34856
34782
34689
34584
34520
34479
34399
34286
34192
34105
33982
33859
33786
33728
33634
33515
33418
33333
33220
33110
33042
32982
32898
32810
32738
32653
32545
32474
32473
32506
32559
32663
32830
33021
33224
33486
33823
34189
34571
34996
35453
35882
36267
36645
37012
37328
37611
37896
38156
38339
38465
38592
38714
38788
38834
38891
38924
38899
38853
38828
38813
38780
38747
38748
38745
38705
38657
38615
38551
38452
38362
38306
38235
38117
38001
37907
37795
37654
37532
37441
37339
37222
37126
37049
36953
36850
36791
36766
36718
36646
36585
36525
36431
36339
36301
36295
36262
36207
36171
36128
36041
35952
35902
35867
35814
35753
35702
35637
35536
35437
35359
35263
35131
35002
34892
34772
34639
34533
34456
34369
34262
34171
34094
33995
33884
33808
33761
33691
33599
33524
33452
33345
33235
33171
33121
33032
32927
32845
32763
32643
32527
32454
32387
32289
32184
32106
32022
31900
31788
31721
31658
31571
31495
31449
31393
31310
31255
31250
31250
31256
31315
31440
31594
31768
32001
32295
32609
32940
33323
33739
34125
34479
34848
35215
35527
35802
36086
36355
36555
36691
36813
36908
36938
36946
36977
36995
36967
36923
36897
36856
36769
36684
36635
36584
36503
36417
36343
36251
36129
36027
35967
35896
35796
35709
35638
35535
35398
35285
35202
35106
35005
34937
34880
34780
34654
34566
34508
34432
34362
34342
34339
34304
34253
34227
34208
34160
34120
34120
34122
34094
34057
34033
33990
33909
33834
33797
33758
33689
33623
33572
33492
33377
33277
33207
33116
32990
32875
32783
32669
32529
32420
32344
32255
32161
32100
32045
31951
31838
31758
31699
31613
31511
31433
31356
31242
31131
31066
31012
30928
30837
30764
30686
30583
30500
30468
30434
30369
30319
30307
30303
30301
30347
30466
30612
30761
30955
31208
31479
31764
32105
32492
32865
33220
33593
33963
34279
34561
34857
35144
35364
35532
35696
35832
35901
35947
36017
36081
36096
36078
36067
36040
35969
35906
35890
35867
35803
35737
35689
35634
35558
35496
35463
35405
35302
35202
35124
35026
34901
34797
34715
34605
34470
34371
34310
34238
34160
34118
34092
34039
33982
33967
33971
33944
33899
33882
33874
33831
33791
33799
33813
33793
33764
33749
33728
33679
33636
33627
33603
33533
33456
33393
33315
33213
33129
33076
33004
32903
32812
32736
32630
32495
32388
32313
32224
32121
32047
31991
31893
31767
31672
31598
31499
31398
31341
31298
31219
31120
31052
30993
30898
30802
30752
30711
30644
30580
30550
30523
30478
30466
30519
30606
30720
30896
31144
31418
31695
32023
32414
32818
33225
33671
34145
34582
34963
35329
35676
35959
36191
36418
36624
36757
36825
36889
36948
36961
36955
36973
36988
36962
36920
36910
36917
36897
36875
36887
36897
36868
36831
36806
36763
36689
36622
36575
36502
36388
36272
36166
36034
35879
35750
35655
35549
35421
35310
35220
35110
34994
34936
34933
34926
34915
34938
34965
34950
34927
34948
34986
34986
34963
34959
34946
34886
34823
34796
34765
34698
34618
34553
34475
34362
34264
34210
34160
34086
34021
33980
33919
33827
33747
33697
33630
33530
33432
33343
33220
33068
32946
32861
32761
32647
32556
32470
32343
32193
32076
31982
31865
31742
31657
31585
31479
31362
31284
31237
31185
31154
31179
31227
31266
31345
31493
31675
31878
32138
32469
32826
33182
33580
34037
34497
34933
35377
35827
36225
36557
36872
37181
37438
37640
37831
38000
38103
38162
38241
38336
38393
38426
38473
38508
38493
38470
38488
38519
38515
38494
38495
38486
38426
38363
38337
38301
38223
38137
38066
37974
37847
37740
37678
37604
37487
37375
37287
37195
37095
37022
36981
36922
36830
36745
36676
36590
36504
36468
36464
36427
36356
36313
36292
36249
36205
36204
36217
36195
36143
36106
36070
36000
35930
35896
35851
35759
35651
35550
35425
35262
35112
35005
34896
34760
34635
34542
34440
34312
34204
34133
34062
33982
33936
33912
33851
33756
33677
33610
33523
33438
33395
33370
33302
33206
33132
33065
32962
32856
32790
32734
32638
32520
32427
32346
32248
32179
32181
32222
32283
32403
32609
32849
33097
33402
33781
34188
34607
35072
35586
36082
36523
36946
37358
37715
38019
38324
38633
38896
39103
39294
39459
39548
39579
39622
39676
39694
39703
39741
39775
39767
39743
39745
39758
39744
39733
39762
39785
39759
39721
39699
39660
39580
39501
39446
39361
39220
39079
38967
38853
38721
38603
38506
38389
38240
38105
38005
37906
37800
37730
37687
37611
37510
37439
37394
37335
37281
37267
37265
37217
37131
37058
36987
36883
36782
36722
36665
36579
36488
36418
36339
36224
36117
36053
35989
35894
35800
35721
35621
35489
35369
35281
35179
35053
34942
34841
34706
34543
34407
34306
34201
34090
34008
33940
33829
33685
33579
33511
33432
33348
33292
33237
33145
33041
32965
32899
32806
32708
32642
32573
32468
32364
32287
32204
32095
32004
31962
31924
31871
31851
31889
31958
32051
32209
32444
32715
33011
33370
33799
34253
34715
35211
35717
36174
36586
37005
37417
37764
38056
38342
38597
38775
38909
39050
39177
39244
39270
39296
39319
39303
39281
39296
39297
39244
39187
39162
39140
39104
39091
39116
39118
39070
39024
38999
38950
38864
38781
38705
38589
38428
38280
38162
38037
37906
37803
37704
37567
37421
37327
37264
37173
37065
36991
36935
36856
36781
36747
36725
36669
36598
36552
36511
36441
36380
36362
36335
36263
36181
36111
36030
35924
35834
35775
35692
35563
35445
35353
35241
35103
34993
34913
34812
34678
34550
34435
34296
34150
34053
33997
33914
33803
33713
33633
33523
33411
33338
33277
33183
33065
32965
32870
32739
32611
32537
32470
32372
32279
32216
32152
32067
32009
32001
31980
31912
31843
31795
31731
31635
31554
31501
31431
31334
31261
31239
31240
31270
31375
31544
31724
31921
32196
32552
32939
33360
33846
34355
34821
35252
35694
36126
36495
36819
37140
37419
37615
37758
37887
37986
38037
38081
38147
38189
38180
38166
38170
38150
38095
38053
38044
38020
37960
37907
37871
37807
37711
37639
37593
37520
37425
37355
37288
37166
37010
36888
36801
36705
36604
36527
36443
36312
36169
36068
35994
35905
35824
35792
35764
35697
35633
35601
35567
35512
35475
35478
35474
35433
35391
35366
35321
35244
35178
35135
35065
34960
34864
34781
34676
34560
34479
34425
34343
34225
34114
34015
33897
33780
33710
33651
33545
33414
33314
33242
33153
33060
33001
32940
32839
32733
32659
32592
32502
32422
32378
32314
32195
32073
31976
31873
31755
31657
31588
31507
31405
31328
31285
31235
31171
31129
31106
31047
30951
30877
30829
30766
30716
30735
30806
30877
30958
31103
31307
31527
31774
32085
32429
32771
33136
33549
33969
34350
34711
35079
35405
35651
35869
36091
36280
36417
36540
36665
36739
36745
36735
36730
36694
36628
36587
36572
36536
36473
36419
36373
36295
36200
36143
36108
36038
35940
35859
35784
35678
35562
35483
35421
35331
35228
35156
35084
34970
34847
34751
34664
34563
34479
34440
34400
34329
34277
34276
34290
34290
34305
34342
34355
34335
34327
34340
34329
34283
34249
34234
34191
34115
34057
34018
33952
33868
33806
33747
33654
33551
33489
33448
33372
33271
33196
33134
33039
32938
32872
32807
32700
32586
32498
32410
32301
32199
32126
32038
31901
31766
31663
31556
31432
31329
31253
31161
31045
30954
30898
30830
30733
30650
30599
30554
30532
30588
30704
30816
30930
31107
31357
31638
31959
32349
32772
33180
33594
34045
34501
34907
35273
35634
35960
36207
36416
36629
36807
36922
37007
37081
37115
37102
37092
37108
37103
37060
37026
37017
36988
36926
36878
36856
36809
36726
36651
36585
36494
36388
36307
36232
36115
35979
35883
35812
35720
35624
35564
35507
35408
35301
35232
35169
35067
34946
34846
34738
34597
34483
34438
34409
34359
34324
34324
34313
34269
34246
34263
34259
34209
34152
34101
34021
33908
33810
33725
33600
33441
33311
33215
33110
33011
32953
32911
32827
32719
32644
32597
32532
32456
32406
32350
32244
32133
32070
32028
31962
31890
31843
31788
31698
31619
31583
31537
31451
31364
31298
31218
31108
31008
30942
30869
30777
30714
30692
30676
30675
30753
30917
31112
31338
31633
31987
32359
32763
33231
33731
34206
34653
35107
35550
35936
36286
36638
36957
37198
37384
37556
37702
37797
37879
37984
38063
38085
38097
38129
38145
38117
38089
38095
38086
38035
37988
37955
37895
37809
37748
37713
37652
37559
37473
37388
37268
37134
37037
36965
36861
36734
36634
36541
36418
36303
36241
36200
36127
36039
35985
35943
35869
35794
35761
35736
35686
35641
35624
35605
35561
35529
35533
35515
35447
35382
35344
35289
35206
35137
35090
35017
34909
34813
34733
34627
34502
34404
34320
34196
34045
33928
33846
33752
33656
33594
33531
33420
33294
33205
33138
33047
32944
32870
32791
32668
32550
32468
32385
32280
32188
32122
32043
31934
31840
31784
31714
31604
31501
31420
31328
31227
31169
31167
31174
31182
31248
31390
31572
31804
32123
32499
32869
33251
33706
34216
34715
35193
35687
36167
36585
36978
37388
37775
38090
38346
38577
38767
38890
38987
39094
39164
39171
39165
39176
39169
39132
39118
39144
39154
39132
39120
39132
39127
39094
39080
39091
39072
39017
38967
38911
38806
38672
38572
38502
38402
38272
38160
38052
37904
37753
37655
37589
37506
37414
37348
37296
37223
37166
37163
37170
37147
37115
37089
37040
36956
36895
36885
36867
36807
36751
36722
36681
36615
36567
36540
36481
36381
36286
36206
36103
35979
35875
35776
35635
35476
35361
35284
35192
35083
35003
34931
34820
34706
34638
34577
34469
34342
34236
34132
34001
33880
33808
33735
33619
33508
33431
33352
33253
33169
33113
33033
32908
32796
32719
32632
32520
32418
32341
32250
32139
32067
32053
32057
32092
32205
32378
32570
32816
33162
33575
33989
34401
34856
35340
35805
36273
36773
37251
37654
38015
38373
38699
38961
39194
39427
39609
39711
39793
39889
39954
39971
39990
40028
40033
39993
39962
39960
39945
39900
39865
39846
39800
39727
39678
39657
39613
39532
39450
39369
39262
39141
39039
38936
38796
38639
38512
38412
38303
38206
38158
38119
38047
37978
37943
37911
37858
37808
37776
37730
37652
37597
37592
37576
37518
37466
37437
37391
37319
37269
37249
37207
37128
37058
36995
36885
36737
36621
36539
36436
36318
36227
36133
35994
35843
35734
35656
35557
35437
35339
35248
35125
35009
34937
34865
34757
34645
34555
34456
34327
34213
34147
34075
33964
33859
33774
33672
33544
33442
33388
33326
33237
33166
33119
33044
32942
32868
32825
32758
32672
32618
32581
32518
32466
32495
32598
32727
32888
33129
33424
33729
34083
34527
35010
35476
35930
36399
36854
37256
37636
38020
38356
38610
38828
39036
39201
39314
39425
39552
39641
39670
39684
39702
39693
39664
39663
39686
39676
39625
39583
39549
39488
39421
39389
39362
39286
39183
39114
39065
38980
38867
38769
38668
38526
38385
38289
38197
38069
37933
37824
37727
37629
37564
37552
37535
37477
37426
37401
37364
37311
37282
37282
37257
37191
37133
37098
37047
36973
36915
36870
36784
36658
36556
36486
36406
36314
36239
36164
36047
35913
35812
35729
35613
35478
35366
35255
35106
34960
34858
34767
34660
34560
34488
34411
34309
34225
34177
34105
33981
33865
33785
33697
33581
33476
33397
33295
33159
33041
32962
32881
32784
32703
32630
32522
32398
32316
32270
32207
32138
32120
32141
32162
32219
32360
32563
32782
33024
33329
33676
34018
34374
34776
35174
35523
35857
36198
36510
36775
37020
37259
37441
37546
37631
37725
37789
37815
37844
37885
37893
37862
37844
37852
37843
37815
37807
37807
37767
37708
37682
37674
37625
37543
37479
37414
37303
37183
37101
37025
36910
36772
36651
36541
36415
36298
36224
36153
36054
35976
35942
35912
35861
35822
35812
35789
35737
35702
35702
35684
35625
35564
35511
35435
35336
35267
35233
35180
35099
35027
34950
34836
34719
34645
34582
34471
34333
34230
34158
34071
33971
33898
33834
33740
33646
33591
33536
33438
33333
33251
33166
33061
32967
32897
32815
32710
32626
32577
32515
32422
32341
32283
32200
32081
31981
31914
31834
31732
31647
31575
31478
31370
31308
31283
31242
31197
31206
31257
31310
31389
31540
31743
31948
32165
32433
32732
33014
33305
33637
33957
34226
34466
34697
34890
35029
35175
35349
35486
35562
35627
35703
35752
35762
35783
35825
35842
35821
35808
35804
35762
35684
35632
35605
35555
35484
35431
35375
35272
35156
35088
35050
34984
34905
34851
34798
34704
34604
34541
34493
34423
34361
34338
34305
34221
34137
34096
34063
34012
33979
33975
33957
33906
33874
33879
33869
33825
33794
33782
33737
33655
33587
33549
33502
33440
33404
33380
33315
33212
33129
33071
32992
32900
32834
32763
32645
32517
32436
32378
32294
32200
32136
32069
31965
31865
31799
31731
31637
31556
31510
31446
31335
31229
31154
31067
30957
30868
30814
30751
30663
30588
30532
30460
30384
30367
30408
30455
30514
30623
30766
30905
31063
31286
31552
31805
32050
32326
32604
32836
33064
33332
33597
33809
33991
34175
34322
34397
34452
34531
34599
34636
34669
34715
34737
34720
34714
34746
34765
34747
34730
34723
34682
34607
34552
34522
34475
34411
34370
34331
34244
34133
34064
34035
33989
33928
33889
33852
33779
33707
33685
33684
33653
33604
33583
33565
33510
33464
33469
33479
33467
33461
33473
33467
33432
33419
33446
33461
33439
33420
33415
33373
33291
33227
33196
33151
33080
33019
32963
32875
32768
32698
32658
32600
32534
32503
32475
32398
32294
32225
32184
32124
32061
32032
32003
31930
31849
31799
31754
31677
31600
31557
31504
31410
31319
31261
31204
31133
31089
31091
31093
31084
31117
31212
31330
31472
31678
31937
32192
32435
32709
33015
33306
33586
33898
34220
34486
34704
34932
35156
35328
35472
35632
35780
35877
35946
36028
36112
36167
36221
36308
36385
36415
36436
36474
36497
36489
36495
36536
36562
36553
36547
36558
36546
36505
36482
36489
36480
36443
36416
36395
36334
36247
36195
36181
36157
36120
36105
36095
36055
36013
36013
36035
36031
36013
36022
36025
35983
35930
35905
35890
35852
35824
35839
35848
35816
35780
35761
35725
35651
35587
35553
35513
35461
35433
35426
35386
35306
35238
35188
35119
35034
34980
34952
34905
34834
34775
34716
34621
34515
34456
34432
34387
34320
34270
34223
34138
34052
34011
33985
33924
33849
33803
33761
33690
33643
33660
33707
33765
33871
34043
34230
34412
34634
34915
35207
35492
35805
36152
36478
36763
37047
37326
37546
37713
37890
38090
38261
38407
38573
38737
38847
38917
39005
39105
39174
39228
39311
39393
39428
39442
39484
39540
39572
39602
39663
39706
39693
39671
39673
39666
39634
39606
39591
39544
39449
39364
39317
39268
39201
39154
39134
39092
39016
38951
38910
38858
38800
38786
38806
38789
38731
38688
38658
38601
38537
38510
38500
38452
38385
38347
38318
38252
38184
38155
38142
38108
38069
38054
38023
37940
37851
37785
37709
37613
37540
37504
37450
37356
37274
37220
37150
37060
36995
36962
36910
36828
36753
36683
36579
36456
36373
36326
36254
36160
36100
36048
35953
35846
35784
35745
35671
35583
35533
35497
35436
35402
35438
35506
35570
35664
35820
35996
36157
36359
36638
36942
37243
37574
37931
38258
38538
38823
39127
39405
39646
39895
40152
40365
40526
40682
40838
40957
41059
41192
41335
41430
41485
41560
41647
41695
41726
41784
41845
41864
41855
41859
41858
41817
41779
41782
41784
41749
41706
41673
41616
41523
41442
41401
41353
41275
41199
41138
41055
40943
40850
40786
40711
40622
40561
40522
40446
40330
40231
40157
40067
39980
39944
39937
39895
39827
39788
39758
39691
39610
39562
39522
39433
39325
39253
39182
39063
38937
38847
38768
38672
38586
38531
38456
38327
38200
38107
38013
37902
37817
37767
37697
37592
37502
37433
37340
37226
37146
37100
37035
36951
36886
36820
36707
36571
36475
36406
36312
36214
36163
36124
36042
35940
35867
35808
35722
35634
35582
35522
35415
35306
35230
35162
35090
35059
35094
35143
35183
35267
35414
35582
35767
36022
36353
36689
37003
37340
37701
38024
38306
38606
38924
39207
39460
39722
39970
40143
40257
40387
40535
40650
40749
40874
40991
41056
41101
41174
41260
41316
41371
41460
41541
41580
41611
41659
41686
41669
41661
41684
41683
41636
41591
41567
41513
41412
41316
41240
41141
41022
40935
40873
40774
40631
40506
40416
40325
40241
40200
40178
40113
40017
39955
39917
39859
39807
39806
39813
39772
39702
39642
39586
39507
39435
39403
39353
39245
39130
39038
38936
38809
38701
38627
38539
38424
38333
38271
38193
38094
38017
37955
37854
37719
37605
37516
37411
37298
37218
37148
37036
36906
36818
36760
36672
36561
36475
36397
36287
36179
36120
36063
35962
35849
35758
35669
35559
35463
35409
35342
35232
35130
35063
34991
34896
34818
34775
34715
34614
34525
34466
34391
34297
34239
34230
34226
34219
34254
34331
34409
34512
34703
34967
35234
35501
35812
36148
36457
36754
37079
37410
37692
37934
38182
38412
38583
38735
38911
39077
39202
39310
39428
39515
39546
39582
39658
39732
39784
39845
39921
39967
39971
39980
40007
40007
39979
39969
39977
39948
39877
39820
39778
39704
39605
39526
39450
39335
39205
39118
39060
38975
38877
38817
38765
38671
38578
38538
38506
38438
38354
38283
38211
38117
38047
38033
38014
37956
37909
37896
37866
37797
37732
37686
37614
37506
37413
37347
37262
37150
37056
36970
36843
36692
36583
36511
36416
36305
36228
36158
36043
35923
35849
35787
35685
35555
35442
35337
35198
35065
34985
34908
34790
34672
34585
34496
34385
34295
34254
34203
34110
34021
33957
33873
33754
33648
33573
33482
33358
33252
33178
33094
32995
32928
32880
32793
32676
32598
32559
32494
32400
32327
32256
32148
32052
32017
32014
31998
31988
32033
32125
32233
32385
32618
32873
33105
33351
33638
33928
34192
34466
34768
35046
35278
35510
35758
35976
36148
36314
36487
36615
36691
36765
36845
36895
36924
36981
37051
37068
37043
37051
37090
37100
37087
37097
37098
37044
36978
36960
36969
36954
36924
36916
36895
36821
36740
36697
36659
36598
36537
36494
36421
36293
36177
36112
36052
35972
35910
35880
35839
35771
35728
35727
35717
35684
35672
35675
35637
35558
35503
35478
35428
35366
35340
35320
35248
35148
35078
35027
34946
34852
34787
34723
34619
34506
34427
34362
34276
34196
34151
34094
33993
33897
33829
33759
33669
33596
33552
33480
33363
33256
33170
33064
32936
32838
32780
32716
32637
32578
32526
32432
32316
32246
32211
32153
32085
32045
31999
31900
31779
31695
31633
31551
31467
31425
31387
31313
31245
31219
31210
31195
31213
31298
31399
31481
31607
31815
32063
32317
32604
32932
33249
33532
33820
34116
34379
34612
34858
35106
35300
35441
35574
35699
35782
35845
35938
36042
36095
36103
36126
36158
36154
36142
36166
36194
36176
36135
36116
36096
36034
35970
35949
35918
35837
35753
35694
35624
35529
35449
35398
35325
35206
35094
35020
34950
34874
34831
34827
34815
34779
34753
34739
34700
34647
34627
34626
34581
34493
34429
34394
34347
34308
34316
34340
34327
34284
34254
34225
34159
34091
34059
34027
33958
33877
33805
33713
33583
33467
33404
33336
33223
33107
33019
32924
32815
32740
32705
32652
32567
32494
32439
32365
32268
32200
32159
32089
31990
31916
31865
31790
31710
31669
31636
31558
31447
31360
31288
31188
31090
31040
30995
30910
30830
30799
30795
30796
30838
30946
31071
31185
31354
31614
31902
32185
32501
32856
33198
33513
33853
34228
34575
34872
35159
35430
35640
35805
35986
36181
36324
36409
36497
36600
36682
36760
36869
36975
37029
37054
37099
37152
37170
37165
37183
37198
37160
37117
37109
37088
37029
36969
36932
36878
36786
36706
36669
36614
36507
36402
36327
36243
36138
36055
36007
35938
35838
35771
35755
35734
35697
35687
35684
35637
35570
35542
35533
35477
35384
35313
35254
35166
35081
35042
35007
34927
34837
34783
34743
34677
34609
34572
34514
34398
34289
34229
34158
34043
33940
33876
33808
33719
33654
33619
33562
33476
33404
33348
33272
33177
33099
33029
32919
32790
32708
32664
32591
32488
32414
32366
32286
32183
32110
32037
31922
31813
31763
31724
31645
31565
31521
31488
31441
31411
31431
31469
31507
31606
31798
32018
32236
32511
32858
33219
33577
33962
34373
34750
35077
35409
35752
36056
36317
36581
36834
37028
37182
37345
37494
37582
37636
37714
37799
37836
37840
37864
37907
37928
37941
37980
38009
37987
37965
37981
37988
37953
37914
37891
37855
37794
37742
37707
37644
37543
37456
37393
37304
37176
37067
36986
36884
36766
36684
36635
36561
36459
36381
36325
36245
36155
36097
36040
35941
35842
35801
35793
35765
35715
35681
35659
35606
35539
35496
35442
35340
35244
35191
35135
35044
34953
34877
34788
34674
34581
34529
34460
34344
34237
34162
34077
33967
33878
33820
33737
33621
33532
33479
33408
33316
33238
33154
33028
32893
32798
32724
32619
32491
32393
32317
32220
32123
32063
32008
31917
31817
31738
31659
31550
31453
31405
31356
31273
31199
31161
31133
31111
31150
31265
31410
31570
31786
32066
32363
32674
33044
33463
33867
34240
34620
35005
35344
35644
35947
36229
36432
36576
36724
36870
36967
37035
37115
37173
37168
37142
37144
37152
37138
37123
37135
37127
37065
37001
36966
36920
36850
36797
36774
36724
36623
36527
36463
36377
36254
36148
36071
35969
35836
35729
35665
35590
35497
35423
35353
35244
35127
35066
35038
34978
34896
34850
34822
34763
34712
34718
34735
34708
34656
34623
34591
34523
34448
34407
34355
34262
34171
34107
34042
33962
33900
33858
33788
33677
33575
33498
33405
33287
33186
33103
32990
32851
32741
32660
32561
32454
32380
32321
32226
32114
32042
32000
31931
31844
31782
31716
31603
31484
31406
31338
31234
31110
31003
30890
30740
30607
30529
30461
30372
30307
30286
30263
30218
30212
30272
30350
30433
30570
30772
30988
31207
31483
31825
32174
32518
32887
33260
33588
33882
34197
34522
34793
35010
35217
35401
35522
35613
35727
35829
35868
35868
35877
35873
35816
35757
35741
35725
35675
35626
35602
35568
35511
35481
35488
35465
35381
35291
35215
35113
34984
34879
34807
34716
34596
34494
34416
34313
34198
34127
34093
34030
33938
33871
33819
33744
33684
33686
33710
33689
33635
33605
33591
33549
33507
33504
33491
33431
33362
33315
33260
33175
33105
33078
33037
32956
32883
32832
32751
32631
32530
32461
32376
32268
32184
32115
32002
31859
31749
31678
31595
31505
31449
31403
31321
31232
31184
31151
31075
30968
30876
30795
30687
30583
30528
30473
30369
30260
30185
30121
30043
29987
29978
29973
29948
29965
30062
30204
30376
30611
30911
31224
31533
31888
32299
32707
33093
33489
33881
34210
34483
34763
35047
35277
35459
35635
35784
35860
35899
35967
36044
36069
36050
36044
36039
35989
35930
35913
35900
35848
35787
35746
35700
35622
35560
35542
35511
35432
35345
35268
35167
35036
34928
34858
34774
34654
34543
34454
34341
34208
34113
34053
33972
33870
33809
33791
33759
33714
33696
33681
33631
33578
33567
33564
33511
33430
33374
33332
33260
33197
33187
33173
33114
33048
33000
32943
32854
32775
32732
32667
32548
32431
32348
32262
32152
32058
31996
31914
31795
31691
31622
31545
31451
31381
31326
31234
31119
31040
30990
30907
30797
30713
30634
30516
30399
30337
30302
30242
30168
30136
30137
30135
30165
30272
30414
30554
30747
31031
31359
31699
32084
32531
32982
33400
33831
34294
34720
35074
35395
35699
35943
36122
36298
36479
36606
36670
36736
36818
36870
36898
36942
36980
36966
36928
36927
36947
36929
36884
36860
36831
36748
36663
36631
36610
36557
36490
36431
36351
36231
36114
36038
35950
35821
35700
35616
35526
35414
35330
35286
35226
35134
35061
35017
34959
34881
34841
34836
34806
34748
34707
34674
34605
34528
34505
34513
34489
34444
34421
34396
34327
34245
34195
34151
34066
33966
33897
33818
33684
33548
33452
33360
33254
33169
33120
33054
32938
32826
32748
32661
32554
32472
32419
32338
32217
32103
32008
31893
31765
31676
31621
31534
31419
31334
31266
31167
31067
31011
30970
30903
30839
30847
30914
30990
31099
31292
31537
31789
32081
32442
32841
33250
33681
34145
34592
34994
35385
35779
36142
36454
36737
37001
37205
37344
37480
37629
37737
37791
37839
37882
37878
37841
37834
37856
37853
37836
37852
37873
37846
37798
37782
37781
37737
37656
37584
37504
37375
37242
37155
37070
36945
36815
36713
36602
36448
36310
36222
36135
36022
35920
35848
35764
35651
35563
35524
35483
35426
35396
35390
35356
35286
35236
35206
35150
35079
35040
35014
34941
34830
34737
34652
34537
34426
34369
34333
34259
34147
34043
33943
33819
33703
33622
33546
33452
33359
33285
33194
33060
32938
32862
32785
32680
32580
32496
32385
32238
32108
32013
31910
31785
31687
31621
31525
31391
31281
31204
31115
31017
30953
30902
30807
30684
30605
30580
30562
30570
30652
30774
30888
31040
31283
31591
31919
32270
32666
33074
33454
33845
34272
34676
35025
35352
35667
35927
36121
36302
36489
36631
36712
36784
36854
36875
36848
36833
36845
36841
36820
36813
36807
36760
36698
36680
36688
36658
36594
36547
36504
36416
36314
36248
36191
36094
35972
35870
35777
35650
35523
35436
35349
35232
35131
35068
35005
34916
34845
34815
34770
34688
34620
34583
34531
34456
34415
34414
34391
34325
34275
34261
34234
34188
34165
34142
34065
33964
33903
33864
33788
33684
33604
33524
33401
33276
33201
33144
33062
32968
32896
32819
32706
32602
32544
32479
32376
32272
32184
32071
31925
31803
31725
31641
31531
31438
31369
31277
31163
31075
31017
30941
30840
30759
30698
30614
30530
30506
30537
30566
30602
30695
30835
30980
31167
31441
31770
32097
32431
32811
33204
33561
33919
34308
34677
34992
35286
35575
35809
35961
36085
36215
36311
36355
36392
36434
36432
36380
36339
36328
36295
36229
36189
36175
36128
36047
35985
35940
35868
35787
35747
35732
35677
35580
35499
35431
35325
35214
35144
35072
34949
34815
34722
34646
34547
34453
34409
34370
34303
34256
34252
34247
34215
34197
34218
34221
34175
34131
34116
34087
34039
34014
34012
33977
33897
33819
33755
33672
33577
33516
33475
33392
33277
33197
33147
33068
32975
32913
32855
32760
32647
32562
32494
32401
32308
32259
32200
32086
31968
31883
31795
31686
31589
31525
31450
31344
31258
31214
31163
31083
31021
30986
30936
30869
30850
30904
30986
31092
31262
31483
31702
31936
32249
32629
33010
33395
33818
34241
34606
34944
35301
35649
35929
36149
36353
36518
36608
36678
36776
36858
36890
36913
36950
36968
36949
36936
36948
36929
36863
36814
36806
36778
36714
36668
36649
36597
36497
36407
36339
36251
36147
36066
35991
35869
35715
35603
35535
35453
35360
35298
35239
35143
35056
35025
35005
34945
34878
34848
34830
34786
34756
34771
34775
34728
34680
34666
34638
34571
34509
34469
34410
34318
34254
34230
34181
34090
34010
33952
33870
33763
33686
33634
33549
33431
33339
33274
33192
33100
33038
32985
32888
32772
32694
32645
32578
32504
32455
32393
32278
32157
32078
32008
31916
31824
31755
31676
31567
31484
31456
31435
31408
31424
31507
31614
31730
31910
32174
32469
32778
33140
33547
33940
34323
34754
35218
35641
36010
36370
36712
36996
37243
37506
37756
37934
38052
38166
38266
38311
38335
38387
38429
38422
38396
38384
38361
38303
38266
38279
38285
38246
38210
38199
38168
38102
38052
38033
37978
37865
37750
37656
37538
37399
37295
37225
37126
36990
36867
36758
36628
36502
36425
36373
36285
36177
36112
36078
36020
35970
35971
35981
35949
35905
35888
35874
35824
35769
35740
35688
35583
35485
35421
35354
35265
35191
35147
35083
34975
34875
34800
34711
34606
34527
34470
34380
34246
34127
34030
33915
33794
33715
33656
33550
33410
33306
33235
33144
33054
33009
32965
32869
32756
32680
32612
32509
32396
32313
32222
32094
31980
31920
31881
31849
31859
31937
32042
32153
32331
32607
32925
33258
33645
34084
34514
34918
35345
35801
36222
36597
36967
37320
37597
37813
38040
38276
38460
38598
38733
38839
38875
38879
38903
38934
38933
38919
38936
38944
38895
38832
38796
38759
38696
38639
38611
38561
38454
38343
38258
38164
38044
37940
37864
37765
37623
37485
37374
37249
37104
36987
36906
36810
36694
36604
36532
36436
36336
36282
36260
36208
36132
36086
36047
35966
35893
35880
35886
35857
35807
35779
35734
35639
35548
35490
35426
35333
35250
35198
35117
34976
34834
34729
34620
34490
34385
34313
34213
34070
33937
33830
33704
33561
33465
33411
33331
33226
33149
33086
32988
32878
32807
32756
32663
32539
32446
32361
32237
32117
32050
31998
31916
31813
31724
31630
31503
31402
31377
31373
31351
31364
31452
31582
31733
31950
32256
32595
32938
33329
33776
34216
34632
35067
35515
35912
36240
36550
36838
37062
37241
37435
37634
37766
37832
37892
37943
37938
37909
37902
37887
37821
37738
37683
37638
37566
37491
37451
37399
37299
37199
37134
37064
36964
36873
36808
36722
36597
36486
36404
36304
36175
36062
35973
35858
35715
35607
35546
35485
35424
35403
35405
35372
35316
35297
35306
35291
35263
35266
35273
35239
35197
35186
35181
35141
35082
35046
34999
34901
34802
34740
34681
34604
34537
34489
34400
34250
34104
33998
33899
33786
33697
33643
33569
33456
33349
33260
33149
33017
32920
32862
32783
32680
32599
32524
32408
32271
32168
32089
31982
31858
31766
31683
31569
31470
31437
31434
31413
31404
31457
31548
31643
31791
32032
32317
32613
32943
33323
33711
34086
34496
34949
35377
35754
36113
36458
36747
36976
37197
37420
37586
37680
37752
37810
37824
37813
37822
37827
37783
37715
37686
37684
37651
37596
37568
37536
37454
37362
37308
37258
37162
37040
36933
36812
36647
36492
36392
36297
36168
36042
35941
35830
35688
35567
35499
35430
35336
35268
35239
35191
35110
35053
35032
34994
34940
34906
34873
34794
34695
34639
34612
34556
34488
34458
34433
34362
34278
34234
34205
34140
34050
33977
33891
33753
33616
33522
33433
33325
33231
33168
33092
32984
32893
32834
32759
32653
32560
32495
32412
32295
32195
32133
32068
31989
31939
31911
31837
31715
31610
31534
31439
31339
31277
31240
31185
31141
31169
31270
31399
31566
31819
32126
32440
32800
33239
33708
34161
34624
35115
35576
35970
36351
36747
37101
37386
37646
37896
38085
38202
38316
38447
38546
38600
38657
38715
38716
38661
38620
38608
38579
38541
38541
38550
38505
38417
38348
38294
38208
38113
38051
37987
37877
37751
37655
37562
37436
37316
37238
37160
37049
36943
36857
36754
36625
36523
36470
36420
36345
36282
36248
36196
36108
36035
35992
35932
35855
35817
35815
35786
35727
35685
35644
35554
35441
35364
35311
35228
35128
35061
34994
34874
34735
34635
34551
34434
34317
34242
34167
34055
33944
33859
33762
33635
33528
33463
33388
33286
33207
33171
33111
32995
32875
32774
32650
32501
32381
32301
32212
32109
32036
31979
31876
31737
31633
31567
31495
31445
31475
31565
31669
31806
32032
32338
32678
33068
33538
34037
34514
34995
35505
36010
36472
36920
37376
37778
38089
38361
38622
38832
38974
39101
39235
39323
39347
39370
39414
39427
39405
39408
39435
39422
39367
39330
39311
39262
39205
39183
39158
39068
38936
38829
38738
38612
38471
38363
38246
38077
37897
37755
37631
37488
37363
37289
37206
37072
36948
36866
36786
36685
36605
36566
36510
36414
36330
36280
36225
36148
36096
36073
36027
35953
35899
35861
35796
35714
35669
35643
35563
35432
35316
35212
35072
34932
34849
34787
34681
34543
34430
34326
34181
34037
33949
33869
33753
33634
33540
33434
33292
33164
33090
33019
32915
32821
32754
32662
32528
32408
32327
32232
32110
32010
31933
31825
31685
31575
31498
31398
31284
31207
31153
31076
30999
30999
31081
31197
31365
31625
31938
32258
32610
33031
33493
33948
34415
34919
35417
35873
36315
36756
37130
37408
37652
37894
38085
38206
38305
38399
38441
38429
38425
38448
38443
38404
38388
38394
38360
38289
38248
38230
38176
38113
38098
38094
38029
37917
37817
37715
37565
37398
37261
37136
36982
36823
36702
36581
36418
36258
36140
36023
35873
35741
35668
35607
35525
35462
35423
35360
35267
35208
35200
35183
35134
35097
35075
35016
34918
34846
34809
34757
34692
34665
34657
34597
34490
34403
34327
34208
34078
33991
33919
33810
33681
33582
33490
33355
33229
33163
33108
33019
32926
32853
32759
32616
32476
32372
32270
32147
32047
31987
31912
31794
31683
31598
31495
31370
31272
31213
31142
31049
30973
30909
30810
30700
30655
30672
30708
30793
30978
31233
31497
31781
32137
32547
32957
33397
33902
34416
34876
35301
35718
36090
36378
36634
36896
37123
37288
37421
37534
37585
37569
37544
37538
37501
37421
37349
37291
37197
37064
36952
36872
36781
36678
36603
36545
36444
36308
36206
36136
36041
35923
35824
35717
35560
35400
35290
35201
35081
34950
34853
34763
34641
34539
34496
34471
34430
34408
34429
34437
34397
34360
34347
34320
34270
34244
34248
34232
34175
34117
34068
33996
33904
33848
33828
33782
33701
33632
33562
33445
33306
33199
33112
32991
32845
32730
32629
32495
32371
32309
32260
32173
32079
32009
31941
31841
31739
31669
31582
31448
31316
31215
31110
30983
30879
30819
30746
30640
30555
30515
30488
30480
30544
30680
30828
30983
31207
31503
31823
32176
32597
33050
33470
33876
34320
34778
35190
35573
35966
36325
36599
36815
37018
37199
37324
37417
37519
37586
37582
37559
37553
37521
37441
37369
37332
37275
37179
37094
37035
36954
36838
36742
36677
36592
36481
36388
36308
36179
36006
35861
35751
35622
35491
35405
35339
35235
35108
35014
34949
34864
34778
34735
34694
34602
34503
34445
34410
34366
34339
34355
34355
34301
34257
34250
34238
34201
34177
34171
34133
34047
33963
33902
33825
33732
33663
33611
33518
33385
33265
33161
33030
32889
32798
32741
32650
32532
32441
32364
32258
32153
32098
32061
31983
31879
31803
31728
31609
31492
31426
31367
31279
31191
31125
31035
30900
30788
30738
30714
30704
30753
30882
31051
31238
31483
31802
32152
32528
32976
33486
33992
34481
34983
35472
35899
36285
36681
37066
37379
37626
37855
38046
38157
38231
38319
38390
38401
38377
38368
38360
38315
38269
38263
38245
38178
38114
38086
38053
37984
37916
37869
37786
37649
37518
37412
37289
37141
37025
36945
36840
36699
36568
36456
36325
36191
36111
36068
35993
35888
35811
35755
35677
35609
