63984
63964
63942
63920
63899
63874
63849
63825
63799
63771
63743
63718
63695
63669
63644
63626
63614
63600
63587
63578
63570
63560
63548
63537
63525
63510
63501
63514
63548
63592
63642
63696
63751
63803
63855
63905
63949
63987
64033
64097
64185
62995
58493
50963
42148
33278
25153
18229
12700
8575
5755
4067
3301
3247
3718
4542
5568
6683
7810
8891
9875
10737
11477
12100
12607
13014
13338
13584
13757
13875
13958
14011
14042
14065
14090
14117
14144
14176
14217
14268
14329
14401
14481
14559
14630
14701
14776
14843
14897
14945
14990
15022
15036
15034
15012
14968
14910
14844
14767
14677
14582
14490
14397
14300
14213
14150
14106
14071
14047
14035
14029
14022
14013
14010
14009
14005
14004
14006
14004
13994
13980
13965
13940
13902
13854
13795
13719
13625
13522
13413
13297
13178
13061
12945
12820
12686
12552
12418
12280
12139
12005
11879
11756
11635
11525
11421
11315
11214
11124
11037
10946
10857
10781
10717
10657
10597
10532
10460
10383
10308
10233
10157
10076
9996
9916
9833
9751
9675
9603
9527
9443
9353
9258
9157
9057
8966
8881
8795
8709
8624
8533
8434
8333
8235
8131
8016
7898
7788
7680
7565
7446
7330
7214
7090
6963
6840
6718
6594
6473
6359
6245
6129
6014
5899
5782
5661
5545
5431
5306
5169
5033
4903
4774
4646
4517
4385
4242
4087
3927
3761
3587
3409
3234
3058
2877
2698
2528
2367
2220
2107
2048
2054
2132
2292
2542
2873
3273
3732
4241
4783
5346
5926
6514
7094
7650
8180
8675
9122
9515
9859
10148
10379
10564
10720
10857
10973
11069
11152
11225
11280
11318
11351
11377
11390
11395
11403
11410
11410
11413
11429
11455
11484
11515
11549
11584
11617
11652
11688
11716
11728
11722
11700
11656
11584
11497
11400
11289
11173
11068
10979
10906
10853
10826
10820
10827
10845
10875
10912
10951
10994
11047
11104
11159
11210
11261
11307
11336
11349
11354
11347
11330
11311
11300
11294
11286
11276
11264
11246
11216
11172
11117
11045
10958
10871
10785
10690
10588
10490
10398
10303
10203
10105
10012
9922
9836
9760
9692
9626
9561
9504
9451
9393
9326
9256
9184
9108
9032
8967
8906
8843
8785
8732
8674
8608
8537
8467
8400
8339
8290
8253
8223
8196
8173
8152
8124
8090
8053
8015
7978
7945
7921
7906
7891
7876
7866
7862
7856
7841
7820
7797
7766
7732
7701
7671
7641
7614
7594
7578
7559
7542
7535
7537
7540
7547
7564
7584
7603
7626
7654
7679
7695
7704
7707
7698
7677
7652
7621
7585
7545
7509
7477
7442
7405
7366
7320
7258
7187
7122
7072
7043
7047
7102
7218
7397
7648
7972
8365
8817
9328
9893
10494
11116
11753
12393
13021
13625
14200
14736
15218
15638
15994
16294
16544
16746
16912
17053
17169
17266
17351
17427
17488
17534
17573
17603
17625
17644
17663
17680
17696
17717
17748
17782
17814
17844
17878
17911
17931
17939
17940
17933
17919
17901
17875
17836
17783
17721
17656
17587
17509
17428
17356
17292
17237
17198
17177
17172
17182
17213
17264
17320
17379
17446
17515
17583
17649
17715
17777
17828
17866
17895
17913
17916
17902
17879
17842
17787
17720
17653
17586
17518
17459
17411
17363
17304
17233
17156
17073
16989
16914
16848
16780
16705
16628
16552
16472
16385
16300
16219
16135
16049
15972
15908
15851
15796
15745
15692
15629
15557
15487
15420
15350
15278
15209
15143
15075
15007
14949
14898
14848
14800
14757
14711
14661
14619
14588
14565
14545
14536
14531
14518
14493
14460
14419
14366
14305
14245
14188
14121
14040
13961
13893
13836
13791
13759
13731
13707
13691
13686
13689
13704
13740
13807
13911
14053
14234
14463
14742
15067
15444
15881
16367
16889
17446
18037
18648
19262
19872
20468
21031
21550
22027
22464
22855
23199
23507
23782
24019
24220
24392
24536
24648
24726
24779
24806
24810
24797
24776
24750
24721
24691
24668
24655
24652
24657
24673
24694
24710
24718
24717
24698
24648
24572
24479
24358
24204
24029
23853
23681
23511
23348
23199
23068
22959
22875
22819
22791
22790
22814
22859
22912
22969
23033
23098
23155
23206
23264
23330
23392
23448
23503
23554
23593
23617
23633
23638
23632
23623
23610
23594
23577
23564
23560
23561
23562
23563
23562
23551
23526
23495
23478
23479
23504
23563
23657
23776
23908
24052
24203
24344
24466
24571
24659
24713
24721
24689
24619
24515
24390
24260
24130
24007
23906
23833
23787
23757
23742
23746
23754
23749
23732
23713
23687
23644
23587
23528
23469
23401
23330
23253
23159
23049
22934
22821
22702
22580
22463
22349
22234
22116
22003
21894
21778
21656
21536
21422
21307
21191
21081
20978
20871
20757
20645
20531
20408
20282
20164
20060
19975
19923
19916
19965
20082
20276
20547
20881
21267
21706
22199
22737
23298
23873
24457
25035
25591
26119
26615
27070
27472
27815
28091
28296
28435
28526
28584
28611
28610
28597
28587
28576
28564
28557
28556
28555
28557
28560
28557
28541
28516
28487
28449
28392
28322
28246
28159
28061
27965
27881
27804
27733
27668
27603
27529
27446
27358
27266
27168
27060
26948
26828
26695
26558
26425
26298
26167
26035
25909
25791
25678
25570
25474
25387
25298
25201
25100
24991
24868
24737
24602
24456
24297
24127
23950
23760
23558
23358
23168
22985
22808
22639
22479
22318
22155
21998
21857
21736
21632
21551
21490
21431
21367
21301
21232
21147
21037
20905
20756
20600
20450
20326
20231
20154
20087
20031
19982
19935
19894
19864
19841
19820
19805
19805
19814
19817
19809
19794
19770
19731
19687
19641
19592
19542
19505
19484
19472
19465
19462
19460
19449
19424
19397
19367
19336
19305
19274
19238
19186
19115
19037
18950
18853
18754
18672
18608
18551
18499
18451
18404
18351
18291
18226
18156
18075
17986
17894
17792
17676
17556
17446
17346
17251
17177
17137
17135
17186
17304
17500
17774
18122
18546
19040
19583
20161
20764
21377
21981
22563
23123
23655
24143
24584
24989
25361
25698
26015
26315
26588
26823
27020
27186
27326
27440
27533
27616
27691
27756
27811
27861
27902
27923
27929
27925
27906
27877
27852
27834
27824
27823
27831
27845
27854
27856
27847
27818
27752
27644
27505
27343
27159
26961
26758
26560
26356
26149
25951
25763
25585
25421
25275
25142
25016
24904
24814
24747
24695
24654
24625
24598
24566
24528
24481
24420
24339
24238
24123
23994
23850
23699
23543
23384
23230
23086
22951
22818
22688
22568
22452
22330
22198
22071
21950
21828
21708
21593
21482
21368
21248
21124
20996
20856
20703
20549
20397
20243
20089
19947
19812
19685
19573
19474
19377
19272
19156
19035
18906
18771
18636
18503
18369
18237
18110
17982
17844
17695
17545
17394
17231
17053
16872
16688
16503
16323
16158
16003
15844
15679
15515
15351
15175
14985
14802
14629
14454
14277
14116
13966
13808
13643
13489
13341
13186
13037
12899
12762
12615
12472
12344
12218
12080
11939
11808
11684
11570
11493
11464
11479
11549
11688
11895
12152
12457
12813
13208
13625
14068
14549
15056
15562
16060
16558
17043
17491
17900
18279
18617
18900
19138
19341
19504
19616
19687
19742
19786
19814
19835
19857
19872
19874
19871
19871
19873
19877
19885
19891
19893
19892
19900
19921
19938
19947
19959
19969
19960
19927
19876
19805
19709
19592
19466
19331
19186
19047
18932
18840
18752
18669
18604
18553
18501
18454
18427
18410
18394
18393
18415
18440
18456
18469
18477
18469
18445
18414
18378
18326
18258
18193
18132
18057
17973
17890
17808
17717
17620
17527
17434
17326
17211
17101
16993
16876
16755
16644
16538
16421
16296
16177
16062
15937
15806
15680
15550
15411
15284
15181
15093
15007
14926
14852
14770
14673
14570
14468
14355
14226
14099
13980
13856
13730
13609
13491
13366
13239
13124
13020
12918
12817
12720
12623
12520
12416
12321
12231
12130
12023
11925
11832
11727
11611
11495
11373
11238
11100
10978
10866
10742
10614
10496
10390
10294
10222
10191
10206
10270
10403
10612
10883
11209
11592
12021
12473
12936
13416
13904
14372
14814
15242
15651
16025
16359
16659
16917
17131
17310
17457
17564
17628
17665
17695
17721
17737
17752
17772
17785
17789
17794
17804
17813
17815
17822
17838
17853
17860
17871
17882
17871
17833
17781
17713
17614
17485
17348
17209
17059
16903
16766
16652
16549
16457
16382
16320
16265
16223
16205
16205
16210
16222
16249
16281
16309
16336
16367
16389
16386
16372
16358
16339
16311
16287
16270
16248
16217
16182
16142
16089
16020
15940
15849
15743
15625
15508
15396
15275
15148
15038
14949
14863
14773
14687
14602
14510
14416
14331
14249
14164
14076
13992
13906
13802
13680
13554
13428
13297
13175
13072
12979
12884
12795
12719
12644
12562
12481
12413
12348
12277
12210
12152
12085
11999
11902
11795
11678
11553
11432
11316
11200
11087
10989
10906
10822
10737
10663
10595
10518
10434
10351
10270
10189
10114
10052
9992
9921
9846
9774
9700
9617
9535
9464
9394
9318
9247
9191
9141
9096
9078
9106
9182
9304
9482
9721
10013
10359
10762
11216
11703
12213
12748
13293
13827
14348
14858
15344
15788
16189
16555
16886
17174
17424
17641
17820
17958
18071
18174
18267
18340
18400
18460
18515
18552
18579
18604
18628
18651
18692
18756
18827
18894
18964
19036
19096
19136
19163
19175
19159
19116
19064
19007
18932
18838
18734
18619
18490
18358
18237
18125
18018
17927
17866
17829
17800
17778
17770
17770
17768
17767
17775
17786
17791
17797
17811
17822
17818
17801
17779
17746
17700
17646
17586
17506
17407
17310
17219
17118
17015
16926
16848
16760
16665
16570
16470
16356
16238
16132
16038
15944
15857
15788
15731
15673
15615
15569
15525
15472
15411
15350
15284
15208
15137
15079
15019
14948
14873
14800
14718
14623
14526
14431
14337
14247
14168
14099
14025
13948
13877
13812
13739
13658
13584
13512
13437
13363
13300
13242
13171
13092
13016
12943
12862
12775
12688
12597
12490
12375
12268
12167
12064
11966
11878
11793
11703
11613
11531
11450
11362
11278
11201
11119
11025
10929
10840
10750
10657
10564
10471
10364
10244
10130
10027
9929
9837
9761
9696
9632
9571
9522
9481
9440
9406
9395
9411
9455
9543
9701
9929
10218
10576
11003
11480
11981
12500
13042
13591
14132
14663
15179
15669
16120
16533
16904
17228
17507
17755
17971
18137
18253
18341
18410
18459
18499
18544
18596
18644
18685
18728
18770
18805
18849
18907
18966
19016
19067
19133
19203
19258
19298
19331
19346
19332
19299
19260
19210
19145
19078
19014
18939
18848
18750
18656
18555
18445
18342
18252
18173
18107
18055
18015
17978
17947
17926
17910
17889
17864
17852
17856
17864
17875
17900
17931
17950
17952
17943
17914
17855
17779
17700
17614
17511
17401
17296
17191
17079
16976
16890
16796
16680
16555
16439
16323
16203
16091
15986
15881
15774
15679
15600
15517
15425
15334
15241
15137
15030
14928
14822
14703
14576
14454
14337
14219
14115
14034
13968
13905
13849
13804
13754
13688
13609
13534
13459
13373
13282
13193
13098
12986
12871
12758
12637
12503
12365
12226
12073
11907
11748
11597
11453
11324
11213
11112
11008
10898
10799
10712
10625
10541
10470
10405
10331
10252
10177
10100
10016
9934
9862
9792
9716
9644
9586
9531
9469
9407
9348
9282
9204
9121
9031
8928
8815
8706
8607
8511
8413
8319
8229
8136
8039
7948
7861
7766
7671
7601
7568
7562
7591
7678
7823
8010
8241
8537
8896
9299
9742
10240
10784
11350
11932
12530
13126
13688
14202
14676
15100
15463
15775
16048
16273
16449
16603
16746
16866
16960
17040
17108
17161
17202
17243
17284
17324
17366
17419
17482
17543
17601
17669
17744
17805
17851
17892
17922
17930
17918
17894
17852
17787
17716
17647
17570
17476
17374
17272
17164
17043
16922
16812
16705
16596
16502
16436
16392
16360
16352
16367
16387
16402
16418
16434
16441
16437
16438
16446
16445
16433
16419
16397
16352
16283
16202
16110
16001
15884
15768
15646
15514
15381
15265
15163
15062
14971
14888
14796
14684
14566
14451
14324
14185
14048
13922
13801
13682
13577
13489
13405
13316
13225
13131
13024
12903
12788
12689
12590
12488
12396
12313
12226
12134
12047
11960
11860
11754
11653
11554
11444
11330
11222
11120
11021
10933
10859
10781
10684
10578
10486
10408
10337
10283
10251
10231
10216
10212
10220
10220
10199
10168
10133
10090
10037
9983
9926
9858
9782
9715
9659
9603
9551
9526
9533
9551
9575
9610
9647
9665
9665
9662
9651
9617
9568
9518
9461
9389
9315
9248
9183
9105
9020
8937
8850
8749
8646
8560
8491
8438
8428
8476
8579
8737
8962
9262
9626
10040
10503
11002
11510
12020
12538
13052
13539
13988
14411
14799
15134
15426
15691
15921
16103
16244
16367
16477
16566
16636
16692
16724
16725
16705
16685
16665
16638
16615
16604
16600
16605
16627
16669
16717
16761
16806
16852
16883
16892
16896
16900
16888
16852
16805
16748
16671
16578
16492
16416
16336
16257
16192
16137
16080
16026
15983
15948
15915
15893
15890
15903
15918
15943
15987
16034
16074
16116
16168
16209
16224
16218
16199
16157
16086
16005
15924
15828
15711
15595
15494
15394
15288
15184
15081
14967
14838
14707
14579
14442
14304
14183
14077
13974
13884
13816
13757
13694
13637
13590
13539
13473
13401
13332
13260
13183
13117
13063
13003
12930
12850
12772
12693
12604
12515
12435
12353
12265
12189
12129
12071
12011
11961
11928
11900
11869
11835
11792
11730
11655
11584
11516
11435
11353
11292
11250
11214
11184
11170
11167
11158
11149
11152
11158
11147
11123
11103
11089
11071
11059
11056
11046
11022
10997
10978
10955
10930
10927
10961
11026
11122
11267
11466
11707
11991
12340
12754
13213
13713
14258
14835
15415
15991
16562
17112
17619
18077
18491
18851
19145
19389
19600
19778
19922
20042
20147
20230
20276
20292
20291
20268
20218
20161
20112
20069
20026
19998
19994
19999
20000
20006
20021
20022
19998
19962
19913
19833
19720
19594
19461
19308
19143
18988
18843
18691
18537
18398
18275
18156
18054
17984
17940
17912
17909
17933
17969
18000
18035
18090
18155
18210
18256
18297
18317
18308
18277
18237
18177
18091
17999
17908
17813
17714
17624
17543
17459
17370
17286
17202
17100
16974
16840
16707
16566
16421
16287
16163
16038
15917
15814
15723
15630
15535
15442
15341
15227
15115
15021
14946
14873
14805
14747
14691
14620
14536
14447
14340
14214
14074
13930
13776
13609
13444
13288
13142
13009
12905
12828
12757
12686
12625
12567
12494
12407
12323
12235
12130
12017
11911
11809
11695
11578
11472
11370
11261
11151
11042
10921
10782
10639
10507
10376
10240
10112
10006
9908
9802
9696
9602
9506
9406
9318
9246
9180
9119
9085
9093
9138
9228
9389
9628
9936
10312
10764
11273
11817
12392
12999
13617
14226
14822
15405
15958
16458
16901
17296
17638
17917
18149
18359
18547
18706
18846
18973
19073
19137
19177
19206
19218
19213
19206
19208
19211
19213
19234
19284
19347
19418
19502
19593
19667
19719
19765
19804
19819
19806
19776
19726
19646
19547
19447
19345
19233
19124
19034
18954
18876
18813
18779
18761
18752
18761
18794
18839
18880
18923
18974
19015
19039
19051
19058
19046
19013
18972
18924
18862
18784
18708
18635
18553
18467
18388
18311
18223
18129
18046
17964
17865
17750
17634
17513
17378
17238
17111
16994
16871
16751
16654
16569
16474
16375
16287
16205
16124
16051
15998
15952
15895
15836
15785
15731
15670
15611
15555
15493
15424
15361
15311
15256
15194
15138
15083
15011
14927
14851
14786
14722
14663
14615
14567
14503
14426
14352
14276
14183
14076
13971
13860
13727
13584
13449
13321
13191
13066
12949
12833
12707
12581
12469
12370
12278
12204
12151
12103
12052
12003
11960
11909
11844
11780
11717
11634
11535
11443
11358
11272
11188
11123
11076
11025
10974
10933
10891
10834
10767
10702
10638
10571
10520
10515
10560
10654
10819
11070
11390
11759
12188
12687
13234
13807
14403
15022
15639
16236
16818
17381
17905
18387
18837
19260
19642
19985
20295
20569
20795
20976
21137
21284
21404
21500
21596
21689
21767
21836
21909
21976
22028
22078
22133
22180
22207
22224
22252
22292
22328
22366
22417
22465
22496
22518
22531
22519
22475
22413
22342
22256
22152
22056
21977
21905
21840
21785
21734
21678
21622
21590
21581
21579
21579
21592
21614
21631
21643
21662
21680
21683
21677
21676
21671
21653
21631
21620
21610
21588
21565
21544
21507
21442
21356
21264
21162
21044
20930
20831
20736
20637
20543
20456
20363
20260
20155
20048
19926
19793
19671
19564
19467
19386
19326
19277
19220
19154
19092
19028
18948
18862
18787
18715
18638
18568
18513
18459
18397
18336
18281
18212
18122
18024
17931
17837
17737
17647
17574
17507
17442
17392
17359
17322
17275
17227
17178
17119
17045
16972
16906
16832
16752
16679
16616
16553
16496
16460
16439
16416
16393
16384
16379
16361
16336
16314
16290
16254
16219
16193
16169
16142
16124
16112
16088
16032
15951
15861
15757
15632
15507
15396
15288
15177
15079
14999
14927
14863
14814
14777
14732
14669
14603
14540
14468
14386
14307
14230
14154
14103
14107
14177
14315
14534
14849
15244
15698
16212
16793
17415
18047
18684
19327
19954
20540
21079
21583
22041
22443
22797
23114
23383
23598
23771
23914
24029
24121
24205
24283
24338
24369
24399
24438
24470
24490
24515
24550
24582
24620
24675
24736
24784
24817
24848
24877
24892
24889
24878
24856
24812
24753
24684
24591
24469
24332
24198
24060
23910
23765
23637
23516
23399
23300
23223
23151
23085
23037
23010
22990
22973
22970
22986
23005
23022
23044
23066
23076
23080
23088
23090
23069
23030
22990
22946
22887
22819
22755
22680
22581
22470
22365
22255
22127
21995
21872
21750
21618
21487
21369
21251
21122
20992
20870
20747
20616
20494
20391
20289
20182
20090
20016
19943
19871
19810
19752
19682
19600
19525
19456
19382
19312
19258
19202
19127
19039
18952
18861
18754
18641
18543
18460
18376
18296
18226
18152
18060
17956
17863
17780
17697
17623
17560
17495
17421
17346
17277
17194
17089
16979
16871
16761
16656
16564
16483
16396
16297
16200
16106
16003
15895
15808
15740
15670
15600
15542
15488
15421
15343
15259
15161
15037
14899
14757
14606
14438
14274
14128
13987
13838
13694
13568
13450
13329
13219
13132
13063
13011
12993
13021
13086
13189
13347
13570
13850
14187
14590
15054
15559
16101
16685
17295
17896
18472
19027
19548
20015
20426
20796
21121
21394
21628
21839
22023
22171
22294
22402
22482
22526
22553
22581
22603
22620
22651
22700
22754
22802
22851
22909
22963
22999
23025
23047
23056
23048
23041
23042
23028
22993
22951
22902
22824
22717
22607
22503
22391
22275
22170
22077
21986
21899
21831
21776
21723
21682
21664
21658
21648
21644
21662
21690
21710
21734
21772
21813
21844
21872
21894
21894
21866
21824
21779
21721
21645
21573
21508
21436
21357
21276
21189
21078
20954
20835
20719
20590
20451
20316
20184
20041
19894
19752
19610
19456
19301
19162
19032
18902
18787
18706
18643
18579
18521
18481
18446
18398
18342
18297
18259
18216
18172
18130
18077
18013
17942
17864
17766
17649
17538
17438
17337
17233
17151
17094
17045
16999
16971
16951
16918
16879
16849
16816
16760
16689
16627
16570
16505
16435
16372
16302
16212
16114
16022
15926
15816
15708
15617
15538
15467
15417
15390
15360
15310
15249
15186
15117
15044
14997
14988
15006
15058
15170
15348
15577
15853
16195
16599
17049
17538
18067
18617
19157
19678
20185
20661
21092
21485
21845
22160
22412
22613
22789
22939
23055
23156
23258
23342
23394
23427
23460
23485
23490
23489
23493
23488
23459
23415
23369
23315
23256
23200
23146
23085
23017
22958
22909
22848
22772
22691
22602
22492
22364
22231
22093
21944
21796
21666
21557
21461
21389
21346
21320
21297
21287
21302
21331
21355
21380
21419
21462
21496
21529
21569
21601
21613
21607
21587
21531
21431
21311
21186
21047
20896
20748
20598
20436
20269
20112
19955
19783
19602
19431
19268
19094
18914
18743
18578
18408
18238
18091
17957
17820
17691
17585
17492
17404
17330
17273
17218
17156
17095
17037
16968
16882
16788
16695
16593
16480
16383
16310
16237
16156
16083
16021
15961
15901
15842
15774
15696
15615
15546
15486
15415
15331
15252
15174
15088
15002
14934
14878
14816
14755
14708
14666
14620
14580
14561
14552
14544
14555
14607
14692
14814
14997
15250
15569
15942
16367
16832
17319
17818
18334
18855
19355
19826
20284
20729
21133
21487
21801
22074
22294
22462
22599
22708
22779
22822
22849
22853
22832
22796
22757
22714
22665
22628
22617
22624
22631
22645
22677
22713
22736
22746
22749
22739
22696
22626
22534
22410
22254
22075
21879
21662
21427
21190
20963
20746
20544
20373
20233
20099
19973
19882
19832
19811
19817
19854
19909
19965
20020
20085
20146
20189
20222
20257
20287
20290
20275
20262
20242
20191
20118
20046
19970
19889
19821
19773
19733
19691
19661
19647
19629
19594
19557
19524
19491
19455
19424
19396
19346
19271
19185
19085
18958
18809
18656
18504
18336
18160
17991
17826
17653
17481
17334
17207
17087
16988
16931
16902
16877
16854
16842
16835
16825
16819
16821
16810
16771
16715
16651
16573
16476
16385
16310
16236
16159
16093
16042
15990
15932
15883
15839
15778
15701
15631
15567
15481
15375
15277
15189
15097
14996
14902
14811
14703
14584
14474
14368
14260
14171
14134
14156
14235
14390
14631
14945
15308
15723
16199
16722
17271
17851
18464
19090
19706
20304
20874
21402
21882
22317
22699
23022
23293
23531
23745
23929
24087
24233
24370
24485
24582
24676
24766
24838
24898
24961
25021
25060
25083
25105
25122
25127
25129
25146
25176
25206
25234
25260
25263
25229
25171
25104
25021
24914
24804
24703
24602
24498
24402
24314
24220
24117
24025
23952
23887
23829
23789
23762
23742
23731
23746
23785
23827
23872
23924
23970
23990
23985
23968
23935
23879
23814
23759
23709
23650
23588
23522
23433
23309
23169
23038
22910
22775
22643
22526
22418
22310
22204
22101
21985
21849
21703
21545
21366
21172
20992
20835
20685
20542
20424
20329
20234
20136
20043
19944
19827
19698
19572
19445
19308
19172
19053
18937
18810
18689
18595
18516
18435
18361
18306
18260
18204
18139
18072
17995
17903
17810
17726
17642
17546
17452
17360
17258
17140
17025
16920
16811
16701
16611
16543
16488
16451
16447
16466
16475
16475
16473
16453
16396
16311
16218
16125
16024
15926
15845
15778
15713
15657
15612
15562
15496
15427
15373
15335
15311
15325
15399
15529
15715
15975
16316
16719
17172
17687
18254
18841
19434
20037
20636
21204
21735
22239
22708
23123
23484
23808
24091
24321
24502
24657
24791
24895
24977
25048
25105
25136
25150
25174
25211
25242
25279
25335
25398
25448
25486
25526
25563
25592
25627
25674
25717
25742
25752
25747
25709
25634
25536
25416
25265
25090
24918
24761
24604
24448
24313
24198
24091
24001
23946
23924
23922
23946
24002
24069
24121
24165
24209
24234
24224
24191
24158
24118
24057
23985
23916
23838
23739
23633
23531
23424
23310
23201
23103
22998
22877
22755
22631
22489
22331
22177
22021
21839
21636
21429
21218
20992
20761
20553
20376
20217
20078
19971
19881
19789
19693
19604
19511
19401
19280
19165
19048
18919
18794
18684
18578
18462
18349
18257
18172
18085
18015
17966
17925
17886
17860
17848
17833
17809
17782
17743
17674
17581
17483
17383
17272
17154
17042
16939
16829
16711
16605
16511
16415
16326
16258
16203
16146
16095
16054
16000
15918
15824
15739
15656
15561
15467
15385
15299
15191
15068
14940
14796
14642
14504
14392
14295
14206
14140
14102
14064
14015
13968
13919
13850
13776
13720
13693
13690
13729
13834
14014
14265
14598
15020
15512
16049
16626
17244
17881
18510
19124
19725
20296
20819
21302
21754
22165
22526
22850
23134
23364
23536
23662
23763
23838
23883
23921
23968
24014
24057
24107
24168
24229
24291
24362
24438
24503
24554
24612
24679
24732
24771
24808
24832
24828
24805
24772
24716
24628
24522
24421
24317
24195
24064
23941
23821
23694
23581
23504
23457
23426
23418
23441
23480
23520
23564
23614
23659
23687
23709
23731
23741
23738
23735
23734
23713
23666
23622
23589
23549
23503
23465
23433
23389
23332
23276
23220
23145
23052
22953
22839
22697
22537
22371
22195
22005
21821
21658
21500
21334
21169
21021
20895
20782
20692
20625
20558
20476
20382
20283
20179
20075
19984
19902
19805
19695
19585
19476
19351
19215
19095
18997
18895
18784
18679
18580
18479
18388
18321
18264
18203
18143
18094
18045
17977
17899
17823
17736
17630
17530
17453
17388
17316
17242
17173
17098
17014
16936
16876
16820
16761
16709
16663
16601
16523
16444
16365
16266
16152
16037
15925
15809
15697
15604
15531
15467
15424
15431
15499
15621
15805
16069
16404
16789
17219
17694
18192
18693
19206
19741
20278
20794
21294
21778
22221
22607
22944
23244
23502
23710
23878
24018
24123
24188
24235
24273
24296
24311
24340
24381
24408
24422
24439
24458
24456
24433
24412
24396
24370
24338
24309
24277
24224
24155
24080
23989
23867
23729
23600
23481
23357
23236
23134
23043
22954
22874
22814
22771
22741
22731
22745
22769
22796
22837
22897
22962
23022
23092
23170
23238
23297
23354
23398
23415
23405
23389
23369
23334
23282
23223
23151
23054
22935
22810
22676
22522
22363
22225
22101
21967
21824
21689
21561
21430
21305
21195
21089
20974
20858
20755
20659
20562
20479
20422
20370
20313
20259
20207
20149
20082
20022
19978
19921
19842
19764
19690
19605
19511
19429
19364
19298
19229
19174
19128
19069
18998
18932
18864
18787
18720
18673
18624
18554
18475
18406
18340
18266
18195
18135
18069
17981
17880
17780
17672
17551
17433
17326
17216
17096
16974
16849
16709
16554
16401
16255
16102
15949
15819
15713
15623
15562
15558
15614
15718
15872
16092
16372
16699
17078
17529
18040
18577
19131
19707
20285
20834
21355
21853
22312
22719
23088
23426
23722
23964
24170
24348
24484
24578
24649
24705
24740
24758
24771
24778
24764
24730
24695
24657
24612
24567
24536
24521
24514
24520
24549
24593
24634
24675
24728
24778
24804
24815
24823
24815
24776
24721
24667
24615
24559
24505
24448
24382
24308
24244
24209
24199
24209
24252
24327
24417
24514
24618
24720
24796
24837
24858
24858
24832
24789
24739
24676
24593
24502
24420
24346
24269
24193
24129
24065
23985
23892
23792
23675
23535
23390
23260
23142
23018
22890
22768
22644
22517
22404
22311
22220
22119
22020
21938
21863
21787
21722
21673
21627
21579
21541
21509
21474
21439
21418
21412
21399
21370
21340
21309
21262
21197
21127
21044
20940
20827
20731
20648
20565
20497
20461
20447
20431
20409
20388
20358
20308
20252
20193
20118
20022
19917
19814
19709
19598
19501
19423
19346
19262
19182
19099
19009
18917
18836
18765
18689
18604
18518
18427
18318
18197
18082
17968
17836
17689
17550
17419
17288
17168
17080
17017
16964
16921
16890
16856
16807
16754
16709
16662
16604
16557
16539
16547
16579
16660
16817
17054
17367
17768
18252
18785
19351
19959
20593
21223
21836
22438
23020
23554
24032
24465
24852
25178
25443
25664
25841
25964
26042
26098
26135
26148
26151
26167
26187
26194
26201
26225
26257
26278
26291
26307
26316
26312
26313
26332
26353
26363
26357
26336
26290
26219
26139
26049
25935
25799
25643
25467
25264
25041
24832
24649
24484
24349
24259
24212
24190
24190
24226
24293
24369
24443
24520
24600
24664
24709
24743
24761
24761
24761
24784
24821
24854
24895
24949
24992
25011
25024
25047
25070
25081
25084
25084
25068
25029
24985
24944
24891
24826
24758
24686
24590
24469
24340
24211
24083
23969
23882
23821
23780
23760
23770
23797
23820
23837
23865
23911
23962
24008
24043
24056
24043
24021
24006
23989
23966
23953
23952
23946
23924
23893
23865
23829
23781
23739
23705
23667
23623
23589
23564
23527
23476
23434
23403
23362
23311
23263
23212
23138
23044
22952
22866
22770
22665
22571
22483
22384
22273
22165
22056
21939
21831
21743
21661
21565
21461
21363
21263
21158
21058
20963
20853
20722
20584
20451
20317
20180
20054
19945
19838
19732
19638
19550
19448
19332
19225
19136
19047
18961
18899
18865
18852
18879
18978
19156
19403
19723
20120
20579
21080
21620
22207
22823
23437
24039
24622
25158
25627
26048
26431
26768
27049
27284
27479
27628
27728
27800
27857
27893
27910
27924
27942
27947
27934
27924
27923
27922
27924
27940
27968
27990
28006
28034
28071
28103
28130
28168
28213
28245
28268
28296
28320
28320
28303
28277
28230
28150
28049
27948
27847
27737
27632
27539
27444
27342
27246
27166
27090
27018
26966
26934
26907
26878
26859
26853
26838
26804
26772
26744
26701
26632
26550
26468
26387
26303
26218
26126
26016
25893
25769
25642
25500
25350
25215
25087
24951
24814
24687
24562
24428
24294
24176
24069
23957
23843
23741
23637
23517
23398
23288
23175
23052
22936
22835
22733
22628
22531
22443
22345
22238
22141
22053
21951
21831
21705
21574
21431
21285
21155
21039
20923
20815
20733
20668
20604
20543
20489
20421
20323
20210
20105
19999
19876
19749
19626
19493
19350
19211
19080
18942
18785
18632
18489
18342
18195
18067
17963
17863
17765
17684
17624
17571
17522
17493
17483
17465
17432
17394
17344
17268
17180
17106
17050
17003
16987
17030
17133
17292
17519
17833
18225
18683
19212
19808
20440
21079
21713
22335
22923
23458
23944
24380
24763
25091
25378
25638
25866
26064
26251
26428
26583
26721
26869
27028
27173
27293
27410
27525
27619
27699
27783
27866
27935
27993
28050
28098
28122
28132
28142
28143
28126
28105
28088
28063
28016
27959
27903
27837
27757
27684
27629
27581
27531
27497
27490
27489
27484
27495
27524
27552
27573
27608
27661
27714
27763
27812
27850
27851
27821
27784
27741
27677
27595
27511
27422
27304
27162
27020
26878
26726
26577
26444
26312
26164
26008
25863
25719
25568
25421
25292
25169
25034
24893
24757
24615
24462
24316
24179
24040
23896
23754
23614
23467
23314
23175
23054
22931
22808
22702
22606
22490
22351
22213
22080
21939
21798
21681
21584
21480
21373
21276
21181
21075
20979
20914
20866
20817
20778
20763
20756
20744
20739
20748
20755
20747
20739
20735
20714
20664
20593
20502
20390
20271
20178
20126
20105
20124
20202
20340
20527
20768
21083
21469
21899
22368
22885
23435
23986
24529
25065
25576
26031
26434
26792
27093
27333
27529
27690
27804
27856
27861
27841
27791
27711
27635
27584
27547
27509
27480
27471
27474
27481
27498
27522
27538
27539
27550
27572
27576
27560
27540
27505
27433
27322
27190
27036
26848
26639
26435
26229
26015
25816
25662
25542
25441
25370
25338
25326
25305
25280
25263
25246
25220
25201
25196
25188
25171
25151
25135
25114
25080
25045
25017
24982
24939
24899
24858
24807
24745
24691
24646
24591
24525
24457
24378
24263
24109
23940
23764
23574
23383
23208
23043
22876
22718
22582
22456
22332
22225
22150
22082
21998
21908
21833
21764
21685
21612
21561
21513
21451
21387
21329
21254
21146
21031
20913
20780
20641
20519
20413
20301
20185
20085
19997
19908
19820
19748
19688
19618
19537
19466
19398
19310
19207
19116
19034
18939
18832
18727
18620
18504
18390
18297
18222
18143
18065
17998
17927
17841
17757
17681
17599
17508
17425
17364
17311
17270
17271
17330
17439
17604
17853
18191
18595
19055
19583
20162
20755
21354
21970
22586
23178
23740
24276
24773
25211
25588
25914
26184
26384
26532
26659
26767
26848
26922
27006
27088
27150
27205
27272
27340
27401
27470
27553
27625
27681
27733
27784
27824
27853
27887
27918
27928
27920
27908
27890
27847
27776
27698
27613
27497
27357
27224
27104
26984
26865
26769
26695
26624
26563
26521
26490
26463
26455
26471
26492
26499
26497
26497
26489
26476
26473
26480
26480
26462
26443
26428
26404
26365
26325
26287
26234
26162
26090
26017
25931
25830
25730
25630
25513
25381
25254
25131
25003
24879
24771
24669
24555
24440
24334
24228
24110
23995
23903
23825
23750
23693
23663
23637
23593
23537
23482
23416
23327
23230
23138
23036
22908
22779
22660
22533
22395
22267
22159
22053
21946
21853
21776
21699
21623
21567
21527
21481
21431
21389
21353
21309
21254
21196
21121
21024
20921
20827
20733
20626
20519
20425
20337
20246
20161
20091
20023
19948
19874
19808
19741
19661
19584
19520
19458
19394
19345
19316
19281
19233
19192
19158
19114
19062
19027
19015
19009
19020
19071
19158
19267
19407
19603
19863
20172
20534
20962
21446
21968
22534
23149
23789
24430
25075
25727
26363
26967
27536
28067
28536
28932
29271
29568
29812
30001
30155
30285
30383
30451
30502
30545
30577
30607
30654
30719
30784
30844
30912
30985
31047
31105
31179
31264
31337
31392
31441
31479
31493
31487
31479
31457
31400
31321
31239
31143
31017
30872
30727
30575
30412
30261
30138
30040
29962
29919
29911
29919
29932
29953
29982
30004
30013
30025
30041
30044
30034
30024
30010
29965
29891
29812
29737
29657
29576
29513
29472
29439
29416
29405
29392
29364
29321
29270
29198
29090
28958
28826
28691
28546
28403
28274
28139
27989
27840
27705
27579
27457
27358
27279
27188
27075
26963
26855
26738
26610
26497
26400
26302
26204
26122
26053
25972
25875
25784
25698
25602
25502
25413
25327
25227
25123
25031
24939
24832
24720
24622
24529
24427
24322
24223
24113
23981
23841
23705
23567
23420
23280
23156
23044
22940
22855
22790
22727
22663
22620
22599
22579
22556
22544
22543
22530
22497
22453
22398
22321
22232
22148
22069
21982
21895
21828
21775
21717
21659
21611
21558
21486
21407
21341
21289
21252
21261
21344
21485
21669
21903
22203
22557
22956
23416
23942
24500
25068
25646
26220
26762
27263
27727
28145
28500
28793
29040
29244
29395
29502
29588
29650
29674
29659
29627
29582
29514
29425
29339
29252
29148
29036
28927
28810
28676
28541
28419
28306
28195
28100
28027
27956
27871
27787
27716
27639
27548
27460
27377
27286
27186
27092
27009
26918
26814
26712
26614
26511
26407
26322
26260
26208
26167
26146
26132
26109
26085
26080
26082
26064
26033
26018
26013
25996
25971
25949
25918
25861
25789
25719
25646
25559
25470
25386
25291
25176
25050
24924
24792
24655
24537
24442
24348
24254
24170
24096
24014
23922
23831
23738
23638
23541
23463
23397
23322
23243
23166
23082
22981
22872
22778
22697
22609
22514
22428
22341
22239
22131
22041
21961
21869
21766
21664
21554
21421
21278
21141
20997
20842
20701
20587
20483
20380
20282
20189
20086
19971
19871
19795
19729
19676
19645
19633
19621
19606
19606
19616
19616
19607
19604
19600
19576
19539
19504
19467
19416
19362
19319
19277
19217
19141
19061
18972
18870
18772
18696
18625
18552
18492
18456
18446
18465
18537
18672
18858
19099
19420
19818
20269
20762
21302
21881
22465
23040
23613
24172
24692
25176
25645
26100
26515
26885
27231
27553
27830
28065
28281
28472
28618
28729
28826
28903
28952
28991
29034
29068
29088
29102
29112
29105
29076
29050
29044
29044
29041
29048
29063
29059
29026
28984
28933
28864
28787
28721
28659
28577
28478
28386
28302
28213
28124
28055
28000
27947
27903
27877
27857
27825
27799
27808
27843
27878
27918
27973
28027
28064
28094
28126
28150
28159
28158
28152
28124
28069
28003
27928
27831
27709
27581
27452
27307
27146
27000
26879
26765
26655
26569
26510
26444
26364
26290
26221
26138
26052
25984
25923
25841
25746
25664
25584
25481
25369
25276
25187
25077
24958
24852
24736
24595
24455
24341
24239
24138
24049
23984
23918
23837
23764
23708
23651
23586
23531
23491
23435
23354
23271
23188
23081
22949
22824
22709
22582
22455
22351
22262
22164
22061
21984
21932
21878
21827
21796
21764
21699
21618
21557
21510
21466
21451
21489
21573
21691
21864
22118
22438
22802
23224
23710
24232
24771
25332
25906
26459
26974
27475
27963
28394
28758
29079
29359
29568
29707
29812
29892
29924
29911
29887
29849
29773
29670
29576
29493
29404
29327
29286
29257
29209
29157
29130
29114
29081
29040
29003
28941
28834
28703
28574
28436
28276
28116
27970
27811
27626
27441
27273
27110
26956
26846
26788
26755
26747
26791
26886
27003
27136
27302
27486
27655
27805
27944
28049
28086
28069
28044
28013
27956
27890
27842
27793
27718
27629
27552
27470
27369
27281
27222
27166
27091
27012
26945
26869
26772
26678
26597
26507
26403
26308
26232
26140
26022
25914
25828
25741
25652
25587
25548
25500
25434
25374
25319
25244
25155
25081
25021
24955
24890
24836
24766
24661
24548
24467
24402
24318
24226
24156
24088
24001
23929
23898
23892
23890
23906
23947
23985
23995
23992
23982
23942
23858
23754
23639
23488
23298
23103
22913
22718
22531
22394
22303
22219
22136
22078
22027
21942
21833
21733
21634
21517
21409
21352
21342
21362
21440
21607
21851
22147
22512
22963
23466
23986
24532
25109
25677
26205
26706
27181
27597
27942
28231
28465
28624
28717
28789
28845
28858
28836
28811
28791
28753
28707
28689
28692
28678
28651
28640
28637
28614
28583
28566
28549
28509
28461
28435
28421
28393
28368
28362
28345
28291
28218
28152
28075
27967
27852
27753
27650
27531
27417
27321
27220
27107
27009
26937
26871
26809
26781
26788
26801
26818
26864
26937
27006
27072
27166
27268
27335
27370
27401
27417
27388
27327
27271
27204
27099
26979
26878
26773
26633
26482
26352
26225
26072
25915
25776
25634
25471
25313
25178
25039
24882
24740
24626
24514
24403
24318
24262
24191
24101
24027
23972
23901
23818
23755
23705
23632
23538
23456
23381
23289
23197
23130
23077
23014
22960
22937
22922
22873
22801
22735
22664
22576
22496
22445
22399
22332
22265
22217
22163
22091
22020
21953
21865
21752
21653
21578
21494
21396
21316
21261
21194
21110
21045
20995
20926
20841
20775
20725
20662
20597
20560
20534
20488
20434
20405
20386
20349
20307
20275
20229
20140
20025
19910
19784
19641
19522
19464
19461
19501
19619
19838
20131
20477
20897
21393
21937
22509
23122
23766
24394
24990
25568
26116
26593
26993
27346
27655
27899
28093
28271
28431
28553
28649
28745
28831
28885
28928
28996
29072
29117
29139
29171
29197
29197
29197
29224
29258
29282
29312
29362
29400
29409
29419
29442
29448
29425
29407
29403
29377
29320
29264
29215
29146
29058
28990
28942
28884
28821
28784
28770
28744
28707
28689
28691
28684
28675
28689
28708
28703
28690
28696
28707
28701
28698
28722
28748
28743
28719
28702
28674
28614
28539
28465
28374
28257
28139
28036
27922
27792
27674
27573
27466
27351
27256
27178
27087
26980
26883
26792
26674
26533
26411
26305
26181
26045
25929
25823
25691
25539
25403
25271
25115
24952
24814
24685
24543
24404
24289
24179
24057
23942
23854
23778
23700
23643
23613
23574
23514
23458
23411
23340
23235
23132
23043
22932
22796
22668
22550
22413
22260
22125
22004
21870
21737
21642
21576
21508
21450
21416
21374
21292
21197
21122
21049
20951
20849
20771
20699
20608
20514
20437
20354
20247
20141
20055
19969
19877
19797
19741
19685
19620
19578
19557
19521
19465
19429
19430
19438
19455
19525
19661
19843
20087
20430
20863
21346
21875
22464
23087
23706
24323
24959
25587
26169
26712
27227
27683
28054
28362
28631
28839
28977
29079
29173
29248
29295
29328
29362
29382
29380
29381
29396
29407
29407
29425
29464
29484
29475
29473
29479
29458
29411
29372
29337
29273
29183
29093
28995
28859
28702
28567
28442
28289
28120
27965
27810
27627
27443
27294
27168
27040
26933
26865
26801
26718
26645
26604
26575
26542
26525
26535
26542
26531
26525
26529
26505
26442
26373
26312
26237
26150
26074
26002
25908
25797
25695
25597
25477
25346
25238
25148
25046
24942
24864
24787
24677
24549
24437
24334
24218
24110
24026
23936
23817
23697
23600
23503
23387
23283
23209
23139
23058
22988
22937
22872
22783
22705
22645
22564
22455
22359
22284
22198
22100
22016
21943
21852
21750
21668
21603
21533
21478
21468
21481
21474
21454
21452
21455
21438
21424
21440
21466
21470
21463
21468
21461
21421
21378
21356
21333
21284
21237
21208
21159
21073
20986
20910
20821
20711
20613
20533
20448
20364
20318
20313
20329
20385
20520
20737
21008
21340
21764
22268
22804
23366
23966
24568
25130
25658
26179
26677
27123
27538
27941
28306
28605
28856
29081
29262
29386
29491
29599
29687
29746
29800
29854
29884
29884
29889
29907
29912
29904
29920
29960
29993
30014
30047
30081
30085
30060
30036
30009
29949
29863
29783
29695
29571
29427
29301
29185
29053
28930
28840
28759
28664
28577
28533
28509
28489
28503
28573
28663
28743
28829
28934
29027
29090
29150
29215
29256
29263
29271
29295
29298
29266
29233
29202
29136
29035
28941
28860
28762
28652
28560
28474
28358
28217
28092
27978
27840
27690
27565
27450
27316
27180
27064
26948
26809
26678
26578
26483
26370
26260
26175
26081
25962
25855
25772
25684
25584
25496
25421
25326
25206
25099
25014
24924
24824
24738
24666
24578
24472
24378
24292
24178
24047
23944
23863
23771
23678
23610
23549
23464
23371
23297
23222
23122
23019
22943
22875
22796
22735
22730
22769
22841
22982
23215
23522
23894
24342
24856
25388
25912
26449
26995
27513
27997
28475
28943
29355
29701
30011
30279
30475
30608
30715
30790
30801
30767
30726
30663
30554
30428
30325
30236
30141
30067
30039
30035
30033
30049
30103
30157
30180
30199
30225
30218
30153
30055
29937
29764
29528
29271
29014
28737
28454
28217
28037
27874
27720
27611
27551
27509
27483
27497
27547
27595
27640
27712
27798
27856
27890
27932
27966
27966
27955
27966
27980
27969
27948
27940
27915
27851
27779
27722
27657
27561
27459
27371
27280
27180
27097
27034
26965
26883
26820
26777
26719
26637
26551
26456
26323
26165
26015
25866
25697
25531
25403
25292
25161
25025
24912
24797
24643
24467
24297
24113
23886
23634
23382
23105
22770
22398
22026
21646
21236
20829
20462
20117
19775
19473
19235
19035
18865
18769
18761
18800
18865
18968
19091
19182
19225
19249
19258
19222
19149
19084
19036
18974
18908
18881
18889
18893
18900
18940
19001
19059
19139
19284
19490
19735
20045
20451
20928
21449
22026
22670
23345
24012
24676
25345
25977
26550
27087
27594
28040
28420
28769
29099
29376
29596
29796
29979
30113
30203
30286
30369
30427
30470
30529
30595
30637
30671
30728
30794
30839
30887
30969
31067
31144
31213
31295
31361
31378
31366
31348
31307
31224
31121
31019
30894
30737
30580
30438
30293
30142
30025
29960
29913
29871
29863
29890
29910
29912
29929
29966
29990
30004
30040
30088
30111
30112
30125
30141
30117
30064
30018
29964
29872
29762
29673
29594
29490
29377
29290
29211
29103
28990
28899
28798
28654
28492
28336
28165
27970
27792
27647
27506
27364
27249
27166
27081
26984
26902
26837
26768
26703
26658
26621
26563
26493
26444
26412
26357
26283
26221
26164
26078
25973
25889
25816
25720
25615
25537
25467
25380
25296
25241
25196
25140
25091
25065
25032
24966
24882
24790
24671
24517
24372
24258
24145
24024
23930
23867
23793
23699
23609
23521
23411
23284
23176
23086
22987
22884
22809
22754
22682
22597
22528
22469
22398
22334
22321
22358
22432
22566
22784
23063
23379
23753
24209
24721
25254
25820
26424
27025
27591
28139
28672
29156
29580
29971
30336
30647
30901
31120
31307
31441
31530
31607
31677
31714
31726
31747
31778
31794
31799
31825
31864
31888
31907
31946
31985
31986
31959
31934
31893
31809
31710
31631
31552
31454
31353
31270
31180
31066
30954
30863
30766
30653
30548
30457
30361
30261
30191
30156
30119
30074
30054
30058
30049
30025
30022
30042
30056
30070
30109
30156
30171
30162
30159
30151
30104
30034
29968
29884
29754
29607
29483
29369
29228
29078
28947
28804
28625
28435
28250
28058
27855
27667
27510
27354
27189
27050
26947
26845
26730
26630
26552
26463
26356
26256
26164
26058
25951
25877
25824
25761
25694
25651
25611
25537
25440
25351
25258
25140
25027
24955
24905
24844
24781
24742
24712
24666
24624
24602
24571
24512
24446
24385
24317
24233
24162
24114
24059
23992
23937
23902
23854
23782
23720
23676
23619
23548
23494
23459
23411
23346
23287
23223
23126
23014
22925
22843
22729
22592
22461
22322
22146
21957
21784
21613
21425
21245
21107
21014
20962
20993
21138
21369
21668
22044
22496
22997
23530
24110
24733
25354
25950
26539
27117
27649
28127
28570
28978
29316
29582
29808
29988
30099
30158
30199
30227
30235
30245
30286
30338
30360
30353
30345
30330
30293
30255
30239
30230
30203
30170
30153
30127
30069
30008
29957
29885
29776
29649
29512
29342
29139
28946
28778
28612
28450
28323
28231
28140
28038
27952
27889
27821
27750
27709
27693
27669
27648
27655
27675
27679
27678
27697
27716
27703
27669
27637
27587
27493
27375
27267
27166
27053
26948
26868
26782
26671
26559
26458
26347
26217
26095
25986
25859
25702
25548
25406
25255
25090
24950
24841
24731
24616
24513
24411
24278
24121
23970
23822
23658
23488
23341
23203
23046
22895
22793
22728
22663
22604
22572
22538
22473
22392
22323
22253
22160
22076
22029
21990
21934
21878
21830
21760
21661
21565
21480
21370
21227
21088
20967
20839
20709
20613
20542
20453
20340
20239
20145
20025
19883
19764
19668
19563
19459
19383
19314
19217
19119
19058
19010
18935
18843
18767
18696
18614
18554
18552
18594
18668
18807
19041
19345
19700
20130
20638
21183
21743
22332
22943
23529
24073
24605
25126
25594
26005
26388
26734
27009
27221
27408
27572
27692
27784
27886
27992
28062
28095
28124
28139
28117
28090
28096
28114
28113
28101
28107
28113
28095
28085
28101
28114
28107
28094
28082
28039
27954
27862
27774
27662
27528
27407
27309
27199
27072
26961
26876
26794
26718
26670
26642
26604
26561
26543
26550
26556
26572
26613
26658
26674
26674
26687
26702
26692
26674
26667
26648
26603
26548
26501
26435
26330
26209
26094
25961
25796
25623
25450
25257
25047
24860
24710
24572
24444
24345
24267
24181
24086
24008
23947
23871
23783
23710
23645
23554
23445
23354
23275
23174
23056
22947
22842
22717
22598
22522
22474
22418
22365
22339
22317
22272
22235
22228
22225
22200
22168
22135
22074
21977
21881
21798
21706
21608
21543
21517
21486
21443
21418
21407
21370
21306
21254
21214
21160
21103
21080
21089
21099
21127
21226
21395
21607
21875
22221
22623
23043
23485
23970
24478
24974
25467
25973
26457
26889
27287
27659
27977
28229
28439
28615
28728
28768
28781
28789
28778
28751
28738
28744
28735
28697
28668
28651
28621
28591
28590
28610
28610
28592
28586
28575
28526
28456
28395
28320
28190
28029
27874
27711
27519
27330
27177
27043
26905
26775
26672
26577
26478
26405
26377
26361
26341
26337
26353
26361
26349
26345
26359
26356
26328
26304
26284
26231
26143
26054
25965
25847
25707
25572
25431
25242
25013
24784
24550
24282
23995
23727
23459
23168
22879
22629
22398
22161
21947
21780
21636
21493
21370
21284
21203
21100
21007
20944
20876
20787
20711
20661
20600
20515
20446
20401
20348
20294
20275
20286
20280
20249
20223
20198
20139
20050
19973
19902
19804
19700
19632
19576
19493
19409
19358
19317
19249
19173
19123
19076
18996
18907
18838
18754
18631
18502
18384
18244
18067
17897
17761
17622
17472
17344
17245
17135
17012
16906
16825
16741
16671
16674
16762
16901
17094
17384
17765
18191
18663
19208
19803
20398
20994
21612
22223
22782
23295
23787
24231
24600
24921
25222
25489
25703
25894
26084
26250
26378
26493
26612
26700
26749
26802
26872
26926
26960
27011
27086
27142
27172
27215
27277
27323
27346
27378
27409
27407
27382
27371
27362
27317
27249
27188
27116
26999
26857
26731
26609
26469
26343
26260
26199
26138
26096
26093
26103
26104
26119
26162
26199
26211
26223
26247
26242
26200
26155
26110
26037
25936
25840
25747
25630
25501
25399
25319
25225
25122
25039
24968
24872
24760
24664
24570
24450
24325
24231
24155
24067
23983
23928
23876
23790
23688
23600
23508
23389
23270
23170
23062
22933
22819
22743
22667
22574
22488
22412
22308
22167
22032
21917
21792
21657
21536
21426
21295
21153
21029
20922
20805
20684
20592
20518
20423
20313
20220
20131
20018
19906
19834
19785
19724
19668
19642
19615
19553
19475
19402
19304
19161
19012
18881
18745
18596
18472
18391
18317
18238
18180
18142
18083
17996
17918
17858
17783
17696
17637
17601
17548
17486
17450
17432
17394
17334
17282
17228
17142
17041
16961
16891
16806
16738
16737
16799
16910
17100
17404
17802
18259
18787
19391
20022
20643
21264
21887
22477
23021
23555
24082
24556
24965
25334
25664
25926
26123
26292
26437
26533
26594
26662
26735
26775
26796
26840
26897
26929
26946
26989
27049
27094
27139
27221
27315
27387
27453
27539
27619
27663
27694
27734
27744
27693
27608
27511
27375
27193
27013
26859
26700
26530
26379
26253
26112
25952
25821
25733
25653
25582
25555
25572
25595
25619
25672
25744
25794
25823
25865
25910
25917
25895
25870
25823
25728
25614
25525
25447
25346
25245
25171
25099
25006
24917
24852
24792
24721
24664
24634
24594
24531
24475
24429
24357
24247
24133
24020
23879
23718
23578
23459
23320
23156
23007
22879
22733
22573
22447
22363
22288
22230
22220
22238
22243
22245
22270
22293
22284
22269
22272
22272
22240
22204
22193
22175
22122
22059
22002
21931
21836
21748
21681
21615
21542
21486
21457
21412
21337
21267
21202
21111
21000
20915
20851
20763
20657
20577
20521
20450
20369
20307
20245
20144
20027
19934
19850
19741
19619
19505
19381
19218
19043
18894
18748
18580
18425
18310
18197
18068
17953
17868
17771
17640
17515
17412
17298
17172
17086
17065
17074
17112
17229
17439
17716
18063
18511
19042
19608
20195
20817
21448
22041
22588
23116
23608
24027
24394
24743
25048
25270
25432
25574
25679
25729
25760
25801
25832
25836
25829
25823
25791
25722
25661
25629
25593
25545
25522
25531
25533
25517
25522
25550
25560
25545
25538
25535
25501
25432
25362
25281
25154
24995
24850
24710
24540
24365
24222
24100
23963
23832
23747
23698
23660
23664
23732
23837
23941
24053
24180
24283
24333
24361
24385
24374
24317
24249
24191
24110
24000
23901
23829
23751
23668
23618
23596
23552
23480
23408
23333
23233
23122
23034
22961
22870
22775
22703
22626
22500
22350
22227
22117
21988
21866
21784
21714
21619
21523
21456
21400
21326
21259
21225
21187
21121
21061
21023
20978
20916
20873
20858
20829
20775
20732
20706
20657
20581
20517
20464
20383
20277
20193
20130
20044
19938
19856
19792
19709
19623
19562
19502
19405
19302
19239
19202
19153
19109
19089
19056
18974
18873
18786
18690
18568
18452
18371
18288
18188
18119
18101
18097
18090
18110
18157
18179
18163
18150
18145
18112
18062
18047
18076
18117
18189
18348
18594
18892
19258
19733
20295
20887
21505
22157
22801
23394
23947
24490
24996
25431
25806
26151
26443
26658
26832
26996
27125
27205
27267
27331
27359
27340
27319
27313
27294
27259
27241
27242
27228
27200
27196
27217
27225
27221
27244
27283
27289
27258
27220
27160
27046
26900
26766
26638
26495
26357
26256
26169
26062
25955
25878
25818
25751
25704
25704
25725
25751
25808
25909
26011
26088
26169
26263
26331
26358
26375
26388
26369
26316
26270
26235
26177
26094
26027
25981
25919
25840
25764
25683
25569
25433
25306
25188
25055
24923
24817
24719
24596
24469
24368
24277
24176
24078
23997
23905
23782
23646
23513
23365
23192
23031
22898
22767
22630
22506
22397
22271
22116
21964
21825
21681
21538
21422
21328
21229
21124
21037
20957
20855
20742
20655
20578
20469
20341
20224
20104
19951
19783
19637
19505
19359
19227
19128
19030
18906
18778
18661
18527
18352
18175
18032
17906
17794
17736
17749
17802
17886
18040
18274
18556
18880
19280
19754
20254
20765
21311
21879
22425
22949
23475
23993
24465
24887
25278
25624
25903
26127
26321
26478
26583
26659
26736
26795
26807
26791
26773
26734
26660
26575
26501
26429
26346
26272
26222
26169
26103
26045
25997
25930
25833
25736
25651
25551
25433
25318
25207
25078
24936
24814
24717
24626
24550
24508
24489
24461
24430
24426
24436
24435
24434
24454
24478
24486
24489
24504
24514
24507
24507
24532
24563
24579
24586
24594
24575
24514
24426
24322
24184
24012
23838
23680
23513
23333
23169
23023
22867
22701
22559
22444
22324
22196
22086
21982
21849
21694
21544
21394
21229
21067
20933
20819
20700
20583
20487
20398
20294
20181
20079
19980
19869
19768
19694
19623
19543
19477
19432
19380
19308
19232
19156
19060
18943
18834
18744
18643
18526
18421
18333
18249
18171
18123
18105
18086
18062
18054
18046
18005
17937
17864
17779
17663
17535
17422
17314
17191
17061
16946
16836
16713
16601
16520
16456
16398
16364
16374
16413
16474
16595
16795
17063
17394
17809
18309
18864
19453
20079
20730
21365
21969
22560
23124
23625
24055
24434
24754
24998
25179
25331
25454
25521
25538
25527
25472
25349
25185
25025
24879
24747
24642
24586
24560
24544
24548
24574
24606
24638
24692
24774
24855
24919
24988
25068
25132
25168
25197
25219
25203
25139
25054
24954
24820
24664
24530
24427
24327
24238
24186
24156
24118
24073
24048
24040
24033
24022
24014
23996
23953
23895
23841
23780
23695
23608
23537
23462
23369
23273
23186
23084
22957
22834
22727
22612
22486
22373
22277
22172
22053
21948
21859
21765
21667
21591
21531
21456
21363
21274
21184
21075
20958
20864
20789
20710
20637
20580
20521
20437
20344
20264
20184
20087
20003
19949
19899
19835
19778
19734
19688
19631
19588
19575
19566
19549
19546
19562
19570
19561
19558
19566
19559
19533
19507
19477
19421
19351
19298
19261
19214
19163
19137
19122
19083
19023
18966
18902
18815
18726
18658
18597
18517
18426
18340
18249
18132
17999
17860
17701
17512
17318
17148
16989
16842
16754
16754
16833
16999
17278
17675
18154
18680
19256
19872
20491
21099
21708
22306
22866
23383
23868
24310
24688
25012
25312
25584
25800
25964
26105
26218
26285
26330
26380
26419
26427
26420
26429
26442
26440
26451
26489
26532
26565
26598
26636
26657
26652
26647
26653
26650
26627
26597
26554
26476
26365
26253
26143
26007
25846
25687
25529
25358
25193
25075
25004
24956
24933
24945
24965
24961
24936
24915
24894
24859
24831
24828
24831
24822
24816
24830
24846
24838
24816
24787
24727
24625
24498
24357
24192
24004
23828
23675
23518
23349
23190
23044
22889
22724
22571
22434
22295
22158
22045
21947
21832
21699
21569
21439
21289
21129
20983
20837
20669
20494
20336
20185
20026
19874
19747
19635
19519
19402
19294
19173
19028
18882
18753
18628
18499
18390
18311
18230
18138
18060
17997
17918
17814
17713
17621
17525
17429
17355
17300
17231
17148
17070
16990
16889
16785
16697
16608
16493
16363
16247
16144
16037
15943
15878
15831
15781
15734
15697
15653
15593
15539
15496
15441
15368
15305
15256
15189
15094
15002
14921
14827
14717
14619
14538
14447
14347
14279
14260
14281
14355
14527
14805
15156
15572
16071
16630
17209
17801
18417
19028
19603
20150
20683
21185
21628
22022
22387
22708
22969
23195
23406
23588
23733
23860
23984
24083
24152
24223
24303
24368
24422
24490
24572
24635
24679
24731
24792
24847
24898
24964
25037
25091
25123
25151
25168
25145
25091
25034
24968
24879
24784
24706
24636
24555
24473
24406
24335
24251
24172
24122
24092
24066
24062
24086
24116
24139
24170
24215
24247
24249
24243
24235
24203
24146
24097
24065
24023
23963
23902
23839
23753
23647
23541
23432
23296
23135
22977
22821
22655
22493
22359
22234
22098
21962
21857
21770
21677
21593
21531
21463
21368
21267
21182
21097
20995
20900
20830
20764
20686
20611
20546
20470
20376
20296
20240
20181
20114
20065
20029
19973
19893
19815
19736
19632
19507
19384
19261
19112
18947
18795
18647
18479
18301
18137
17973
17779
17566
17368
17173
16962
16767
16616
16496
16387
16296
16234
16172
16093
16017
15957
15895
15828
15802
15838
15918
16047
16257
16552
16904
17307
17785
18325
18880
19436
20015
20604
21160
21674
22167
22624
23013
23341
23639
23905
24118
24297
24468
24614
24701
24738
24754
24741
24678
24594
24515
24426
24321
24227
24167
24126
24097
24094
24113
24127
24128
24139
24159
24154
24117
24073
24026
23954
23860
23770
23683
23574
23457
23368
23304
23240
23182
23151
23137
23110
23080
23074
23085
23090
23102
23132
23159
23157
23136
23125
23120
23111
23119
23162
23212
23248
23284
23333
23372
23390
23407
23427
23420
23378
23322
23265
23187
23083
22978
22872
22742
22595
22466
22352
22224
22089
21971
21863
21739
21612
21514
21431
21332
21230
21142
21041
20898
20731
20567
20397
20207
20020
19860
19706
19541
19387
19258
19128
18981
18844
18734
18628
18521
18439
18383
18317
18234
18159
18096
18021
17938
17875
17833
17779
17711
17654
17604
17531
17439
17354
17275
17174
17070
17000
16955
16904
16855
16827
16803
16759
16718
16703
16695
16679
16685
16750
16868
17044
17301
17642
18046
18498
19024
19630
20272
20920
21576
22223
22819
23349
23846
24322
24746
25113
25445
25742
25978
26166
26332
26462
26533
26563
26594
26628
26636
26635
26650
26668
26667
26657
26660
26672
26681
26705
26755
26808
26838
26852
26866
26853
26798
26730
26660
26569
26451
26329
26216
26081
25912
25748
25599
25434
25254
25099
24976
24863
24765
24714
24702
24688
24670
24675
24693
24700
24706
24737
24780
24801
24803
24808
24798
24750
24695
24657
24611
24534
24446
24370
24289
24188
24088
24000
23898
23772
23647
23534
23399
23231
23061
22906
22744
22575
22424
22291
22146
21988
21849
21736
21616
21488
21384
21308
21225
21140
21075
21010
20915
20807
20720
20647
20561
20472
20398
20321
20221
20116
20026
19934
19823
19714
19623
19525
19403
19283
19186
19080
18951
18834
18740
18643
18533
18436
18358
18259
18127
17991
17857
17696
17511
17343
17196
17036
16872
16741
16633
16513
16388
16285
16186
16053
15905
15783
15676
15551
15430
15349
15294
15237
15191
15179
15177
15163
15156
15170
15169
15137
15113
15114
15109
15092
15101
15154
15226
15323
15494
15750
16071
16465
16965
17561
18205
18883
19609
20354
21060
21713
22335
22905
23389
23800
24175
24503
24757
24967
25170
25350
25486
25599
25721
25843
25941
26040
26157
26270
26369
26481
26627
26780
26928
27099
27297
27475
27612
27740
27863
27950
27996
28032
28061
28040
27965
27881
27795
27666
27502
27350
27210
27050
26883
26746
26629
26501
26380
26295
26226
26142
26064
26030
26027
26018
26024
26062
26098
26106
26105
26110
26082
25997
25893
25791
25662
25501
25350
25229
25097
24949
24817
24704
24588
24466
24368
24294
24205
24097
23999
23904
23779
23637
23513
23398
23263
23128
23029
22948
22853
22760
22695
22632
22534
22432
22361
22295
22206
22118
22053
21975
21861
21747
21652
21547
21425
21325
21262
21196
21114
21041
20983
20906
20804
20716
20647
20563
20469
20404
20360
20297
20223
20175
20136
20069
19986
19932
19900
19853
19805
19784
19766
19712
19638
19579
19513
19414
19315
19248
19186
19104
19027
18978
18926
18846
18777
18735
18683
18606
18529
18456
18348
18199
18051
17918
17767
17600
17455
17333
17200
17059
16945
16859
16779
16729
16752
16850
16991
17191
17494
17891
18342
18856
19450
20085
20709
21327
21958
22569
23123
23635
24123
24552
24900
25188
25424
25587
25680
25743
25793
25804
25777
25756
25752
25740
25724
25741
25789
25829
25855
25900
25958
25984
25987
26009
26042
26052
26047
26052
26044
25980
25868
25751
25623
25452
25269
25111
24957
24778
24598
24447
24313
24176
24060
23993
23947
23901
23874
23873
23875
23867
23882
23932
23979
24007
24038
24070
24066
24030
24002
23988
23955
23909
23883
23871
23840
23791
23753
23713
23639
23553
23491
23430
23328
23196
23075
22954
22811
22675
22570
22466
22337
22202
22094
21992
21879
21790
21747
21713
21667
21633
21618
21588
21533
21490
21471
21431
21357
21286
21224
21139
21037
20967
20932
20899
20870
20876
20906
20930
20961
21032
21120
21173
21197
21222
21225
21164
21057
20944
20805
20614
20413
20244
20085
19916
19766
19656
19559
19450
19365
19320
19269
19191
19121
19065
18984
18868
18761
18673
18570
18456
18365
18290
18194
18075
17968
17871
17753
17625
17526
17443
17339
17234
17171
17137
17104
17111
17212
17403
17652
17974
18393
18878
19393
19959
20592
21251
21898
22546
23199
23813
24359
24862
25338
25752
26088
26375
26629
26812
26922
27003
27068
27087
27067
27057
27066
27066
27061
27081
27118
27139
27160
27224
27309
27363
27392
27430
27462
27453
27427
27421
27415
27372
27308
27251
27174
27051
26923
26818
26723
26622
26542
26499
26456
26402
26375
26375
26367
26347
26356
26402
26442
26469
26515
26578
26623
26649
26689
26746
26781
26795
26821
26842
26818
26755
26698
26642
26555
26454
26370
26284
26167
26033
25911
25787
25637
25489
25370
25251
25110
24966
24836
24698
24537
24395
24291
24196
24098
24029
23996
23964
23922
23905
23912
23895
23844
23792
23739
23645
23509
23376
23254
23121
22991
22893
22811
22713
22616
22548
22492
22409
22317
22241
22157
22042
21925
21840
21770
21691
21621
21582
21539
21468
21396
21339
21265
21160
21053
20955
20837
20695
20574
20495
20432
20388
20421
20549
20733
20967
21290
21695
22130
22582
23081
23613
24128
24627
25145
25659
26119
26531
26920
27264
27535
27758
27961
28121
28212
28262
28303
28315
28278
28226
28187
28135
28056
27983
27932
27868
27781
27711
27672
27631
27578
27549
27547
27520
27455
27391
27329
27226
27084
26945
26809
26646
26466
26310
26166
25999
25825
25686
25570
25445
25337
25286
25265
25233
25205
25218
25255
25293
25359
25468
25583
25672
25749
25823
25855
25828
25780
25731
25648
25522
25394
25270
25110
24920
24746
24594
24433
24275
24165
24099
24027
23945
23888
23845
23769
23671
23590
23510
23390
23247
23120
22994
22841
22691
22584
22500
22404
22314
22257
22200
22112
22021
21950
21876
21786
21714
21677
21638
21579
21521
21471
21395
21284
21176
21079
20948
20779
20621
20484
20331
20169
20050
19976
19901
19825
19778
19734
19645
19528
19429
19332
19197
19057
18961
18883
18783
18690
18640
18604
18544
18487
18457
18421
18365
18332
18352
18405
18489
18656
18930
19279
19687
20183
20766
21375
21985
22621
23278
23908
24497
25070
25617
26094
26503
26877
27205
27447
27619
27762
27872
27922
27942
27977
28009
28005
27990
27999
28024
28043
28080
28153
28227
28271
28314
28376
28428
28448
28466
28496
28497
28454
28401
28355
28282
28165
28037
27915
27774
27617
27486
27385
27271
27143
27043
26968
26875
26769
26697
26656
26606
26557
26540
26534
26498
26455
26445
26447
26420
26378
26355
26332
26274
26197
26126
26025
25872
25704
25546
25371
25171
24987
24843
24696
24524
24367
24241
24105
23948
23809
23693
23562
23410
23281
23178
23060
22933
22830
22740
22621
22482
22364
22251
22104
21943
21809
21691
21553
21419
21325
21250
21156
21068
21009
20948
20856
20760
20686
20607
20510
20431
20382
20316
20214
20114
20030
19930
19806
19708
19650
19581
19491
19425
19387
19332
19255
19199
19167
19116
19050
19005
18967
18887
18779
18687
18606
18497
18376
18278
18182
18050
17904
17786
17688
17584
17496
17450
17414
17361
17318
17304
17297
17288
17321
17420
17554
17722
17969
18306
18695
19122
19622
20194
20780
21360
21953
22551
23108
23615
24105
24569
24969
25316
25645
25942
26171
26349
26519
26670
26774
26853
26945
27035
27088
27127
27190
27254
27287
27322
27390
27461
27510
27561
27628
27671
27670
27664
27671
27659
27615
27564
27510
27424
27302
27179
27060
26911
26736
26575
26427
26258
26076
25917
25773
25618
25467
25359
25287
25217
25157
25141
25140
25106
25059
25038
25024
24985
24942
24919
24879
24799
24712
24634
24542
24426
24325
24250
24157
24030
23903
23784
23631
23431
23232
23048
22844
22621
22425
22265
22101
21929
21790
21680
21558
21427
21328
21243
21125
20983
20853
20718
20544
20352
20184
20027
19849
19681
19556
19446
19321
19202
19110
19011
18887
18777
18704
18632
18538
18458
18412
18357
18274
18204
18161
18107
18034
17973
17922
17844
17738
17639
17539
17404
17245
17106
16983
16838
16682
16554
16436
16296
16156
16060
15989
15901
15809
15737
15650
15523
15390
15283
15177
15049
14928
14838
14739
14611
14494
14405
14314
14209
14128
14083
14026
13937
13855
13789
13698
13585
13500
13453
13415
13398
13447
13568
13730
13945
14249
14623
15018
15437
15914
16428
16930
17435
17968
18491
18962
19384
19777
20121
20392
20625
20846
21020
21124
21192
21252
21280
21271
21269
21284
21275
21236
21208
21207
21207
21212
21262
21356
21450
21536
21642
21750
21814
21840
21857
21856
21796
21698
21617
21550
21462
21367
21298
21222
21104
20961
20834
20710
20564
20426
20335
20267
20199
20167
20189
20228
20258
20296
20350
20378
20362
20345
20344
20328
20290
20264
20254
20208
20121
20040
19972
19865
19725
19600
19483
19331
19158
19012
18887
18742
18593
18479
18383
18263
18131
18025
17927
17799
17669
17576
17492
17382
17271
17184
17098
16994
16901
16840
16774
16679
16592
16528
16445
16333
16236
16170
16097
16004
15936
15899
15853
15794
15765
15768
15755
15724
15704
15682
15624
15544
15483
15426
15335
15229
15144
15062
14952
14844
14771
14702
14605
14515
14463
14422
14364
14312
14280
14234
14156
14085
14039
13978
13884
13789
13700
13579
13421
13272
13144
13000
12843
12714
12612
12488
12337
12203
12093
11971
11853
11793
11793
11814
11876
12026
12245
12494
12792
13179
13627
14090
14575
15102
15630
16123
16602
17085
17534
17918
18269
18607
18899
19130
19343
19567
19768
19939
20127
20340
20530
20691
20858
21025
21151
21236
21317
21397
21448
21480
21529
21584
21600
21583
21577
21580
21560
21531
21524
21510
21448
21360
21291
21231
21154
21082
21036
20990
20919
20851
20810
20769
20712
20676
20681
20684
20661
20648
20654
20642
20607
20593
20607
20604
20576
20557
20546
20507
20442
20390
20344
20264
20157
20056
19946
19796
19634
19502
19380
19230
19069
18933
18805
18652
18504
18388
18272
18125
17973
17848
17730
17602
17494
17430
17374
17303
17250
17225
17187
17120
17060
17014
16945
16844
16751
16665
16547
16400
16279
16192
16092
15978
15892
15822
15721
15596
15497
15416
15317
15221
15155
15091
14998
14897
14825
14750
14634
14517
14439
14359
14249
14142
14067
13994
13901
13822
13780
13731
13652
13567
13490
13394
13276
13192
13162
13162
13198
13310
13499
13725
13990
14328
14717
15116
15534
15998
16483
16934
17355
17780
18186
18534
18848
19169
19475
19720
19927
20128
20294
20397
20470
20541
20584
20581
20574
20590
20588
20552
20524
20519
20495
20439
20392
20374
20346
20289
20246
20222
20166
20067
19970
19885
19775
19656
19571
19505
19418
19323
19254
19189
19093
18992
18932
18894
18842
18802
18804
18816
18805
18798
18824
18857
18860
18862
18887
18898
18873
18844
18828
18792
18724
18668
18640
18598
18528
18471
18439
18399
18350
18335
18351
18353
18340
18357
18394
18407
18397
18399
18399
18365
18319
18300
18287
18242
18181
18140
18097
18014
17916
17845
17779
17689
17609
17564
17522
17462
17410
17377
17322
17219
17104
16998
16869
16717
16587
16490
16385
16264
16171
16104
16009
15882
15769
15665
15526
15363
15220
15087
14926
14754
14613
14485
14329
14166
14036
13931
13814
13712
13664
13632
13574
13514
13478
13437
13361
13292
13255
13206
13127
13054
13003
12934
12828
12731
12658
12567
12453
12361
12300
12216
12101
12008
11948
11881
11829
11857
11966
12106
12284
12544
12875
13231
13629
14103
14629
15154
15683
16242
16789
17272
17716
18156
18564
18900
19192
19468
19696
19858
19996
20140
20254
20315
20375
20460
20532
20585
20666
20782
20882
20949
21029
21125
21187
21217
21266
21336
21381
21408
21453
21502
21511
21494
21500
21516
21488
21428
21373
21301
21183
21046
20927
20810
20672
20545
20463
20389
20294
20213
20168
20125
20064
20031
20044
20048
20015
19981
19964
19916
19826
19746
19690
19616
19522
19455
19415
19351
19257
19169
19083
18961
18821
18710
18617
18493
18351
18236
18136
18013
17887
17795
17710
17598
17481
17387
17284
17151
17026
16936
16846
16734
16629
16546
16446
16318
16205
16119
16017
15890
15786
15722
15647
15546
15460
15395
15312
15215
15151
15119
15074
15023
15006
15006
14973
14917
14886
14863
14802
14723
14672
14626
14548
14466
14415
14371
14300
14224
14168
14102
13994
13886
13807
13721
13605
13500
13420
13320
13180
13047
12940
12817
12674
12555
12467
12361
12233
12126
12042
11939
11817
11717
11633
11529
11416
11339
11282
11196
11092
11016
10956
10870
10773
10701
10638
10549
10458
10395
10334
10247
10164
10115
10080
10050
10077
10190
10356
10563
10844
11212
11625
12061
12557
13115
13679
14228
14796
15374
15894
16334
16729
17078
17343
17541
17736
17924
18065
18178
18315
18463
18586
18714
18887
19078
19239
19389
19571
19755
19909
20065
20252
20435
20583
20719
20864
20974
21021
21044
21057
21026
20944
20864
20804
20715
20586
20462
20351
20216
20066
19959
19893
19826
19763
19740
19734
19703
19665
19672
19708
19729
19743
19787
19837
19853
19867
19918
19983
20025
20058
20109
20148
20146
20127
20113
20073
19984
19890
19818
19731
19612
19505
19420
19306
19148
18990
18851
18697
18524
18372
18239
18085
17915
17777
17667
17542
17407
17303
17221
17121
17012
16932
16859
16749
16617
16504
16394
16253
16112
16007
15903
15760
15610
15496
15384
15245
15113
15015
14919
14805
14707
14642
14569
14468
14377
14307
14222
14117
14033
13976
13902
13807
13725
13649
13535
13386
13254
13142
13012
12885
12813
12777
12723
12658
12626
12607
12563
12521
12529
12558
12555
12532
12523
12493
12409
12312
12232
12133
12003
11886
11801
11703
11573
11469
11414
11365
11312
11291
11308
11314
11302
11325
11394
11471
11568
11739
11987
12263
12565
12938
13375
13831
14318
14866
15439
15979
16490
16999
17480
17902
18297
18696
19068
19379
19655
19922
20152
20317
20462
20622
20756
20841
20910
20981
21019
21020
21036
21084
21116
21126
21162
21227
21274
21301
21352
21421
21461
21473
21500
21527
21503
21437
21376
21311
21201
21076
20981
20894
20770
20636
20536
20447
20338
20248
20212
20200
20173
20161
20190
20223
20231
20247
20287
20313
20308
20319
20359
20376
20355
20350
20374
20376
20338
20307
20291
20239
20150
20078
20032
19970
19894
19842
19796
19707
19585
19479
19381
19258
19135
19050
18982
18885
18774
18688
18600
18478
18361
18275
18187
18077
17975
17899
17816
17709
17617
17552
17477
17385
17317
17287
17241
17164
17106
17075
17023
16946
16888
16848
16781
16697
16639
16595
16509
16389
16286
16197
16079
15948
15851
15770
15669
15571
15511
15461
15386
15317
15283
15254
15198
15147
15134
15121
15081
15050
15053
15053
15038
15063
15149
15261
15392
15594
15884
16209
16550
16947
17396
17838
18268
18728
19202
19639
20044
20458
20861
21195
21467
21729
21969
22149
22293
22438
22557
22612
22626
22635
22617
22547
22468
22417
22368
22295
22233
22207
22175
22107
22049
22025
21996
21943
21904
21889
21849
21770
21688
21606
21480
21318
21177
21061
20929
20791
20691
20615
20515
20400
20319
20266
20205
20152
20152
20186
20209
20237
20299
20360
20386
20403
20434
20455
20441
20416
20398
20345
20236
20110
19990
19840
19647
19462
19299
19113
18900
18712
18556
18383
18184
18006
17854
17679
17486
17334
17226
17112
16996
16915
16849
16743
16607
16486
16370
16218
16057
15929
15810
15656
15495
15365
15240
15091
14953
14853
14762
14660
14587
14563
14546
14513
14498
14512
14511
14482
14474
14502
14523
14530
14565
14627
14665
14675
14702
14747
14761
14743
14739
14750
14738
14721
14742
14783
14801
14809
14848
14893
14896
14882
14898
14926
14933
14953
15036
15162
15314
15541
15870
16260
16684
17172
17732
18305
18857
19420
19999
20540
21019
21473
21909
22281
22581
22848
23082
23247
23350
23441
23515
23538
23529
23541
23568
23566
23542
23535
23529
23491
23446
23439
23452
23445
23435
23448
23459
23436
23401
23379
23346
23281
23215
23162
23084
22970
22857
22753
22610
22412
22212
22033
21848
21661
21520
21431
21351
21276
21250
21265
21273
21277
21309
21351
21361
21359
21388
21432
21449
21450
21472
21492
21473
21437
21420
21389
21310
21217
21149
21073
20960
20837
20722
20591
20434
20295
20195
20088
19957
19848
19770
19671
19538
19428
19352
19258
19143
19058
19001
18925
18837
18782
18750
18691
18617
18582
18568
18523
18456
18405
18348
18243
18116
18018
17941
17856
17790
17772
17764
17730
17698
17693
17664
17576
17481
17405
17306
17173
17055
16972
16880
16764
16668
16598
16511
16409
16339
16309
16275
16227
16197
16176
16123
16045
15980
15910
15800
15668
15560
15462
15334
15193
15073
14949
14791
14622
14481
14342
14173
14007
13886
13794
13718
13700
13768
13898
14076
14345
14725
15170
15649
16183
16766
17352
17929
18517
19098
19620
20076
20505
20896
21200
21421
21606
21757
21841
21879
21925
21970
21972
21953
21955
21964
21946
21916
21913
21918
21905
21902
21934
21971
21983
21999
22044
22080
22088
22098
22119
22108
22048
21979
21912
21804
21651
21503
21368
21211
21034
20888
20778
20662
20538
20449
20397
20346
20299
20290
20308
20307
20294
20310
20337
20338
20340
20385
20440
20456
20453
20465
20462
20410
20345
20296
20236
20138
20034
19945
19828
19664
19500
19358
19204
19023
18852
18697
18511
18288
18072
17864
17624
17360
17136
16957
16779
16608
16492
16419
16337
16256
16214
16180
16108
16018
15949
15884
15792
15697
15630
15572
15495
15412
15349
15283
15196
15128
15095
15057
14995
14946
14922
14876
14797
14729
14684
14610
14499
14400
14326
14240
14140
14062
14002
13925
13835
13769
13720
13646
13563
13522
13509
13476
13434
13418
13396
13327
13235
13154
13062
12932
12799
12705
12610
12477
12339
12227
12112
11976
11858
11783
11711
11625
11561
11533
11504
11475
11506
11620
11776
11970
12249
12618
13026
13465
13968
14521
15071
15617
16195
16785
17335
17844
18342
18798
19166
19470
19758
20014
20199
20348
20501
20615
20658
20667
20684
20689
20657
20630
20640
20650
20636
20631
20649
20647
20609
20582
20573
20543
20494
20469
20468
20442
20386
20340
20297
20209
20078
19958
19845
19691
19505
19329
19150
18935
18716
18543
18400
18255
18131
18063
18035
18013
18015
18060
18105
18119
18123
18131
18113
18052
17994
17968
17943
17898
17865
17852
17817
17741
17669
17607
17505
17358
17205
17045
16840
16609
16407
16227
16023
15805
15615
15442
15242
15037
14870
14722
14548
14365
14218
14093
13953
13823
13741
13673
13574
13474
13399
13315
13195
13065
12942
12785
12579
12381
12217
12051
11880
11748
11660
11570
11468
11402
11373
11322
11247
11197
11161
11084
10979
10896
10825
10722
10605
10518
10439
10319
10176
10049
9920
9758
9595
9462
9338
9191
9047
8939
8829
8689
8558
8463
8368
8256
8161
8094
8004
7870
7741
7631
7488
7303
7128
6976
6803
6596
6397
6217
6018
5812
5664
5578
5514
5495
5583
5769
6015
6346
6804
7355
7936
8548
9219
9910
10567
11203
11838
12427
12928
13368
13779
14131
14399
14633
14865
15050
15172
15285
15410
15504
15553
15611
15693
15755
15788
15845
15930
15997
16043
16112
16199
16257
16299
16365
16439
16465
16459
16468
16473
16427
16361
16320
16281
16200
16107
16041
15959
15827
15685
15570
15454
15314
15192
15123
15061
14976
14915
14902
14902
14899
14931
15006
15069
15104
15149
15203
15220
15193
15165
15130
15039
14903
14776
14652
14485
14294
14129
13965
13759
13536
13350
13189
13011
12838
12708
12591
12451
12330
12265
12219
12158
12113
12107
12096
12053
12018
12010
11992
11945
11912
11904
11873
11807
11756
11726
11671
11586
11518
11470
11393
11291
11219
11175
11107
11019
10965
10935
10882
10818
10788
10765
10700
10609
10534
10453
10334
10203
10090
9965
9797
9609
9427
9223
8975
8725
8503
8279
8046
7845
7686
7519
7336
7191
7096
7007
6921
6896
6943
7010
7092
7241
7459
7695
7960
8306
8716
9136
9580
10088
10629
11141
11632
12145
12648
13092
13504
13922
14312
14630
14907
15177
15401
15545
15651
15752
15812
15817
15817
15834
15825
15783
15761
15770
15761
15725
15713
15731
15721
15677
15656
15655
15623
15564
15515
15459
15346
15194
15058
14930
14763
14575
14407
14237
14027
13806
13612
13419
13196
12984
12825
12689
12549
12444
12402
12383
12356
12359
12406
12441
12440
12449
12485
12503
12483
12468
12461
12406
12291
12171
12044
11852
11596
11335
11079
10790
10487
10217
