21574
21542
21558
21621
21627
21603
21619
21599
21599
21659
21658
21639
21631
21639
21675
21671
21679
21734
21741
21754
21764
21758
21783
21786
21782
21811
21821
21860
21862
21815
21829
21859
21881
21918
21912
21907
21909
21939
21988
21964
21958
22010
22002
22012
22040
22039
22052
22041
22019
22035
22032
22038
22043
22074
22142
22143
22126
22142
22133
22178
22205
22158
22166
22209
22215
22207
22200
22238
22245
22234
22273
22283
22283
22298
22274
22310
22347
22319
22325
22350
22356
22354
22332
22366
22393
22375
22357
22303
22265
22281
22254
22235
22228
22209
22181
22117
22086
22062
21967
21979
22053
22008
21913
21874
21906
21915
21832
21807
21813
21775
21747
21713
21691
21697
21666
21641
21614
21598
21619
21591
21560
21565
21529
21535
21562
21549
21534
21502
21503
21561
21568
21548
21523
21538
21603
21594
21563
21607
21640
21657
21638
21618
21651
21665
21672
21687
21641
21628
21641
21641
21665
21682
21708
21739
21710
21717
21736
21726
21749
21770
21788
21819
21809
21826
21842
21845
21879
21885
21895
21939
21936
21941
21935
21924
21976
22008
21992
21975
21958
22007
22019
21962
21963
21992
22005
22020
22012
22032
22023
21999
22033
22058
22073
22099
22075
22096
22145
22162
22159
22115
22113
22170
22175
22193
22211
22207
22244
22259
22248
22261
22261
22281
22282
22274
22304
22317
22349
22386
22335
22329
22375
22379
22361
22341
22363
22388
22328
22304
22295
22237
22206
22192
22187
22199
22167
22137
22102
22084
22104
22079
22056
22053
21978
21943
21959
21949
21920
21863
21841
21860
21830
21825
21806
21755
21768
21771
21722
21705
21726
21755
21704
21643
21666
21669
21655
21671
21655
21665
21669
21642
21653
21658
21657
21678
21684
21725
21722
21666
21679
21698
21684
21704
21724
21733
21719
21735
21755
21705
21727
21821
21792
21761
21789
21789
21785
21804
21853
21874
21814
21817
21856
21852
21857
21854
21853
21872
21859
21867
21856
21841
21881
21881
21839
21834
21835
21870
21876
21860
21891
21889
21866
21884
21891
21919
21921
21903
21935
21972
22008
22029
21992
22031
22076
22039
22046
22108
22156
22159
22115
22129
22162
22177
22197
22185
22208
22268
22241
22231
22264
22282
22280
22239
22245
22320
22326
22300
22278
22284
22326
22315
22292
22287
22228
22211
22215
22185
22178
22159
22129
22122
22090
22081
22077
22071
22072
22012
21972
21988
21944
21914
21901
21867
21856
21839
21840
21858
21805
21766
21760
21766
21770
21717
21692
21727
21695
21648
21614
21602
21639
21620
21551
21530
21532
21566
21581
21577
21582
21552
21562
21617
21601
21605
21615
21574
21569
21603
21646
21667
21638
21652
21654
21620
21649
21677
21673
21689
21703
21734
21727
21721
21783
21794
21759
21781
21819
21860
21850
21831
21867
21863
21835
21845
21841
21874
21898
21884
21888
21892
21924
21970
21943
21948
21968
21945
21943
21943
21958
22004
22003
21995
21984
21992
22025
22000
21988
22038
22049
22081
22104
22087
22106
22109
22080
22078
22095
22163
22184
22155
22176
22190
22191
22216
22199
22190
22187
22200
22237
22215
22203
22258
22267
22269
22269
22264
22284
22265
22241
22250
22228
22229
22200
22121
22094
22078
22039
22011
21993
22040
22036
21936
21868
21845
21854
21859
21799
21784
21777
21729
21704
21675
21649
21640
21600
21596
21599
21587
21598
21570
21535
21545
21530
21526
21501
21466
21492
21487
21439
21434
21437
21449
21439
21431
21437
21388
21377
21435
21428
21431
21464
21480
21500
21485
21467
21478
21460
21473
21479
21462
21480
21486
21503
21564
21581
21585
21589
21607
21634
21604
21614
21687
21681
21669
21679
21684
21712
21711
21707
21741
21755
21782
21777
21745
21757
21759
21766
21798
21781
21782
21802
21825
21858
21840
21840
21913
21939
21925
21874
21844
21898
21917
21890
21903
21928
21978
21980
21959
22011
22042
22021
22016
22029
22094
22101
22037
22047
22109
22168
22192
22148
22161
22217
22255
22267
22215
22189
22243
22264
22274
22257
22229
22270
22304
22299
22267
22187
22166
22166
22125
22086
22035
22016
22031
21982
21946
21925
21902
21916
21897
21863
21862
21827
21802
21783
21777
21791
21748
21719
21747
21719
21689
21667
21643
21644
21619
21602
21629
21617
21603
21576
21542
21555
21567
21578
21569
21498
21516
21583
21579
21557
21548
21567
21589
21563
21588
21628
21635
21654
21638
21611
21631
21653
21707
21731
21714
21720
21692
21662
21692
21711
21735
21731
21719
21752
21754
21746
21766
21754
21782
21822
21831
21843
21818
21807
21857
21872
21878
21882
21908
21965
21961
21955
21998
21995
22001
21996
21976
22019
22053
22038
22021
22009
22066
22109
22106
22124
22113
22106
22160
22185
22188
22173
22186
22243
22243
22234
22255
22220
22233
22287
22310
22319
22291
22277
22314
22320
22328
22323
22316
22340
22338
22351
22379
22344
22358
22369
22319
22327
22343
22285
22230
22229
22270
22233
22163
22155
22122
22078
22055
22001
22023
22049
21989
21956
21950
21927
21898
21854
21850
21835
21806
21806
21770
21748
21771
21741
21725
21718
21675
21637
21603
21618
21653
21614
21613
21629
21585
21550
21540
21558
21580
21541
21526
21527
21518
21525
21530
21568
21573
21472
21464
21536
21532
21505
21502
21524
21539
21526
21569
21576
21522
21534
21560
21556
21586
21629
21665
21634
21614
21673
21680
21655
21683
21687
21692
21708
21738
21769
21730
21706
21736
21721
21738
21768
21762
21787
21807
21803
21806
21780
21775
21787
21825
21871
21834
21817
21876
21872
21871
21909
21949
21972
21945
21954
22013
22021
22065
22100
22069
22078
22111
22129
22151
22138
22122
22090
22103
22184
22199
22181
22190
22155
22161
22196
22212
22236
22221
22202
22225
22228
22247
22230
22180
22196
22208
22195
22202
22174
22141
22115
22117
22128
22070
22057
22110
22060
21993
21972
21955
21943
21902
21868
21850
21796
21805
21811
21756
21745
21739
21694
21684
21696
21696
21631
21588
21610
21576
21544
21568
21550
21562
21587
21567
21561
21543
21528
21558
21569
21576
21569
21568
21572
21530
21540
21591
21553
21562
21620
21617
21611
21607
21598
21601
21598
21628
21634
21634
21682
21687
21671
21683
21667
21683
21702
21706
21745
21749
21739
21791
21831
21837
21788
21766
21836
21863
21845
21856
21850
21868
21871
21865
21923
21960
21953
21951
21932
21965
22008
22033
22059
22037
22031
22073
22074
22107
22149
22154
22172
22164
22159
22207
22219
22203
22182
22212
22278
22260
22253
22317
22323
22326
22333
22339
22401
22414
22365
22384
22432
22432
22373
22374
22423
22381
22362
22387
22306
22262
22273
22229
22207
22204
22166
22136
22116
22110
22075
22059
22066
22011
21995
22019
21935
21888
21904
21868
21813
21778
21775
21768
21715
21724
21749
21727
21724
21714
21703
21705
21678
21684
21670
21636
21671
21686
21641
21614
21609
21645
21646
21614
21613
21595
21600
21639
21614
21611
21629
21623
21637
21641
21657
21705
21708
21707
21698
21693
21731
21749
21774
21812
21787
21810
21857
21840
21812
21818
21893
21951
21889
21876
21927
21936
21915
21884
21899
21943
21922
21927
21948
21950
21967
21960
21956
21968
21945
21971
21986
21959
21997
22029
21998
21993
22028
22085
22084
22076
22117
22113
22113
22143
22108
22116
22150
22148
22180
22215
22226
22235
22223
22245
22250
22239
22262
22251
22250
22292
22277
22265
22274
22292
22309
22264
22238
22275
22248
22211
22194
22189
22197
22171
22169
22178
22087
22025
22032
22041
22037
21977
21925
21931
21922
21930
21906
21842
21822
21809
21804
21822
21788
21761
21729
21695
21699
21672
21640
21630
21588
21595
21604
21569
21579
21599
21592
21567
21530
21570
21597
21556
21543
21544
21558
21593
21584
21591
21606
21617
21631
21592
21590
21654
21645
21618
21614
21628
21660
21640
21622
21648
21638
21651
21673
21671
21678
21657
21651
21687
21678
21678
21686
21689
21715
21723
21748
21774
21719
21717
21769
21782
21780
21778
21810
21841
21813
21852
21895
21855
21837
21868
21914
21931
21892
21919
21968
21965
21955
21930
21942
21986
21954
21937
21964
21998
22014
21980
22001
22082
22074
22063
22080
22081
22080
22058
22075
22134
22131
22142
22163
22162
22171
22164
22178
22195
22134
22115
22126
22094
22059
22018
21999
21991
21925
21896
21874
21832
21845
21847
21809
21787
21760
21751
21722
21700
21728
21705
21670
21677
21656
21654
21626
21568
21594
21631
21607
21570
21538
21551
21555
21552
21572
21549
21543
21570
21524
21515
21563
21597
21614
21573
21525
21538
21549
21573
21581
21585
21616
21591
21570
21629
21656
21648
21622
21627
21678
21668
21644
21680
21691
21712
21735
21743
21755
21738
21752
21789
21762
21786
21823
21785
21765
21794
21850
21886
21857
21860
21856
21832
21860
21864
21836
21846
21861
21897
21904
21903
21934
21923
21933
21998
21998
21989
21979
21965
22001
22021
22035
22087
22095
22073
22035
22044
22115
22123
22101
22108
22083
22113
22159
22155
22154
22146
22152
22180
22171
22196
22222
22219
22225
22199
22173
22162
22120
22155
22197
22154
22115
22087
22063
22043
21984
21962
21958
21953
21959
21913
21884
21899
21856
21842
21851
21835
21831
21803
21765
21748
21719
21747
21767
21729
21707
21698
21712
21714
21649
21655
21707
21691
21645
21611
21650
21712
21673
21640
21653
21672
21687
21645
21626
21679
21697
21705
21712
21717
21721
21695
21718
21762
21710
21717
21801
21829
21804
21777
21813
21868
21854
21881
21900
21846
21830
21854
21881
21899
21876
21888
21906
21915
21943
21928
21937
21999
21983
21943
21931
21952
21987
21947
21917
21972
22000
22015
21999
21967
21990
21997
22003
22051
22060
22060
22062
22079
22094
22036
22025
22105
22106
22080
22080
22099
22130
22100
22076
22121
22129
22119
22113
22136
22179
22144
22107
22122
22101
22114
22133
22115
22121
22114
22071
22012
21946
21968
21971
21902
21893
21904
21870
21845
21824
21813
21775
21754
21763
21711
21689
21719
21668
21636
21636
21600
21585
21583
21572
21541
21489
21515
21535
21483
21452
21441
21445
21450
21419
21440
21450
21414
21433
21452
21428
21408
21388
21397
21376
21353
21391
21407
21411
21427
21400
21426
21460
21442
21452
21465
21469
21497
21498
21492
21472
21481
21540
21549
21558
21592
21560
21563
21588
21591
21643
21681
21657
21635
21635
21671
21660
21633
21666
21664
21644
21669
21674
21693
21693
21672
21693
21709
21732
21763
21740
21755
21774
21761
21801
21841
21838
21828
21817
21870
21910
21902
21905
21905
21946
21998
21965
21974
22004
21982
21990
22015
22031
22052
22057
22094
22103
22088
22120
22128
22126
22155
22141
22137
22137
22136
22157
22146
22148
22163
22098
22075
22101
22103
22105
22080
22059
22068
22035
22007
21967
21919
21906
21875
21867
21886
21838
21819
21821
21792
21771
21738
21712
21695
21642
21646
21655
21629
21652
21665
21634
21612
21605
21637
21614
21567
21614
21647
21617
21608
21614
21639
21634
21636
21673
21658
21647
21674
21660
21701
21748
21718
21711
21731
21740
21744
21737
21773
21787
21772
21793
21791
21796
21844
21843
21842
21846
21853
21883
21876
21883
21913
21881
21886
21901
21869
21875
21899
21914
21935
21924
21935
21939
21932
21938
21901
21897
21953
21942
21937
21956
21949
21932
21909
21949
22012
21981
21986
22028
22027
22036
22047
22062
22089
22079
22097
22114
22116
22128
22112
22140
22228
22235
22216
22203
22190
22198
22201
22244
22276
22215
22231
22290
22273
22281
22312
22304
22294
22290
22301
22279
22265
22258
22188
22180
22224
22152
22105
22113
22064
22018
22018
22035
22008
21919
21911
21933
21899
21870
21860
21881
21896
21826
21796
21805
21778
21738
21694
21699
21716
21655
21652
21684
21660
21638
21622
21613
21617
21610
21653
21658
21612
21638
21679
21675
21665
21659
21711
21737
21714
21718
21715
21728
21759
21729
21732
21752
21731
21716
21698
21711
21741
21694
21663
21669
21687
21718
21719
21750
21802
21766
21743
21744
21733
21762
21776
21776
21804
21798
21785
21781
21825
21885
21848
21824
21881
21887
21898
21927
21941
21970
21981
21994
22021
22000
22013
22030
22021
22049
22075
22109
22159
22159
22174
22169
22147
22195
22228
22217
22241
22267
22288
22278
22298
22366
22362
22352
22408
22422
22441
22470
22472
22467
22453
22494
22557
22528
22537
22576
22551
22524
22513
22516
22508
22443
22427
22441
22425
22396
22357
22371
22380
22291
22283
22312
22238
22181
22202
22237
22237
22185
22161
22126
22085
22078
22034
22004
22029
22008
21998
21987
21952
21937
21908
21893
21906
21881
21913
21962
21956
21941
21924
21941
21977
21946
21945
21962
21951
21948
21934
21955
22013
22008
22008
22002
21992
22049
22081
22059
22059
22052
22057
22056
22086
22144
22127
22124
22185
22175
22163
22181
22194
22200
22173
22178
22212
22177
22180
22220
22238
22264
22265
22265
22293
22288
22306
22322
22324
22346
22324
22307
22335
22332
22359
22378
22363
22383
22390
22382
22397
22393
22420
22427
22415
22443
22436
22408
22428
22448
22494
22500
22468
22492
22517
22529
22543
22516
22529
22544
22546
22608
22647
22630
22625
22622
22654
22659
22648
22688
22713
22731
22742
22680
22665
22680
22656
22651
22641
22631
22636
22603
22594
22590
22568
22549
22510
22525
22558
22479
22440
22472
22491
22508
22478
22413
22378
22355
22364
22333
22272
22260
22243
22236
22240
22172
22135
22127
22103
22104
22082
22058
22066
22047
22056
22070
22081
22124
22117
22098
22131
22148
22181
22189
22169
22188
22202
22236
22293
22276
22264
22269
22275
22303
22303
22318
22354
22315
22296
22310
22315
22321
22296
22312
22382
22389
22386
22371
22348
22381
22400
22397
22414
22393
22384
22392
22425
22475
22468
22481
22516
22463
22456
22505
22510
22504
22506
22542
22577
22549
22571
22595
22573
22595
22614
22590
22578
22584
22641
22660
22646
22678
22680
22674
22716
22732
22751
22752
22746
22776
22774
22785
22839
22848
22867
22859
22831
22897
22958
22939
22925
22938
22969
22939
22912
22956
22966
22975
23018
22987
22956
22939
22926
22954
22931
22869
22849
22823
22798
22749
22712
22715
22664
22624
22646
22612
22577
22557
22541
22553
22534
22513
22501
22438
22435
22462
22448
22444
22429
22409
22398
22349
22341
22348
22347
22369
22342
22309
22332
22342
22369
22367
22346
22395
22419
22389
22384
22395
22441
22455
22443
22457
22427
22416
22477
22487
22473
22462
22480
22528
22506
22480
22525
22541
22548
22533
22511
22541
22559
22578
22616
22599
22603
22628
22643
22655
22628
22636
22690
22675
22677
22688
22668
22679
22704
22738
22764
22737
22765
22794
22764
22758
22751
22742
22767
22779
22805
22792
22756
22777
22795
22816
22837
22797
22822
22884
22889
22873
22845
22855
22898
22880
22876
22883
22886
22921
22917
22905
22936
22942
22966
22975
22959
22970
22964
22986
23037
23017
23011
23018
23005
23012
22996
22978
22985
22952
22939
22915
22877
22891
22871
22816
22802
22797
22813
22771
22700
22713
22737
22730
22702
22634
22642
22689
22694
22670
22606
22584
22617
22585
22560
22553
22531
22520
22480
22457
22462
22399
22360
22370
22388
22398
22371
22385
22418
22359
22347
22377
22359
22351
22368
22401
22419
22391
22422
22438
22395
22407
22423
22399
22393
22407
22456
22463
22445
22462
22438
22429
22484
22502
22524
22515
22469
22486
22516
22527
22540
22539
22584
22592
22554
22593
22639
22637
22630
22611
22625
22622
22629
22699
22727
22718
22722
22690
22697
22715
22724
22780
22816
22813
22801
22765
22803
22855
22860
22875
22871
22870
22892
22873
22880
22884
22866
22890
22903
22927
22978
22964
22946
22943
22957
22992
22979
22985
23042
23039
23041
23043
23025
23043
23057
23078
23112
23094
23102
23112
23102
23122
23120
23117
23139
23115
23104
23080
23045
23068
23070
23038
23016
22976
22979
22974
22947
22959
22933
22889
22892
22881
22874
22835
22787
22792
22759
22706
22702
22678
22669
22654
22629
22620
22581
22576
22604
22543
22502
22512
22519
22524
22472
22420
22437
22452
22480
22480
22457
22469
22467
22477
22496
22455
22478
22522
22504
22501
22508
22515
22539
22518
22492
22460
22461
22501
22473
22454
22507
22509
22500
22495
22502
22551
22547
22514
22535
22541
22542
22533
22556
22620
22612
22592
22629
22628
22646
22686
22703
22701
22675
22706
22755
22709
22727
22802
22799
22766
22763
22821
22879
22845
22831
22848
22855
22873
22872
22902
22959
22944
22955
22986
22979
22974
22981
23029
23053
22979
22986
23044
23038
23051
23086
23100
23100
23093
23145
23180
23181
23214
23218
23226
23265
23255
23271
23295
23289
23303
23310
23332
23352
23291
23275
23295
23277
23248
23213
23208
23199
23115
23099
23119
23077
23049
23041
23046
23051
22999
22970
22948
22926
22934
22899
22866
22875
22845
22837
22825
22784
22779
22756
22719
22702
22648
22616
22605
22605
22624
22592
22579
22618
22587
22563
22573
22574
22559
22516
22533
22584
22549
22554
22592
22575
22569
22579
22598
22614
22579
22577
22596
22625
22679
22684
22686
22717
22706
22738
22768
22738
22733
22747
22773
22792
22757
22765
22781
22771
22787
22784
22772
22776
22751
22779
22801
22770
22777
22794
22813
22850
22840
22840
22859
22887
22899
22846
22867
22971
22974
22961
22980
22974
22959
22941
22983
23058
23031
22992
23005
23053
23089
23047
23038
23091
23085
23102
23116
23080
23092
23131
23158
23178
23175
23210
23212
23191
23247
23296
23305
23322
23318
23353
23388
23402
23418
23396
23409
23462
23444
23457
23476
23428
23401
23385
23361
23346
23302
23277
23243
23214
23221
23185
23153
23148
23094
23098
23116
23057
23007
22995
23015
23014
22947
22951
22965
22910
22881
22872
22869
22887
22872
22861
22824
22781
22777
22755
22773
22826
22779
22732
22730
22725
22717
22685
22703
22758
22732
22720
22733
22717
22708
22702
22733
22769
22721
22716
22746
22744
22754
22764
22783
22791
22740
22760
22813
22809
22795
22780
22806
22844
22805
22795
22812
22800
22791
22767
22778
22818
22783
22761
22773
22795
22831
22805
22777
22817
22829
22827
22802
22788
22822
22807
22792
22860
22894
22885
22861
22880
22932
22912
22913
22982
22985
22985
22995
22999
23047
23067
23052
23084
23124
23163
23146
23124
23165
23176
23185
23232
23225
23230
23246
23242
23249
23252
23308
23377
23340
23331
23357
23354
23383
23409
23426
23466
23484
23509
23488
23448
23460
23439
23418
23457
23441
23388
23335
23324
23341
23289
23259
23286
23247
23229
23210
23122
23067
23048
23043
23054
23030
23010
22968
22925
22919
22871
22841
22864
22828
22798
22788
22769
22753
22708
22698
22726
22693
22692
22700
22672
22689
22714
22708
22684
22647
22685
22719
22698
22696
22680
22681
22733
22742
22736
22712
22702
22736
22722
22701
22717
22702
22738
22775
22745
22729
22734
22757
22754
22684
22693
22733
22727
22756
22775
22751
22748
22762
22795
22763
22721
22767
22799
22806
22825
22808
22838
22871
22855
22847
22834
22855
22912
22903
22905
22939
22966
22969
22916
22927
23016
23019
22991
22976
22972
23000
23002
23008
23029
23010
23048
23072
23024
23020
23029
23010
23020
23041
23069
23066
23085
23142
23124
23124
23196
23190
23166
23156
23140
23155
23152
23150
23162
23119
23103
23104
23092
23095
23062
23029
23030
22993
22983
22963
22913
22910
22894
22856
22840
22808
22802
22775
22726
22700
22635
22589
22613
22587
22539
22493
22476
22499
22465
22425
22428
22385
22363
22362
22358
22376
22340
22286
22294
22304
22321
22299
22266
22292
22291
22273
22279
22247
22244
22246
22235
22258
22258
22262
22304
22296
22278
22246
22224
22260
22269
22267
22303
22305
22325
22347
22360
22390
22378
22370
22390
22360
22373
22413
22420
22433
22433
22450
22489
22474
22476
22477
22465
22500
22517
22520
22547
22548
22580
22607
22606
22611
22593
22606
22647
22625
22657
22713
22711
22718
22736
22755
22771
22755
22797
22824
22788
22782
22803
22847
22877
22839
22856
22887
22863
22867
22891
22915
22913
22868
22905
22942
22908
22922
22976
23014
23013
22973
23005
23039
23021
23026
23032
23050
23081
23054
23055
23060
23049
23080
23080
23052
23047
23010
22979
22953
22928
22893
22824
22839
22890
22819
22804
22849
22800
22734
22723
22751
22770
22712
22653
22618
22631
22663
22600
22534
22536
22501
22492
22483
22431
22411
22398
22388
22401
22374
22349
22322
22317
22351
22338
22329
22354
22323
22332
22364
22347
22328
22314
22331
22354
22323
22346
22357
22305
22319
22364
22362
22332
22313
22362
22356
22295
22327
22366
22353
22357
22371
22395
22373
22359
22409
22414
22402
22428
22424
22454
22464
22425
22449
22486
22477
22471
22469
22499
22498
22493
22539
22539
22524
22540
22512
22509
22516
22517
22569
22594
22582
22586
22583
22617
22625
22615
22674
22702
22682
22707
22729
22731
22693
22694
22770
22795
22803
22838
22808
22817
22877
22907
22904
22872
22912
23015
23014
22973
22960
22993
23049
23028
23003
23049
23058
23049
23023
23011
23056
23055
23015
22996
22944
22915
22896
22885
22899
22856
22806
22813
22787
22764
22747
22731
22725
22671
22638
22650
22612
22609
22593
22512
22487
22518
22531
22479
22372
22356
22368
22332
22310
22283
22269
22278
22235
22217
22224
22231
22228
22158
22126
22192
22205
22189
22187
22214
22249
22212
22193
22232
22221
22235
22258
22245
22259
22272
22271
22264
22225
22249
22287
22292
22317
22308
22292
22326
22336
22337
22324
22338
22391
22367
22326
22351
22353
22360
22352
22331
22353
22357
22359
22388
22361
22339
22341
22366
22401
22373
22364
22404
22386
22389
22391
22358
22378
22397
22378
22387
22416
22458
22434
22409
22477
22518
22525
22554
22549
22563
22572
22575
22616
22620
22615
22652
22651
22653
22649
22653
22705
22725
22736
22769
22752
22764
22787
22791
22821
22835
22856
22892
22867
22861
22855
22832
22857
22874
22873
22870
22818
22803
22805
22793
22790
22739
22696
22707
22673
22637
22611
22594
22589
22529
22486
22503
22481
22485
22474
22407
22377
22361
22328
22291
22227
22214
22212
22194
22197
22158
22113
22100
22064
22082
22087
22028
22016
22035
22044
22036
22002
22035
22064
22046
22060
22061
22045
22053
22046
22072
22071
22045
22076
22097
22094
22094
22059
22071
22085
22069
22094
22106
22101
22115
22120
22175
22210
22194
22202
22203
22213
22247
22240
22254
22252
22229
22269
22295
22270
22241
22219
22271
22289
22241
22257
22287
22286
22302
22313
22341
22334
22325
22364
22350
22326
22356
22357
22371
22367
22340
22365
22388
22409
22443
22433
22444
22449
22455
22535
22573
22534
22525
22547
22597
22595
22579
22619
22612
22587
22620
22622
22615
22607
22631
22691
22667
22615
22627
22630
22654
22666
22652
22660
22654
22665
22696
22662
22658
22670
22650
22641
22604
22560
22549
22527
22535
22503
22438
22449
22453
22413
22407
22401
22384
22324
22302
22360
22325
22224
22203
22185
22144
22115
22156
22206
22137
22076
22079
22013
21999
22046
22046
22037
22037
22047
22044
21994
22004
22031
22016
22005
21987
22005
22064
22061
22064
22072
22066
22071
22032
22009
22061
22082
22082
22053
22031
22067
22073
22061
22077
22069
22102
22127
22102
22105
22106
22122
22170
22158
22125
22095
22113
22185
22179
22142
22169
22179
22192
22200
22212
22244
22217
22191
22232
22241
22248
22239
22222
22245
22241
22236
22279
22290
22307
22314
22300
22290
22248
22255
22327
22330
22331
22355
22363
22350
22307
22316
22349
22302
22316
22377
22386
22409
22424
22412
22422
22429
22437
22419
22425
22464
22449
22458
22488
22425
22436
22511
22502
22469
22461
22487
22530
22528
22531
22514
22500
22535
22524
22506
22538
22510
22458
22429
22447
22479
22418
22365
22399
22386
22364
22370
22381
22373
22302
22277
22315
22278
22242
22220
22174
22140
22106
22102
22116
22074
22074
22077
22034
22028
22028
22020
22039
22037
22040
22013
21981
21990
21979
22005
22068
22042
22025
22051
22073
22103
22107
22128
22168
22143
22142
22149
22141
22181
22191
22153
22153
22153
22141
22100
22087
22101
22048
22042
22116
22107
22100
22128
22135
22142
22117
22096
22127
22141
22155
22145
22143
22183
22176
22169
22214
22220
22237
22253
22261
22303
22298
22268
22286
22295
22305
22280
22265
22325
22350
22334
22346
22336
22335
22315
22285
22291
22281
22292
22321
22289
22316
22358
22331
22329
22354
22378
22411
22421
22452
22451
22429
22456
22472
22509
22584
22583
22566
22561
22571
22603
22593
22608
22665
22649
22638
22642
22637
22666
22675
22669
22681
22665
22678
22677
22635
22607
22568
22564
22590
22533
22480
22458
22437
22431
22401
22398
22426
22389
22375
22374
22336
22313
22293
22293
22293
22223
22195
22190
22150
22122
22077
22056
22091
22070
22017
21986
22015
22045
21955
21885
21915
21876
21808
21788
21824
21885
21870
21836
21851
21828
21821
21841
21876
21925
21928
21948
22002
21975
21953
21973
22013
22065
22053
22032
22063
22060
22057
22058
22071
22108
22105
22117
22156
22133
22151
22185
22163
22148
22138
22141
22167
22172
22213
22221
22186
22213
22242
22251
22284
22299
22326
22330
22345
22415
22419
22383
22401
22425
22472
22481
22452
22473
22491
22506
22539
22519
22516
22528
22539
22557
22524
22507
22543
22528
22534
22560
22562
22560
22529
22527
22563
22554
22587
22613
22574
22554
22557
22581
22615
22603
22625
22633
22618
22667
22686
22640
22631
22652
22684
22659
22636
22680
22678
22656
22667
22636
22638
22648
22610
22566
22505
22474
22487
22464
22478
22497
22470
22443
22396
22384
22432
22423
22391
22367
22368
22374
22316
22292
22320
22261
22217
22226
22219
22204
22177
22185
22207
22154
22141
22159
22145
22138
22132
22151
22171
22124
22134
22182
22176
22136
22076
22075
22125
22114
22128
22153
22142
22146
22139
22145
22181
22187
22222
22233
22198
22196
22196
22204
22232
22217
22224
22212
22167
22177
22207
22240
22257
22205
22203
22233
22226
22217
22202
22230
22282
22249
22236
22269
22297
22309
22265
22261
22342
22355
22316
22279
22288
22320
22299
22321
22393
22365
22343
22366
22375
22390
22389
22402
22440
22432
22442
22449
22451
22495
22500
22495
22547
22581
22602
22573
22540
22588
22623
22639
22683
22680
22673
22688
22737
22783
22740
22718
22759
22734
22736
22785
22813
22835
22827
22816
22815
22780
22803
22823
22784
22772
22754
22717
22704
22678
22667
22632
22603
22626
22588
22525
22535
22532
22505
22448
22420
22460
22446
22408
22419
22391
22357
22329
22317
22332
22300
22272
22267
22198
22173
22180
22147
22128
22104
22077
22059
22019
22030
22031
21995
21998
21998
22002
22034
22026
22033
22039
22041
22064
22049
22044
22073
22061
22101
22140
22119
22135
22148
22123
22137
22175
22214
22198
22190
22235
22242
22272
22326
22277
22255
22281
22267
22257
22269
22315
22357
22329
22342
22366
22348
22361
22364
22356
22372
22355
22345
22338
22351
22373
22329
22324
22393
22398
22413
22437
22420
22424
22426
22424
22427
22397
22411
22423
22419
22463
22456
22400
22411
22436
22428
22374
22383
22467
22456
22415
22440
22431
22431
22434
22423
22449
22458
22458
22473
22448
22453
22457
22442
22460
22455
22454
22502
22521
22547
22557
22564
22609
22615
22612
22641
22626
22627
22617
22594
22624
22631
22593
22565
22532
22541
22519
22450
22426
22417
22427
22426
22334
22280
22279
22270
22258
22192
22127
22119
22091
22085
22079
22069
22092
22079
22062
22091
22087
22097
22117
22129
22138
22106
22095
22093
22007
21992
22055
22075
22061
22029
22019
22011
21953
21957
21972
21936
21940
21958
21953
21923
21861
21860
21859
21828
21846
21855
21840
21836
21816
21838
21842
21806
21807
21821
21867
21924
21912
21938
21954
21906
21907
21930
21930
21936
21923
21922
21911
21934
22005
22013
22021
22080
22080
22092
22128
22146
22162
22138
22122
22147
22162
22234
22265
22207
22199
22229
22244
22270
22308
22380
22382
22327
22335
22353
22366
22378
22349
22379
22415
22403
22424
22446
22444
22429
22401
22460
22508
22483
22503
22532
22536
22558
22569
22589
22591
22609
22654
22639
22648
22705
22702
22747
22798
22760
22739
22779
22836
22843
22769
22736
22710
22662
22671
22685
22678
22669
22624
22623
22629
22602
22569
22510
22498
22518
22454
22421
22424
22396
22389
22401
22426
22430
22368
22371
22400
22384
22384
22382
22368
22345
22305
22354
22388
22343
22345
22365
22341
22308
22290
22339
22366
22349
22345
22303
22278
22316
22321
22341
22365
22367
22374
22356
22369
22415
22409
22457
22508
22478
22459
22466
22489
22519
22504
22515
22527
22523
22520
22481
22489
22555
22544
22542
22572
22589
22601
22582
22586
22621
22604
22630
22678
22681
22682
22677
22700
22741
22729
22755
22777
22737
22714
22712
22734
22747
22711
22757
22814
22789
22774
22776
22790
22830
22831
22829
22826
22850
22893
22868
22874
22935
22913
22904
22924
22928
22976
23015
23014
23009
22997
23038
23066
23058
23058
23024
23016
23052
23040
23063
23091
23081
23110
23131
23122
23116
23101
23136
23147
23107
23093
23072
23059
23041
22955
22918
22900
22848
22846
22858
22848
22827
22781
22784
22776
22744
22760
22739
22681
22667
22641
22606
22546
22505
22510
22474
22446
22440
22364
22346
22366
22321
22279
22269
22283
22280
22212
22203
22218
22198
22195
22185
22188
22209
22183
22196
22234
22247
22245
22209
22219
22274
22251
22242
22262
22266
22279
22266
22267
22313
22320
22331
22342
22349
22367
22348
22370
22447
22444
22431
22436
22434
22441
22410
22388
22413
22414
22448
22481
22478
22492
22501
22524
22530
22484
22550
22630
22578
22537
22570
22612
22621
22584
22589
22607
22623
22633
22589
22605
22693
22670
22623
22638
22690
22730
22689
22664
22710
22723
22750
22775
22767
22768
22756
22773
22814
22794
22816
22859
22876
22922
22938
22929
22976
23034
23092
23103
23111
23158
23148
23147
23204
23201
23198
23219
23242
23268
23250
23253
23287
23238
23190
23159
23116
23092
23062
23067
23098
23052
23015
23001
22989
23003
22970
22924
22931
22918
22909
22882
22863
22897
22884
22848
22846
22814
22806
22794
22762
22766
22742
22706
22703
22681
22688
22675
22630
22630
22639
22661
22686
22646
22641
22637
22596
22604
22631
22646
22653
22634
22675
22688
22632
22622
22628
22624
22634
22623
22642
22655
22666
22706
22699
22693
22721
22696
22697
22703
22684
22715
22738
22721
22698
22667
22700
22722
22724
22792
22825
22783
22768
22805
22894
22898
22837
22870
22913
22901
22893
22878
22889
22898
22931
22996
22983
22962
22992
22979
22996
23010
22972
22968
22982
23006
23050
23061
23082
23068
23034
23057
23070
23077
23107
23102
23130
23153
23137
23134
23121
23127
23144
23112
23145
23184
23154
23155
23177
23181
23158
23107
23126
23133
23089
23096
23096
23066
23064
23062
23075
23052
23017
23018
22969
22931
22963
22936
22879
22833
22820
22829
22784
22763
22779
22719
22686
22678
22637
22636
22626
22585
22577
22580
22590
22558
22532
22550
22516
22492
22516
22498
22530
22561
22511
22487
22494
22493
22499
22488
22500
22485
22468
22505
22508
22506
22538
22523
22527
22532
22512
22525
22515
22496
22516
22516
22532
22535
22524
22537
22525
22534
22563
22526
22542
22581
22569
22588
22622
22631
22631
22612
22643
22674
22677
22674
22633
22637
22683
22634
22602
22625
22637
22643
22618
22620
22660
22639
22630
22643
22659
22684
22666
22661
22681
22645
22666
22719
22718
22709
22694
22700
22726
22708
22724
22739
22715
22708
22703
22732
22767
22719
22708
22727
22716
22722
22724
22742
22782
22774
22785
22775
22736
22759
22798
22826
22829
22759
22737
22768
22799
22812
22757
22722
22744
22713
22689
22676
22648
22635
22597
22573
22590
22570
22574
22565
22517
22505
22485
22454
22437
22394
22387
22364
22310
22303
22291
22264
22245
22195
22200
22212
22182
22169
22141
22127
22151
22130
22121
22120
22130
22178
22167
22120
22115
22104
22124
22129
22115
22146
22142
22118
22146
22170
22198
22183
22164
22214
22236
22217
22210
22192
22232
22254
22230
22266
22295
22273
22264
22256
22267
22262
22270
22294
22250
22245
22319
22317
22304
22297
22273
22286
22280
22259
22286
22298
22297
22294
22330
22364
22299
22277
22337
22319
22314
22329
22303
22318
22356
22374
22392
22391
22404
22387
22379
22432
22439
22433
22470
22474
22498
22508
22495
22532
22551
22552
22601
22631
22634
22602
22600
22653
22650
22652
22717
22724
22727
22745
22758
22773
22748
22745
22776
22755
22772
22788
22768
22817
22855
22819
22804
22810
22802
22765
22790
22832
22752
22703
22741
22703
22693
22700
22640
22631
22649
22596
22536
22519
22536
22502
22475
22493
22446
22408
22419
22362
22343
22383
22394
22380
22333
22306
22315
22289
22295
22275
22208
22220
22278
22308
22289
22239
22284
22324
22293
22309
22340
22338
22336
22314
22311
22297
22304
22362
22348
22316
22360
22378
22376
22369
22381
22417
22413
22430
22454
22397
22422
22497
22482
22464
22491
22527
22533
22499
22536
22590
22591
22576
22554
22597
22661
22617
22593
22610
22597
22593
22603
22645
22690
22664
22671
22690
22667
22656
22650
22683
22732
22703
22691
22687
22667
22702
22720
22708
22732
22749
22763
22754
22771
22829
22831
22841
22869
22832
22874
22934
22906
22931
23000
22996
22957
22945
22988
22992
22992
23028
22994
22974
23046
23070
23072
23092
23131
23166
23123
23099
23156
23165
23159
23141
23099
23074
23040
23039
23052
22983
22952
22961
22941
22928
22894
22866
22874
22851
22841
22816
22775
22758
22732
22751
22789
22719
22667
22665
22655
22658
22637
22615
22607
22576
22604
22622
22584
22583
22587
22578
22594
22590
22605
22614
22620
22628
22581
22570
22594
22533
22525
22573
22582
22597
22606
22609
22636
22661
22714
22720
22704
22768
22805
22791
22806
22834
22891
22899
22873
22898
22908
22913
22947
22937
22946
22956
22964
23018
23026
23003
23035
23050
23040
23010
23027
23090
23060
23032
23106
23126
23088
23062
23094
23143
23116
23126
23191
23155
23123
23151
23177
23189
23168
23172
23210
23214
23261
23278
23225
23236
23282
23291
23293
23295
23342
23364
23361
23385
23366
23361
23403
23378
23363
23378
23381
23375
23345
23367
23410
23343
23305
23330
23344
23363
23367
23374
23375
23319
23320
23330
23279
23233
23179
23139
23131
23101
23108
23102
23068
23081
23067
23018
22996
22970
22980
22974
22935
22915
22876
22873
22910
22855
22791
22770
22778
22806
22784
22766
22774
22723
22713
22727
22716
22739
22744
22724
22734
22738
22757
22746
22732
22767
22771
22782
22832
22819
22813
22819
22816
22841
22839
22837
22862
22843
22849
22865
22867
22889
22856
22806
22811
22806
22818
22827
22847
22893
22883
22861
22863
22840
22892
22926
22861
22852
22888
22881
22878
22899
22937
22919
22908
22951
22940
22943
22998
22979
22975
23003
23016
23045
23048
23047
23067
23045
23047
23063
23080
23110
23089
23089
23151
23146
23129
23149
23201
23248
23214
23206
23264
23258
23272
23321
23351
23380
23378
23391
23435
23426
23436
23456
23465
23495
23495
23508
23546
23524
23543
23584
23581
23567
23537
23544
23583
23553
23542
23538
23495
23452
23386
23350
23362
23321
23289
23260
23227
23226
23182
23129
23127
23088
23041
22990
22963
22979
22952
22919
22902
22840
22853
22888
22847
22822
22824
22820
22801
22749
22745
22731
22685
22680
22667
22655
22655
22608
22603
22605
22582
22612
22649
22662
22655
22601
22605
22643
22670
22707
22704
22708
22745
22731
22745
22777
22785
22800
22793
22813
22870
22878
22908
22917
22880
22899
22945
22980
23006
22998
23030
23030
22996
23040
23089
23093
23093
23079
23102
23106
23091
23111
23095
23097
23171
23199
23197
23166
23143
23185
23190
23172
23199
23210
23234
23242
23232
23245
23222
23223
23276
23264
23243
23240
23249
23282
23273
23266
23277
23239
23271
23339
23343
23327
23296
23293
23338
23359
23394
23374
23316
23353
23408
23417
23430
23427
23437
23416
23412
23488
23533
23553
23579
23556
23586
23613
23565
23530
23510
23496
23485
23436
23445
23457
23420
23395
23366
23364
23378
23323
23300
23294
23262
23261
23249
23231
23219
23176
23189
23182
23131
23159
23187
23143
23107
23100
23126
23102
23061
23056
23019
23015
23053
23014
23014
23047
23023
22997
22976
22970
22976
22947
22967
22998
22999
23018
23010
23012
23052
23032
23011
23005
23019
23059
23047
23041
23068
23043
23062
23098
23089
23104
23111
23106
23124
23114
23119
23136
23169
23197
23142
23134
23223
23251
23267
23277
23258
23281
23318
23353
23375
23337
23350
23392
23407
23421
23415
23448
23514
23492
23481
23504
23525
23560
23557
23564
23610
23609
23630
23646
23622
23616
23621
23670
23722
23683
23693
23740
23746
23771
23788
23789
23801
23792
23825
23846
23848
23888
23897
23897
23908
23864
23876
23929
23941
23933
23914
23952
24001
23946
23938
23992
24013
24026
24027
24041
24053
23992
23965
23948
23899
23868
23829
23808
23800
23733
23708
23689
23619
23572
23548
23545
23525
23455
23481
23498
23403
23365
23394
23379
23313
23247
23260
23246
23204
23231
23234
23197
23179
23149
23165
23174
23154
23173
23172
23157
23164
23127
23119
23146
23190
23247
23243
23240
23258
23228
23269
23327
23297
23279
23286
23300
23323
23317
23341
23362
23375
23395
23350
23331
23385
23380
23374
23390
23403
23428
23413
23418
23466
23441
23418
23427
23441
23440
23394
23400
23450
23416
23422
23459
23430
23403
23433
23518
23547
23459
23462
23507
23478
23486
23512
23482
23459
23470
23512
23502
23502
23557
23542
23525
23579
23586
23604
23630
23632
23640
23623
23626
23662
23638
23634
23645
23650
23687
23676
23644
23670
23696
23723
23696
23663
23707
23728
23719
23727
23704
23713
23703
23662
23688
23725
23741
23744
23706
23724
23754
23741
23726
23680
23654
23666
23613
23565
23534
23519
23544
23509
23445
23443
23435
23430
23401
23368
23363
23310
23270
23280
23235
23217
23224
23212
23210
23174
23138
23146
23129
23131
23112
23078
23098
23093
23070
23092
23095
23104
23121
23150
23163
23110
23123
23187
23133
23106
23134
23126
23152
23180
23156
23138
23136
23157
23151
23154
23170
23136
23168
23236
23187
23194
23260
23232
23190
23193
23219
23241
23235
23261
23258
23232
23257
23278
23311
23351
23309
23299
23317
23319
23352
23371
23372
23378
23369
23435
23481
23441
23428
23436
23455
23489
23474
23478
23498
23525
23552
23513
23509
23572
23563
23563
23578
23574
23603
23623
23634
23664
23667
23702
23707
23677
23707
23742
23764
23785
23763
23785
23810
23805
23830
23846
23870
23905
23881
23897
23921
23898
23893
23896
23929
23975
23933
23908
23936
23985
24019
23983
23979
24023
23976
23937
23933
23908
23877
23818
23780
23773
23724
23719
23715
23660
23623
23587
23563
23555
23505
23504
23510
23480
23480
23475
23471
23460
23391
23386
23387
23340
23350
23370
23344
23316
23296
23319
23280
23215
23254
23279
23241
23247
23257
23234
23193
23225
23280
23238
23253
23336
23295
23282
23339
23333
23318
23328
23348
23366
23351
23376
23393
23394
23423
23401
23381
23429
23446
23447
23420
23394
23425
23432
23435
23454
23415
23416
23432
23414
23417
23411
23414
23438
23413
23415
23422
23419
23452
23453
23447
23477
23476
23496
23496
23460
23462
23466
23500
23564
23537
23491
23478
23507
23543
23499
23477
23521
23507
23516
23545
23538
23536
23518
23519
23562
23576
23617
23630
23603
23625
23643
23651
23673
23651
23651
23658
23670
23725
23739
23732
23739
23694
23696
23747
23779
23775
23731
23757
23825
23781
23748
23741
23713
23747
23786
23770
23747
23722
23726
23693
23644
23636
23603
23607
23657
23615
23575
23552
23511
23503
23480
23459
23490
23484
23447
23383
23353
23378
23338
23294
23310
23275
23250
23229
23196
23208
23191
23145
23131
23107
23096
23068
23050
23086
23092
23100
23130
23114
23155
23190
23135
23108
23134
23176
23185
23126
23124
23158
23177
23201
23184
23188
23242
23243
23249
23255
23248
23268
23262
23262
23293
23279
23294
23321
23331
23367
23359
23329
23338
23331
23352
23370
23376
23394
23377
23390
23435
23399
23401
23434
23432
23452
23461
23460
23501
23524
23534
23506
23506
23571
23563
23530
23572
23593
23605
23605
23611
23638
23603
23594
23680
23729
23746
23720
23684
23715
23757
23813
23880
23865
23862
23878
23893
23933
23926
23921
23980
24026
24079
24079
24038
24071
24109
24124
24148
24141
24166
24192
24212
24249
24228
24211
24245
24224
24212
24204
24191
24225
24240
24231
24216
24147
24116
24087
24032
24024
24015
23997
23971
23892
23864
23843
23795
23798
23784
23737
23725
23710
23705
23660
23616
23633
23599
23543
23548
23532
23530
23514
23473
23449
23404
23404
23459
23428
23378
23347
23336
23368
23374
23387
23418
23378
23364
23387
23418
23471
23469
23443
23451
23438
23466
23493
23507
23570
23585
23546
23550
23570
23619
23642
23640
23646
23632
23677
23717
23631
23631
23714
23703
23672
23690
23729
23736
23693
23720
23767
23777
23788
23757
23742
23777
23766
23765
23761
23735
23726
23700
23714
23772
23763
23781
23812
23801
23802
23797
23816
23869
23859
23852
23854
23866
23898
23869
23839
23858
23841
23860
23875
23855
23882
23907
23910
23910
23882
23913
23945
23940
23957
23951
23960
24017
24032
24057
24070
24073
24127
24150
24149
24167
24147
24167
24220
24266
24297
24278
24307
24374
24337
24315
24339
24333
24315
24293
24303
24293
24181
24138
24155
24132
24117
24096
24062
24014
23931
23921
23930
23894
23869
23845
23853
23866
23786
23737
23714
23669
23666
23654
23614
23578
23513
23483
23448
23404
23404
23386
23380
23404
23363
23349
23362
23354
23346
23308
23297
23319
23283
23287
23312
23292
23273
23256
23280
23323
23299
23322
23364
23347
23320
23302
23329
23357
23318
23356
23393
23344
23359
23411
23406
23403
23441
23503
23476
23440
23495
23515
23508
23530
23513
23539
23578
23582
23611
23625
23640
23681
23676
23690
23716
23732
23744
23720
23750
23814
23769
23754
23810
23854
23889
23892
23909
23953
23946
23960
23970
23952
23959
23963
24005
24071
24052
24052
24085
24118
24165
24156
24136
24167
24185
24223
24213
24177
24242
24303
24278
24242
24232
24295
24329
24325
24364
24370
24365
24395
24394
24428
24469
24481
24502
24471
24445
24486
24496
24501
24489
24481
24515
24490
24443
24446
24408
24358
24312
24286
24276
24205
24161
24166
24086
24029
24031
24024
24011
23969
23948
23946
23881
23867
23879
23847
23826
23794
23769
23766
23722
23717
23717
23697
23710
23698
23682
23700
23685
23700
23714
23699
23699
23681
23689
23718
23679
23688
23724
23716
23728
23739
23756
23799
23802
23818
23819
23828
23894
23895
23851
23876
23902
23911
23895
23900
23934
23917
23949
24023
23989
23993
24050
24048
24050
24074
24117
24166
24160
24167
24174
24182
24207
24186
24208
24283
24270
24265
24288
24297
24330
24326
24315
24362
24400
24448
24480
24513
24554
24518
24506
24580
24590
24579
24582
24603
24649
24645
24640
24662
24641
24679
24728
24709
24705
24717
24746
24777
24746
24748
24767
24771
24791
24772
24764
24805
24786
24769
24774
24790
24814
24793
24820
24895
24864
24834
24847
24850
24849
24828
24857
24919
24885
24856
24847
24833
24860
24858
24826
24799
24747
24738
24687
24585
24570
24568
24510
24453
24412
24419
24387
24327
24319
24285
24247
24229
24158
24138
24136
24097
24092
24073
24032
24021
23990
23981
23988
24017
24052
24015
24015
24065
24013
23987
24016
24016
24018
24002
23993
24023
24039
24087
24102
24074
24085
24081
24081
24116
24106
24109
24112
24109
24128
24104
24102
24156
24158
24164
24149
24119
24167
24202
24173
24154
24144
24171
24174
24159
24166
24146
24168
24205
24144
24147
24190
24150
24127
24151
24172
24166
24125
24146
24176
24180
24202
24195
24210
24246
24202
24193
24214
24208
24229
24237
24240
24274
24280
24295
24284
24269
24310
24323
24330
24366
24354
24379
24415
24411
24417
24406
24421
24480
24486
24500
24509
24506
24538
24555
24590
24636
24615
24642
24675
24638
24623
24626
24639
24659
24640
24662
24680
24675
24711
24722
24731
24777
24781
24794
24791
24753
24729
24687
24680
24702
24629
24567
24553
24547
24547
24475
24392
24380
24357
24343
24321
24298
24296
24230
24171
24183
24142
24091
24051
24031
24048
24018
23985
23989
23943
23923
23924
23904
23889
23847
23835
23862
23836
23847
23865
23824
23786
23760
23783
23832
23814
23827
23838
23811
23831
23857
23864
23864
23830
23847
23864
23850
23867
23881
23906
23917
23845
23842
23893
23903
23914
23930
23969
23999
23950
23949
23979
23985
24016
24022
24019
24043
24046
24088
24102
24068
24077
24089
24110
24148
24120
24104
24104
24103
24114
24079
24076
24137
24131
24125
24140
24153
24174
24148
24140
24172
24145
24151
24184
24183
24165
24122
24135
24202
24203
24220
24244
24244
24282
24310
24324
24333
24288
24287
24303
24304
24335
24341
24344
24372
24362
24391
24417
24398
24405
24422
24463
24503
24468
24492
24548
24555
24561
24541
24527
24565
24561
24536
24508
24520
24546
24474
24417
24432
24371
24308
24287
24280
24295
24255
24198
24198
24176
24149
24099
24062
24079
24050
24008
23996
23937
23920
23926
23910
23910
23878
23837
23824
23779
23775
23777
23750
23737
23701
23689
23716
23683
23672
23676
23674
23713
23718
23700
23713
23698
23697
23691
23695
23737
23731
23728
23762
23733
23722
23718
23712
23774
23800
23754
23749
23779
23818
23799
23786
23827
23807
23783
23816
23813
23842
23866
23840
23855
23873
23866
23860
23848
23901
23930
23898
23901
23906
23919
23948
23910
23891
23916
23962
24005
23981
23989
24045
24016
24013
24053
24057
24056
24057
24105
24168
24145
24158
24223
24262
24257
24196
24195
24259
24252
24263
24287
24273
24279
24282
24290
24310
24287
24302
24315
24304
24331
24334
24340
24396
24404
24392
24375
24392
24448
24434
24429
24485
24476
24467
24479
24488
24513
24495
24485
24530
24521
24488
24441
24418
24459
24448
24401
24381
24329
24309
24309
24289
24242
24144
24103
24124
24077
24078
24112
24082
24052
24032
24013
23994
23947
23961
23958
23899
23888
23893
23888
23868
23809
23822
23832
23774
23753
23768
23801
23816
23768
23781
23787
23730
23733
23763
23766
23773
23762
23775
23778
23787
23815
23788
23797
23852
23814
23802
23828
23818
23823
23841
23867
23874
23821
23832
23868
23867
23892
23895
23880
23890
23882
23913
23935
23928
23939
23926
23950
24021
24015
24015
24030
24020
24021
24003
24017
24076
24065
24054
24059
24069
24098
24100
24136
24199
24186
24209
24240
24213
24223
24240
24226
24222
24225
24271
24283
24272
24313
24329
24338
24343
24278
24279
24319
24322
24355
24390
24409
24409
24367
24393
24425
24417
24453
24471
24462
24478
24478
24502
24511
24509
24533
24513
24516
24569
24556
24549
24540
24504
24529
24569
24587
24576
24509
24493
24465
24393
24383
24371
24313
24261
24210
24205
24176
24123
24112
24064
24011
24007
23969
23952
23924
23872
23871
23867
23853
23841
23793
23812
23825
23763
23724
23708
23713
23739
23723
23729
23715
23676
23690
23691
23681
23694
23669
23672
23666
23637
23655
23657
23649
23665
23658
23697
23709
23666
23678
23703
23713
23741
23741
23753
23756
23773
23823
23813
23810
23858
23848
23862
23894
23905
23943
23953
23941
23957
23952
23972
23983
23985
24014
23997
23985
24008
23984
24009
24051
24045
24056
24072
24106
24142
24104
24095
24119
24147
24189
24181
24186
24244
24251
24263
24264
24239
24251
24250
24257
24289
24268
24270
24273
24261
24301
24314
24303
24332
24337
24341
24331
24345
24401
24388
24378
24437
24441
24434
24425
24417
24449
24446
24447
24504
24508
24486
24474
24499
24534
24483
24455
24502
24481
24463
24465
24445
24435
24401
24369
24340
24255
24225
24213
24155
24118
24082
24057
24044
23985
23970
23956
23905
23879
23846
23828
23836
23784
23751
23741
23737
23757
23707
23635
23627
23616
23622
23584
23525
23547
23548
23502
23507
23522
23528
23504
23513
23550
23504
23479
23523
23514
23560
23624
23607
23608
23651
23696
23710
23670
23680
23693
23684
23706
23698
23693
23732
23741
23769
23780
23775
23818
23831
23812
23819
23822
23868
23875
23839
23871
23906
23905
23904
23886
23912
23897
23832
23835
23861
23877
23887
23856
23883
23906
23889
23924
23941
23917
23927
23930
23925
23891
23881
23911
23875
23863
23916
23872
23822
23836
23865
23863
23819
23847
23916
23858
23810
23839
23860
23853
23821
23847
23910
23895
23905
23915
23875
23876
23898
23911
23914
23895
23942
23970
23949
23979
24006
23994
23970
23947
24017
24055
23993
23975
24001
24028
24046
24017
24022
24021
24005
24029
24004
23958
23961
23935
23916
23905
23911
23925
23853
23794
23822
23801
23764
23739
23737
23772
23752
23714
23705
23663
23667
23666
23624
23640
23662
23655
23646
23619
23628
23601
23560
23606
23625
23579
23558
23563
23610
23595
23542
23584
23624
23610
23599
23573
23586
23590
23600
23669
23681
23644
23646
23652
23700
23726
23713
23727
23720
23719
23741
23726
23775
23834
23826
23823
23815
23822
23867
23862
23851
23835
23844
23895
23897
23900
23926
23885
23895
23943
23944
23938
23917
23917
23964
23974
23989
23982
23961
23977
23973
23985
24028
24004
24006
24034
24039
24047
24025
24029
24070
24045
24041
24068
24086
24092
24058
24068
24120
24083
24080
24142
24177
24165
24118
24152
24241
24218
24186
24202
24225
24249
24244
24280
24354
24330
24299
24305
24327
24345
24309
24319
24400
24413
24415
24402
24360
24376
24415
24447
24438
24365
24379
24414
24376
24356
24333
24295
24298
24304
24301
24229
24166
24200
24196
24142
24104
24036
24014
24007
23974
23962
23926
23901
23908
23865
23850
23840
23794
23771
23748
23750
23765
23715
23713
23722
23688
23695
23696
23666
23650
23637
23679
23716
23724
23727
23690
23703
23768
23750
23753
23768
23742
23767
23809
23820
23822
23814
23856
23855
23808
23822
23830
23828
23872
23887
23889
23871
23873
23924
23925
23929
23964
23936
23958
24006
24000
24002
23992
23978
24002
24020
24056
24057
24044
24073
24062
24052
24082
24077
24116
24135
24092
24108
24146
24152
24156
24145
24165
24166
24174
24236
24241
24227
24268
24279
24298
24304
24297
24321
24307
24301
24349
24350
24352
24361
24385
24442
24441
24426
24445
24419
24430
24453
24447
24468
24471
24488
24566
24597
24585
24547
24550
24601
24585
24570
24601
24559
24548
24599
24631
24617
24541
24516
24562
24530
24483
24450
24419
24401
24332
24274
24273
24238
24213
24172
24109
24095
24090
24089
24071
23991
23997
24025
23971
23936
23919
23895
23892
23874
23866
23821
23779
23797
23788
23797
23842
23806
23780
23769
23750
23779
23789
23783
23815
23834
23858
23837
23811
23862
23880
23864
23887
23885
23884
23860
23846
23896
23910
23908
23941
23934
23944
23944
23922
23949
23965
23964
23962
23927
23957
23972
23932
23965
24002
23972
23956
23967
24004
24000
23995
24017
23972
23953
23999
23968
23959
23987
23971
23937
23907
23942
24007
23978
23958
23958
23946
23967
23979
23996
24020
23976
23958
23961
23962
23997
23992
23972
23982
23951
23946
23961
23979
24009
23969
23936
23981
23999
24014
23998
23966
23996
24013
24016
24044
24034
24044
24054
24065
24109
24104
24091
24114
24107
24143
24167
24136
24150
24184
24214
24227
24191
24212
24236
24217
24222
24216
24206
24196
24125
24097
24102
24092
24083
24039
24021
24034
23989
23984
23976
23899
23860
23862
23876
23880
23826
23806
23788
23746
23729
23684
23649
23652
23612
23604
23599
23564
23553
23523
23507
23539
23529
23519
23499
23484
23515
23497
23461
23475
23465
23467
23445
23414
23443
23449
23428
23434
23427
23453
23440
23383
23392
23424
23453
23482
23461
23472
23465
23440
23497
23536
23509
23496
23501
23550
23568
23564
23594
23582
23580
23626
23615
23615
23623
23626
23682
23718
23727
23751
23739
23746
23745
23741
23780
23787
23802
23849
23848
23884
23907
23868
23864
23874
23889
23925
23914
23903
23898
23931
23998
23984
23961
23995
23983
24005
24062
24084
24075
24040
24067
24119
24086
24114
24172
24151
24144
24164
24177
24183
24176
24218
24211
24160
24194
24246
24261
24252
24220
24264
24283
24229
24237
24261
24255
24272
24276
24269
24237
24229
24235
24165
24140
24167
24087
24042
24048
23996
23960
23964
23967
23932
23858
23867
23869
23805
23788
23769
23717
23695
23691
23717
23678
23601
23592
23578
23566
23585
23551
23530
23509
23475
23484
23464
23443
23481
23490
23482
23445
23414
23431
23425
23442
23480
23427
23401
23414
23403
23412
23429
23466
23499
23452
23437
23437
23421
23450
23478
23486
23474
23417
23442
23491
23479
23475
23490
23536
23558
23491
23498
23552
23544
23527
23536
23595
23639
23568
23523
23530
23545
23583
23587
23587
23620
23610
23625
23651
23667
23701
23698
23703
23719
23663
23673
23741
23762
23752
23736
23781
23845
23799
23776
23814
23856
23895
23882
23878
23912
23899
23912
23926
23925
23971
23986
23964
23965
23960
24003
24044
24056
24082
24081
24103
24134
24071
24056
24096
24106
24113
24121
24160
24202
24171
24185
24214
24203
24218
24243
24268
24277
24240
24274
24280
24186
24140
24141
24122
24085
24026
24011
23972
23908
23894
23863
23837
23842
23785
23746
23726
23696
23683
23645
23626
23620
23552
23553
23578
23533
23509
23507
23509
23525
23501
23481
23444
23419
23441
23431
23432
23450
23399
23415
23471
23460
23449
23444
23443
23452
23421
23432
23466
23493
23508
23459
23459
23534
23518
23477
23473
23499
23537
23521
23535
23608
23602
23577
23576
23591
23617
23592
23590
23631
23608
23621
23667
23674
23669
23641
23651
23708
23701
23687
23674
23675
23725
23734
23727
23745
23730
23755
23763
23738
23793
23841
23824
23828
23856
23896
23881
23872
23922
23926
23932
23972
23949
23969
24005
23984
23978
23987
24015
24062
24060
24067
24049
24027
24083
24100
24066
24075
24084
24094
24082
24091
24132
24112
24117
24161
24114
24105
24149
24153
24155
24154
24172
24212
24204
24215
24212
24189
24200
24182
24149
24127
24058
24041
24046
24007
23966
23922
23935
23976
23918
23865
23845
23825
23838
23832
23823
23819
23765
23766
23779
23738
23704
23670
23663
23673
23613
23585
23587
23570
23549
23495
23484
23522
23495
23493
23494
23458
23468
23485
23489
23510
23493
23484
23485
23518
23567
23536
23526
23581
23555
23536
23566
23590
23594
23547
23536
23585
23579
23585
23591
23584
23634
23670
23675
23695
23700
23736
23738
23707
23723
23720
23718
23755
23749
23750
23737
23724
23784
23820
23812
23804
23763
23766
23773
23774
23832
23851
23825
23843
23854
23868
23872
23893
23925
23886
23885
23953
23933
23922
23945
23940
23937
23925
23934
23964
23941
23962
24003
24020
24047
24042
24038
24054
24035
24083
24129
24098
24088
24096
24117
24159
24166
24197
24210
24200
24220
24222
24252
24314
24294
24285
24292
24291
24334
24353
24351
24379
24379
24382
24363
24344
24354
24309
24270
24273
24222
24202
24181
24120
24100
24063
24001
24002
24032
24047
23963
23883
23926
23935
23874
23847
23832
23836
23780
23710
23745
23770
23734
23719
23704
23701
23646
23583
23611
23623
23593
23574
23538
23564
23589
23565
23566
23565
23578
23621
23611
23613
23616
23605
23616
23610
23634
23678
23650
23671
23711
23692
23692
23701
23697
23688
23663
23701
23706
23660
23689
23708
23667
23664
23699
23753
23749
23733
23756
23733
23742
23814
23815
23834
23859
23842
23870
23906
23907
23901
23884
23917
23938
23938
23972
23968
23956
23973
23953
23982
24011
23984
23986
24010
24045
24068
24034
24068
24114
24091
24083
24103
24155
24194
24160
24185
24215
24184
24189
24207
24214
24234
24224
24233
24244
24262
24291
24272
24299
24359
24325
24345
24396
24353
24311
24324
24367
24388
24353
24378
24400
24379
24399
24404
24379
24362
24326
24337
24328
24282
24277
24245
24203
24202
24159
24110
24060
24041
24063
24022
23983
24006
23975
23939
23906
23865
23853
23823
23820
23859
23825
23787
23761
23742
23745
23704
23676
23704
23696
23701
23683
23629
23633
23647
23659
23690
23690
23718
23712
23671
23699
23725
23722
23727
23709
23732
23758
23765
23787
23761
23767
23852
23861
23815
23776
23806
23890
23886
23856
23889
23889
23900
23921
23931
23948
23925
23930
23981
23971
23995
24038
24027
23997
23948
23944
24005
24025
24052
24065
24037
24009
23971
23994
24051
24022
24037
24076
24055
24047
24054
24073
24103
24096
24120
24129
24119
24154
24150
24123
24134
24123
24135
24137
24126
24153
24163
24184
24220
24187
24205
24251
24246
24253
24275
24322
24360
24317
24316
24342
24337
24340
24338
24372
24418
24389
24408
24446
24441
24471
24490
24464
24444
24430
24471
24487
24463
24461
24430
24407
24406
24346
24335
24333
24262
24203
24165
24155
24155
24081
24024
23995
23979
23984
23950
23940
23975
23948
23942
23921
23844
23828
23837
23812
23769
23721
23752
23765
23722
23719
23705
23682
23695
23673
23664
23665
23683
23716
23677
23659
23713
23705
23700
23714
23699
23673
23646
23689
23740
23670
23655
23726
23755
23731
23693
23720
23768
23725
23724
23766
23762
23738
23707
23733
23787
23764
23767
23775
23745
23757
23782
23805
23835
23809
23800
23805
23823
23860
23815
23760
23769
23750
23756
23772
23771
23789
23766
23747
23777
23768
23770
23779
23795
23839
23824
23795
23812
23795
23800
23802
23781
23793
23791
23802
23834
23811
23823
23838
23814
23827
23853
23889
23913
23858
23839
23858
23872
23898
23885
23882
23914
23895
23903
23912
23901
23945
23977
23962
23935
23898
23943
23981
23951
23932
23912
23920
23953
23931
23937
23927
23870
23853
23839
23814
23804
23754
23726
23707
23690
23688
23633
23593
23586
23529
23541
23561
23486
23432
23420
23408
23398
23378
23405
23387
23319
23313
23313
23307
23315
23280
23277
23267
23227
23216
23196
23195
23228
23201
23186
23207
23232
23236
23187
23189
23228
23196
23246
23327
23283
23219
23207
23227
23257
23260
23285
23282
23259
23261
23239
23250
23294
23278
23317
23361
23319
23308
23336
23354
23350
23325
23373
23412
23409
23437
23417
23374
23399
23416
23416
23394
23412
23471
23451
23444
23513
23512
23494
23493
23496
23522
23510
23507
23563
23571
23568
23571
23589
23613
23582
23584
23618
23563
23560
23613
23618
23626
23641
23662
23677
23641
23658
23700
23720
23735
23714
23728
23777
23744
23737
23763
23768
23792
23806
23819
23830
23786
23795
23823
23814
23826
23837
23861
23891
23857
23857
23850
23803
23816
23850
23874
23888
23833
23780
23729
23697
23707
23666
23634
23652
23607
23565
23546
23532
23530
23481
23450
23474
23447
23429
23402
23351
23342
23333
23327
23324
23277
23285
23284
23233
23245
23269
23250
23224
23196
23212
23191
23154
23195
23210
23180
23175
23171
23204
23214
23187
23193
23197
23225
23253
23201
23209
23258
23258
23269
23286
23309
23332
23311
23332
23347
23333
23363
23375
23374
23402
23397
23410
23422
23431
23457
23429
23412
23445
23429
23436
23446
23422
23429
23413
23388
23428
23469
23506
23509
23511
23528
23485
23473
23516
23486
23491
23518
23496
23498
23496
23469
23467
23483
23544
23545
23498
23510
23500
23472
23501
23516
23522
23499
23497
23544
23511
23461
23512
23558
23576
23553
23533
23566
23577
23607
23665
23629
23593
23596
23603
23624
23626
23658
23699
23644
23622
23643
23643
23653
23654
23677
23717
23703
23724
23728
23678
23669
23663
23640
23629
23579
23536
23491
23483
23530
23493
23415
23406
23401
23417
23391
23327
23323
23317
23286
23266
23217
23208
23213
23205
23203
23176
23187
23212
23133
23095
23130
23142
23135
23100
23082
23088
23041
23025
23028
23019
23024
23012
23028
23055
23017
23044
23080
23040
23043
23069
23057
23050
23049
23062
23037
23033
23087
23078
23058
23082
23062
23077
23105
23090
23102
23116
23128
23144
23129
23163
23185
23171
23203
23216
23198
23206
23221
23287
23325
23315
23328
23307
23282
23299
23292
23315
23332
23325
23353
23366
23384
23415
23375
23360
23383
23409
23440
23422
23424
23474
23467
23482
23501
23480
23479
23487
23529
23590
23570
23563
23578
23577
23575
23547
23569
23637
23641
23677
23706
23670
23673
23702
23714
23712
23690
23732
23756
23731
23742
23742
23740
23763
23759
23801
23834
23816
23817
23820
23842
23865
23817
23815
23826
23781
23757
23757
23782
23792
23707
23644
23597
23539
23526
23510
23489
23476
23411
23384
23373
23340
23320
23274
23252
23270
23231
23209
23188
23146
23144
23136
23125
23128
23094
23100
23110
23092
23093
23054
23021
23061
23081
23082
23044
23017
23061
23070
23055
23079
23069
23060
23035
23012
23052
23060
23036
23035
23016
23035
23046
23037
23069
23078
23073
23077
23050
23091
23146
23139
23124
23097
23104
23158
23160
23161
23161
23158
23179
23166
23175
23222
23203
23195
23196
23186
23226
23247
23235
23232
23210
23218
23211
23199
23253
23283
23275
23267
23240
23280
23304
23259
23259
23281
23290
23288
23236
23227
23259
23297
23318
23262
23249
23319
23314
23302
23323
23330
23307
23260
23289
23355
23316
23319
23365
23350
23338
23349
23380
23405
23363
23349
23365
23384
23398
23365
23377
23431
23406
23424
23447
23385
23346
23330
23292
23264
23238
23233
23210
23219
23274
23221
23134
23146
23160
23150
23095
23039
23048
23043
23038
23038
22960
22908
22895
22869
22850
22826
22835
22831
22733
22702
22722
22698
22697
22696
22662
22631
22610
22646
22644
22593
22584
22579
22599
22634
22599
22594
22598
22567
22575
22591
22605
22614
22570
22563
22575
22580
22613
22607
22593
22612
22593
22596
22602
22594
22611
22587
22568
22615
22625
22606
22579
22593
22647
22631
22617
22655
22653
22681
22687
22635
22654
22700
22697
22695
22708
22738
22711
22690
22751
22784
22792
22804
22759
22763
22796
22788
22788
22778
22783
22814
22805
22823
22824
22789
22794
22799
22807
22832
22809
22810
22829
22846
22872
22855
22855
22884
22852
22866
22891
22861
22869
22893
22905
22930
22930
22934
22917
22920
22967
22937
22902
22946
22953
22939
22918
22919
22976
22998
23007
23022
22971
22947
22937
22908
22918
22890
22825
22817
22831
22838
22783
22733
22747
22720
22681
22665
22612
22628
22647
22576
22519
22498
22488
22491
22471
22474
22441
22379
22363
22327
22293
22300
22259
22220
22199
22202
22221
22160
22096
22113
22106
22092
22077
22067
22078
22059
22063
22083
22030
22038
22088
22062
22012
22005
22067
22105
22035
22026
22071
22075
22091
22094
22076
22074
22070
22117
22167
22192
22197
22153
22171
22247
22215
22173
22184
22205
22232
22232
22248
22272
22250
22300
22355
22324
22315
22332
22335
22333
22314
22336
22343
22328
22330
22300
22308
22385
22393
22380
22370
22360
22365
22349
22368
22404
22353
22339
22369
22383
22424
22436
22409
22410
22436
22495
22476
22411
22439
22488
22498
22499
22480
22518
22557
22550
22544
22520
22530
22572
22547
22559
22605
22610
22597
22578
22610
22659
22623
22621
22640
22612
22600
22600
22607
22607
22554
22548
22551
22513
22490
22459
22445
22448
22401
22396
22391
22344
22338
22315
22257
22238
22218
22187
22124
22091
22102
22033
21975
22004
21983
21945
21918
21892
21879
21832
21809
21815
21751
21720
21733
21729
21723
21693
21689
21717
21697
21709
21734
21737
21768
21771
21759
21787
21802
21823
21824
21807
21798
21773
21816
21874
21808
21779
21807
21782
21766
21771
21786
21823
21831
21836
21825
21849
21917
21921
21923
21952
21927
21960
22007
21987
22008
22045
22040
22042
22054
22073
22052
22055
22104
22101
22125
22184
22147
22141
22174
22160
22158
22155
22134
22133
22144
22195
22204
22175
22186
22199
22241
22297
22267
22261
22274
22261
22291
22324
22342
22371
22363
22364
22359
22364
22402
22394
22401
22458
22461
22485
22523
22533
22553
22550
22550
22590
22601
22626
22639
22625
22624
22618
22666
22719
22667
22667
22711
22681
22645
22640
22659
22667
22615
22602
22606
22581
22550
22485
22462
22491
22461
22453
22456
22414
22372
22321
22305
22323
22274
22230
22211
22198
22190
22148
22139
22143
22066
22056
22094
22068
22043
22017
21977
21974
21983
22007
21993
21963
21951
21918
21952
22005
21939
21936
22006
21999
21965
21953
21965
21989
21995
22043
22041
21995
22038
22078
22043
22019
22023
22065
22085
22099
22108
22048
22051
22141
22150
22155
22169
22136
22122
22137
22175
22199
22159
22160
22163
22144
22186
22221
22217
22228
22226
22231
22223
22246
22303
22269
22215
22232
22234
22267
22294
22289
22316
22312
22279
22290
22297
22302
22285
22299
22357
22329
22283
22319
22334
22334
22316
22307
22352
22367
22370
22395
22369
22369
22404
22435
22449
22413
22418
22471
22461
22491
22534
22529
22561
22602
22605
22595
22583
22630
22668
22678
22707
22704
22712
22740
22713
22744
22780
22739
22712
22687
22646
22636
22629
22637
22613
22584
22582
22529
22503
22542
22510
22480
22482
22470
22445
22407
22430
22474
22402
22350
22359
22348
22321
22298
22330
22353
22280
22276
22301
22253
22242
22262
22242
22202
22172
22195
22191
22172
22188
22168
22171
22233
22233
22229
22217
22199
22241
22262
22240
22245
22258
22300
22314
22308
22331
22326
22338
22378
22348
22346
22375
22377
22388
22398
22426
22441
22380
22382
22437
22462
22477
22457
22442
22462
22452
22471
22488
22510
22588
22611
22576
22584
22598
22615
22612
22645
22729
22731
22708
22748
22753
22760
22775
22791
22827
22816
22806
22827
22797
22800
22817
22822
22879
22915
22902
22886
22858
22889
22931
22959
23008
23000
22983
23015
23008
23003
23012
23035
23067
23033
23025
23089
23103
23116
23124
23113
23148
23160
23136
23130
23126
23176
23217
23220
23228
23197
23194
23247
23240
23231
23227
23214
23224
23195
23162
23163
23113
23071
23060
23061
23051
22978
22949
22971
22914
22883
22872
22815
22798
22799
22780
22765
22722
22676
22613
22594
22638
22616
22581
22599
22560
22513
22477
22458
22483
22473
22458
22485
22476
22466
22427
22382
22417
22439
22418
22409
22410
22474
22505
22471
22467
22475
22502
22544
22531
22541
22544
22524
22566
22609
22621
22626
22605
22638
22671
22665
22675
22676
22699
22722
22672
22690
22747
22752
22764
22764
22757
22788
22805
22821
22812
22815
22854
22841
22848
22897
22869
22869
22910
22917
22916
22905
22927
22971
22946
22957
23018
23065
23065
22996
22987
23046
23032
23030
23052
23053
23084
23107
23108
23099
23083
23159
23211
23168
23171
23203
23216
23237
23247
23274
23268
23261
23300
23304
23329
23396
23383
23381
23405
23411
23430
23429
23437
23457
23436
23487
23543
23511
23483
23471
23481
23518
23519
23532
23518
23473
23449
23410
23403
23411
23343
23333
23341
23273
23233
23221
23193
23164
23134
23149
23127
23070
23051
23005
22973
23009
22992
22935
22871
22835
22824
22758
22718
22713
22643
22639
22660
22602
22571
22572
22547
22526
22519
22538
22497
22450
22492
22497
22458
22463
22456
22454
22433
22436
22512
22547
22548
22572
22545
22525
22526
22546
22588
22580
22595
22665
22658
22638
22645
22665
22694
22677
22690
22756
22753
22744
22747
22754
22792
22789
22769
22787
22795
22840
22868
22861
22885
22879
22860
22873
22866
22889
22904
22902
22937
22941
22937
22963
22953
22969
22995
23015
23058
23047
23019
23038
23035
23047
23048
23034
23058
23070
23090
23110
23054
23043
23072
23072
23085
23093
23118
23155
23134
23147
23159
23136
23152
23168
23185
23224
23223
23236
23250
23264
23309
23316
23330
23365
23320
23309
23354
23389
23401
23372
23397
23484
23479
23436
23405
23408
23455
23441
23400
23407
23393
23393
23371
23326
23321
23291
23257
23251
23215
23217
23211
23172
23180
23166
23117
23092
23068
23078
23061
23011
22984
22925
22893
22928
22915
22896
22874
22841
22825
22768
22728
22758
22744
22715
22699
22709
22736
22710
22722
22789
22770
22748
22746
22730
22743
22743
22730
22719
22686
22723
22757
22736
22749
22754
22734
22733
22738
22790
22798
22770
22822
22860
22843
22861
22896
22937
22922
22902
22934
22934
22949
22995
22963
22949
22961
22956
22982
22994
22987
22981
22960
23005
23029
22997
23026
23056
23044
23050
23077
23129
23108
23072
23149
23212
23198
23179
23186
23268
23289
23226
23245
23296
23301
23302
23312
23362
23378
23373
23409
23404
23392
23420
23410
23438
23463
23441
23450
23460
23471
23499
23485
23502
23526
23530
23540
23537
23589
23648
23585
23566
23616
23639
23667
23680
23683
23693
23684
23726
23747
23726
23747
23737
23691
23669
23646
23656
23617
23546
23562
23576
23533
23473
23401
23397
23394
23359
23360
23331
23288
23285
23250
23214
23176
23159
23182
23162
23154
23179
23143
23147
23158
23120
23132
23143
23098
23075
23090
23125
23086
23029
23045
23049
23062
23094
23054
23050
23061
23025
23026
23044
23052
23050
22997
22980
22992
23023
23075
23056
23033
23080
23093
23093
23075
23046
23056
23054
23076
23121
23101
23121
23154
23129
23112
23123
23179
23231
23192
23184
23199
23198
23235
23244
23233
23277
23320
23342
23318
23330
23412
23417
23389
23422
23426
23436
23434
23424
23460
23477
23487
23511
23488
23500
23500
23460
23481
23505
23507
23528
23521
23512
23486
23491
23550
23535
23515
23573
23589
23584
23577
23590
23635
23613
23585
23620
23617
23616
23628
23647
23667
23626
23617
23686
23695
23695
23697
23692
23713
23697
23670
23681
23677
23713
23717
23664
23654
23655
23650
23645
23604
23606
23574
23483
23461
23459
23432
23409
23362
23336
23292
23252
23257
23207
23154
23169
23142
23097
23042
23003
23011
22980
22950
22971
22946
22929
22921
22899
22875
22832
22851
22899
22830
22771
22765
22751
22753
22760
22797
22831
22784
22776
22804
22810
22821
22810
22817
22848
22833
22863
22897
22877
22871
22871
22903
22954
22928
22916
22945
22985
23010
22970
22977
23059
23071
23077
23099
23098
23098
23092
23139
23205
23170
23155
23180
23193
23218
23216
23215
23236
23218
23230
23245
23245
23281
23295
23299
23311
23275
23287
23307
23298
23328
23349
23355
23371
23361
23393
23399
23363
23387
23414
23413
23419
23413
23464
23505
23496
23492
23481
23517
23569
23535
23551
23596
23578
23565
23570
23591
23612
23577
23573
23568
23555
23613
23658
23668
23684
23663
23663
23645
23630
23689
23707
23672
23669
23670
23702
23703
23677
23691
23673
23642
23634
23596
23617
23641
23598
23556
23489
23425
23423
23412
23404
23373
23341
23345
23308
23289
23302
23239
23212
23226
23199
23155
23108
23118
23163
23130
23112
23113
23089
23075
23040
23022
23034
22994
22980
22983
22972
22976
22957
22967
23012
22998
23006
23005
22966
22982
22997
22977
22975
22984
23025
23007
22959
22991
23006
22983
22999
22998
22986
22969
22984
22998
22915
22872
22916
22883
22855
22867
22863
22867
22861
22873
22913
22900
22896
22901
22908
22937
22913
22890
22914
22915
22951
22955
22896
22899
22934
22951
22955
22933
22957
22965
22939
22949
22938
22932
22965
22958
22960
22945
22922
22963
22994
23005
23028
23013
23025
23034
23036
23079
23084
23073
23109
23121
23137
23136
23139
23181
23164
23133
23168
23191
23221
23224
23212
23249
23265
23268
23289
23261
23257
23256
23250
23299
23323
23321
23339
23331
23348
23339
23312
23353
23384
23376
23358
23310
23326
23344
23306
23280
23239
23211
23217
23182
23164
23135
23085
23072
23022
22952
22921
22866
22827
22784
22738
22715
22651
22606
22597
22512
22449
22443
22451
22462
22419
22381
22400
22395
22414
22419
22380
22365
22343
22335
22358
22333
22327
22337
22335
22332
22291
22291
22321
22267
22245
22260
22265
22323
22353
22309
22291
22312
22353
22359
22376
22411
22367
22355
22413
22408
22447
22514
22506
22494
22520
22575
22619
22599
22617
22643
22638
22643
22647
22690
22731
22693
22724
22769
22727
22721
22750
22756
22774
22787
22788
22753
22771
22840
22808
22762
22790
22792
22834
22873
22846
22855
22891
22915
22924
22915
22974
23018
23001
23012
23037
23075
23099
23051
23051
23070
23051
23069
23096
23100
23083
23042
23086
23127
23099
23108
23135
23153
23172
23168
23210
23229
23207
23227
23231
23221
23248
23252
23267
23276
23283
23306
23278
23264
23282
23233
23214
23194
23122
23098
23085
23034
23004
22993
23003
22955
22889
22877
22832
22797
22820
22798
22779
22753
22717
22732
22719
22682
22689
22678
22654
22601
22581
22639
22648
22618
22611
22571
22567
22584
22587
22600
22565
22539
22569
22571
22589
22592
22580
22625
22633
22597
22602
22625
22669
22673
22669
22722
22735
22725
22746
22726
22724
22731
22735
22767
22771
22785
22831
22816
22816
22839
22853
22868
22848
22853
22880
22834
22826
22845
22831
22843
22850
22854
22871
22843
22817
22786
22777
22822
22815
22799
22847
22855
22842
22814
22813
22872
22870
22845
22893
22922
22921
22895
22898
22939
22911
22896
22963
22992
23017
23018
22997
23034
23051
23035
23068
23116
23166
23156
23134
23173
23190
23212
23268
23251
23237
23252
23276
23322
23350
23403
23455
23416
23447
23539
23558
23534
23523
23586
23661
23633
23628
23657
23669
23696
23699
23690
23686
23638
23631
23606
23528
23495
23478
23460
23444
23384
23365
23355
23323
23309
23267
23237
23231
23178
23171
23172
23113
23068
23051
23061
23048
22970
22974
22980
22909
22912
22952
22911
22844
22807
22817
22802
22802
22824
22757
22710
22744
22713
22698
22729
22743
22743
22712
22712
22765
22767
22774
22784
22776
22780
22783
22841
22905
22862
22861
22898
22890
22907
22942
22954
22933
22894
22946
22985
22955
22969
22991
22994
23024
23046
23073
23044
23011
23062
23082
23075
23104
23104
23110
23105
23105
23152
23155
23155
23226
23266
23285
23297
23337
23396
23380
23373
23422
23412
23425
23447
23431
23444
23461
23473
23482
23449
23468
23498
23498
23520
23517
23514
23539
23511
23509
23542
23570
23573
23526
23543
23617
23599
23610
23667
23686
23700
23697
23695
23705
23681
23704
23724
23708
23723
23716
23703
23733
23745
23770
23751
23700
23708
23713
23710
23726
23673
23610
23559
23536
23542
23491
23451
23445
23356
23293
23287
23281
23274
23236
23225
23246
23202
23180
23176
23162
23185
23184
23165
23169
23140
23130
23118
23106
23123
23097
23090
23139
23117
23081
23068
23076
23096
23071
23075
23117
23085
23091
23149
23184
23215
23207
23195
23212
23213
23253
23262
23220
23239
23273
23292
23316
23300
23308
23321
23346
23404
23393
23368
23410
23424
23440
23446
23427
23412
23382
23415
23472
23423
23422
23476
23474
23461
23463
23491
23519
23473
23458
23468
23471
23480
23454
23469
23541
23533
23506
23489
23490
23543
23571
23578
23577
23531
23568
23625
23603
23580
23576
23600
23629
23605
23630
23659
23649
23677
23685
23671
23694
23711
23742
23730
23696
23712
23713
23729
23771
23751
23776
23830
23839
23840
23825
23848
23907
23896
23901
23930
23949
23955
23907
23906
23987
23994
23969
23959
23987
24049
24026
23973
23985
23964
23924
23876
23856
23874
23838
23806
23808
23737
23697
23708
23699
23670
23626
23637
23656
23573
23549
23575
23540
23499
23468
23456
23458
23422
23424
23420
23392
23395
23370
23341
23341
23303
23303
23301
23270
23285
23284
23264
23275
23274
23295
23287
23269
23310
23319
23305
23326
23309
23305
23302
23316
23374
23366
23326
23350
23362
23377
23377
23383
23421
23412
23414
23457
23433
23426
23445
23444
23455
23474
23536
23576
23519
23549
23616
23595
23604
23652
23659
23635
23611
23654
23675
23675
23712
23697
23676
23709
23698
23699
23712
23730
23775
23783
23801
23850
23819
23793
23799
23825
23876
23862
23836
23891
23921
23917
23888
23897
23956
23931
23903
23972
24001
23987
23964
23984
24053
24057
24053
24091
24064
24048
24067
24089
24107
24083
24098
24150
24118
24119
24157
24156
24150
24136
24155
24198
24168
24155
24174
24191
24210
24177
24166
24201
24169
24145
24121
24065
24038
24017
24013
24002
23920
23892
23883
23830
23818
23827
23836
23834
23770
23737
23716
23702
23742
23721
23642
23612
23610
23649
23646
23613
23633
23625
23607
23629
23608
23590
23575
23579
23616
23587
23555
23598
23621
23647
23649
23629
23643
23623
23610
23660
23661
23634
23625
23671
23728
23680
23656
23729
23739
23735
23746
23751
23776
23779
23796
23838
23817
23818
23822
23803
23822
23820
23816
23867
23886
23877
23846
23851
23902
23897
