25853
25856
26009
25934
26075
26135
26138
25860
25980
26029
26058
25925
26179
26214
26237
26200
26395
26289
26305
26243
26444
26331
26487
26441
26342
26608
26393
26678
26484
26685
26572
26758
26804
26625
26810
26803
26758
26593
26802
26940
26899
26734
26832
26809
26806
26873
27036
27080
26907
27015
26974
26932
26926
26981
27258
27177
27055
27219
27043
27247
27128
27186
27411
27294
27250
27325
27324
27476
27312
27304
27346
27492
27470
27452
27487
27308
27465
27360
27399
27386
27697
27473
27547
27539
27480
27645
27727
27612
27555
27863
27684
27790
27805
27852
27902
27724
27991
27773
27852
28121
27916
28036
27946
28108
27981
27929
27886
27779
27872
27614
27807
27799
27503
27303
27254
27170
27196
26944
27082
26868
26737
26825
26664
26619
26597
26571
26289
26446
26509
26153
26349
26284
26284
26086
26268
26174
26135
26137
26083
26004
26073
26032
25983
25947
25988
25944
25821
25945
26034
25987
26064
25982
25997
26119
25933
26240
26216
26139
26222
26158
26375
26484
26248
26258
26540
26482
26556
26547
26418
26347
26554
26583
26525
26692
26539
26747
26849
26687
26767
26735
26578
26723
26748
26771
26795
26978
26836
26973
27015
26916
26911
26878
27044
27122
27080
26954
26975
27205
27255
27298
27221
27126
27255
27261
27142
27166
27395
27353
27495
27342
27178
27398
27394
27398
27515
27345
27536
27571
27427
27563
27561
27569
27490
27663
27624
27489
27650
27724
27721
27764
27635
27612
27544
27700
27821
27815
27534
27725
27826
27598
27435
27440
27332
27395
27237
27111
27052
26985
26917
26816
26899
26834
26740
26721
26455
26363
26368
26501
26408
26161
26374
26101
26113
26186
26190
26240
26002
26059
25957
26083
25942
26054
25938
26128
26103
25979
26113
25926
25988
25937
26212
25927
26103
26102
26103
26195
26167
26137
26246
26238
26316
26383
26363
26312
26390
26489
26369
26507
26474
26574
26527
26591
26789
26719
26660
26613
26525
26528
26752
26816
26856
26673
26823
26947
26832
26881
26796
27005
26992
26763
27045
26966
27069
27082
27069
27110
27081
27030
27263
27085
27133
27105
27227
27119
27137
27163
27234
27103
27087
27299
27270
27322
27358
27166
27251
27258
27334
27262
27343
27341
27440
27270
27439
27461
27601
27477
27470
27529
27402
27597
27654
27541
27735
27559
27680
27736
27774
27556
27524
27781
27827
27700
27614
27780
27616
27850
27759
27875
27754
27911
27961
27866
27714
27888
27670
27649
27532
27675
27491
27579
27378
27268
27307
27065
26804
26861
26630
26652
26494
26500
26528
26474
26427
26279
26300
26121
26192
26062
26127
26096
26070
26182
26135
25939
25928
25912
26014
25765
25970
25982
25755
25726
25971
25986
25968
25786
25778
25881
26061
25945
26010
26103
26130
26165
26149
25995
26255
26062
26144
26149
26246
26429
26261
26466
26330
26420
26517
26345
26384
26464
26362
26433
26407
26482
26469
26534
26610
26556
26642
26601
26543
26708
26609
26500
26717
26617
26623
26689
26681
26553
26702
26765
26828
26566
26752
26697
26731
26822
26765
26917
26938
26814
27027
26912
26925
26962
26768
26970
26810
26967
26912
26947
27139
27172
27234
27079
27171
27146
27010
26993
27067
27019
27084
27011
27213
27263
27100
27226
27379
27236
27328
27213
27286
27279
27357
27318
27317
27406
27356
27340
27436
27266
27271
27237
27100
27028
26990
27015
26844
26666
26770
26606
26715
26426
26526
26397
26200
26320
26179
25956
25887
26022
26075
25991
25773
25812
25662
25834
25571
25731
25637
25735
25779
25758
25531
25630
25428
25700
25564
25413
25505
25384
25553
25445
25530
25505
25604
25501
25613
25693
25588
25739
25850
25927
25623
25903
25825
25939
25969
25982
25976
26039
25779
25954
25998
25926
25949
25915
26128
25909
26032
25866
25979
26132
26016
25947
25997
25908
25995
25940
26155
26090
26098
26234
26070
26192
26015
26130
26005
26206
26138
26128
26141
26339
26186
26218
26294
26269
26426
26133
26185
26213
26410
26200
26424
26418
26409
26457
26363
26606
26615
26436
26544
26701
26683
26567
26675
26736
26563
26805
26775
26809
26648
26910
26707
26691
26991
26836
26942
26809
26738
26969
26812
26777
26785
26783
26592
26528
26348
26263
26290
26080
26028
25952
26058
25817
25949
25754
25523
25517
25580
25528
25316
25582
25372
25339
25456
25496
25460
25154
25094
25186
25367
25109
25191
25311
25307
25303
25347
25031
25159
25134
25275
25258
25085
25193
25319
25267
25385
25323
25399
25384
25554
25487
25428
25629
25438
25443
25660
25559
25689
25701
25779
25830
25674
25895
25673
25912
25895
25626
25735
25729
25790
26006
25975
25853
26040
26102
26078
26068
25908
26045
26173
26015
26114
26002
26105
26008
26020
26111
26091
26039
26160
26050
26186
26348
26109
26054
26296
26437
26202
26338
26167
26327
26348
26411
26492
26381
26490
26398
26505
26493
26276
26407
26298
26437
26343
26636
26674
26667
26670
26577
26651
26743
26705
26791
26645
26546
26770
26577
26604
26776
26696
26818
26621
26762
26886
26683
26467
26618
26360
26526
26373
26292
26066
26105
25882
25859
25877
25671
25636
25461
25367
25574
25322
25382
25360
25188
25140
25342
25237
25260
25227
25236
24971
25104
25091
25153
24989
25067
25104
24909
25005
24947
24911
25021
25142
25093
25140
24987
25008
25122
25141
25208
25265
25168
25245
25440
25394
25549
25348
25314
25481
25537
25632
25409
25481
25565
25740
25645
25466
25563
25690
25591
25710
25772
25753
25606
25598
25633
25748
25899
25774
25943
25851
25784
25969
25818
25937
25885
26012
26102
26139
26185
26019
26114
26199
26076
25917
26194
26085
26097
25976
26211
26010
26238
26219
26263
26406
26371
26164
26354
26291
26261
26180
26494
26514
26345
26370
26583
26387
26519
26381
26346
26432
26441
26542
26534
26722
26439
26583
26646
26521
26624
26578
26666
26620
26592
26501
26302
26306
26114
26012
26062
25880
25942
25691
25755
25651
25485
25424
25536
25269
25211
25227
25280
25145
25222
25085
25148
24944
24985
25078
25014
25096
24952
24920
24911
24991
24875
24802
24927
24879
24834
24970
25083
24898
24979
24943
24915
25096
25081
25017
24998
25073
25001
25309
25157
25202
25302
25414
25382
25453
25376
25535
25297
25315
25551
25581
25369
25616
25520
25463
25590
25635
25363
25442
25669
25589
25455
25542
25542
25727
25595
25660
25656
25638
25709
25764
25667
25735
25832
25715
25839
25940
26004
25820
25950
25988
25848
25962
26089
26143
26148
25855
25915
26148
26098
26046
25968
26073
26219
26063
26059
26212
26145
26353
26208
26387
26281
26158
26418
26198
26432
26321
26450
26513
26450
26323
26509
26443
26477
26547
26462
26540
26503
26512
26347
26575
26694
26518
26713
26600
26504
26514
26400
26503
26270
26320
26381
26308
26277
25953
25715
25913
25836
25706
25464
25374
25431
25413
25368
25411
25237
25084
25198
25086
24964
24976
24892
24868
24711
24777
24957
24764
24887
24867
24885
24861
24663
24648
24899
24872
24647
24897
24775
24794
24693
24621
24885
24645
24776
24941
24749
24912
25018
24981
25113
24959
24869
25053
24947
25118
25017
25138
25313
25258
25366
25196
25110
25114
25136
25224
25162
25315
25171
25249
25209
25346
25384
25348
25238
25308
25218
25257
25260
25514
25540
25547
25330
25566
25620
25414
25623
25421
25684
25712
25654
25525
25645
25572
25842
25606
25569
25753
25657
25768
25676
25854
25845
25825
25772
25727
25813
25964
25837
25905
25859
25962
25942
25968
26090
26012
26131
26028
26155
25955
25994
26018
26212
26156
25958
26085
26016
26340
26219
26276
26272
26371
26312
26314
26316
26291
26386
26375
26307
26295
26233
26130
26110
26018
25973
25849
25833
25716
25487
25501
25319
25346
25213
25145
25051
25068
25034
24970
24931
24874
24835
24859
24822
24769
24762
24682
24687
24680
24732
24761
24634
24780
24662
24462
24487
24570
24693
24520
24373
24515
24629
24527
24527
24580
24634
24628
24635
24690
24614
24636
24739
24953
24759
24811
24806
24914
24964
24801
25025
25044
24783
24943
24863
24934
25106
25007
24978
25199
24900
25038
25030
25218
25260
25303
25244
25296
25360
25230
25330
25212
25388
25432
25447
25166
25394
25276
25251
25443
25313
25409
25364
25420
25242
25393
25229
25369
25583
25456
25282
25451
25280
25424
25406
25479
25457
25520
25467
25537
25536
25553
25518
25590
25630
25636
25614
25607
25619
25731
25634
25739
25713
25684
25742
25735
25740
25661
25695
25922
25763
25833
25855
25750
25862
25846
25897
25795
25845
25885
25832
25706
25725
25725
25660
25523
25420
25402
25389
25160
25049
25035
24886
25012
24925
24826
24772
24685
24549
24549
24454
24502
24523
24412
24306
24347
24330
24268
24224
24235
24173
24191
24163
24308
24095
24169
24154
24180
24136
24188
24209
24018
24068
24153
24181
24072
24190
24444
24397
24313
24386
24477
24381
24449
24348
24423
24563
24458
24406
24415
24396
24504
24575
24802
24666
24481
24698
24824
24708
24708
24652
24665
24785
24703
24821
24752
24742
24748
24789
24840
24830
24799
24712
24783
24885
24893
24897
24794
24944
24793
24811
24944
24841
24905
24882
25103
24894
25038
24915
25082
25112
24953
24871
24937
24869
25051
25062
25153
25173
25177
24865
24971
25185
25104
25200
25024
24946
25046
24994
25118
25050
25071
25167
25098
25087
25214
25174
25223
25153
25035
25211
25360
25157
25366
25307
25338
25273
25362
25336
25375
25219
25294
25302
25395
25222
25233
25144
25108
25214
24930
24829
24785
24857
24614
24679
24476
24459
24525
24363
24382
24191
24262
23997
24103
24082
23987
23840
23943
23715
23841
23781
23722
23641
23804
23828
23597
23622
23746
23625
23731
23574
23568
23631
23510
23780
23732
23629
23813
23740
23771
23787
23937
23776
23881
23768
23815
24022
23894
23850
23948
23846
23950
24135
24017
23952
24133
24120
24206
23995
24188
24245
24145
24183
24140
24182
24351
24292
24231
24315
24468
24340
24285
24402
24637
24469
24653
24629
24646
24413
24543
24318
24477
24521
24578
24600
24583
24810
24617
24758
24627
24594
24722
24666
24786
24704
24774
24804
24823
24874
24915
24837
25032
24828
25031
25095
25013
25128
25052
24906
25151
24993
24883
25119
25029
25143
25173
25331
25313
25220
25243
25211
25172
25319
25236
25249
25365
25310
25376
25313
25432
25409
25511
25382
25510
25337
25294
25428
25322
25552
25321
25213
25129
25375
25111
25132
24967
25087
24901
24783
24899
24795
24497
24564
24629
24411
24219
24279
24081
24301
24314
24198
23983
24048
24011
24007
24006
23937
23963
24065
23961
23817
23776
23993
23768
23840
23845
23817
23734
23756
23722
24009
23956
23851
23748
23835
23733
24046
24051
23902
24104
24068
24192
24101
23893
24027
24142
24129
24232
24225
24192
24259
24192
24116
24283
24205
24313
24279
24403
24199
24324
24501
24315
24279
24563
24650
24355
24577
24421
24658
24428
24472
24466
24683
24709
24543
24762
24684
24672
24677
24735
24686
24711
24693
24796
24745
24807
24871
24935
24829
24937
25086
24847
24850
24979
24996
25051
24811
24958
25111
25131
25106
24991
25015
25114
25204
25279
25018
24980
25166
25172
25086
25369
25085
25317
25415
25271
25413
25324
25467
25361
25274
25524
25500
25538
25571
25555
25567
25398
25573
25585
25563
25489
25674
25799
25587
25716
25610
25671
25729
25526
25433
25567
25335
25478
25399
25170
25278
25182
24835
24753
24904
24685
24748
24489
24686
24540
24468
24241
24381
24436
24287
24140
24260
24330
24261
24358
24129
24112
24114
24185
23999
23949
23989
24014
23994
24031
24046
24101
24161
23943
23972
24171
24022
24090
24022
24088
24285
24388
24072
24397
24375
24451
24362
24359
24486
24545
24332
24329
24338
24579
24370
24292
24579
24437
24541
24724
24718
24533
24688
24691
24522
24691
24800
24763
24697
24669
24759
24831
24810
24860
24801
24786
24838
24988
24905
24765
24881
24854
24880
24835
24890
24905
25080
24933
25187
24960
25137
25111
25168
25092
25092
25001
25261
25098
25053
25094
25047
25069
25120
25038
25262
25097
25245
25119
25248
25173
25179
25432
25360
25325
25237
25358
25443
25437
25514
25331
25430
25384
25483
25356
25210
25289
25242
25163
25127
25157
25061
25060
25113
25040
24840
24670
24694
24703
24694
24701
24485
24582
24325
24532
24355
24273
24126
24296
24106
24165
24192
24117
24221
24117
24104
24176
23982
23976
23915
24102
23907
24118
23840
23898
24003
23963
23906
23876
24027
23982
24100
24132
24086
24013
23950
23908
24206
23981
24113
24146
24153
24272
24027
24284
24189
24268
24071
24151
24112
24306
24272
24171
24387
24320
24203
24261
24456
24448
24336
24321
24446
24561
24480
24351
24640
24473
24717
24564
24442
24612
24770
24723
24800
24699
24575
24737
24629
24695
24840
24649
24631
24847
24641
24734
24622
24959
24999
24728
24930
24848
24869
24908
25032
24825
24917
24929
25037
25013
25123
25101
25104
25127
25134
25147
25289
25206
25133
25226
25217
25225
25360
25314
25349
25225
25292
25328
25470
25500
25308
25349
25298
25369
25333
25393
25315
25287
25512
25578
25458
25627
25450
25388
25713
25642
25759
25527
25501
25683
25834
25741
25586
25616
25525
25710
25449
25407
25439
25246
25330
25259
25099
25156
24964
24921
24791
24573
24726
24682
24383
24281
24465
24344
24087
24301
24356
24199
23938
24171
24169
24109
24060
24045
24061
23816
23870
23700
23912
23695
23900
23957
23906
23736
23690
23918
23834
23701
23677
23752
23785
23770
23927
23819
23848
23879
24063
24011
24098
23911
23856
24037
24029
23971
24122
23993
24256
24319
24062
24316
24101
24340
24308
24145
24138
24118
24192
24116
24363
24321
24400
24198
24129
24254
24193
24266
24565
24512
24514
24546
24336
24491
24508
24533
24620
24457
24681
24559
24695
24710
24573
24808
24664
24622
24692
24783
24746
24575
24661
24658
24813
24669
24888
24781
24948
24902
24811
24918
24718
24886
24766
24839
24886
25027
24805
24908
25121
25080
25015
25134
25225
25208
24998
25082
24986
24967
25003
25245
25055
25259
25310
25265
25287
25191
25335
25125
25360
25338
25226
25269
25535
25293
25375
25339
25392
25466
25218
25297
25199
25069
25063
24867
24900
24951
24769
24591
24615
24489
24456
24549
24380
24223
24298
24183
24210
24152
24149
24057
24060
23955
23901
23843
24003
23892
23992
23882
23960
23819
23760
23882
23753
23783
23739
23670
23594
23692
23698
23572
23691
23755
23689
23592
23725
23885
23638
23806
23858
23895
23755
23947
23996
24014
23835
23912
24148
23993
23888
24160
24116
23972
24027
24168
24091
24271
24106
24227
24156
24017
24176
24079
24143
24044
24081
24189
24237
24411
24150
24152
24375
24320
24138
24210
24120
24229
24145
24374
24135
24266
24446
24365
24405
24277
24335
24558
24503
24604
24404
24332
24542
24512
24602
24756
24686
24682
24600
24643
24614
24787
24613
24793
24701
24713
24808
24829
24772
24806
24869
25069
25000
24933
25158
25276
25242
25242
25118
25132
25080
25259
25028
25256
25065
24923
25024
24955
24945
24856
24769
24708
24715
24511
24582
24388
24400
24262
24192
24116
23863
24054
23789
23784
23907
23944
23896
23793
23590
23700
23573
23690
23557
23539
23523
23387
23707
23422
23530
23421
23652
23687
23627
23467
23633
23589
23521
23496
23466
23512
23619
23615
23509
23728
23600
23703
23694
23585
23725
23644
23802
23754
23841
23657
23816
23755
23736
23840
23928
23920
23727
23909
23783
23899
23962
23967
24122
23881
24054
23913
23876
23945
23957
23946
23942
23976
24063
24199
24048
24131
24285
24075
24067
24157
24294
24410
24254
24453
24294
24200
24411
24408
24322
24403
24427
24422
24394
24473
24609
24486
24451
24553
24596
24547
24456
24722
24719
24440
24532
24745
24747
24640
24764
24671
24793
24611
24860
24819
24641
24773
24943
24840
24740
24764
24956
24980
24778
25052
24819
24929
24876
25054
25193
24985
25107
25077
25235
24971
25141
25092
25191
25315
25244
25338
25263
25337
25065
25121
25186
25017
25072
24873
24904
24687
24518
24489
24470
24467
24218
24181
24053
24201
24175
24097
23965
24037
23761
23822
23646
23771
23615
23826
23571
23586
23626
23631
23423
23674
23593
23610
23444
23335
23376
23329
23508
23238
23297
23460
23187
23287
23193
23386
23462
23347
23250
23370
23538
23523
23478
23462
23580
23509
23598
23753
23709
23665
23643
23823
23543
23765
23720
23719
23748
23710
23700
23876
23637
23873
23900
23903
23901
23782
24012
23972
23842
24104
24082
23995
23893
23890
24005
23817
23941
23847
24072
24005
24050
24067
24012
24021
24209
24050
24205
24203
24266
24215
24127
24218
24035
24232
24220
24341
24240
24141
24271
24408
24213
24169
24463
24445
24336
24153
24260
24338
24300
24395
24425
24371
24317
24419
24560
24372
24455
24533
24668
24523
24303
24622
24664
24668
24409
24583
24735
24529
24594
24783
24737
24725
24730
24537
24707
24792
24659
24567
24793
24765
24514
24474
24435
24353
24323
24260
24168
24082
24043
24042
23956
23854
23727
23811
23634
23772
23690
23436
23610
23430
23558
23589
23491
23568
23441
23393
23319
23154
23277
23380
23251
23165
23154
23254
23093
23253
23036
22857
22874
23171
23014
22825
22937
22903
22962
22963
23052
23037
23044
23052
23252
23223
23161
23330
23277
23054
23267
23136
23394
23161
23346
23526
23455
23489
23372
23462
23273
23437
23605
23494
23553
23466
23520
23518
23485
23593
23640
23621
23692
23736
23737
23559
23604
23601
23579
23838
23825
23889
23810
23904
23806
23660
23897
23690
23931
23851
23902
23987
23786
23863
24002
23972
24074
24026
24141
24022
24173
23963
24053
24202
24088
24127
24043
24206
24076
24186
24104
24351
24207
24128
24236
24157
24243
24153
24409
24159
24390
24212
24320
24477
24274
24380
24276
24500
24313
24583
24533
24423
24571
24688
24461
24525
24687
24575
24767
24773
24742
24746
24609
24668
24465
24531
24422
24247
24236
24252
24142
24095
24183
23987
23929
23852
23614
23733
23610
23682
23668
23543
23633
23597
23527
23373
23346
23413
23212
23424
23350
23129
23302
23090
23229
23067
23267
23241
23130
23130
23238
22992
23287
23174
23085
23330
23223
23205
23220
23307
23368
23205
23133
23246
23496
23375
23325
23470
23577
23393
23327
23583
23507
23397
23553
23400
23575
23479
23619
23498
23662
23727
23531
23744
23728
23708
23597
23777
23697
23842
23930
23699
23705
23718
23952
23889
23724
23910
23884
23735
23730
23758
23916
23948
23888
23820
24013
23870
23868
23923
24094
23867
24139
23990
24127
24112
23974
24052
24013
24017
24243
24106
24227
24172
24240
24098
24005
24135
24076
24250
24051
24054
24155
24300
24274
24403
24417
24199
24448
24292
24427
24565
24327
24451
24282
24287
24172
24434
24283
24295
24247
24187
24159
23945
23940
24063
23999
23867
23777
23657
23664
23729
23723
23612
23554
23312
23454
23357
23451
23388
23231
23160
23273
23181
23128
23210
23329
23151
23147
23089
23023
23067
23141
23138
22937
23099
23056
23112
22963
23019
23138
23261
23132
23032
23114
23311
23189
23179
23349
23153
23452
23298
23499
23339
23355
23429
23401
23610
23641
23407
23412
23506
23470
23676
23703
23587
23390
23494
23725
23650
23614
23814
23617
23845
23765
23895
23752
23608
23715
23780
23948
23936
23823
23841
23963
23922
23995
24043
23958
23959
24071
24077
24193
24150
24215
24110
24254
24070
24302
24272
24332
24400
24124
24245
24320
24335
24287
24425
24207
24500
24407
24221
24320
24261
24468
24299
24431
24511
24550
24449
24647
24528
24516
24429
24358
24602
24563
24682
24545
24693
24626
24463
24762
24707
24488
24689
24613
24578
24758
24896
24721
24788
24708
24838
24702
24765
24768
25005
25036
24820
25002
24744
24874
24723
24701
24693
24336
24395
24415
24207
24314
24266
24204
24024
23879
23981
23704
23813
23733
23502
23574
23678
23453
23399
23533
23396
23449
23289
23377
23092
23001
23054
23211
23009
23029
23043
23061
23113
22817
22769
22738
22764
22851
22759
22766
22953
22871
22702
22908
22761
22990
22791
23019
22971
22970
22937
23143
22996
22927
23011
23117
23099
23097
23127
23015
23250
23081
23238
23185
23129
23186
23373
23146
23257
23204
23088
23199
23271
23170
23150
23206
23386
23230
23303
23254
23231
23289
23596
23360
23357
23316
23449
23622
23534
23636
23517
23541
23565
23758
23638
23583
23719
23657
23609
23746
23799
23760
23693
23607
23782
23825
23634
23931
23687
23680
23658
23967
23963
23804
23740
24087
23956
23970
23995
23842
23934
23861
24026
23873
24142
24028
24029
24091
24054
24200
24145
24147
24144
24145
24222
24259
24249
24309
24396
24322
24126
24293
24247
24275
24309
24354
24234
24272
24154
24229
24087
24004
23933
23833
23797
23822
23719
23532
23418
23466
23586
23343
23439
23149
23203
23249
23073
23038
23193
23168
23089
23045
23056
22981
22864
22878
22998
22803
22858
22862
22851
22775
22894
22682
22825
22793
22637
22778
22645
22865
22820
22861
22778
22706
22947
22852
22755
22885
23020
22917
22915
23017
22980
22991
23055
23065
23096
23077
23096
23240
23118
22953
23125
23100
23144
22954
23068
23032
23120
23221
23172
23158
23231
23120
23135
23187
23397
23246
23433
23451
23232
23455
23372
23452
23404
23407
23450
23324
23567
23589
23535
23669
23690
23747
23803
23676
23598
23610
23829
23702
23893
23931
23950
23777
23908
23834
23774
23932
23911
23847
24049
23837
24008
23957
23977
23867
23928
24162
23892
24192
24074
23897
24112
24066
24131
24180
24283
24222
24355
24344
24260
24307
24430
24484
24517
24405
24544
24349
24536
24534
24409
24477
24543
24252
24437
24218
24111
24235
24183
23979
23951
23836
23724
23872
23638
23739
23698
23543
23523
23359
23517
23276
23186
23330
23220
23276
23347
23120
23079
23149
23009
23262
23146
23021
23076
22921
23032
22869
22993
23148
23089
23036
22891
22792
23008
22839
22974
22933
23092
23021
23121
23076
23154
22978
23207
23234
23294
23243
23354
23124
23081
23326
23218
23165
23245
23202
23418
23266
23364
23305
23338
23298
23351
23273
23381
23290
23248
23232
23510
23542
23368
23451
23429
23441
23385
23516
23391
23542
23465
23510
23561
23575
23648
23605
23718
23615
23640
23714
23694
23884
23744
23602
23690
23566
23740
23856
23836
23683
23623
23900
23873
23905
23897
23659
23908
23769
23915
23873
23945
23936
23803
23917
24050
23837
24041
23940
23864
23910
24168
24061
24112
23963
24138
24017
24114
24144
24176
24153
24071
23975
24211
23904
23889
23986
23716
23892
23809
23700
23705
23626
23347
23462
23542
23254
23415
23318
23288
23257
23047
22991
23115
22922
23076
22955
23014
22834
23071
23070
22806
23029
23018
22744
22766
22917
23021
22812
22607
22890
22620
22710
22942
22779
22603
22870
22674
22760
22855
22781
22957
22904
22809
22755
22951
22785
22952
22984
22876
23037
22910
22926
23098
23030
23067
22916
23189
23145
23258
23087
23117
23226
23046
23297
23114
23343
23354
23167
23206
23225
23376
23196
23183
23459
23407
23241
23370
23261
23526
23506
23486
23270
23480
23372
23556
23513
23437
23480
23608
23481
23609
23601
23446
23590
23691
23589
23435
23696
23541
23815
23807
23601
23849
23897
23733
23809
23902
23654
23734
23901
23947
23989
23823
23783
24092
23874
24101
24093
24138
24025
23916
24123
24173
24169
24089
24127
24076
24251
24297
24228
24272
24276
24285
24271
24314
24307
24373
24360
24411
24352
24460
24318
24337
24455
24456
24338
24293
24193
24151
24131
24040
23988
23890
23867
23788
23683
23630
23528
23549
23467
23329
23372
23274
23350
23136
23184
23126
22960
23166
23021
23087
23055
22999
22974
22939
22883
22873
22731
22794
22771
22779
22734
22703
22817
22692
22690
22591
22740
22567
22765
22578
22705
22707
22744
22713
22842
22769
22736
22750
22821
22875
22853
22895
22880
22908
22871
22957
22978
22887
22915
23190
23066
22910
23065
23014
22954
23198
23144
22987
23135
23252
23267
23071
23165
23170
23140
23316
23331
23403
23224
23352
23424
23426
23335
23403
23351
23582
23467
23384
23343
23640
23548
23502
23515
23466
23512
23502
23666
23703
23633
23622
23611
23703
23649
23682
23656
23767
23914
23800
23816
23803
23671
23925
23769
24025
23753
24065
23839
24003
23898
24158
24062
23895
23877
24109
23994
23950
24018
23981
24211
24285
24188
24092
24172
24372
24144
24338
24293
24236
24508
24363
24385
24456
24507
24246
24123
24323
24152
24221
24149
24161
23964
23874
23828
23723
23737
23665
23492
23373
23484
23449
23382
23251
23193
23219
23063
22954
22908
22918
22924
22860
23019
22769
22815
22883
22800
22718
22857
22957
22842
22959
22899
22825
22835
22967
22837
22811
22886
22912
22885
22815
22794
22866
23003
22896
22953
23075
22850
22968
23191
23121
23102
23063
23092
23152
22927
23241
23270
23034
23070
23069
23238
23129
23129
23096
23325
23215
23345
23454
23329
23214
23274
23263
23467
23545
23423
23566
23307
23557
23655
23477
23496
23464
23444
23562
23564
23657
23802
23770
23755
23770
23583
23480
23606
23563
23599
23841
23599
23619
23790
23564
23653
23587
23860
23746
23696
23739
23646
23755
23983
23902
23920
23838
23939
23909
24075
24093
24102
24051
24055
24012
23985
23894
23970
24072
24139
23980
24062
24125
24086
23960
23956
23945
23877
23599
23597
23729
23597
23385
23373
23475
23332
23262
23333
23370
23142
23382
23158
23236
23139
23198
23108
23216
23075
23000
23048
22953
22993
22885
22947
22894
22892
22796
22992
22832
22818
22894
22905
22810
23085
22845
22778
22938
22938
22872
23078
23115
22972
23054
22998
23111
23207
22976
23230
23205
23017
23033
23097
23068
23085
23246
23226
23335
23153
23352
23287
23236
23176
23169
23249
23374
23199
23286
23507
23346
23265
23412
23579
23488
23413
23485
23547
23531
23432
23548
23638
23735
23605
23487
23616
23493
23726
23565
23611
23708
23677
23732
23575
23625
23769
23804
23901
23710
23834
23746
23977
23843
23757
23842
23721
24067
24108
23866
24139
23874
24105
24227
24054
24125
24064
24271
24248
24178
24212
24032
24319
24197
24233
24301
24237
24326
24238
24397
24325
24409
24160
24206
24151
24205
24225
24276
24321
24510
24453
24570
24468
24648
24487
24444
24512
24566
24486
24561
24496
24391
24368
24300
24262
24142
24250
24046
24037
23962
24033
23796
23597
23573
23458
23551
23304
23551
23358
23428
23377
23255
23283
22930
23111
23042
23022
22867
23037
22797
23014
22913
23043
22979
22993
22800
22763
22885
22646
22816
22876
22852
22618
22701
22647
22886
22754
22745
22796
22785
22847
22857
22855
22996
22978
22930
22954
23027
22999
22855
22972
22870
22956
23176
23032
23162
22984
23051
23005
23030
23244
23279
23192
23135
23224
23277
23443
23477
23297
23410
23334
23544
23387
23594
23352
23358
23533
23610
23410
23515
23468
23592
23514
23482
23623
23564
23609
23612
23525
23738
23812
23753
23618
23781
23695
23605
23658
23695
23774
23694
23892
23744
23729
23732
23799
23802
23794
23815
24043
23805
24014
24123
23973
24005
24055
24113
24119
24105
24004
24053
24128
24164
24114
24132
24205
24189
24072
24133
24278
24311
24175
24199
24372
24410
24281
24136
24250
24134
24138
24263
24172
24227
23980
24152
23968
23748
23914
23894
23533
23480
23397
23439
23223
23427
23289
23192
23360
23316
23219
23245
23204
22954
23091
22881
22924
22936
23007
23040
22983
22823
22980
22695
22910
22829
22681
22845
22925
22844
22834
22803
22805
22844
22714
22811
22663
22984
22933
22970
22962
22866
22956
22848
22983
23114
23108
22956
23098
23138
23146
23040
23138
23077
23219
23256
23195
23234
23180
23265
23204
23339
23194
23245
23116
23311
23204
23440
23383
23248
23492
23393
23214
23386
23333
23526
23506
23465
23574
23501
23479
23337
23542
23298
23639
23388
23521
23573
23436
23454
23508
23646
23818
23746
23577
23626
23573
23725
23593
23658
23637
23779
23740
23617
23865
23698
23829
23699
23866
23664
23775
23631
23829
23828
23922
23717
23784
23869
23816
24001
23922
23858
24173
24111
24035
24071
24013
24075
24164
24174
24216
24154
24027
24029
24179
23970
24138
23935
23948
23961
23797
23707
23636
23593
23607
23559
23483
23230
23436
23394
23092
23298
23218
23169
22935
22981
23034
22878
22886
22963
22961
22818
22677
22893
22700
22769
22772
22800
22606
22743
22608
22840
22762
22717
22797
22721
22754
22662
22669
22573
22687
22557
22643
22756
22675
22753
22674
22837
23015
22850
22934
22913
23018
23086
22885
23045
22839
23080
22972
22907
23145
22959
23008
23154
23061
23061
23270
23153
23175
23443
23393
23431
23434
23369
23398
23474
23265
23317
23496
23485
23346
23535
23621
23587
23586
23531
23570
23598
23599
23618
23486
23468
23606
23754
23641
23565
23637
23659
23589
23543
23772
23783
23869
23675
23588
23625
23578
23681
23920
23798
23874
23886
23683
23790
23811
23960
23807
23891
23978
24100
23993
24161
23962
24100
24004
24289
24030
24186
24073
24188
24329
24273
24412
24318
24332
24236
24243
24450
24237
24286
24177
24365
24164
24146
24088
24127
24225
24124
23946
23957
23902
23900
23712
23662
23624
23533
23591
23584
23330
23393
23454
23410
23113
23201
23274
23161
23030
23031
22895
23001
22882
22980
22821
22822
22850
22831
22887
22985
22880
22958
22926
22937
22737
22667
22819
22879
22769
22889
22841
22776
22709
23002
23027
23025
22848
23097
23023
22882
23074
23138
22916
23206
23088
23235
23216
23270
23080
23091
23291
23171
23319
23269
23183
23031
23176
23251
23325
23147
23189
23144
23356
23397
23496
23217
23259
23475
23513
23395
23566
23397
23338
23454
23382
23610
23649
23537
23471
23697
23737
23632
23651
23585
23685
23712
23586
23844
23822
23844
23850
23737
23853
23676
23752
23698
23771
23754
23693
23719
23823
23850
23832
23954
23743
23942
24069
23858
23831
23947
24085
23867
23992
23969
23987
23987
24024
24029
24009
23978
24023
24078
24307
23985
24138
24187
24277
24075
24355
24175
24050
24022
23846
23930
23748
23893
23618
23708
23520
23448
23605
23322
23392
23443
23200
23305
23100
23266
23041
23061
23105
22910
23115
23038
23071
22809
22791
22962
22762
22932
22811
22719
22761
22854
22742
22603
22834
22844
22842
22793
22545
22828
22599
22872
22755
22655
22827
22862
22846
22924
22856
23043
22948
22959
22998
22921
22983
22876
23059
23075
22908
23071
22962
23068
23024
23153
22947
23087
23238
23119
23240
23261
23310
23163
23230
23337
23117
23274
23382
23353
23424
23230
23400
23390
23413
23360
23336
23271
23455
23508
23529
23493
23348
23592
23581
23563
23542
23675
23702
23557
23545
23520
23574
23567
23739
23806
23744
23620
23748
23762
23792
23948
23833
23947
23923
23813
23919
23985
23919
23956
23815
23791
24004
24063
23876
23945
23979
23919
23944
24201
24101
23986
24037
24155
24239
24304
24185
24362
24135
24352
24247
24362
24360
24079
24123
24143
24242
24152
24219
24026
23858
24124
24032
23871
23673
23734
23729
23643
23495
23330
23368
23259
23320
23184
23152
22952
23009
23023
22931
23051
22902
22694
22888
22822
22831
22620
22585
22571
22526
22518
22699
22474
22497
22605
22532
22583
22496
22447
22460
22523
22505
22509
22445
22554
22448
22539
22450
22678
22625
22575
22711
22802
22683
22595
22750
22710
22756
22761
22791
22727
22820
22780
22840
22826
22864
22879
22900
22945
22979
22988
22859
22884
22936
23058
23022
23002
22907
23212
23225
23165
23049
23174
23277
23237
23102
23092
23214
23239
23337
23241
23330
23519
23198
23348
23392
23495
23535
23484
23270
23523
23514
23488
23412
23626
23527
23599
23528
23490
23641
23748
23666
23609
23676
23861
23711
23705
23672
23663
23893
23752
23757
23862
23730
23882
23920
23829
24038
23868
24029
23890
23863
23899
23917
24005
23937
24009
24021
24227
24255
24110
24088
24062
24054
23975
24019
24010
23971
24054
23987
23638
23587
23711
23384
23474
23289
23354
23230
23191
23188
23125
22930
23110
23015
23045
22912
22848
22898
23010
22813
22899
22714
22690
22749
22541
22656
22651
22750
22623
22505
22500
22492
22708
22507
22575
22459
22648
22635
22626
22522
22480
22588
22642
22673
22661
22720
22764
22568
22695
22687
22531
22710
22738
22782
22645
22772
22844
22779
22960
22847
22964
22842
22962
22847
22888
23071
22924
22914
22978
22917
23118
23246
23167
23066
23122
23232
23128
23214
23309
23253
23137
23177
23196
23335
23365
23253
23212
23436
23222
23510
23450
23254
23514
23339
23372
23454
23374
23559
23576
23643
23524
23705
23576
23679
23631
23603
23561
23656
23495
23620
23636
23695
23567
23725
23785
23753
23675
23899
23875
23685
23725
23739
23776
24022
24000
23914
23828
24085
24014
24105
24028
24082
24287
24048
24110
24090
24304
24207
24274
24176
24099
24004
24033
23978
23775
23872
23716
23745
23682
23675
23498
23494
23521
23468
23157
23159
23042
23301
22997
23037
23087
23026
22886
22968
22815
23020
22988
22866
22949
22871
22789
22785
22802
22643
22768
22654
22673
22583
22483
22582
22592
22582
22607
22565
22627
22604
22657
22667
22705
22833
22762
22688
22841
22679
22852
22985
22890
22833
22911
23004
22983
23089
22844
23000
23058
22981
22905
23000
22942
22930
22930
23116
22876
22887
22921
22932
23164
23042
23157
23193
23078
23197
23097
23052
23209
23098
23101
23352
23246
23316
23303
23360
23524
23299
23346
23337
23531
23407
23467
23458
23581
23556
23419
23479
23392
23495
23629
23468
23703
23583
23469
23664
23670
23638
23484
23540
23560
23736
23563
23784
23633
23598
23616
23758
23945
23820
23713
23853
23731
23908
23965
23775
23819
23729
23781
23855
23669
23855
23658
23638
23552
23469
23462
23220
23188
23183
23236
22930
22959
23099
22959
23008
23055
22885
22669
22789
22897
22695
22798
22593
22510
22638
22430
22669
22530
22600
22569
22591
22450
22462
22444
22387
22347
22422
22344
22469
22442
22287
22442
22365
22365
22484
22537
22444
22454
22474
22668
22529
22511
22764
22705
22716
22770
22780
22586
22590
22761
22830
22579
22563
22666
22791
22755
22623
22682
22722
22876
22886
22927
22801
22827
22901
22910
22852
22858
22890
22830
22869
22868
22976
22954
22922
23058
23043
23007
23066
23195
23151
23297
23043
23179
23242
23180
23153
23127
23382
23302
23396
23192
23182
23355
23294
23299
23286
23336
23350
23256
23446
23437
23348
23339
23449
23520
23356
23341
23387
23475
23546
23442
23330
23528
23636
23528
23361
23564
23719
23655
23694
23583
23616
23786
23664
23630
23612
23587
23778
23909
23708
23905
23742
23687
23745
23835
23803
23953
23766
23992
23723
23777
23740
23817
23609
23703
23534
23588
23443
23425
23305
23335
23260
23053
23037
23154
23039
23053
22841
22973
22815
22584
22614
22583
22684
22458
22499
22385
22383
22605
22552
22503
22461
22447
22539
22455
22323
22299
22323
22419
22380
22468
22283
22240
22280
22196
22357
22281
22439
22470
22324
22401
22293
22407
22365
22391
22420
22352
22553
22340
22341
22564
22559
22490
22363
22542
22636
22633
22463
22670
22568
22539
22811
22576
22753
22831
22571
22622
22549
22743
22562
22788
22677
22876
22817
22681
22970
22735
22834
22809
22911
22987
22850
22927
22840
22930
22959
22958
22930
23012
22975
23134
22997
22933
22916
23031
23090
23235
23214
23111
23138
23259
23183
23183
23286
23127
23311
23349
23159
23118
23385
23229
23425
23120
23492
23263
23410
23204
23270
23192
23288
23237
23322
23355
23304
23418
23619
23661
23518
23461
23631
23651
23664
23718
23571
23631
23709
23569
23652
23658
23739
23566
23662
23558
23390
23470
23340
23357
23314
23160
23047
23174
23249
23117
23113
22997
22726
22795
22730
22983
22751
22834
22656
22699
22696
22553
22594
22665
22792
22632
22715
22660
22698
22409
22722
22595
22658
22597
22658
22517
22683
22577
22379
22645
22458
22589
22529
22652
22616
22622
22626
22813
22791
22625
22800
22834
22881
22891
22956
22685
22953
22960
23031
22856
22913
23005
23058
22926
23051
22899
22849
22932
22926
23045
22851
22897
22897
23023
22968
23143
23121
22972
23104
23194
23043
22936
23058
23253
23216
23005
23139
23338
23152
23301
23362
23120
23355
23227
23103
23253
23127
23194
23231
23266
23414
23290
23449
23463
23251
23231
23524
23548
23328
23578
23490
23535
23505
23470
23438
23323
23637
23444
23414
23534
23690
23484
23698
23480
23524
23687
23549
23743
23705
23568
23520
23735
23754
23652
23430
23560
23423
23545
23326
23107
23260
23220
23181
23040
22931
22998
22903
22848
22753
22706
22632
22753
22616
22773
22484
22714
22583
22576
22736
22679
22400
22568
22639
22563
22620
22411
22494
22444
22516
22523
22595
22483
22610
22526
22615
22700
22658
22507
22748
22767
22776
22561
22721
22836
22681
22806
22732
22854
22706
22779
22790
22931
22719
22859
22897
22881
22942
22881
22932
23028
22987
23008
22998
22892
22979
22876
23021
23308
23094
23091
23171
23336
23322
22973
23222
23365
23158
23385
23290
23195
23177
23269
23443
23244
23384
23538
23330
23353
23504
23494
23495
23326
23450
23433
23545
23680
23655
23602
23574
23549
23583
23826
23879
23893
23691
23712
23661
23822
23853
23906
23799
23821
23882
23904
24039
24050
23926
23848
23814
24150
23926
24044
23924
23941
24097
23871
24015
23975
24168
24159
24188
24263
24126
24442
24446
24370
24486
24315
24534
24426
24331
24379
24547
24537
24268
24292
24300
24205
24195
24002
23969
24088
23843
23929
23739
23597
23607
23552
23367
23326
23330
23412
23032
23018
22943
23098
23155
23106
23075
23030
22904
22846
23076
22764
22904
22782
22851
22701
22726
22802
22629
22508
22662
22480
22651
22713
22546
22653
22769
22508
22533
22810
22551
22551
22737
22842
22768
22824
22803
22839
22846
22782
22961
22945
22963
22936
22903
22901
22925
23108
23075
22875
23057
23227
23015
23123
23003
23204
23070
23308
23268
23148
23087
23026
23335
23141
23155
23217
23313
23158
23060
23246
23204
23321
23305
23118
23199
23117
23140
23249
23476
23237
23292
23257
23304
23244
23243
23495
23458
23393
23324
23405
23522
23484
23554
23463
23630
23466
23612
23556
23474
23528
23708
23615
23366
23473
23490
23523
23436
23698
23623
23786
23725
23804
23748
23584
23717
23679
23902
23683
23726
23717
23928
23984
23943
23981
23874
24097
23865
24087
24065
24119
23871
23909
23747
23935
23814
23572
23488
23592
23335
23222
23299
23396
23231
23155
22916
23023
22856
22917
22831
22611
22685
22804
22524
22677
22544
22622
22461
22606
22713
22590
22710
22483
22455
22624
22647
22449
22495
22669
22448
22604
22650
22662
22636
22604
22640
22577
22596
22766
22768
22571
22831
22613
22856
22835
22721
22801
22883
22913
23067
22991
23111
22954
22851
22923
23145
23136
23021
23129
23158
23185
23227
22982
23159
23171
23272
23282
23253
23390
23163
23222
23442
23470
23263
23526
23294
23551
23337
23333
23534
23618
23609
23659
23558
23673
23637
23627
23635
23487
23781
23704
23674
23655
23790
23712
23715
23590
23699
23632
23783
23796
23794
23765
23866
23816
23878
23803
23959
23873
24016
23856
24072
24063
24100
24062
24072
24055
24197
24105
23960
24074
24019
24270
24130
24041
24048
24262
24176
24252
24271
24230
24250
24299
24056
24123
23951
23966
24034
23870
23875
23673
23587
23497
23578
23495
23245
23349
23359
23306
23187
23132
22937
23078
22880
23123
23007
22850
22932
22808
22746
22767
22875
22699
22892
22706
22874
22862
22830
22687
22913
22755
22796
22746
22778
22692
22648
22817
22786
22839
22958
23030
22836
22872
22982
22945
23062
23071
23113
23019
22997
23192
22986
23198
23144
22943
23026
23059
23132
23163
23013
23129
23294
23123
23164
23108
23074
23195
23320
23235
23239
23403
23353
23369
23430
23580
23436
23364
23531
23389
23480
23657
23553
23622
23519
23606
23735
23459
23597
23664
23741
23611
23757
23577
23740
23729
23586
23647
23592
23919
23849
23918
23776
23960
24071
23951
23971
23922
23981
24185
24054
24085
24147
24115
24394
24238
24220
24208
24261
24315
24225
24295
24490
24360
24299
24380
24483
24275
24211
24448
24530
24302
24222
24357
24280
24373
24286
24102
24176
24011
24092
24027
23983
23713
23830
23795
23700
23672
23466
23494
23498
23357
23246
23330
23324
23157
23265
23132
23045
23037
23239
22951
22911
22969
22991
23091
23089
23002
23026
22998
22759
22914
22840
22682
22891
22656
22849
22564
22780
22649
22544
22618
22509
22506
22695
22633
22524
22560
22453
22654
22642
22540
22764
22638
22587
22715
22626
22548
22585
22569
22662
22518
22612
22613
22687
22574
22730
22621
22704
22788
22858
23060
23008
22875
22927
22864
22828
23053
23057
22901
23018
23023
23093
23093
22912
23074
22911
22872
23112
22980
23152
23160
23264
23014
23312
23341
23173
23313
23421
23186
23452
23346
23289
23521
23476
23435
23545
23497
23360
23508
23396
23532
23692
23630
23689
23686
23483
23826
23595
23631
23650
23906
23691
23953
23855
23902
23817
24011
23895
24154
23951
23950
23990
23950
24134
24160
23970
24057
24171
24003
23875
24019
23719
23959
23674
23777
23602
23630
23479
23246
23331
23276
23200
23008
23052
22893
22841
22992
22737
22865
22645
22566
22533
22810
22569
22442
22572
22558
22562
22415
22645
22601
22425
22447
22378
22330
22534
22465
22356
22585
22540
22296
22480
22279
22354
22382
22528
22471
22610
22534
22384
22601
22423
22595
22633
22455
22642
22696
22760
22675
22861
22803
22870
22806
22875
22660
22627
22776
22684
22943
22701
22861
22977
22870
22807
22750
22907
22732
22767
22987
22954
22806
22973
22981
23044
22897
22923
22932
22879
23160
23114
22989
22927
23036
23056
23169
23065
23207
23156
23132
23146
23204
23164
23042
23180
23094
23242
23159
23182
23302
23202
23147
23380
23363
23434
23244
23494
23273
23338
23391
23351
23306
23372
23626
23575
23598
23314
23432
23453
23452
23723
23578
23577
23702
23793
23870
23777
23714
23893
23930
23712
23799
23800
23902
23815
23541
23657
23626
23674
23476
23470
23453
23421
23239
23347
23125
23148
22856
22898
22874
22766
22722
22739
22653
22717
22612
22583
22516
22640
22501
22702
22639
22730
22451
22630
22441
22493
22442
22362
22446
22374
22389
22439
22369
22633
22542
22324
22412
22574
22575
22341
22601
22459
22311
22428
22595
22521
22349
22587
22715
22590
22503
22805
22789
22672
22780
22807
22900
22685
22805
22825
22804
22758
22829
23090
23037
22894
22954
23068
22926
22963
22988
23002
22849
22971
22899
23029
22949
22984
23222
22994
23169
23136
23215
23141
23191
23215
23257
23283
23236
23389
23239
23259
23255
23226
23379
23161
23467
23423
23269
23352
23236
23281
23398
23409
23289
23376
23556
23545
23305
23356
23248
23505
23421
23565
23581
23633
23548
23688
23448
23416
23514
23639
23453
23674
23627
23591
23848
23893
23825
23866
23727
23916
23779
23922
23972
23900
23868
24016
23998
23964
23738
23802
23711
23570
23474
23464
23377
23327
23347
23259
23205
23019
23094
22988
23125
23141
23018
22797
22861
22895
22768
22846
22721
22815
22937
22812
22892
22759
22599
22811
22804
22636
22838
22608
22478
22733
22677
22489
22428
22643
22622
22552
22544
22595
22485
22692
22608
22459
22753
22752
22758
22623
22789
22702
22716
22848
22630
22669
22684
22750
22606
22848
22753
22793
22775
22886
22795
22840
22761
22732
22817
22879
22830
23005
22944
22768
22932
22986
22995
22802
23062
23045
23041
22887
23086
22936
23133
23006
22933
23120
23004
23176
23084
22993
23068
23174
23203
23225
23221
23030
23077
23367
23242
23256
23324
23212
23353
23200
23302
23168
23488
23330
23460
23339
23570
23333
23195
23303
23484
23494
23556
23517
23394
23329
23330
23384
23411
23476
23589
23375
23530
23421
23497
23439
23568
23759
23600
23678
23725
23498
23559
23627
23651
23552
23496
23528
23624
23343
23493
23286
23229
23332
23166
23083
22931
23194
22958
22857
22909
22739
22918
22831
22836
22858
22740
22740
22576
22648
22680
22474
22636
22396
22402
22399
22269
22463
22239
22492
22356
22289
22205
22248
22305
22308
22410
22490
22477
22344
22367
22410
22529
22312
22588
22662
22600
22530
22682
22524
22612
22697
22806
22661
22737
22839
22609
22833
22618
22738
22647
22781
22810
22669
22628
22748
22617
22783
22816
22858
22771
22761
22827
22937
22791
22806
22906
22864
22949
22975
22843
22817
23031
23101
22955
22857
23222
22914
23141
22972
23066
23251
23173
23090
23303
23083
23056
23108
23152
23158
23142
23149
23300
23159
23324
23500
23389
23407
23347
23498
23415
23357
23451
23551
23518
23341
23328
23538
23320
23490
23591
23430
23425
23616
23431
23455
23611
23697
23710
23765
23666
23824
23745
23555
23574
23673
23774
23775
23693
23916
23649
23581
23626
23541
23788
23524
23671
23523
23467
23276
23390
23318
23066
23106
23169
22957
23028
23019
22819
22903
22957
22962
22809
22807
22896
22719
22717
22687
22694
22531
22536
22747
22654
22522
22443
22563
22509
22545
22534
22400
22455
22513
22463
22493
22676
22536
22602
22539
22579
22692
22574
22671
22604
22843
22784
22730
22839
22677
22844
22909
22838
22931
22947
22782
22788
22926
23035
23060
23006
22893
22939
22860
22816
22923
23051
23094
22900
22870
22962
23124
22859
23180
23141
23176
23156
23335
23198
23103
23271
23228
23322
23314
23292
23534
23291
23386
23531
23578
23341
23511
23502
23567
23421
23500
23521
23627
23612
23471
23471
23519
23740
23626
23652
23520
23735
23877
23652
23593
23726
23621
23811
23911
23849
23708
23996
23870
23857
24017
24076
24051
24190
24065
24158
23979
23929
24024
24091
24005
24054
24056
24009
24097
23992
23955
23904
24217
24141
23965
23972
23838
23995
23912
23902
24040
23712
23801
23596
23704
23683
23381
23566
23479
23237
23213
23210
23284
23059
23276
23226
23114
22948
23202
22993
22962
22974
22998
23030
22845
22964
22978
22913
22819
22966
22996
22869
22906
22921
22803
22780
23007
22992
22825
23070
22882
22964
23086
22991
23052
22882
23001
23204
23029
23077
23205
23137
23017
23262
23096
23184
23279
23112
23240
23275
23047
23194
23192
23155
23176
23120
22997
23113
23177
23055
23307
23265
23202
23059
23251
23213
23301
23223
23185
23248
23257
23228
23149
23242
23221
23218
23301
23237
23282
23221
23330
23320
23107
23239
23251
23158
23229
23320
23328
23168
23479
23285
23307
23360
23343
23274
23357
23225
23327
23502
23384
23544
23441
23499
23396
23448
23472
23555
23505
23566
23718
23560
23771
23767
23626
23606
23614
23807
23703
23849
23669
23538
23730
23742
23651
23465
23611
23464
23312
23552
23298
23464
23179
23389
23237
23085
23057
23154
23231
23156
23276
22994
23035
22944
23133
23025
23164
22878
22884
22939
22978
23032
23060
23124
23030
22932
22924
22834
22924
23073
22899
22878
22957
23063
22902
23050
23182
23113
23018
23088
23210
23113
23222
23122
23251
23342
23301
23157
23183
23366
23410
23179
23266
23411
23386
23566
23421
23393
23607
23632
23617
23611
23469
23743
23482
23568
23861
23675
23801
23617
23915
23714
23598
23808
23721
23835
23935
23736
23983
23932
23882
24063
23976
23996
23933
24100
23897
24097
24052
23907
24072
23978
24130
24033
24075
24133
24032
23960
24099
24044
23975
24119
24182
24008
23868
24027
24091
24175
24088
24152
24179
24160
24062
24166
24153
24259
24101
24163
24198
24116
24155
24186
24110
24144
24181
24252
24226
24257
24414
24315
24461
24241
24431
24308
24261
24178
24191
24270
24398
24156
24191
24244
23964
23930
23802
23948
23791
23561
23702
23610
23428
23678
23445
23371
23477
23263
23201
23353
23419
23253
23098
23303
23096
23227
23377
23206
23232
23153
23197
23225
23152
23181
23109
23020
23125
23079
23244
23142
23264
23182
23335
23341
23314
23421
23262
23181
23429
23483
23261
23225
23470
23323
23396
23293
23262
23494
23392
23370
23428
23359
23392
23475
23477
23319
23455
23560
23515
23425
23516
23583
23569
23541
23690
23676
23564
23707
23673
23574
23759
23790
23828
23594
23732
23750
23635
23661
23781
23783
23939
23708
23749
23888
23956
23940
23831
23971
23881
23909
23847
24017
23953
23970
24147
24001
23942
24146
23991
24199
23971
24073
24093
24176
24325
24146
24115
24287
24231
24240
24252
24350
24237
24312
24269
24362
24299
24390
24217
24307
24214
24138
23951
24146
24062
23981
23714
23696
23838
23635
23717
23673
23379
23456
23320
23419
23309
23294
23369
23255
23445
23095
23265
23219
23099
23267
23131
23259
23064
22927
22994
23040
23075
22957
22967
23104
22963
23079
23148
23146
22910
23041
23218
23139
23143
23146
23176
23218
23021
23141
23307
23152
23137
23335
23299
23299
23390
23254
23254
23395
23447
23439
23295
23215
23267
23377
23427
23594
23513
23367
23619
23451
23689
23482
23569
23484
23415
23602
23451
23511
23556
23688
23712
23586
23784
23747
23723
23819
23664
23713
23707
23739
23661
23866
23874
23956
23797
23804
23924
24019
23955
23924
24035
24025
23776
24016
24003
24100
24059
24043
23884
24132
23801
23972
23977
23943
24097
23950
24080
24187
24142
23983
24140
24185
24211
24156
24126
24212
24154
24276
24350
24262
24220
24234
24398
24355
24432
24317
24229
24468
24289
24456
24286
24215
24310
24128
24230
24313
23962
24099
23940
23753
23900
23787
23734
23653
23452
23360
23541
23515
23301
23152
23079
23148
23056
23192
23252
23061
22871
22949
23123
22920
22901
22859
22844
22869
22841
22974
22847
22965
22779
22924
22828
22695
22775
22736
22915
22725
22902
22826
22697
22783
23042
22982
23021
22948
23066
22979
23113
23043
22924
22898
22948
23183
23166
23092
23227
23091
23336
23123
23324
23157
23097
23084
23246
23150
23315
23190
23362
23495
23439
23296
23280
23291
23419
23322
23515
23406
23554
23573
23482
23552
23381
23565
23504
23466
23583
23645
23701
23740
23630
23845
23679
23530
23766
23663
23831
23665
23772
23663
23646
23823
23600
23768
23784
23752
23946
23845
23656
23698
23950
23804
23742
23868
24043
23933
23884
24074
24110
24093
23965
24103
24153
24235
24154
24211
24103
24291
24203
24147
24251
24178
24160
24117
24083
23992
24035
23864
23670
23738
23805
23604
23471
23399
23572
23452
23318
23098
23056
23313
22949
23015
22979
22830
23041
22838
22859
22765
22979
23006
22869
22730
22821
22737
22705
22753
22773
22699
22686
22671
22726
22705
22559
22731
22520
22705
22692
22560
22661
22564
22564
22793
22750
22844
22590
22779
22659
22910
22800
22960
22833
22727
22973
22974
22780
22902
23010
23059
23027
23067
23073
22992
22843
22944
22986
23028
22907
22998
22978
23240
23043
23139
23208
23183
23187
23310
23277
23281
23264
23383
23255
23148
23379
23388
23402
23364
23203
23330
23363
23420
23549
23375
23401
23294
23475
23312
23316
23474
23451
23337
23492
23665
23383
23602
23475
23512
23562
23662
23429
23547
23503
23526
23532
23468
23587
23365
23722
23769
23754
23802
23671
23640
23834
23859
23911
23687
23681
23848
23914
23868
23896
23807
23887
23793
23830
24000
23842
23709
23770
23819
23680
23530
23552
23498
23486
23293
23384
23283
23365
23175
23257
22968
22990
22859
22989
23029
22910
22760
22984
22950
22693
22718
22730
22563
22621
22548
22577
22622
22572
22788
22478
22411
22732
22465
22504
22456
22792
22550
22514
22702
22699
22635
22737
22691
22875
22795
22772
22815
22570
22827
22778
22634
22874
22763
22725
22801
22883
22830
22911
22775
22905
22932
22915
22998
22870
22801
22886
22901
23087
22924
23039
23016
22861
22996
23146
23067
23090
23053
23122
23104
23101
23014
23235
23267
23136
23283
23247
22978
23237
23124
23073
23314
23196
23317
23322
23275
23110
23182
23110
23088
23419
23257
23221
23260
23465
23502
23293
23279
23288
23492
23278
23411
23491
23576
23446
23642
23483
23415
23508
23365
23529
23514
23554
23545
23544
23525
23548
23575
23612
23640
23668
23690
23861
23762
23653
23780
23502
23664
23672
23484
23447
23354
23316
23390
23121
23241
23094
23193
23070
23092
22872
22829
22745
22965
22840
22662
22753
22717
22606
22595
22585
22571
22502
22612
22512
22530
22409
22502
22672
22518
22572
22529
22470
22435
22560
22641
22602
22573
22594
22614
22527
22602
22434
22692
22590
22445
22618
22525
22731
22578
22511
22594
22538
22655
22873
22787
22765
22765
22782
22841
22639
22867
22946
22725
22939
22833
22822
22996
22824
22796
23019
23057
23069
22955
22882
23141
23030
23068
23026
22923
23201
23074
23156
23018
23015
23069
22979
23234
23159
23265
22987
23307
23140
23296
23171
23202
23277
23165
23268
23382
23284
23230
23420
23274
23457
23357
23347
23387
23319
23380
23252
23484
23261
23384
23485
23362
23476
23534
23600
23533
23247
23464
23526
23401
23540
23602
23549
23537
23488
23492
23589
23485
23521
23738
23611
23577
23538
23670
23536
23700
23611
23525
23520
23427
23577
23439
23229
23204
23290
23123
23001
22893
23137
22847
22706
22858
22772
22650
22594
22753
22604
22665
22393
22567
22389
22407
22266
22265
22448
22315
22169
22393
22343
22131
22388
22381
22154
22211
22152
22201
22290
22199
22172
22271
22323
22485
22372
22292
22366
22510
22432
22292
22425
22413
22518
22549
22519
22520
22619
22571
22745
22643
22736
22610
22792
22639
22649
22574
22817
22718
22630
22863
22921
22731
22725
22862
22765
22709
22763
23053
22947
23020
22886
23093
22877
22846
22887
23025
23005
23009
22918
22984
23265
23149
23108
23081
23083
23237
23220
23298
23207
23318
23328
23326
23312
23455
23464
23463
23275
23231
23490
23447
23312
23553
23417
23523
23558
23538
23466
23244
23531
23484
23345
23394
23569
23472
23248
23400
23339
23450
23432
23292
23462
23490
23562
23448
23567
23294
23582
23666
23549
23301
23391
23636
23402
23206
23463
23173
23302
23310
23029
22974
23096
22812
22849
22849
22658
22688
22592
22486
22490
22354
22322
22556
22455
22470
22289
22410
22280
22175
22261
22340
22281
22251
22242
22137
22143
22262
22007
22197
22142
22082
22002
22154
22308
22098
22326
22237
22174
22274
22236
22293
22258
22180
22243
22330
22362
22281
22217
22373
22418
22528
22465
22327
22455
22252
22431
22392
22337
22514
22575
22619
22470
22534
22504
22464
22386
22528
22526
22613
22403
22610
22403
22529
22664
22744
22566
22768
22495
22608
22612
22793
22767
22880
22719
22675
22734
22644
22701
22853
22738
22826
22829
22677
22998
22839
22954
22812
22806
23017
22898
22921
22940
23083
22779
22891
23024
22926
23161
23144
23046
23162
23133
22960
23187
23239
23115
23084
23067
23223
23290
23262
23205
23283
23103
23196
23294
23184
23349
23150
23377
23355
23141
23286
23383
23249
23131
23278
23273
23221
23072
23079
23132
23096
22985
22946
22733
22698
22791
22622
22551
22558
22493
22401
22525
22436
22359
22290
22466
22273
22071
22149
22353
22231
22053
22212
22191
22020
22159
22246
22063
22040
22076
22015
22161
22021
22061
22231
21940
22069
22205
22208
22177
22230
22068
22301
22239
22262
22131
22227
22294
22239
22278
22271
22313
22296
22153
22281
22203
22401
22243
22223
22294
22506
22376
22254
22392
22521
22433
22411
22476
22411
22462
22485
22626
22524
22505
22517
22498
22619
22411
22525
22623
22586
22673
22563
22630
22762
22583
22757
22618
22843
22719
22609
22750
22888
22744
22933
22730
22916
22753
22999
23002
22934
22979
22832
22794
22890
23041
22957
22993
22860
22844
22983
22956
23052
22951
23113
23007
23128
23111
23244
22987
23039
23102
23327
23267
23201
23325
23177
23323
23238
23458
23276
23486
23211
23490
23439
23382
23352
23424
23260
23283
23202
23279
23083
22994
22979
23026
23019
22828
22799
22825
22530
22551
22633
22500
22310
22435
22296
22205
22147
22342
22168
22165
22238
22145
22115
22045
22070
22211
21967
22017
21920
22122
22005
21863
21959
21800
21961
21778
21921
21760
21764
21983
22019
21920
21932
21833
22048
21873
21825
21869
21881
22132
22209
22148
21897
22115
22036
21955
22106
22269
22246
22282
22103
21990
22154
22163
22163
22317
22333
22153
22273
22260
22190
22317
22235
22344
22182
22358
22385
22463
22227
22408
22497
22263
22528
22407
22313
22509
22331
22454
22490
22542
22568
22632
22455
22520
22479
22594
22539
22722
22631
22767
22690
22602
22702
22707
22752
22770
22723
22727
22615
22655
22749
22890
22884
22964
22927
22638
22809
22717
22835
22980
22850
22835
22839
22843
22986
22916
22881
22980
22860
22952
23019
22943
23106
23002
22878
23083
22916
23191
23036
23000
23221
22941
22897
23183
23073
22860
22941
22929
22889
22705
22555
22515
22567
22453
22505
22377
22311
22201
22365
22190
22277
22077
22034
21943
22104
22054
22078
21825
21985
21864
21994
21769
21816
21709
21934
21824
21789
21690
21724
21682
21625
21671
21687
21598
21753
21795
21758
21667
21797
21827
21769
21594
21675
21737
21879
21955
21752
22019
21833
21817
22099
22044
21844
21915
22216
22186
21978
21987
21975
22012
22118
21986
22030
22178
22187
21987
22088
22228
22313
22237
22224
22226
22147
22326
22490
22402
22566
22394
22474
22311
22338
22448
22550
22571
22440
22648
22711
22484
22713
22485
22488
22653
22618
22771
22755
22595
22709
22628
22719
22690
22771
22702
22749
22706
22585
22720
22815
22703
22761
22674
22945
22903
22664
22740
22734
22996
22778
22772
22977
22799
22792
23062
22841
23050
23060
23078
22899
23042
22887
23119
22893
23197
23156
22928
22903
23121
23031
23031
23101
22853
22853
22905
23069
23006
22802
22682
22620
22491
22654
22579
22499
22572
22383
22367
22247
22234
22330
22041
22215
22197
22005
22007
21989
22010
21842
21957
21981
21871
22033
21947
22027
21933
21855
21772
21650
21721
21803
21788
21629
21802
21745
21704
21738
21527
21794
21788
21726
21825
21760
21963
21736
21802
21685
21907
22008
21819
21791
21950
21971
21875
21851
21896
21807
22035
21901
22028
22085
21907
22162
22031
22177
22050
22064
22028
22078
22040
21992
22244
22289
22013
22081
22266
22040
22294
22303
22189
22171
22273
22268
22322
22397
22305
22366
22402
22506
22472
22434
22344
22422
22569
22432
22441
22543
22511
22403
22458
22460
22667
22711
22678
22620
22439
22452
22484
22737
22681
22718
22741
22620
22580
22557
22601
22849
22636
22680
22874
22809
22696
22877
22995
22964
22761
22953
22887
22935
22986
22920
23153
23109
22986
23002
23054
22868
23001
22988
22945
22865
22851
22728
22697
22601
22749
22468
22542
22394
22469
22402
22282
22308
22048
22141
22218
22018
21925
21927
21929
21871
21713
21888
21883
21691
21711
21787
21847
21660
21682
21723
21629
21525
21733
21776
21668
21736
21512
21792
21597
21749
21526
21642
21678
21519
21524
21686
21517
21640
21811
21670
21587
21803
21810
21805
21712
21933
21858
21812
21839
21993
21951
21789
21872
21954
21959
21823
22007
22024
22029
22148
22158
22166
22204
21948
22116
22093
22126
22221
22283
22041
22099
22032
22095
22164
22324
22082
22329
22312
22157
22305
22229
22131
22323
22273
22370
22201
22488
22257
22422
22505
22435
22426
22359
22363
22611
22532
22319
22452
22375
22585
22577
22644
22632
22396
22441
22619
22667
22664
22711
22724
22588
22634
22626
22769
22543
22652
22741
22722
22775
22602
22723
22590
22767
22583
22619
22775
22762
22978
22970
22836
23014
22893
23101
22965
23002
22919
23015
22997
22803
22899
22777
22645
22630
22528
22575
22512
22410
22382
22351
22233
22233
22160
22104
21973
21948
22019
22058
21805
21975
21859
21615
21617
21640
21748
21608
21622
21696
21690
21460
21653
21682
21537
21466
21479
21557
21339
21587
21594
21437
21544
21471
21535
21540
21344
21587
21511
21608
21565
21576
21587
21567
21658
21742
21690
21622
21711
21813
21712
21677
21982
21858
22000
21911
22051
22000
21899
21990
22111
21935
22086
22162
21861
22054
21949
22135
22209
21957
21958
22145
22187
21993
21971
22267
22151
21946
22272
22118
22114
22020
22168
22254
22322
22245
22190
22266
22339
22287
22371
22384
22295
22378
22459
22428
22481
22244
22482
22541
22404
22244
22473
22261
22341
22247
22508
22556
22370
22579
22590
22496
22606
22477
22625
22679
22598
22706
22750
22690
22548
22681
22823
22770
22652
22845
22900
22809
22968
22775
22954
23002
23154
23135
23056
23170
23093
23029
23037
23023
23061
23162
23067
22840
23029
22789
22976
22817
22551
22676
22389
22423
22534
22271
22326
22209
22283
22293
22257
22142
22114
22149
21931
21791
21874
21900
21810
21925
21977
21899
21730
21890
21812
21591
21854
21623
21635
21710
21726
21697
21591
21663
21480
21683
21514
21444
21672
21636
21554
21460
21600
21472
21564
21697
21695
21713
21704
21661
21770
21734
21695
21750
21789
21858
21915
21746
21932
21885
21748
21829
21840
21822
21638
21826
21688
21905
21850
21817
21802
21829
21818
21952
21844
21994
21930
21821
21897
21996
21994
21870
21945
22072
21894
21945
21974
21911
22128
22057
22147
21934
22147
21910
21813
22097
22000
22058
22013
21959
22133
21934
22040
21949
22011
21886
22045
21954
22028
22069
21935
22036
22155
22021
22163
22155
22039
22284
22130
22076
22188
22185
22373
22206
22138
22357
22350
22226
22347
22349
22461
22382
22454
22106
22188
22383
22330
22430
22395
22423
22363
22330
22176
22297
22075
22103
22067
22035
21943
22032
21794
21842
21796
21802
21594
21782
21847
21668
21585
21648
21709
21685
21551
21365
21541
21482
21489
21479
21468
21313
21348
21294
21349
21352
21453
21488
21305
21367
21258
21583
21333
21282
21472
21300
21281
21305
21403
21370
21527
21421
21403
21477
21574
21494
21501
21437
21622
21534
21777
21583
21627
21540
21773
21686
21599
21710
21663
21622
21612
21794
21816
21794
21892
21864
21683
21823
21820
21816
21842
21841
21890
21877
21867
21872
21964
21825
21908
21818
21997
21992
22092
22218
22173
22021
22011
22250
21993
22167
22228
22352
22098
22173
22352
22377
22161
22421
22317
22469
22495
22360
22284
22356
22518
22551
22388
22501
22354
22422
22582
22474
22580
22490
22628
22564
22659
22679
22739
22689
22706
22708
22685
22756
22853
22814
22846
22832
22926
22936
22799
22970
23087
22787
22779
23085
22910
22917
23016
23044
23042
22967
23011
23151
22914
22878
22857
23000
22964
22763
22768
22571
22487
22623
22419
22617
22465
22241
22266
22240
22292
22197
21989
22143
21889
22115
21944
21976
22017
22108
21987
21896
21916
21769
21963
21802
21923
21711
21825
21672
21620
21874
21816
21590
21826
21611
21676
21555
21809
21562
21732
21765
21810
21672
21471
21503
21558
21619
21521
21798
21782
21845
21759
21733
21677
21627
21830
21983
21740
21826
21772
21991
21890
21978
21701
21964
21735
21933
21936
22012
21864
21928
22036
21940
22168
21949
22085
21973
22125
22141
22002
22188
22074
22243
22322
22149
22082
22223
22249
22387
22342
22219
22207
22156
22345
22559
22351
22499
22437
22625
22650
22515
22738
22705
22683
22757
22533
22556
22663
22726
22748
22763
22774
22896
22817
22817
22846
22963
22909
22802
22827
22907
22876
22854
22855
22984
23126
22914
23098
23116
23151
23031
23053
23033
22954
22910
22989
22937
23002
23234
22971
23195
23093
23072
23034
23205
23084
23239
23100
22959
23011
23099
22962
22949
23060
22867
22903
22768
22560
22640
22535
22542
22456
22432
22277
22242
22524
22341
22209
22144
22118
22254
22044
22171
22070
21878
21985
21999
21886
22032
21983
22069
21757
21971
22000
21856
21981
21801
21895
21801
21667
21815
21888
21805
21785
21736
21710
21780
21590
21652
21844
21547
21735
21911
21699
21604
21737
21659
21872
21683
21696
21644
21907
21759
21960
21788
21659
21809
21889
21782
21722
21922
21946
22037
21994
22114
22164
22020
21930
22062
22067
22309
22186
22055
22376
22127
22384
22180
22209
22194
22234
22349
22281
22462
22419
22451
22632
22303
22555
22572
22395
22512
22628
22478
22387
22464
22720
22608
22669
22582
22590
22600
22610
22544
22680
22507
22602
22783
22752
22682
22749
22578
22692
22790
22784
22653
22803
22947
22709
22893
22923
22991
22868
22986
22847
22727
22929
22877
22835
22899
22651
22642
22466
22724
22428
22363
22200
22225
22293
22073
22199
22182
22088
21952
21778
21891
21653
21710
21769
21744
21738
21658
21521
21604
21356
21513
21525
21398
21590
21511
21292
21392
21313
21267
21494
21221
21388
21326
21406
21457
21438
21334
21222
21422
21403
21447
21450
21292
21441
21536
21601
21531
21528
21526
21354
21454
21468
21614
21516
21608
21692
21660
21669
21513
21682
21516
21759
21900
21719
21634
21854
21885
21758
21977
21944
21702
21756
21785
22111
21977
22084
21995
22155
22023
22145
22151
21970
22095
21964
22011
22188
22049
22276
22089
21996
22199
22024
22161
22188
22162
22129
22109
22299
22014
22161
22121
22361
22293
22370
22371
22205
22340
22211
22365
22394
22463
22472
22513
22343
22483
22518
22513
22607
22574
22610
22426
22692
22697
22699
22476
22673
22786
22558
22594
22696
22733
22735
22786
22687
22805
22768
22752
22680
22755
22647
22895
22786
22739
22895
22755
22899
22855
23036
22826
23002
22886
22972
22887
23026
22834
22983
22888
22792
22902
22736
22617
22465
22442
22502
22370
22467
22280
22302
22228
22105
21953
22161
21886
22037
21743
21751
21674
21777
21677
21743
21506
21592
21766
21667
21650
21448
21622
21390
21625
21365
21356
21351
21515
21303
21375
21527
21420
21280
21308
21460
21444
21466
21484
21377
21599
21445
21323
21382
21384
21483
21339
21496
21764
21651
21671
21644
21741
21684
21767
21554
21669
21666
21790
21614
21709
21931
21711
21815
21799
21892
21759
21730
21886
21705
21940
21973
21791
21723
22072
22016
21961
21817
21783
22082
22091
22097
22041
22050
21912
22134
22218
22256
22148
22043
22063
22295
22232
22273
22285
22371
22304
22154
22372
22392
22380
22433
22451
22435
22247
22417
22510
22428
22314
22416
22588
22365
22537
22549
22368
22491
22580
22567
22546
22429
22643
22524
22500
22603
22703
22608
22681
22742
22546
22622
22762
22806
22789
22828
22728
22840
22864
22626
22793
22762
22890
22727
22676
22838
22621
22759
22784
22504
22420
22351
22385
22449
22197
22122
22171
22132
22015
21971
21879
21881
21908
21941
21858
21526
21746
21708
21671
21587
21693
21552
21349
21495
21578
21534
21391
21442
21614
21472
21220
21515
21291
21337
21365
21352
21334
21292
21352
21292
21363
21463
21405
21536
21308
21429
21557
21339
21596
21349
21379
21430
21610
21515
21548
21477
21461
21538
21775
21718
21754
21549
21715
21789
21790
21735
21853
21550
21714
21778
21839
21687
21848
21721
21797
21861
21841
21915
22030
21760
22039
21911
21895
21916
22034
21902
22082
21839
22160
21935
21858
21993
21995
22076
22111
21963
22156
22148
21989
21953
22058
22073
22051
22254
22262
22004
22015
22120
22326
22404
22397
22342
22395
22347
22407
22301
22245
22386
22463
22386
22207
22264
22481
22365
22559
22311
22562
22294
22451
22686
22457
22305
22444
22657
22425
22540
22560
22694
22642
22631
22713
22745
22592
22743
22685
22855
22716
22777
22763
22791
22734
22855
22687
22704
22866
22681
22600
22405
22356
22424
22356
22307
22260
22106
22088
22232
22083
22047
21951
21769
21854
21850
21686
21772
21582
21768
21803
21682
21679
21663
21686
21654
21596
21492
21642
21463
21644
21396
21362
21597
21562
21355
21594
21629
21404
21622
21595
21431
21641
21506
21678
21446
21672
21720
21560
21560
21768
21742
21631
21753
21582
21729
21811
21658
21641
21679
21858
21848
21681
21731
21757
21580
21753
21671
21906
21932
21927
21975
21741
21904
21762
21908
21988
21906
21873
21830
21834
21918
22115
21996
22038
22098
21897
22169
22039
22095
22092
22188
22179
22158
22255
22233
22076
22147
22327
22266
22213
22369
22335
22373
22236
22213
22390
22228
22437
22198
22389
22305
22294
22288
22250
22369
22345
22253
22425
22407
22304
22443
22415
22229
22348
22496
22442
22552
22384
22430
22363
22473
22466
22539
22498
22706
22538
22373
22561
22547
22441
22370
22155
22276
22287
22207
22093
22051
21900
21894
21952
21934
21793
21625
21753
21819
21624
21507
21607
21489
21553
21727
21519
21521
21433
21636
21334
21447
21544
21548
21390
21321
21361
21409
21303
21462
21556
21378
21485
21455
21483
21508
21270
21342
21341
21363
21482
21398
21544
21481
21481
21479
21513
21605
21494
21709
21742
21746
21685
21708
21736
21734
21749
21644
21800
21632
21632
21739
21611
21782
21774
21863
21706
21700
21880
21858
21800
21989
21932
22034
21990
22025
22050
21965
21975
21863
21923
21833
22110
21854
21926
21984
22178
22076
22062
22098
21907
22095
21923
22199
21948
22214
22028
22289
22247
22043
22208
22404
22306
22093
22262
22157
22203
22453
22226
22150
22244
22422
22424
22481
22347
22440
22321
22508
22413
22500
22558
22389
22353
22632
22422
22622
22698
22457
22452
22550
22725
22601
22708
22640
22580
22617
22571
22811
22825
22733
22759
22622
22672
22743
22800
22923
23004
22866
22859
22855
22797
22826
22771
22753
22771
22631
22623
22618
22371
22400
22421
22104
22216
22235
21989
22142
21985
21998
21857
21802
21935
21572
21872
21549
21750
21466
21481
21549
21439
21627
21433
21548
21570
21514
21382
21556
21431
21295
21279
21243
21285
21396
21475
21354
21318
21500
21352
21488
21517
21301
21571
21278
21367
21329
21500
21523
21430
21614
21491
21529
21637
21521
21502
21636
21698
21739
21834
21751
21853
21663
21779
21925
21797
21847
21844
21806
21897
21723
21876
21855
21911
21822
22081
21771
22022
21981
21950
21851
22046
22011
22095
21921
21914
22050
22033
22057
22052
22005
22091
21950
21948
22273
22174
22198
22135
22198
22070
21963
22050
22280
22182
22095
22214
22083
22088
22013
22262
22214
22074
22195
22410
22362
22195
22222
22494
22457
22192
22328
22455
22384
22490
22419
22480
22249
22490
22292
22375
22239
22364
22536
22475
22530
22568
22612
22456
22408
22702
22624
22593
22489
22643
22569
22452
22593
22442
22629
22489
22554
22402
22284
22350
22173
22351
22042
22217
21898
21907
21934
21682
21691
21778
21449
21585
21686
21551
21603
21369
21567
21537
21324
21610
21460
21239
21391
21386
21394
21445
21293
21242
21420
21256
21256
21319
21086
21161
21412
21291
21083
21281
21425
21254
21198
21344
21230
21405
21232
21400
21441
21402
21385
21270
21488
21328
21466
21463
21500
21292
21494
21466
21584
21541
21615
21600
21430
21455
21386
21537
21630
21533
21434
21676
21663
21560
21485
21628
21754
21748
21817
21716
21796
21508
21749
21560
21682
21640
21730
21539
21583
21663
21784
21667
21603
21604
21711
21934
21991
21796
21901
21932
21931
21941
21795
21970
22066
21796
21743
21935
21856
21911
22126
22074
22041
22013
21853
22073
22119
21916
22105
21967
22152
21952
22096
22087
22167
22041
22178
22154
22291
22130
22294
22078
22126
22139
22410
22268
22381
22391
22199
22449
22398
22411
22412
22205
22250
22182
22402
22269
22220
22227
22167
21999
21975
22172
21854
21975
21948
21665
21709
21813
21614
21691
21527
21659
21496
21526
21311
21361
21440
21299
21308
21191
21372
21396
21279
21186
21316
21297
21316
21410
21320
21212
21297
21282
21279
21222
21391
21192
21348
21202
21321
21088
21002
21070
21337
21272
21054
21142
21320
21320
21225
21241
21216
21145
21285
21315
21315
21321
21461
21539
21489
21611
21484
21458
21620
21463
21590
21483
21725
21585
21636
21734
21772
21625
21534
21684
21528
21552
21713
21791
21571
21615
21861
21827
21635
21747
21818
21788
21833
21664
21889
21875
21888
21816
21755
21926
22003
21825
21843
21801
22004
21955
21758
21830
21828
21990
21862
22050
22071
21870
21970
22148
22045
22002
22061
21927
22052
22155
22076
22202
22135
22094
22234
22311
22122
22255
22234
22226
22133
22177
22402
22107
22360
22306
22234
22126
21944
21937
22061
21839
21833
21859
21768
21568
21515
21435
21533
21669
21601
21540
21376
21231
21196
21468
21437
21358
21162
21323
21255
21028
21008
21212
21194
21067
20984
21073
21166
21074
21159
20971
20931
21125
20966
21145
20979
21199
21007
21138
21050
20888
21035
21137
20987
21023
21035
21215
21213
21078
21234
21044
21345
21098
21024
21277
21361
21290
21136
21191
21123
21266
21259
21305
21278
21458
21441
21564
21454
21369
21395
21363
21462
21493
21315
21430
21568
21594
21309
21334
21454
21523
21392
21644
21603
21503
21456
21453
21371
21545
21668
21452
21693
21636
21697
21622
21728
21579
21696
21820
21687
21625
21794
21932
21748
21706
21843
21733
21774
21994
21987
22035
21987
21866
21955
21937
22102
21878
22081
21922
21919
22089
21933
22109
21901
22010
21937
22151
22287
22002
22105
22034
22085
22278
22170
22326
22244
22318
22357
22275
22299
22331
22349
22335
22190
22373
22532
22366
22257
22335
22280
22269
22381
22288
22035
22069
21930
22116
22046
21860
21834
21863
21702
21657
21682
21411
21428
21328
21264
21273
21449
21406
21127
21189
21264
21239
21016
21117
21112
21037
21032
21067
21186
21153
21153
21150
21101
21154
21114
20813
20991
21004
20882
20905
20971
20993
21040
20956
21092
20965
20855
20804
21165
20874
21158
21152
21240
21192
21077
21256
21312
21293
20973
21276
21106
21067
21268
21314
21249
21065
21230
21447
21313
21223
21393
21340
21315
21503
21387
21498
21339
21427
21543
21573
21628
21363
21619
21595
21385
21492
21432
21473
21455
21618
21763
21507
21762
21651
21874
21591
21704
21935
21790
21894
21811
21731
21918
21714
21801
22046
22023
21914
22046
21995
22027
21901
21958
21980
21991
22000
21952
22040
21830
22092
21936
21898
21901
21953
21877
22117
21958
21980
22018
22073
22064
22013
21959
22120
22053
22117
22209
22050
22196
22213
22012
22124
22316
22105
22063
22144
22230
22097
22072
21876
22010
21876
21638
21686
21852
21744
21687
21674
21560
21564
21532
21496
21438
21295
21255
21317
21185
21072
21249
21219
21211
20941
20988
20928
20959
20946
21126
21146
20983
21123
21174
20872
21030
20924
21046
21097
20841
21131
21032
21076
20998
20890
21007
20884
21063
21212
21036
20993
21199
21198
21261
21022
20917
21198
21068
21143
21300
21299
21045
21153
21290
21305
21243
21121
21259
21252
21233
21149
21397
21377
21194
21279
21226
21453
21253
21457
21295
21465
21548
21567
21618
21393
21624
21538
21458
21514
21483
21699
21707
21584
21687
21646
21524
21796
21751
21773
21616
21721
21770
21815
21608
21771
21738
21541
21634
21900
21691
21851
21795
21949
21733
21831
21876
21855
22039
22029
22103
21998
22066
21960
21954
21979
22165
22249
22274
22109
22029
21965
22133
21805
21963
22032
21939
21670
21678
21877
21714
21516
21637
21419
21471
21254
21307
21297
21358
21222
21419
21133
21020
21203
21191
21295
21038
21150
21209
20992
21157
21058
21309
21015
21095
21087
21003
21144
21043
20978
21190
20928
21175
21020
20953
20881
21198
20932
21036
21210
21103
21105
21076
21292
21101
21219
21174
21205
21099
21131
21128
21442
21246
21418
21230
21348
21350
21171
21323
21505
21267
21213
21277
21310
21463
21455
21310
21433
21238
21341
21311
21383
21547
21380
21617
21571
21478
21411
21316
21494
21386
21367
21553
21360
21446
21425
21558
21501
21506
21392
21466
21436
21548
21546
21571
21676
21483
21635
21667
21551
21533
21661
21642
21683
21852
21687
21805
21856
21961
21709
21902
22011
22084
21848
21986
22027
22055
22264
22096
22084
22163
22243
22278
22147
22161
22159
22260
22186
22285
22157
22147
22257
22389
22242
22197
22190
22402
22374
22121
22370
22415
22227
22189
22359
22058
22160
22078
22123
22039
22018
21906
21674
21690
21849
21685
21472
21700
21435
21385
21468
21338
21457
21402
21208
21269
21262
21215
21081
21289
21097
21261
21027
21050
21144
21142
21182
21094
21053
21129
21004
20984
21125
21014
21057
21002
20857
21074
20870
20991
20772
20825
21088
20997
20809
20899
21066
21046
20860
20855
21082
21104
21127
21142
21073
21158
21170
21185
21178
21205
21142
21269
21314
21400
21269
21306
21308
21648
21581
21489
21510
21779
21711
21751
21612
21755
21697
21653
21678
21766
21829
21673
21844
21557
21577
21679
21478
21614
21593
21632
21526
21555
21431
21583
21541
21586
21405
21537
21477
21489
21565
21721
21549
21688
21824
21903
21780
21924
21894
21856
21809
21849
21872
22193
21931
22180
22189
21990
22167
21946
21933
22120
22009
22029
22003
22073
22256
21940
22072
22140
22159
21947
22144
22005
22035
22071
22077
22038
22065
22217
22145
