12526
12547
12579
12611
12649
12703
12761
12813
12874
12948
13018
13078
13139
13205
13251
13268
13266
13256
13235
13205
13172
13131
13075
13014
12957
12900
12831
12757
12689
12628
12562
12485
12413
12344
12266
12185
12113
12043
11959
11869
11787
11707
11618
11528
11446
11363
11270
11177
11086
10994
10902
10819
10743
10672
10624
10627
10686
10805
10994
11253
11572
11933
12329
12757
13212
13668
14115
14558
14989
15378
15717
16017
16275
16483
16641
16762
16849
16892
16894
16868
16806
16705
16579
16442
16290
16123
15951
15780
15607
15434
15281
15155
15038
14923
14825
14750
14675
14601
14541
14496
14447
14390
14339
14296
14251
14210
14180
14156
14135
14128
14142
14169
14201
14240
14290
14348
14401
14449
14510
14575
14619
14645
14672
14696
14699
14686
14672
14649
14608
14563
14525
14485
14431
14369
14306
14235
14152
14065
13980
13894
13810
13733
13661
13585
13506
13428
13346
13255
13162
13081
13005
12925
12847
12782
12716
12638
12560
12499
12443
12367
12272
12172
12065
11948
11841
11763
11710
11683
11704
11784
11925
12126
12393
12723
13100
13510
13954
14426
14900
15363
15823
16275
16687
17045
17358
17624
17829
17976
18080
18138
18141
18097
18015
17890
17726
17541
17349
17146
16928
16706
16500
16307
16117
15943
15799
15671
15547
15433
15336
15247
15151
15050
14951
14846
14737
14637
14550
14471
14396
14333
14289
14259
14239
14238
14256
14281
14310
14354
14411
14462
14508
14568
14633
14689
14744
14805
14856
14886
14901
14906
14897
14868
14827
14783
14731
14664
14592
14518
14436
14342
14245
14149
14045
13927
13807
13692
13572
13437
13306
13183
13061
12940
12830
12734
12643
12560
12483
12401
12311
12220
12139
12063
11981
11896
11819
11746
11665
11578
11501
11432
11354
11282
11240
11236
11271
11362
11524
11750
12030
12367
12757
13184
13633
14098
14565
15009
15422
15809
16169
16485
16743
16953
17120
17231
17280
17292
17276
17221
17129
17019
16891
16734
16561
16389
16218
16038
15859
15695
15546
15399
15248
15106
14983
14863
14742
14639
14543
14433
14319
14216
14116
14013
13918
13847
13795
13757
13747
13765
13797
13838
13891
13954
14022
14097
14178
14263
14341
14407
14472
14539
14591
14621
14635
14639
14618
14575
14533
14493
14437
14371
14312
14250
14172
14086
14003
13918
13826
13727
13627
13522
13410
13298
13197
13098
12999
12908
12825
12741
12652
12568
12494
12417
12329
12246
12178
12103
12010
11914
11829
11740
11638
11539
11451
11366
11292
11250
11253
11299
11403
11579
11822
12116
12461
12847
13260
13685
14122
14565
14990
15377
15726
16044
16315
16527
16693
16825
16915
16956
16962
16945
16897
16810
16699
16571
16422
16251
16070
15881
15681
15472
15268
15081
14909
14746
14597
14462
14329
14201
14089
13990
13888
13787
13707
13649
13598
13559
13543
13544
13556
13585
13635
13699
13770
13850
13941
14031
14114
14199
14288
14372
14447
14515
14568
14599
14616
14630
14643
14638
14612
14579
14547
14498
14423
14341
14260
14168
14065
13973
13892
13803
13713
13636
13564
13482
13393
13307
13219
13119
13021
12929
12836
12739
12646
12569
12495
12413
12328
12245
12164
12083
12008
11946
11893
11850
11839
11876
11959
12091
12286
12546
12851
13184
13559
13966
14378
14786
15189
15580
15943
16269
16559
16813
17022
17186
17311
17388
17408
17385
17331
17244
17122
16977
16821
16652
16468
16276
16090
15904
15715
15541
15390
15250
15112
14982
14866
14756
14644
14542
14454
14367
14287
14226
14177
14128
14087
14072
14086
14114
14146
14193
14259
14328
14397
14481
14579
14671
14756
14841
14918
14981
15034
15080
15115
15126
15115
15096
15071
15036
15000
14965
14918
14857
14789
14721
14648
14566
14485
14407
14319
14219
14129
14054
13972
13877
13786
13703
13612
13510
13409
13316
13213
13105
13010
12920
12825
12728
12641
12562
12480
12410
12370
12362
12385
12449
12572
12754
12979
13248
13565
13920
14296
14691
15103
15510
15887
16238
16568
16859
17100
17307
17481
17606
17683
17722
17733
17708
17644
17555
17449
17316
17161
17000
16831
16648
16461
16285
16119
15957
15802
15663
15528
15389
15259
15150
15053
14957
14862
14773
14689
14608
14537
14486
14446
14406
14379
14373
14380
14391
14415
14454
14494
14530
14578
14644
14715
14780
14847
14916
14972
15008
15041
15069
15079
15068
15051
15024
14978
14916
14845
14759
14657
14549
14445
14339
14217
14087
13962
13838
13711
13591
13486
13388
13286
13183
13088
12988
12871
12753
12652
12563
12470
12385
12315
12240
12153
12069
11998
11939
11900
11899
11948
12045
12195
12403
12664
12974
13329
13723
14135
14542
14937
15324
15687
16010
16297
16553
16771
16941
17070
17167
17227
17237
17202
17141
17051
16926
16782
16641
16496
16340
16185
16042
15907
15775
15656
15552
15446
15333
15230
15144
15057
14963
14879
14809
14732
14649
14582
14529
14474
14419
14373
14335
14301
14282
14286
14307
14336
14376
14431
14488
14541
14596
14657
14713
14754
14790
14824
14854
14879
14892
14883
14851
14802
14751
14698
14624
14524
14420
14332
14254
14174
14098
14029
13949
13857
13773
13693
13597
13497
13415
13343
13268
13193
13127
13065
12990
12912
12841
12765
12682
12602
12526
12446
12364
12289
12229
12180
12143
12140
12184
12274
12417
12622
12889
13203
13550
13932
14341
14756
15164
15570
15965
16323
16637
16919
17165
17359
17501
17610
17688
17718
17704
17663
17594
17491
17369
17245
17114
16963
16805
16660
16524
16388
16257
16143
16042
15946
15864
15797
15731
15659
15586
15514
15439
15365
15299
15246
15197
15156
15133
15121
15106
15090
15090
15114
15144
15169
15201
15238
15266
15289
15324
15366
15395
15410
15429
15450
15456
15448
15440
15427
15395
15351
15306
15260
15206
15149
15093
15030
14955
14878
14804
14723
14634
14544
14456
14357
14251
14157
14071
13979
13878
13785
13708
13635
13556
13481
13419
13355
13281
13217
13165
13110
13049
12992
12938
12876
12813
12762
12720
12676
12635
12605
12584
12578
12606
12688
12828
13019
13254
13532
13854
14210
14592
14987
15375
15746
16100
16434
16723
16957
17152
17311
17419
17471
17484
17472
17428
17352
17257
17148
17022
16888
16754
16616
16466
16314
16173
16040
15911
15795
15705
15630
15553
15476
15415
15366
15308
15240
15179
15119
15051
14990
14953
14925
14896
14875
14872
14873
14870
14874
14888
14899
14910
14934
14967
14999
15026
15059
15096
15125
15141
15154
15163
15153
15122
15092
15060
15008
14945
14884
14817
14741
14663
14587
14505
14414
14318
14223
14128
14029
13936
13857
13781
13696
13611
13539
13472
13401
13333
13267
13192
13109
13034
12968
12899
12826
12757
12697
12636
12573
12520
12474
12422
12364
12318
12278
12228
12172
12127
12089
12036
11974
11922
11878
11832
11794
11780
11793
11836
11922
12071
12279
12531
12824
13158
13510
13866
14231
14599
14938
15230
15481
15695
15870
16004
16097
16153
16166
16135
16073
15989
15880
15745
15605
15462
15304
15139
14982
14830
14674
14525
14400
14294
14198
14106
14022
13943
13854
13766
13695
13635
13568
13499
13439
13382
13323
13275
13241
13214
13187
13171
13173
13185
13201
13226
13262
13300
13338
13387
13444
13489
13522
13557
13597
13624
13635
13648
13659
13647
13616
13583
13542
13483
13414
13345
13267
13175
13079
12983
12887
12791
12700
12622
12545
12457
12372
12302
12237
12167
12096
12029
11960
11892
11831
11773
11707
11631
11555
11488
11426
11371
11330
11298
11256
11199
11144
11095
11035
10968
10908
10854
10795
10740
10700
10664
10615
10563
10524
10492
10461
10438
10433
10454
10505
10601
10753
10949
11172
11427
11718
12029
12341
12656
12972
13266
13530
13767
13976
14148
14280
14381
14439
14447
14413
14349
14257
14135
13988
13826
13657
13476
13292
13126
12981
12838
12699
12576
12463
12346
12237
12150
12080
12007
11934
11871
11811
11750
11694
11647
11606
11564
11529
11509
11503
11508
11529
11564
11603
11642
11693
11764
11839
11901
11961
12024
12076
12111
12138
12152
12147
12134
12121
12097
12060
12016
11969
11914
11849
11778
11715
11649
11568
11479
11398
11319
11224
11122
11031
10945
10855
10770
10700
10633
10561
10492
10428
10358
10281
10205
10138
10069
9999
9942
9901
9856
9799
9746
9697
9637
9572
9511
9456
9402
9351
9312
9287
9267
9257
9271
9313
9376
9477
9634
9845
10090
10369
10683
11010
11334
11651
11956
12238
12486
12704
12897
13050
13155
13225
13268
13269
13216
13134
13036
12909
12760
12612
12463
12306
12148
11995
11850
11708
11572
11455
11358
11266
11175
11099
11033
10957
10877
10808
10741
10670
10606
10555
10513
10474
10449
10448
10461
10479
10508
10557
10618
10681
10754
10841
10926
10999
11069
11141
11204
11255
11299
11336
11358
11365
11370
11374
11367
11346
11319
11293
11253
11196
11139
11089
11032
10962
10893
10824
10743
10662
10595
10532
10460
10385
10316
10248
10173
10098
10030
9967
9906
9848
9791
9729
9661
9603
9559
9511
9450
9395
9355
9314
9262
9217
9190
9177
9186
9236
9332
9471
9657
9897
10181
10490
10822
11178
11546
11903
12242
12565
12861
13115
13326
13506
13647
13737
13784
13799
13779
13723
13656
13586
13504
13398
13274
13141
13001
12860
12721
12588
12457
12330
12227
12148
12076
12001
11938
11890
11840
11784
11734
11692
11641
11584
11541
11511
11479
11450
11443
11454
11468
11483
11515
11559
11599
11636
11678
11724
11760
11793
11829
11860
11882
11902
11922
11937
11945
11952
11954
11942
11916
11887
11860
11820
11767
11715
11666
11603
11526
11454
11387
11310
11231
11158
11084
11007
10940
10885
10833
10773
10708
10649
10590
10521
10451
10390
10323
10244
10170
10111
10060
10001
9938
9881
9828
9778
9739
9721
9716
9731
9790
9907
10064
10261
10518
10830
11163
11507
11869
12245
12611
12958
13283
13577
13830
14043
14224
14371
14471
14522
14542
14534
14489
14417
14333
14230
14099
13953
13810
13676
13543
13417
13303
13196
13097
13016
12952
12886
12809
12739
12687
12632
12560
12490
12430
12370
12309
12265
12237
12212
12191
12184
12190
12200
12216
12237
12261
12289
12327
12377
12432
12482
12527
12578
12625
12653
12665
12675
12677
12662
12640
12626
12606
12564
12514
12467
12418
12365
12313
12260
12197
12126
12057
11995
11930
11860
11794
11731
11659
11578
11496
11414
11327
11233
11149
11079
11011
10945
10893
10855
10809
10753
10707
10675
10638
10596
10560
10525
10476
10417
10359
10301
10232
10167
10124
10095
10080
10107
10192
10326
10500
10724
11005
11326
11670
12041
12428
12814
13186
13542
13871
14163
14414
14626
14795
14918
14996
15034
15030
14988
14916
14829
14734
14621
14494
14365
14227
14076
13922
13775
13636
13506
13394
13308
13237
13167
13101
13050
13004
12957
12921
12898
12870
12828
12788
12759
12726
12687
12658
12645
12635
12622
12622
12634
12647
12668
12711
12767
12819
12870
12924
12972
13007
13031
13054
13073
13078
13077
13082
13084
13069
13038
13003
12960
12896
12816
12735
12646
12545
12445
12363
12291
12214
12141
12078
12003
11906
11808
11722
11635
11547
11471
11404
11329
11246
11174
11113
11052
10992
10942
10898
10850
10796
10745
10697
10639
10579
10532
10490
10441
10390
10346
10303
10250
10194
10144
10094
10043
10000
9971
9956
9959
9997
10087
10223
10400
10624
10899
11212
11549
11914
12302
12682
13036
13375
13699
13983
14220
14420
14579
14680
14728
14746
14734
14678
14588
14489
14376
14237
14085
13936
13786
13631
13486
13355
13225
13091
12968
12866
12773
12680
12595
12523
12447
12363
12289
12227
12166
12101
12047
12010
11979
11953
11950
11970
11991
12005
12038
12095
12154
12209
12271
12334
12385
12426
12471
12520
12560
12593
12630
12662
12681
12692
12696
12686
12654
12611
12566
12515
12451
12381
12313
12240
12156
12069
11985
11893
11793
11696
11610
11519
11418
11321
11233
11139
11033
10936
10857
10784
10714
10662
10623
10569
10500
10435
10372
10305
10240
10185
10137
10080
10019
9966
9909
9837
9761
9698
9639
9572
9504
9449
9401
9358
9340
9376
9462
9584
9752
9973
10231
10515
10834
11187
11552
11913
12268
12612
12921
13192
13433
13639
13798
13918
14012
14072
14086
14058
14007
13934
13831
13702
13565
13426
13273
13106
12944
12788
12624
12461
12318
12187
12059
11943
11845
11751
11651
11557
11475
11394
11305
11213
11128
11050
10986
10946
10932
10936
10955
11000
11070
11148
11228
11324
11433
11529
11608
11686
11759
11814
11852
11895
11940
11972
11995
12029
12060
12071
12062
12045
12014
11962
11901
11843
11778
11696
11611
11536
11457
11366
11277
11192
11089
10963
10843
10742
10652
10569
10497
10432
10364
10289
10218
10154
10084
10006
9935
9872
9804
9736
9678
9624
9556
9480
9415
9359
9295
9231
9186
9162
9158
9194
9287
9434
9631
9877
10169
10497
10848
11223
11618
12014
12394
12761
13106
13411
13668
13890
14084
14235
14335
14398
14425
14403
14338
14250
14137
13999
13847
13690
13528
13353
13173
13002
12841
12682
12529
12390
12264
12136
12012
11909
11821
11730
11639
11563
11489
11410
11343
11302
11276
11257
11256
11276
11302
11333
11380
11439
11500
11567
11651
11739
11813
11878
11943
12007
12057
12090
12122
12156
12167
12159
12154
12142
12106
12053
12000
11946
11884
11814
11741
11657
11551
11437
11326
11210
11088
10977
10885
10804
10727
10657
10597
10528
10447
10368
10292
10208
10115
10033
9969
9903
9823
9744
9675
9601
9523
9453
9389
9317
9245
9193
9164
9157
9189
9277
9421
9617
9870
10186
10551
10938
11345
11778
12217
12638
13046
13446
13818
14144
14422
14653
14831
14954
15039
15093
15102
15067
15003
14915
14794
14641
14483
14330
14170
14008
13864
13734
13604
13481
13372
13267
13161
13062
12976
12898
12810
12717
12641
12582
12523
12463
12416
12380
12341
12309
12297
12302
12322
12363
12427
12489
12543
12607
12687
12764
12831
12898
12971
13033
13077
13110
13140
13158
13160
13161
13158
13132
13084
13035
12987
12922
12846
12774
12701
12614
12520
12436
12357
12274
12188
12100
12008
11904
11793
11686
11579
11466
11360
11269
11179
11079
10987
10918
10854
10779
10701
10631
10557
10473
10390
10313
10230
10144
10077
10041
10032
10057
10144
10301
10510
10770
11087
11448
11840
12256
12696
13141
13566
13967
14351
14706
15016
15285
15517
15698
15818
15890
15925
15926
15895
15845
15782
15698
15586
15456
15322
15177
15020
14870
14732
14587
14434
14299
14188
14078
13966
13867
13776
13683
13594
13518
13453
13392
13335
13291
13260
13234
13211
13199
13201
13210
13229
13271
13326
13378
13429
13492
13553
13600
13644
13701
13758
13804
13845
13887
13922
13945
13966
13984
13978
13943
13899
13858
13802
13719
13633
13557
13470
13368
13269
13173
13063
12944
12836
12739
12636
12527
12428
12343
12263
12187
12123
12064
12001
11935
11872
11808
11736
11664
11604
11542
11469
11405
11355
11300
11229
11157
11093
11025
10953
10892
10858
10850
10867
10925
11039
11202
11418
11705
12058
12446
12860
13303
13761
14218
14674
15121
15538
15911
16237
16524
16765
16952
17088
17181
17225
17214
17165
17096
17001
16871
16717
16557
16390
16215
16046
15888
15733
15577
15431
15304
15180
15059
14960
14887
14815
14729
14648
14575
14497
14413
14336
14267
14200
14143
14105
14086
14074
14074
14098
14135
14168
14199
14243
14293
14336
14376
14425
14473
14509
14539
14571
14591
14595
14593
14586
14565
14526
14477
14420
14346
14251
14162
14088
14008
13913
13823
13744
13656
13557
13462
13368
13262
13147
13034
12919
12799
12682
12573
12471
12365
12254
12154
12070
11982
11896
11830
11773
11710
11647
11594
11541
11481
11422
11371
11314
11246
11182
11122
11048
10959
10877
10813
10748
10681
10643
10658
10721
10827
10993
11228
11516
11854
12250
12686
13137
13595
14062
14521
14957
15366
15742
16075
16347
16559
16724
16840
16889
16886
16851
16777
16661
16524
16386
16235
16064
15887
15713
15542
15375
15224
15086
14948
14812
14698
14606
14516
14417
14322
14231
14132
14028
13930
13836
13742
13652
13584
13546
13525
13514
13527
13562
13602
13644
13703
13774
13841
13907
13979
14046
14102
14155
14211
14258
14282
14289
14296
14291
14262
14223
14185
14132
14055
13972
13889
13791
13680
13576
13483
13386
13278
13172
13076
12978
12870
12760
12648
12526
12399
12285
12178
12063
11949
11846
11749
11652
11563
11492
11430
11367
11303
11241
11176
11105
11036
10978
10914
10834
10752
10682
10610
10526
10450
10398
10368
10366
10414
10518
10674
10886
11164
11501
11880
12287
12724
13188
13644
14077
14490
14868
15194
15476
15732
15949
16102
16190
16235
16236
16185
16099
15993
15861
15697
15518
15342
15169
14987
14806
14642
14478
14301
14131
13981
13832
13676
13528
13395
13267
13143
13034
12941
12857
12778
12714
12670
12631
12595
12589
12612
12637
12660
12701
12754
12809
12874
12957
13045
13123
13193
13267
13341
13399
13446
13493
13522
13514
13485
13458
13427
13374
13308
13241
13171
13094
13019
12946
12865
12770
12670
12572
12462
12336
12215
12107
11992
11871
11761
11662
11563
11467
11381
11304
11227
11157
11101
11049
10982
10901
10824
10752
10672
10585
10509
10436
10357
10286
10240
10210
10194
10219
10307
10452
10651
10917
11250
11629
12039
12482
12957
13442
13922
14404
14875
15306
15687
16027
16317
16537
16691
16799
16860
16862
16820
16749
16653
16529
16382
16224
16057
15877
15694
15520
15352
15184
15025
14887
14760
14631
14506
14392
14280
14157
14037
13932
13828
13717
13623
13553
13491
13438
13409
13404
13414
13433
13466
13507
13549
13595
13651
13719
13792
13869
13960
14054
14133
14204
14276
14333
14356
14359
14362
14353
14323
14285
14251
14209
14145
14066
13986
13901
13805
13714
13630
13536
13426
13322
13230
13135
13032
12937
12855
12769
12672
12584
12511
12432
12344
12264
12193
12117
12038
11962
11882
11794
11709
11635
11567
11495
11425
11377
11344
11320
11329
11403
11544
11741
12000
12330
12711
13123
13581
14093
14632
15165
15689
16201
16671
17085
17458
17798
18084
18311
18486
18607
18666
18668
18632
18563
18455
18316
18160
17996
17819
17637
17472
17319
17160
17007
16878
16765
16648
16537
16444
16361
16276
16191
16117
16044
15964
15895
15846
15804
15765
15736
15719
15705
15691
15690
15706
15720
15727
15744
15778
15811
15841
15883
15941
15995
16038
16083
16128
16153
16161
16169
16171
16149
16112
16076
16028
15954
15863
15772
15672
15557
15438
15329
15219
15096
14970
14854
14741
14616
14491
14380
14266
14136
14010
13904
13806
13703
13606
13522
13440
13357
13279
13210
13135
13050
12962
12883
12800
12707
12619
12541
12457
12369
12299
12256
12234
12249
12328
12473
12676
12942
13283
13682
14117
14592
15108
15641
16170
16687
17185
17639
18031
18374
18674
18916
19088
19206
19284
19311
19282
19213
19113
18981
18824
18658
18490
18316
18142
17983
17839
17693
17551
17431
17325
17220
17117
17031
16954
16868
16784
16718
16654
16572
16484
16410
16348
16289
16239
16212
16193
16165
16148
16157
16179
16200
16229
16271
16316
16361
16411
16466
16517
16564
16613
16656
16681
16689
16690
16691
16680
16650
16612
16565
16494
16402
16306
16206
16098
15988
15887
15790
15685
15578
15483
15389
15282
15173
15078
14981
14869
14755
14658
14562
14458
14359
14269
14175
14072
13974
13890
13811
13735
13664
13592
13509
13423
13350
13294
13240
13181
13125
13076
13023
12964
12914
12872
12818
12758
12714
12680
12637
12591
12552
12511
12454
12396
12361
12346
12345
12381
12480
12638
12849
13131
13492
13912
14368
14867
15408
15956
16479
16981
17461
17891
18260
18578
18846
19044
19171
19245
19274
19251
19186
19104
19004
18876
18726
18565
18399
18223
18047
17882
17724
17566
17414
17278
17151
17028
16915
16816
16718
16613
16517
16435
16354
16273
16206
16155
16105
16054
16012
15980
15951
15925
15921
15942
15969
15994
16036
16094
16145
16186
16241
16310
16372
16428
16494
16554
16592
16611
16618
16603
16558
16499
16440
16372
16288
16201
16118
16031
15930
15823
15723
15617
15502
15404
15324
15227
15099
14969
14855
14737
14605
14480
14366
14249
14129
14018
13914
13809
13710
13624
13546
13465
13383
13310
13240
13168
13099
13041
12986
12921
12855
12804
12758
12702
12645
12600
12557
12499
12441
12395
12346
12288
12240
12208
12178
12141
12108
12080
12046
12001
11957
11914
11859
11790
11723
11663
11590
11500
11416
11342
11252
11144
11042
10949
10852
10764
10716
10711
10744
10833
10994
11223
11511
11853
12245
12673
13121
13584
14051
14504
14935
15346
15728
16061
16340
16578
16781
16932
17018
17065
17084
17055
16974
16868
16748
16603
16439
16273
16106
15929
15743
15563
15390
15213
15041
14890
14751
14610
14480
14381
14299
14214
14127
14048
13975
13897
13824
13769
13725
13684
13663
13666
13683
13710
13754
13812
13877
13947
14030
14121
14207
14280
14353
14431
14495
14540
14585
14629
14651
14653
14642
14615
14564
14499
14433
14362
14275
14169
14058
13950
13839
13730
13636
13544
13440
13336
13241
13140
13024
12904
12790
12677
12560
12450
12351
12252
12148
12054
11980
11906
11824
11745
11678
11615
11548
11489
11442
11391
11337
11302
11285
11263
11239
11224
11208
11176
11141
11117
11093
11053
11002
10958
10918
10865
10805
10752
10694
10621
10553
10506
10460
10396
10336
10307
10305
10336
10420
10563
10749
10977
11261
11591
11941
12298
12672
13063
13440
13794
14134
14453
14728
14960
15161
15321
15421
15468
15482
15464
15408
15322
15219
15096
14945
14780
14619
14456
14280
14103
13945
13796
13644
13501
13378
13261
13143
13032
12935
12847
12766
12693
12627
12555
12478
12422
12393
12373
12356
12363
12394
12426
12460
12513
12581
12648
12716
12798
12889
12969
13037
13105
13165
13210
13250
13288
13318
13330
13330
13323
13307
13271
13227
13185
13127
13045
12961
12888
12804
12703
12596
12490
12375
12249
12123
11998
11866
11730
11602
11486
11372
11263
11174
11107
11039
10965
10901
10846
10782
10710
10649
10594
10527
10459
10403
10349
10280
10206
10141
10080
10013
9944
9880
9814
9747
9691
9655
9632
9619
9643
9723
9849
10014
10235
10516
10835
11178
11548
11932
12308
12673
13035
13385
13704
13987
14234
14442
14600
14710
14786
14833
14836
14799
14739
14654
14530
14387
14250
14114
13961
13799
13649
13506
13360
13221
13099
12982
12862
12749
12653
12562
12474
12394
12321
12240
12153
12078
12023
11969
11908
11861
11837
11817
11797
11797
11823
11857
11901
11974
12066
12146
12219
12299
12378
12441
12498
12558
12622
12679
12717
12738
12744
12731
12710
12693
12665
12613
12554
12502
12445
12372
12295
12224
12152
12077
12006
11934
11849
11749
11646
11554
11463
11370
11294
11235
11170
11100
11034
10965
10882
10799
10730
10665
10588
10501
10421
10343
10254
10167
10099
10040
9976
9918
9883
9874
9888
9948
10071
10245
10460
10725
11043
11397
11771
12166
12576
12985
13382
13761
14115
14428
14694
14929
15132
15282
15374
15431
15463
15455
15413
15355
15281
15186
15081
14973
14851
14713
14575
14446
14324
14199
14076
13970
13872
13770
13677
13599
13521
13438
13361
13297
13235
13168
13111
13071
13030
12981
12943
12924
12910
12895
12897
12918
12941
12965
13002
13050
13095
13137
13192
13250
13287
13313
13345
13374
13385
13390
13401
13405
13389
13355
13314
13268
13209
13147
13089
13029
12961
12900
12849
12787
12707
12629
12561
12485
12393
12298
12203
12100
11993
11898
11817
11738
11656
11582
11520
11457
11393
11341
11295
11238
11175
11118
11069
11012
10949
10893
10836
10768
10704
10655
10617
10592
10605
10676
10805
10985
11220
11512
11836
12176
12545
12945
13350
13737
14110
14470
14797
15082
15335
15556
15728
15852
15936
15986
15997
15970
15921
15851
15747
15622
15495
15360
15206
15050
14910
14787
14671
14564
14479
14410
14346
14286
14231
14171
14102
14038
13985
13932
13874
13822
13778
13732
13678
13634
13607
13582
13555
13543
13557
13580
13607
13647
13695
13739
13786
13842
13899
13941
13969
13994
14018
14029
14028
14026
14016
13985
13942
13905
13869
13823
13773
13732
13688
13629
13572
13525
13471
13397
13314
13232
13145
13052
12965
12890
12807
12709
12617
12532
12438
12335
12246
12176
12104
12027
11959
11899
11835
11772
11722
11676
11610
11528
11451
11383
11313
11240
11179
11122
11054
10988
10939
10891
10834
10789
10776
10805
10881
11018
11217
11461
11739
12062
12428
12807
13183
13567
13956
14318
14642
14948
15232
15469
15657
15810
15928
16002
16040
16052
16035
15983
15901
15806
15699
15572
15433
15293
15152
15003
14854
14723
14604
14481
14369
14285
14212
14133
14060
14007
13957
13895
13834
13777
13717
13658
13616
13594
13574
13551
13546
13572
13608
13642
13694
13767
13832
13882
13936
13997
14051
14102
14166
14233
14283
14316
14345
14369
14374
14363
14347
14322
14274
14210
14145
14077
13995
13912
13838
13759
13661
13559
13468
13377
13271
13169
13086
13003
12910
12824
12751
12677
12601
12535
12481
12424
12360
12306
12261
12209
12145
12084
12026
11954
11884
11837
11797
11740
11671
11608
11551
11479
11405
11352
11304
11247
11191
11151
11124
11112
11133
11202
11315
11471
11683
11951
12252
12571
12918
13291
13657
13996
14322
14640
14927
15169
15380
15561
15697
15787
15846
15875
15861
15813
15744
15657
15543
15405
15258
15109
14953
14793
14645
14507
14360
14219
14104
14006
13907
13816
13737
13659
13576
13494
13417
13338
13253
13182
13138
13103
13068
13051
13061
13078
13097
13138
13197
13256
13314
13385
13467
13541
13610
13684
13754
13804
13841
13879
13914
13931
13935
13938
13933
13906
13868
13835
13797
13736
13668
13606
13536
13446
13353
13265
13166
13052
12942
12849
12760
12666
12578
12506
12432
12348
12271
12209
12147
12084
12037
12000
11950
11890
11832
11771
11697
11616
11544
11478
11404
11327
11264
11208
11141
11075
11039
11033
11050
11107
11223
11390
11596
11850
12157
12491
12834
13196
13574
13947
14300
14639
14958
15240
15478
15681
15850
15968
16030
16060
16070
16038
15964
15871
15759
15616
15455
15295
15137
14973
14809
14660
14529
14399
14278
14181
14095
14001
13907
13827
13745
13649
13556
13480
13408
13330
13265
13225
13201
13186
13189
13207
13224
13239
13276
13340
13408
13470
13544
13633
13715
13788
13866
13949
14018
14072
14125
14175
14201
14199
14185
14152
14094
14024
13955
13880
13782
13668
13562
13458
13341
13224
13124
13029
12925
12824
12732
12640
12536
12426
12324
12227
12135
12056
11992
11924
11844
11768
11705
11635
11556
11487
11427
11358
11279
11208
11145
11079
11018
10983
10983
11015
11094
11235
11431
11663
11942
12275
12639
13007
13382
13777
14171
14540
14879
15192
15464
15683
15861
16005
16105
16157
16173
16162
16110
16011
15896
15780
15649
15499
15351
15210
15064
14910
14762
14619
14469
14322
14197
14084
13965
13849
13751
13660
13567
13482
13417
13361
13301
13246
13211
13184
13154
13145
13168
13200
13228
13266
13319
13374
13425
13482
13549
13611
13662
13713
13768
13812
13835
13852
13868
13863
13839
13817
13790
13738
13664
13592
13522
13436
13345
13263
13180
13081
12975
12875
12778
12674
12569
12477
12389
12291
12193
12111
12036
11952
11876
11817
11756
11683
11615
11559
11489
11396
11302
11218
11136
11061
10997
10940
10881
10827
10800
10807
10842
10914
11051
11255
11504
11793
12136
12525
12932
13357
13803
14248
14662
15047
15410
15740
16020
16253
16444
16585
16671
16720
16743
16728
16665
16581
16497
16393
16259
16114
15977
15841
15696
15556
15433
15316
15201
15104
15029
14953
14866
14789
14727
14661
14594
14538
14487
14423
14358
14311
14277
14235
14189
14158
14142
14125
14115
14131
14155
14168
14186
14228
14277
14318
14358
14400
14433
14452
14469
14488
14489
14466
14439
14416
14377
14315
14249
14182
14104
14011
13921
13833
13737
13636
13541
13448
13345
13239
13142
13042
12924
12800
12692
12598
12499
12403
12323
12250
12173
12100
12036
11967
11886
11813
11755
11693
11618
11546
11485
11419
11345
11281
11226
11160
11083
11013
10949
10879
10804
10746
10715
10706
10731
10821
10981
11188
11447
11778
12175
12609
13064
13536
14013
14472
14906
15321
15703
16028
16307
16553
16748
16875
16957
17012
17028
16998
16938
16859
16756
16635
16513
16389
16249
16097
15963
15854
15741
15622
15520
15438
15354
15271
15213
15170
15118
15056
14995
14939
14880
14821
14778
14750
14714
14680
14665
14655
14636
14623
14638
14672
14697
14724
14768
14811
14840
14874
14928
14982
15020
15052
15087
15105
15095
15070
15042
15005
14954
14900
14848
14784
14703
14625
14551
14460
14353
14255
14161
14052
13937
13833
13735
13630
13521
13425
13338
13245
13153
13072
12991
12894
12794
12710
12635
12557
12486
12430
12369
12297
12231
12176
12116
12051
11997
11950
11897
11837
11789
11752
11706
11657
11629
11608
11566
11507
11455
11416
11367
11316
11283
11259
11222
11179
11147
11121
11086
11043
11002
10961
10913
10864
10822
10778
10721
10669
10627
10577
10510
10448
10405
10358
10292
10223
10163
10104
10050
10023
10029
10067
10147
10286
10487
10748
11066
11450
11890
12365
12868
13395
13924
14427
14904
15355
15766
16118
16416
16670
16871
17004
17080
17120
17117
17059
16968
16865
16742
16595
16449
16312
16160
15986
15821
15671
15524
15383
15262
15159
15058
14958
14869
14792
14712
14634
14577
14534
14486
14434
14397
14371
14342
14314
14306
14316
14326
14347
14401
14473
14537
14599
14673
14747
14806
14865
14937
15005
15051
15084
15111
15120
15111
15097
15081
15050
15000
14947
14893
14822
14728
14629
14536
14434
14324
14223
14127
14018
13902
13798
13705
13601
13494
13401
13313
13217
13116
13028
12944
12845
12739
12648
12563
12469
12373
12284
12194
12100
12016
11956
11905
11847
11790
11741
11692
11638
11595
11572
11548
11506
11463
11423
11370
11302
11243
11201
11157
11112
11080
11054
11012
10959
10912
10871
10824
10775
10740
10713
10667
10612
10573
10533
10476
10419
10383
10350
10298
10235
10176
10114
10048
9988
9932
9861
9776
9697
9630
9556
9472
9403
9351
9281
9185
9089
9009
8930
8848
8786
8752
8748
8791
8908
9103
9356
9663
10031
10446
10882
11333
11805
12287
12752
13201
13642
14052
14410
14730
15019
15257
15431
15555
15641
15682
15668
15615
15535
15420
15270
15107
14941
14758
14561
14373
14200
14030
13855
13691
13540
13385
13237
13118
13022
12927
12839
12773
12722
12667
12610
12566
12532
12500
12479
12479
12490
12500
12524
12578
12650
12726
12815
12921
13028
13125
13225
13329
13416
13477
13530
13584
13620
13630
13636
13641
13628
13592
13547
13494
13417
13321
13231
13146
13048
12938
12830
12720
12594
12461
12341
12225
12092
11954
11835
11720
11592
11466
11358
11257
11153
11054
10971
10892
10809
10734
10673
10608
10536
10466
10402
10335
10267
10205
10147
10087
10025
9974
9939
9905
9867
9837
9806
9757
9701
9666
9643
9609
9569
9537
9502
9447
9385
9338
9293
9238
9183
9140
9107
9080
9078
9124
9218
9352
9539
9786
10071
10387
10744
11140
11545
11935
12319
12704
13063
13379
13670
13935
14150
14311
14435
14519
14549
14534
14494
14428
14324
14201
14079
13946
13788
13619
13459
13302
13137
12970
12814
12660
12496
12340
12213
12096
11973
11861
11771
11682
11591
11521
11475
11432
11386
11346
11323
11311
11302
11313
11349
11392
11441
11516
11615
11713
11802
11901
12005
12092
12166
12246
12323
12372
12398
12420
12432
12419
12391
12358
12314
12252
12180
12108
12024
11917
11804
11699
11586
11456
11333
11234
11137
11029
10921
10818
10707
10588
10473
10360
10238
10114
10002
9899
9793
9684
9589
9506
9422
9344
9290
9254
9207
9154
9119
9089
9037
8975
8926
8881
8826
8772
8733
8692
8635
8582
8545
8507
8461
8421
8398
8393
8423
8508
8657
8855
9094
9388
9737
10111
10494
10908
11349
11784
12201
12602
12979
13309
13593
13850
14073
14239
14351
14424
14451
14426
14367
14293
14200
14075
13927
13777
13624
13456
13292
13153
13022
12879
12743
12627
12524
12427
12344
12279
12220
12163
12114
12064
12003
11933
11868
11814
11754
11690
11644
11619
11599
11586
11602
11642
11678
11718
11784
11865
11937
12007
12092
12188
12273
12350
12431
12505
12558
12602
12644
12672
12675
12664
12652
12629
12583
12520
12455
12380
12288
12200
12121
12027
11914
11806
11710
11605
11488
11374
11269
11159
11044
10946
10867
10781
10687
10607
10538
10459
10378
10317
10267
10207
10141
10090
10042
9973
9897
9833
9773
9708
9646
9595
9546
9494
9450
9423
9397
9362
9340
9345
9360
9388
9463
9604
9791
10023
10313
10655
11021
11401
11807
12236
12655
13062
13478
13883
14238
14543
14814
15038
15203
15318
15400
15444
15444
15412
15358
15279
15170
15050
14933
14805
14653
14503
14370
14234
14085
13947
13834
13735
13640
13561
13499
13437
13371
13319
13280
13230
13168
13117
13078
13030
12981
12953
12934
12908
12885
12883
12900
12918
12940
12980
13035
13089
13148
13221
13291
13343
13394
13459
13517
13554
13586
13619
13635
13625
13606
13585
13549
13489
13420
13351
13263
13152
13047
12958
12861
12755
12660
12572
12473
12371
12288
12221
12150
12074
12001
11924
11834
11743
11668
11598
11516
11433
11369
11313
11246
11177
11120
11064
10998
10940
10903
10862
10803
10747
10707
10662
10600
10537
10484
10431
10375
10327
10297
10281
10279
10319
10414
10546
10714
10945
11238
11562
11909
12293
12706
13109
13497
13886
14263
14606
14921
15218
15479
15685
15841
15953
16013
16019
15992
15946
15868
15756
15637
15519
15383
15229
15084
14959
14835
14709
14595
14495
14394
14293
14205
14130
14051
13969
13901
13845
13782
13718
13672
13625
13560
13495
13453
13433
13417
13408
13419
13445
13471
13509
13570
13634
13683
13736
13804
13869
13907
13937
13975
14009
14029
14049
14069
14076
14067
14055
14045
14024
13983
13940
13900
13843
13771
13710
13654
13581
13500
13430
13358
13267
13175
13094
13015
12925
12831
12750
12676
12591
12506
12439
12379
12310
12245
12199
12153
12097
12046
12011
11975
11927
11882
11846
11803
11752
11713
11693
11670
11630
11598
11586
11568
11540
11518
11498
11460
11407
11363
11326
11280
11235
11218
11236
11280
11367
11521
11736
11991
12289
12634
13011
13398
13796
14210
14613
14984
15335
15669
15959
16195
16394
16565
16687
16758
16800
16820
16800
16746
16673
16583
16462
16318
16173
16031
15882
15728
15589
15463
15331
15203
15099
15016
14932
14850
14788
14732
14662
14591
14536
14487
14434
14390
14366
14349
14332
14328
14343
14358
14365
14390
14442
14498
14546
14604
14680
14751
14808
14865
14923
14964
14984
15004
15031
15047
15049
15045
15035
15003
14955
14908
14860
14797
14721
14650
14577
14484
14378
14284
14198
14096
13982
13874
13766
13647
13540
13462
13392
13307
13223
13154
13087
13013
12937
12865
12791
12715
12652
12605
12557
12509
12469
12436
12396
12350
12317
12295
12265
12229
12201
12177
12134
12081
12036
12001
11958
11907
11868
11836
11800
11775
11788
11833
11905
12029
12223
12466
12737
13049
13405
13780
14155
14538
14929
15301
15636
15945
16230
16474
16674
16842
16970
17044
17072
17073
17046
16978
16877
16770
16656
16514
16352
16199
16047
15880
15715
15576
15457
15338
15229
15147
15077
15000
14930
14878
14826
14765
14708
14664
14625
14582
14549
14534
14526
14518
14530
14568
14610
14650
14708
14790
14868
14937
15015
15105
15187
15261
15346
15430
15486
15519
15542
15554
15545
15517
15488
15457
15405
15345
15290
15231
15155
15074
14999
14919
14824
14727
14641
14552
14449
14343
14243
14137
14023
13920
13834
13743
13644
13560
13499
13433
13356
13293
13245
13188
13120
13060
13006
12944
12877
12822
12772
12714
12654
12606
12560
12501
12442
12399
12367
12330
12295
12281
12283
12296
12347
12461
12627
12827
13073
13376
13712
14062
14433
14822
15200
15556
15904
16236
16530
16782
17000
17184
17324
17421
17487
17519
17503
17445
17368
17275
17151
17005
16863
16724
16569
16411
16269
16131
15981
15839
15725
15625
15522
15427
15352
15289
15227
15168
15118
15066
15005
14955
14925
14904
14880
14866
14868
14872
14879
14903
14947
14990
15024
15074
15148
15214
15266
15328
15397
15443
15468
15492
15514
15515
15499
15485
15471
15437
15397
15369
15329
15259
15176
15098
15008
14894
14775
14665
14556
14445
14345
14258
14161
14051
13951
13864
13769
13660
13564
13488
13410
13322
13248
13193
13137
13082
13045
13019
12978
12928
12891
12858
12812
12758
12707
12655
12593
12531
12482
12436
12376
12316
12273
12233
12187
12158
12170
12216
12292
12420
12614
12853
13118
13428
13788
14174
14572
14984
15401
15798
16166
16514
16832
17100
17312
17488
17637
17735
17782
17804
17805
17771
17708
17637
17556
17445
17311
17177
17041
16887
16735
16605
16487
16369
16266
16189
16127
16064
16007
15965
15923
15870
15825
15789
15740
15675
15622
15600
15588
15574
15578
15602
15620
15629
15652
15693
15733
15773
15832
15903
15963
16018
16090
16166
16217
16252
16292
16325
16336
16333
16333
16331
16309
16272
16236
16186
16105
16016
15936
15843
15729
15623
15537
15443
15332
15226
15134
15036
14924
14821
14731
14634
14536
14455
14384
14301
14213
14136
14068
13989
13897
13813
13742
13669
13595
13537
13490
13433
13374
13332
13299
13255
13210
13176
13137
13080
13026
12992
12961
12915
12873
12850
12818
12765
12713
12670
12615
12543
12471
12403
12326
12239
12153
12080
12012
11954
11938
11980
12060
12178
12362
12612
12907
13239
13620
14037
14457
14883
15329
15773
16183
16555
16896
17195
17432
17620
17772
17874
17922
17933
17920
17871
17781
17666
17535
17385
17221
17064
16919
16773
16621
16490
16386
16284
16181
16098
16033
15963
15891
15839
15794
15727
15652
15597
15554
15504
15457
15433
15427
15421
15419
15433
15455
15475
15501
15543
15586
15620
15661
15717
15767
15804
15847
15901
15942
15966
15991
16019
16030
16020
16009
15999
15971
15927
15879
15825
15750
15657
15568
15484
15389
15287
15192
15096
14978
14851
14741
14646
14551
14458
14382
14314
14241
14167
14099
14032
13958
13887
13824
13752
13661
13571
13497
13420
13333
13258
13198
13136
13070
13018
12981
12944
12902
12867
12842
12807
12759
12723
12702
12673
12638
12617
12606
12581
12544
12514
12489
12452
12410
12381
12348
12294
12231
12180
12129
12059
11980
11908
11834
11751
11676
11618
11554
11478
11423
11411
11428
11478
11593
11777
12006
12275
12599
12966
13348
13739
14153
14581
14987
15362
15723
16064
16362
16614
16831
17004
17118
17183
17213
17200
17133
17030
16918
16787
16627
16463
16314
16163
15999
15837
15689
15549
15416
15304
15220
15140
15050
14971
14915
14860
14796
14742
14702
14656
14601
14552
14508
14462
14421
14399
14391
14382
14385
14420
14479
14533
14593
14678
14775
14862
14949
15052
15150
15220
15275
15328
15367
15382
15388
15388
15366
15319
15268
15219
15150
15057
14968
14891
14805
14699
14595
14501
14400
14285
14176
14078
13970
13850
13740
13634
13511
13382
13274
13185
13091
12991
12910
12844
12771
12693
12629
12571
12504
12439
12392
12353
12310
12274
12251
12230
12201
12178
12167
12150
12123
12105
12101
12084
12045
12003
11964
11911
11844
11784
11737
11678
11608
11551
11506
11453
11399
11371
11362
11357
11368
11416
11503
11625
11795
12025
12303
12613
12959
13345
13749
14147
14538
14921
15279
15598
15891
16163
16391
16560
16684
16770
16806
16794
16761
16711
16628
16509
16380
16247
16090
15912
15745
15591
15429
15265
15123
14997
14864
14733
14621
14518
14411
14314
14243
14184
14120
14057
14015
13983
13945
13919
13927
13952
13977
14019
14087
14162
14229
14301
14387
14469
14539
14614
14697
14769
14824
14879
14936
14975
14985
14994
15006
14992
14954
14921
14891
14843
14779
14713
14638
14539
14423
14314
14211
14097
13976
13862
13754
13638
13528
13441
13356
13254
13148
13053
12956
12854
12764
12689
12607
12511
12425
12361
12296
12219
12150
12101
12050
11991
11947
11922
11891
11851
11817
11789
11753
11713
11683
11654
11605
11546
11506
11480
11434
11377
11340
11316
11298
11311
11380
11503
11669
11893
12181
12515
12877
13273
13699
14139
14574
15011
15445
15843
16190
16504
16788
17014
17176
17297
17380
17414
17403
17362
17296
17199
17078
16953
16823
16673
16511
16359
16214
16056
15896
15759
15639
15516
15402
15315
15243
15166
15095
15043
15002
14954
14905
14859
14806
14743
14693
14665
14637
14599
14577
14587
14608
14628
14669
14736
14805
14869
14940
15021
15093
15154
15217
15281
15327
15357
15394
15437
15457
15453
15444
15422
15373
15311
15255
15195
15120
15034
14949
14860
14758
14653
14556
14452
14329
14208
14098
13979
13847
13729
13634
13537
13429
13330
13248
13163
13072
13000
12945
12885
12821
12769
12723
12668
12608
12556
12508
12443
12368
12301
12234
12154
12076
12020
11972
11917
11863
11823
11786
11742
11715
11739
11806
11908
12073
12316
12607
12926
13292
13710
14147
14586
15039
15496
15929
16332
16714
17066
17364
17607
17810
17972
18075
18124
18142
18137
18086
18001
17905
17792
17643
17477
17322
17171
17011
16851
16707
16569
16427
16298
16195
16104
16014
15942
15899
15860
15812
15775
15753
15721
15670
15627
15602
15577
15548
15527
15515
15504
15499
15513
15539
15558
15570
15596
15632
15662
15694
15751
15826
15886
15930
15977
16016
16029
16030
16039
16038
16007
15959
15908
15845
15768
15692
15624
15535
15415
15294
15188
15077
14952
14839
14749
14656
14546
14442
14347
14240
14119
14003
13893
13772
13646
13540
13450
13358
13273
13212
13160
13096
13027
12974
12928
12868
12801
12748
12694
12622
12550
12495
12437
12364
12298
12248
12198
12145
12105
12090
12088
12096
12143
12251
12405
12600
12864
13196
13562
13949
14374
14829
15286
15731
16175
16605
16996
17347
17673
17957
18173
18330
18447
18516
18522
18485
18429
18348
18228
18084
17940
17784
17601
17414
17243
17076
16905
16747
16609
16480
16359
16258
16178
16098
16012
15933
15868
15793
15704
15629
15572
15507
15441
15401
15386
15373
15364
15380
15415
15450
15480
15524
15583
15635
15684
15751
15823
15881
15938
16010
16077
16113
16134
16160
16176
16168
16149
16132
16101
16044
15976
15902
15808
15690
15574
15473
15362
15234
15116
15011
14899
14780
14671
14573
14470
14363
14270
14187
14095
13998
13913
13835
13746
13651
13570
13494
13405
13312
13234
13162
13077
12993
12922
12851
12770
12693
12632
12571
12500
12437
12390
12346
12303
12286
12310
12362
12441
12578
12783
13030
13317
13657
14041
14441
14854
15288
15733
16174
16600
17006
17384
17710
17978
18203
18383
18497
18556
18581
18559
18478
18366
18244
18105
17941
17765
17587
17397
17201
17021
16860
16700
16532
16380
16256
16136
16009
15896
15807
15715
15603
15498
15411
15322
15236
15178
15146
15116
15090
15091
15114
15142
15181
15247
15331
15410
15487
15573
15657
15721
15780
15855
15925
15969
15998
16030
16054
16054
16040
16019
15982
15922
15855
15785
15696
15584
15471
15363
15241
15106
14988
14887
14773
14646
14529
14420
14298
14166
14049
13942
13823
13702
13598
13503
13401
13301
13218
13142
13056
12967
12892
12823
12746
12667
12601
12534
12452
12379
12328
12275
12211
12166
12166
12206
12285
12417
12615
12865
13160
13511
13914
14337
14767
15216
15677
16124
16545
16954
17339
17669
17952
18210
18421
18562
18644
18689
18692
18643
18558
18458
18338
18189
18024
17855
17677
17485
17302
17142
16988
16828
16682
16562
16449
16333
16229
16145
16063
15979
15906
15846
15781
15710
15653
15616
15580
15545
15537
15552
15563
15576
15616
15672
15721
15765
15813
15857
15890
15919
15960
16002
16027
16045
16071
16090
16080
16055
16032
15995
15932
15863
15802
15735
15653
15560
15466
15364
15250
15138
15029
14908
14771
14639
14528
14421
14308
14204
14106
13994
13875
13771
13679
13578
13473
13385
13307
13216
13118
13034
12962
12884
12804
12736
12675
12603
12529
12470
12416
12361
12329
12347
12412
12526
12702
12945
13238
13568
13950
14386
14846
15310
15789
16277
16739
17155
17539
17884
18167
18389
18567
18698
18767
18785
18779
18747
18670
18562
18448
18323
18170
18003
17845
17689
17525
17375
17256
17149
17043
16949
16879
16815
16745
16694
16667
16636
16582
16530
16493
16451
16401
16364
16344
16328
16314
16312
16326
16338
16344
16368
16416
16459
16495
16545
16605
16652
16693
16743
16793
16824
16848
16877
16899
16892
16871
16854
16825
16770
16703
16639
16566
16472
16376
16290
16195
16077
15961
15860
15748
15616
15491
15383
15268
15149
15049
14964
14871
14774
14691
14620
14538
14447
14369
14304
14231
14162
14114
14071
14016
13958
13917
13883
13835
13784
13746
13698
13622
13542
13483
13427
13361
13294
13232
13170
13116
13094
13115
13171
13267
13430
13669
13959
14293
14693
15153
15631
16115
16619
17129
17609
18054
18467
18833
19135
19376
19574
19727
19816
19852
19862
19838
19762
19652
19537
19412
19259
19099
18959
18827
18688
18559
18454
18357
18252
18156
18084
18021
17966
17927
17900
17866
17818
17768
17727
17674
17602
17539
17494
17443
17390
17359
17344
17325
17311
17322
17354
17389
17430
17489
17553
17602
17642
17689
17733
17759
17780
17812
17838
17839
17822
17803
17775
17723
17660
17597
17525
17441
17354
17263
17157
17031
16906
16789
16665
16527
16398
16286
16166
16036
15920
15814
15694
15567
15462
15377
15286
15195
15117
15037
14940
14846
14774
14709
14632
14548
14473
14399
14313
14232
14172
14115
14049
13986
13932
13878
13821
13772
13735
13699
13654
13608
13566
13512
13442
13378
13327
13270
13204
13149
13104
13040
12955
12877
12813
12745
12686
12671
12695
12747
12849
13026
13266
13546
13868
14242
14651
15074
15514
15976
16428
16845
17234
17594
17901
18144
18344
18509
18613
18652
18658
18643
18589
18493
18382
18262
18120
17961
17801
17646
17487
17330
17198
17094
16996
16902
16828
16766
16693
16610
16535
16467
16389
16311
16251
16201
16146
16100
16086
16090
16092
16102
16140
16187
16227
16275
16336
16385
16412
16440
16481
16514
16531
16553
16590
16621
16644
16672
16696
16693
16665
16637
16610
16560
16486
16414
16344
16249
16135
16028
15921
15794
15661
15544
15435
15308
15173
15054
14940
14815
14693
14596
14505
14404
14316
14250
14185
14109
14031
13953
13866
13769
13682
13608
13528
13441
13371
13323
13268
13197
13135
13089
13038
12979
12939
12909
12864
12813
12779
12755
12720
12680
12651
12624
12581
12532
12494
12451
12389
12323
12271
12220
12160
12101
12053
12000
11927
11850
11789
11728
11648
11574
11523
11479
11443
11449
11508
11608
11752
11962
12235
12549
12899
13294
13723
14153
14577
15006
15430
15819
16171
16505
16812
17062
17256
17415
17525
17567
17558
17523
17456
17342
17199
17046
16880
16706
16542
16390
16239
16084
15939
15815
15694
15574
15474
15395
15314
15223
15143
15082
15019
14952
14905
14880
14851
14819
14807
14812
14817
14829
14867
14916
14956
14997
15060
15133
15201
15271
15353
15435
15509
15583
15661
15724
15758
15781
15802
15808
15791
15765
15734
15678
15588
15484
15384
15270
15139
15027
14939
14840
14720
14606
14498
14376
14245
14122
14015
13907
13797
13697
13602
13503
13404
13324
13250
13167
13085
13021
12961
12889
12817
12759
12704
12641
12586
12551
12518
12480
12455
12441
12412
12360
12315
12295
12276
12249
12228
12209
12176
12131
12090
12052
12003
11944
11894
11852
11800
11753
11737
11747
11767
11816
11928
12094
12282
12498
12767
13076
13402
13755
14142
14530
14890
15223
15535
15819
16073
16299
16495
16640
16727
16768
16772
16725
16629
16508
16374
16212
16022
15835
15663
15484
15301
15141
15002
14859
14724
14629
14554
14463
14367
14288
14223
14152
14080
14021
13962
13889
13818
13766
13724
13681
13650
13643
13646
13652
13679
13738
13810
13882
13966
14064
14146
14202
14257
14322
14372
14402
14434
14472
14492
14490
14483
14467
14430
14379
14331
14280
14209
14124
14044
13961
13860
13747
13639
13528
13404
13277
13165
13058
12942
12833
12740
12651
12557
12473
12405
12332
12248
12176
12127
12071
11993
11920
11864
11804
11739
11682
11630
11570
11504
11444
11393
11339
11281
11237
11202
11154
11098
11058
11028
10985
10940
10921
10924
10938
10980
11076
11225
11412
11649
11950
12290
12643
13021
13437
13862
14266
14658
15043
15398
15712
15994
16254
16471
16636
16763
16848
16882
16872
16837
16783
16692
16571
16450
16328
16183
16022
15875
15739
15593
15450
15327
15214
15095
14983
14896
14824
14749
14679
14625
14575
14515
14455
14403
14358
14316
14290
14284
14278
14265
14266
14290
14315
14329
14356
14409
14469
14523
14586
14652
14705
14750
14804
14856
14891
14915
14943
14966
14964
14941
14918
14892
14844
14778
14712
14638
14544
14445
14357
14268
14156
14044
13956
13865
13750
13639
13546
13457
13361
13270
13196
13121
13032
12943
12862
12781
12694
12618
12556
12488
12411
12342
12287
12229
12165
12119
12090
12048
11993
11947
11904
11847
11788
11747
11709
11652
11591
11545
11505
11459
11421
11418
11451
11512
11624
11810
12050
12321
12638
13010
13411
13820
14246
14683
15102
15493
15865
16211
16509
16755
16963
17137
17258
17325
17357
17356
17305
17207
17096
16983
16843
16683
16535
16394
16234
16066
15918
15791
15666
15550
15456
15376
15295
15225
15175
15129
15076
15033
15004
14967
14915
14876
14858
14834
14800
14781
14786
14793
14792
14803
14827
14844
14860
14896
14946
14991
15023
15059
15103
15140
15166
15197
15230
15237
15227
15221
15204
15157
15102
15054
14999
14920
14829
14745
14664
14569
14475
14393
14309
14215
14126
14054
13981
13900
13821
13740
13640
13525
13420
13336
13250
13155
13079
13023
12957
12883
12815
12752
12682
12609
12552
12506
12456
12406
12370
12342
12308
12270
12242
12211
12162
12106
12059
12008
11936
11862
11805
11744
11664
11588
11530
11474
11411
11369
11364
11388
11444
11553
11721
11936
12194
12508
12871
13255
13647
14057
14480
14888
15270
15638
15985
16277
16520
16740
16926
17057
17146
17206
17224
17192
17125
17046
16950
16829
16693
16556
16415
16262
16114
15986
15856
15711
15573
15462
15371
15293
15232
15180
15121
15059
15005
14957
14901
14832
14773
14728
14682
14641
14628
14639
14646
14651
14675
14713
14746
14781
14834
14898
14957
15011
15073
15134
15175
15203
15234
15255
15248
15228
15216
15199
15165
15118
15062
14989
14903
14819
14739
14642
14525
14408
14302
14186
14055
13937
13834
13727
13623
13534
13450
13353
13251
13159
13074
12982
12887
12807
12735
12656
12573
12503
12437
12359
12286
12236
12191
12131
12063
12004
11949
11886
11824
11767
11702
11631
11571
11528
11481
11426
11390
11377
11355
11320
11292
11268
11227
11170
11119
11070
11004
10925
10856
10797
10733
10672
10635
10613
10596
10601
10657
10767
10917
11117
11382
11692
12024
12387
12786
13198
13607
14015
14421
14801
15145
15465
15760
16000
16176
16317
16432
16498
16505
16474
16421
16330
16202
16068
15931
15770
15592
15422
15266
15106
14951
14823
14714
14603
14494
14404
14322
14227
14132
14060
13993
13910
13827
13766
13718
13671
13644
13645
13656
13669
13695
13740
13786
13823
13878
13956
14029
14085
14141
14204
14257
14298
14343
14387
14416
14432
14446
14453
14441
14409
14378
14343
14283
14211
14153
14091
14009
13923
13851
13780
13697
13610
13531
13455
13371
13290
13215
13127
13018
12915
12830
12732
12612
12499
12410
12324
12232
12147
12071
11989
11904
11835
11782
11729
11668
11621
11589
11552
11510
11481
11460
11424
11382
11355
11338
11316
11295
11287
11276
11242
11202
11174
11146
11100
11050
11014
10978
10927
10873
10826
10773
10707
10642
10592
10552
10526
10545
10621
10738
10888
11100
11378
11688
12015
12374
12761
13148
13529
13917
14297
14638
14934
15202
15437
15619
15751
15854
15922
15936
15910
15865
15793
15679
15541
15394
15232
15047
14857
14683
14513
14337
14184
14063
13950
13829
13724
13645
13568
13485
13413
13348
13276
13203
13144
13094
13045
13003
12992
13013
13031
13047
13087
13151
13215
13286
13382
13491
13589
13676
13771
13867
13946
14012
14077
14129
14156
14173
14198
14209
14187
14155
14129
14093
14039
13976
13895
13784
13657
13540
13438
13335
13220
13110
13009
12895
12769
12655
12555
12447
12337
12242
12147
12036
11919
11814
11717
11614
11514
11437
11381
11322
11263
11221
11185
11140
11101
11074
11042
10994
10951
10924
10893
10846
10804
10779
10744
10693
10654
10628
10592
10540
10492
10458
10429
10408
10417
10471
10554
10669
10845
11087
11362
11669
12024
12408
12791
13181
13589
13995
14368
14707
15026
15311
15544
15734
15898
16020
16083
16095
16075
16017
15915
15781
15631
15467
15289
15116
14952
14778
14590
14415
14267
14125
13982
13860
13760
13661
13559
13472
13397
13313
13228
13165
13120
13074
13038
13025
13023
13014
13008
13032
13075
13113
13158
13226
13299
13359
13428
13520
13615
13701
13784
13866
13934
13986
14034
14086
14118
14114
14095
14075
14034
13965
13889
13812
13718
13609
13505
13409
13305
13197
13106
13024
12933
12835
12751
12670
12568
12452
12346
12242
12124
12003
11898
11799
11691
11590
11518
11459
11396
11342
11305
11261
11200
11146
11111
11069
11009
10954
10911
10860
10802
10760
10733
10693
10637
10584
10536
10486
10443
10429
10446
10476
10533
10652
10831
11046
11303
11628
12005
12401
12815
13258
13711
14147
14568
14981
15365
15697
15990
16256
16475
16629
16738
16820
16854
16827
16771
16702
16598
16456
16309
16167
16013
15845
15686
15542
15399
15262
15148
15053
14958
14865
14796
14746
14686
14618
14564
14514
14450
14388
14357
14344
14319
14294
14290
14301
14309
14329
14374
14424
14467
14521
14596
14669
14722
14774
14842
14905
14952
15001
15059
15097
15105
15114
15131
15124
15090
15053
15009
14936
14845
14763
14686
14590
14481
14381
14278
14157
14032
13921
13820
13713
13600
13493
13386
13269
13155
13060
12966
12856
12753
12672
12586
12482
12388
12314
12240
12159
12089
12034
11974
11911
11863
11829
11789
11742
11704
11670
11621
11557
11502
11453
11383
11301
11235
11180
11110
11037
10987
10957
10935
10941
11002
11118
11280
11498
11780
12107
12456
12841
13272
13723
14170
14612
15049
15459
15826
16163
16469
16714
16891
17027
17130
17177
17171
17138
17081
16988
16866
16735
16594
16435
16269
16123
15992
15847
15696
15567
15456
15345
15239
15155
15081
15001
14928
14876
14834
14785
14737
14699
14654
14597
14558
14554
14560
14554
14562
14599
14642
14674
14714
14767
14816
14857
14908
14971
15028
15074
15129
15194
15244
15275
15309
15342
15351
15343
15339
15329
15290
15230
15173
15113
15033
14937
14846
14751
14641
14524
14412
14293
14156
14027
13921
13815
13693
13582
13496
13414
13322
13230
13145
13055
12957
12869
12795
12711
12608
12515
12441
12363
12280
12217
12167
12107
12040
11988
11947
11895
11840
11802
11776
11738
11694
11664
11633
11588
11542
11512
11479
11419
11351
11293
11230
11150
11076
11022
10972
10923
10904
10937
11011
11129
11314
11565
11854
12173
12541
12956
13382
13807
14255
14712
15140
15527
15887
16212
16473
16673
16831
16940
16986
16987
16968
16923
16837
16721
16599
16461
16293
16118
15964
15812
15641
15475
15333
15196
15050
14914
14803
14706
14616
14548
14501
14449
14386
14334
14295
14246
14192
14158
14142
14121
14102
14113
14152
14188
14218
14269
14343
14415
14486
14576
14674
14760
14837
14920
14999
15057
15105
15160
15204
15221
15229
15233
15212
15158
15092
15026
14941
14832
14727
14642
14558
14464
14376
14298
14205
14096
13997
13912
13825
13731
13642
13557
13464
13368
13289
13221
13141
13055
12992
12939
12870
12800
12748
12697
12632
12566
12515
12474
12430
12395
12380
12369
12351
12333
12321
12296
12252
12212
12189
12158
12107
12059
12024
11977
11918
11875
11847
11804
11745
11690
11635
11567
11496
11440
11392
11330
11265
11223
11212
11221
11259
11357
11513
11709
11959
12277
12643
13028
13437
13882
14340
14785
15220
15650
16050
16397
16706
16986
17213
17379
17508
17606
17649
17634
17592
17529
17428
17292
17145
16993
16824
16641
16466
16297
16119
15938
15781
15645
15509
15384
15289
15212
15130
15049
14986
14930
14869
14814
14776
14745
14713
14695
14705
14729
14758
14807
14888
14975
15053
15143
15255
15359
15441
15519
15599
15665
15716
15770
15828
15865
15884
15901
15912
15901
15872
15844
15809
15744
15658
15583
15507
15408
15300
15208
15121
15019
14909
14807
14708
14598
14486
14377
14259
14129
14007
13895
13773
13639
13525
13442
13359
13265
13183
13120
13053
12975
12908
12856
12804
12752
12718
12706
12687
12656
12638
12633
12618
12596
12587
12585
12560
12517
12483
12448
12393
12326
12264
12202
12124
12043
11980
11921
11852
11802
11789
11802
11835
11921
12080
12286
12522
12805
13136
13490
13863
14262
14677
15085
15481
15876
16262
16599
16876
17108
17294
17415
17476
17504
17497
17432
17323
17199
17053
16878
16690
16509
16331
16145
15963
15797
15645
15496
15356
15236
15122
15002
14895
14815
14740
14659
14594
14545
14492
14432
14395
14385
14372
14349
14344
14364
14386
14411
14460
14528
14597
14666
14745
14829
14900
14958
15027
15106
15171
15223
15283
15332
15351
15358
15372
15372
15341
15293
15243
15185
15108
15024
14940
14837
14707
14580
14471
14359
14234
14116
14011
13902
13787
13686
13598
13506
13409
13317
13228
13135
13043
12968
12906
12828
12741
12674
12623
12562
12501
12457
12416
12363
12309
12269
12234
12193
12152
12119
12081
12031
11981
11942
11900
11848
11807
11788
11773
11761
11785
11864
11988
12149
12364
12635
12939
13275
13656
14069
14483
14891
15300
15699
16068
16406
16725
17018
17261
17456
17622
17749
17817
17843
17851
17823
17741
17624
17488
17332
17155
16980
16820
16658
16489
16334
16205
16083
15957
15852
15786
15733
15679
15644
15625
15597
15558
15525
15503
15478
15453
15445
15457
15466
15471
15492
15520
15534
15548
15590
15645
15692
15738
15805
15881
15945
16007
16084
16159
16214
16259
16300
16322
16317
16305
16293
16264
16205
16136
16077
16009
15920
15829
15748
15656
15546
15437
15328
15202
15071
14957
14855
14744
14625
14522
14427
14316
14198
14096
14003
13902
13802
13727
13670
13609
13550
13506
13464
13411
13362
13329
13292
13235
13172
13118
13056
12974
12896
12840
12787
12728
12685
12665
12658
12669
12725
12839
12997
13198
13457
13772
14117
14486
14897
15345
15786
16211
16637
17053
17422
17749
18049
18308
18505
18650
18756
18817
18820
18777
18707
18607
18471
18323
18178
18019
17833
17650
17493
17343
17187
17049
16941
16843
16752
16688
16653
16617
16572
16540
16518
16478
16421
16373
16336
16294
16249
16226
16220
16206
16190
16202
16233
16261
16296
16357
16428
16486
16542
16613
16682
16737
16789
16849
16891
16901
16904
16921
16931
16913
16885
16862
16823
16760
16693
16627
16543
16445
16356
16281
16195
16095
15995
15898
15787
15666
15565
15482
15388
15282
15187
15103
15012
14920
14844
14771
14683
14592
14514
14441
14363
14287
14229
14174
14104
14039
14000
13965
13917
13875
13858
13843
13815
13785
13756
13714
13654
13595
13546
13491
13427
13378
13350
13313
13266
13238
13235
13239
13261
13337
13463
13619
13822
14093
14416
14771
15164
15603
16059
16498
16921
17340
17733
18076
18379
18655
18882
19040
19148
19223
19246
19212
19142
19049
18920
18761
18598
18447
18294
18134
17996
17883
17772
17665
17587
17535
17491
17457
17443
17440
17427
17403
17388
17376
17343
17304
17279
17256
17212
17164
17136
17119
17099
17088
17093
17105
17117
17141
17184
17229
17260
17297
17350
17394
17418
17444
17478
17497
17505
17518
17531
17523
17494
17462
17424
17359
17272
17190
17110
17008
16891
16784
16690
16586
16475
16371
16268
16153
16039
15944
15853
15753
15660
15589
15520
15433
15349
15288
15231
15163
15100
15053
15002
14940
14889
14853
14810
14748
14689
14646
14600
14547
14513
14496
14467
14428
14398
14374
14346
14318
14304
14296
14267
14223
14190
14165
14127
14080
14044
14005
13945
13879
13825
13770
13705
13649
13617
13600
13594
13628
13726
13874
14065
14318
14640
15003
15390
15804
16241
16676
17095
17510
17915
18276
18581
18856
19103
19292
19422
19522
19596
19623
19602
19554
19481
19372
19240
19111
18979
18831
18686
18563
18447
18323
18205
18109
18021
17925
17841
17783
17730
17669
17618
17585
17546
17494
17450
17418
17382
17344
17327
17335
17347
17359
17390
17440
17480
17506
17543
17597
17652
17713
17792
17883
17961
18023
18086
18145
18178
18194
18216
18226
18201
18153
18100
18033
17944
17849
17758
17665
17562
17462
17376
17284
17171
17057
16960
16863
16754
16653
16564
16467
16361
16273
16204
16128
16046
15985
15943
15890
15826
15775
15727
15667
15597
15536
15480
15414
15344
15283
15232
15171
15107
15064
15034
14990
14944
14916
14891
14855
14822
14801
14773
14724
14678
14647
14605
14543
14483
14428
14361
14285
14219
14166
14106
14033
13965
13907
13833
13746
13671
13610
13538
13458
13392
13335
13273
13217
13195
13206
13240
13319
13474
13686
13932
14227
14584
14978
15382
15790
16203
16601
16971
17320
17650
17935
18167
18364
18528
18636
18685
18699
18688
18637
18540
18424
18300
18152
17985
17830
17688
17531
17362
17207
17073
16945
16827
16734
16651
16558
16466
16399
16346
16283
16220
16176
16143
16103
16068
16055
16051
16036
16027
16041
16062
16083
16122
16192
16267
16326
16388
16457
16511
16548
16588
16634
16667
16682
16696
16709
16698
16669
16648
16635
16610
16572
16535
16488
16407
16306
16209
16108
15988
15862
15747
15636
15514
15396
15297
15201
15095
14999
14927
14853
14757
14665
14595
14527
14446
14368
14301
14228
14151
14086
14033
13969
13893
13832
13791
13743
13685
13647
13624
13586
13540
13514
13500
13476
13449
13438
13433
13413
13383
13364
13342
13298
13249
13221
13194
13140
13076
13023
12967
12892
12816
12760
12701
12621
12543
12479
12414
12339
12275
12232
12197
12177
12204
12289
12409
12567
12789
13069
13376
13708
14079
14472
14854
15226
15599
15950
16255
16518
16758
16963
17110
17213
17291
17329
17303
17235
17152
17044
16898
16744
16599
16446
16279
16115
15971
15832
15689
15557
15446
15338
15227
15137
15077
15015
14944
14892
14858
14817
14773
14747
14726
14689
14650
14633
14637
14637
14636
14657
14696
14727
14758
14814
14875
14922
14967
15028
15089
15129
15162
15206
15242
15252
15251
15250
15234
15198
15163
15130
15071
14985
14906
14841
14757
14646
14537
14446
14346
14233
14136
14053
13962
13864
13779
13695
13588
13468
13363
13272
13177
13085
13010
12942
12862
12785
12731
12681
12611
12544
12501
12462
12409
12353
12305
12245
12171
12104
12053
11995
11927
11871
11839
11801
11746
11702
11683
11659
11627
11609
11603
11579
11541
11515
11497
11465
11419
11380
11340
11279
11213
11165
11122
11065
11012
10984
10964
10934
10914
10929
10970
11037
11153
11328
11542
11784
12067
12400
12762
13130
13517
13924
14314
14673
15023
15360
15652
15899
16118
16301
16429
16510
16568
16598
16577
16510
16426
16326
16188
16025
15866
15709
15540
15376
15242
15123
15002
14893
14810
14741
14668
14606
14568
14534
14487
14448
14429
14408
14371
14341
14326
14307
14279
14267
14273
14275
14270
14280
14306
14328
14345
14383
14442
14489
14525
14579
14638
14675
14700
14734
14762
14766
14761
14763
14757
14720
14665
14614
14556
14474
14389
14316
14238
14142
14044
13956
13858
13739
13621
13519
13412
13290
13186
13112
13040
12957
12881
12816
12742
12664
12598
12545
12486
12415
12358
12316
12263
12200
12154
12119
12062
11993
11942
11903
11853
11802
11769
11740
11698
11651
11615
11582
11533
11484
11457
11434
11393
11352
11331
11311
11273
11243
11234
11212
11165
11119
11084
11035
10975
10929
10891
10836
10768
10713
10670
10622
10577
10563
10580
10606
10656
10767
10936
11138
11382
11690
12045
12414
12801
13209
13620
14010
14379
14730
15047
15320
15566
15789
15962
16074
16154
16218
16241
16214
16163
16097
15999
15872
15743
15622
15495
15356
15218
15086
14944
14793
14663
14549
14427
14308
14218
14146
14067
13992
13938
13896
13848
13804
13780
13769
13755
13751
13772
13801
13819
13844
13890
13937
13967
14005
14065
14121
14159
14208
14277
14335
14371
14412
14461
14489
14493
14499
14502
14472
14413
14352
14287
14199
14094
14001
13920
13823
13715
13620
13534
13440
13344
13259
13173
13068
12959
12868
12778
12671
12563
12472
12381
12283
12191
12116
12046
11970
11901
11850
11798
11735
11681
11644
11599
11546
11511
11492
11466
11432
11408
11397
11380
11354
11339
11334
11304
11249
11203
11162
11097
11023
10967
10921
10867
10813
10777
10750
10715
10681
10663
10635
10581
10524
10484
10434
10359
10286
10235
10191
10148
10136
10174
10248
10361
10540
10788
11068
11369
11710
12082
12454
12820
13193
13569
13916
14224
14511
14769
14969
15118
15242
15337
15370
15349
15311
15253
15153
15023
14888
14743
14578
14417
14277
14141
13993
13851
13730
13619
13506
13413
13349
13291
13223
13170
13142
13111
13063
13023
13002
12979
12953
12950
12962
12962
12956
12973
13010
13043
13077
13139
13220
13291
13355
13435
13516
13576
13627
13689
13750
13792
13823
13856
13882
13887
13881
13874
13846
13785
13722
13669
13602
13516
13431
13356
13266
13159
13061
12976
12879
12767
12668
12585
12489
12384
12302
12240
12171
12102
12056
12019
11968
11912
11873
11842
11794
11736
11695
11665
11622
11578
11557
11543
11516
11496
11494
11482
11446
11418
11404
11377
11326
11280
11253
11222
11182
11146
11118
11085
11048
11030
11046
11073
11110
11201
11354
11539
11757
12032
12357
12702
13060
13441
13826
14184
14519
14851
15156
15402
15606
15788
15925
15999
16028
16027
15978
15879
15755
15622
15469
15293
15122
14969
14817
14658
14515
14398
14290
14182
14097
14039
13981
13920
13874
13836
13781
13713
13662
13626
13578
13523
13492
13483
13466
13449
13461
13497
13532
13574
13643
13718
13772
13830
13916
14006
14076
14148
14235
14317
14380
14442
14510
14553
14554
14548
14549
14533
14491
14442
14393
14327
14244
14167
14099
14008
13893
13787
13686
13567
13438
13320
13210
13092
12974
12880
12802
12710
12612
12533
12464
12385
12309
12260
12220
12169
12128
12107
12076
12019
11965
11928
11889
11835
11784
11746
11704
11653
11617
11598
11571
11531
11515
11530
11555
11598
11685
11817
11973
12163
12417
12722
13041
13380
13752
14132
14493
14844
15197
15526
15805
16050
16278
16468
16597
16679
16730
16737
16693
16619
16536
16429
16293
16156
16036
15912
15775
15643
15518
15385
15244
15119
15013
14906
14800
14720
14667
14615
14568
14544
14535
14516
14493
14490
14506
14512
14518
14559
14617
14660
14703
14768
14840
14899
14959
15031
15100
15151
15203
15270
15330
15367
15403
15456
15502
15532
15563
15592
15597
15572
15541
15517
15481
15421
15361
15302
15219
15120
15034
14955
14861
14759
14668
14584
14484
14379
14294
14218
14125
14029
13952
13884
13802
13718
13652
13583
13495
13414
13358
13308
13244
13191
13166
13140
13096
13064
13059
13058
13047
13046
13061
13076
13103
13173
13289
13436
13619
13865
14172
14498
14834
15201
15589
15961
16320
16683
17034
17345
17619
17870
18084
18241
18354
18443
18496
18500
18473
18439
18378
18276
18161
18054
17940
17806
17681
17583
17493
17401
17331
17294
17258
17209
17178
17171
17157
17128
17112
17115
17100
17066
17043
17024
16992
16953
16933
16930
16926
16921
16936
16966
16991
17017
17066
17121
17158
17194
17247
17305
17359
17413
17471
17513
17526
17525
17525
17509
17469
17428
17395
17347
17275
17201
17130
17048
16956
16879
16816
16745
16668
16610
16564
16495
16402
16315
16230
16128
16023
15939
15866
15782
15693
15623
15568
15507
15449
15412
15382
15334
15283
15250
15221
15185
15160
15149
15125
15085
15050
15024
14983
14924
14873
14839
14796
14738
14691
14656
14613
14557
14503
14455
14398
14335
14289
14266
14243
14235
14283
14383
14509
14673
14900
15171
15465
15794
16169
16568
16958
17341
17730
18097
18412
18692
18958
19188
19361
19498
19610
19678
19696
19689
19672
19621
19531
19436
19352
19258
19151
19058
18981
18898
18815
18755
18713
18668
18620
18592
18585
18571
18550
18540
18535
18507
18465
18431
18397
18353
18309
18283
18264
18244
18242
18272
18309
18329
18349
18386
18422
18449
18481
18523
18558
18578
18608
18650
18674
18679
18692
18714
18717
18696
18666
18627
18566
18488
18415
18345
18257
18162
18086
18018
17932
17837
17756
17677
17585
17491
17417
17348
17264
17179
17109
17042
16962
16884
16815
16739
16654
16578
16508
16426
16338
16274
16234
16185
16117
16062
16031
15993
15939
15898
15874
15843
15803
15772
15745
15708
15659
15624
15603
15563
15507
15463
15429
15378
15318
15272
15224
15157
15089
15036
14985
14923
14868
14835
14802
14750
14702
14675
14645
14597
14553
14522
14478
14412
14345
14286
14220
14151
14098
14060
14009
13945
13898
13866
13814
13742
13673
13606
13523
13432
13363
13314
13258
13194
13146
13105
13047
12986
12946
12908
12853
12797
12757
12719
12670
12618
12577
12532
12470
12410
12362
12302
12222
12151
12098
12035
11958
11895
11851
11799
11743
11706
11688
11671
11666
11704
11793
11914
12080
12326
12640
12982
13351
13765
14203
14628
15039
15451
15842
16185
16492
16775
17018
17200
17336
17445
17514
17533
17519
17487
17418
17299
17164
17029
16880
16720
16576
16455
16337
16218
16125
16063
16001
15936
15898
15890
15884
15875
15885
15905
15907
15895
15892
15894
15882
15865
15868
15877
15872
15873
15904
15949
15985
16023
16084
16150
16201
16245
16293
16334
16360
16393
16442
16480
16494
16506
16527
16532
16516
16498
16484
16454
16401
16349
16303
16235
16146
16070
16005
15923
15822
15725
15630
15525
15423
15347
15276
15186
15098
15040
14993
14932
14869
14822
14780
14724
14670
14635
14596
14538
14484
14447
14416
14381
14362
14363
14356
14327
14300
14290
14273
14240
14213
14197
14167
14123
14088
14060
14020
13975
13952
13937
13902
13861
13844
13835
13813
13783
13762
13739
13699
13652
13614
13579
13533
13489
13461
13427
13373
13324
13290
13253
13210
13176
13148
13103
13038
12982
12939
12884
12808
12737
12682
12617
12542
12478
12426
12376
12338
12345
12403
12499
12637
12842
13109
13402
13717
14071
14447
14815
15179
15549
15898
16202
16470
16713
16916
17066
17175
17260
17306
17294
17246
17187
17102
16977
16841
16711
16568
16411
16265
16141
16021
15903
15812
15748
15680
15605
15554
15531
15512
15495
15499
15514
15510
15486
15470
15462
15444
15425
15425
15430
15422
15425
15463
15513
15547
15583
15642
15707
15762
15820
15890
15954
15995
16029
16070
16093
16084
16074
16079
16068
16034
16000
15967
15917
15850
15790
15741
15675
15591
15517
15449
15355
15241
15137
15043
14940
14834
14743
14662
14572
14481
14408
14341
14258
14172
14106
14046
13976
13918
13882
13845
13799
13767
13759
13748
13724
13708
13707
13695
13665
13646
13642
13627
13595
13567
13544
13513
13474
13449
13434
13401
13354
13321
13292
13243
13187
13147
13109
13055
12997
12951
12904
12845
12785
12741
12702
12663
12654
12701
12784
12883
13027
13235
13482
13747
14038
14357
14678
14979
15270
15555
15807
16020
16223
16406
16542
16632
16703
16749
16744
16700
16650
16587
16484
16354
16227
16105
15974
15842
15732
15635
15531
15434
15361
15297
15222
15161
15135
15113
15070
15025
15000
14972
14930
14899
14889
14877
14852
14840
14855
14871
14878
14895
14927
14951
14972
15010
15065
15112
15150
15199
15257
15297
15322
15363
15407
15424
15418
15415
15406
15369
15316
15265
15201
15108
15008
14927
14847
14748
14647
14562
14473
14366
14261
14171
14072
13950
13839
13756
13677
13586
13505
13441
13369
13285
13214
13157
13092
13021
12963
12916
12857
12796
12757
12732
12696
12656
12634
12620
12589
12552
12533
12522
12499
12473
12462
12448
12412
12377
12360
12339
12297
12258
12232
12195
12136
12081
12045
12010
11977
11979
12030
12110
12218
12380
12596
12843
13121
13439
13786
14131
14464
14806
15147
15452
15718
15965
16182
16341
16452
16535
16579
16567
16516
16453
16365
16240
16105
15988
15872
15746
15625
15522
15420
15322
15249
15204
15163
15119
15097
15103
15107
15095
15090
15096
15088
15064
15048
15041
15022
14989
14968
14964
14949
14923
14920
14940
14955
14964
14989
15026
15050
15069
15103
15135
15144
15149
15174
15199
15206
15214
15240
15261
15256
15246
15243
15225
15181
15130
15079
15010
14923
14837
14764
14683
14586
14496
14417
14320
14202
14095
14006
13917
13828
13757
13703
13640
13567
13515
13479
13423
13350
13292
13241
13172
13103
13051
13005
12950
12901
12876
12857
12821
12785
12762
12732
12693
12667
12657
12643
12614
12587
12572
12546
12500
12456
12420
12368
12304
12256
12222
12175
12122
12091
12083
12086
12113
12192
12319
12472
12663
12917
13222
13544
13884
14256
14639
14999
15343
15684
16000
16272
16515
16739
16924
17054
17145
17212
17236
17203
17147
17089
17013
16909
16800
16694
16579
16455
16345
16257
16169
16078
16010
15969
15920
15863
15832
15823
15809
15791
15790
15794
15775
15742
15723
15710
15685
15655
15643
15644
15639
15643
15671
15701
15717
15739
15779
15819
15845
15869
15901
15928
15943
15969
16012
16039
16035
16026
16020
15992
15939
15887
15842
15784
15712
15649
15592
15521
15438
15363
15295
15215
15128
15054
14985
14903
14817
14745
14681
14604
14524
14458
14395
14318
14244
14192
14139
14064
13996
13953
13910
13855
13805
13770
13733
13688
13655
13636
13609
13568
13536
13519
13491
13454
13435
13428
13410
13383
13369
13357
13323
13277
13242
13206
13146
13081
13039
12998
12934
12867
12818
12772
12714
12662
12631
12607
12573
12554
12577
12630
12706
12825
13003
13217
13455
13738
14076
14437
14800
15182
15578
15952
16291
16617
16926
17191
17408
17597
17755
17857
17908
17937
17938
17890
17807
17711
17598
17457
17310
17185
17065
16929
16800
16704
16622
16534
16458
16404
16353
16297
16255
16237
16219
16186
16158
16147
16129
16099
16077
16065
16044
16013
15996
16001
16004
15999
16009
16039
16058
16068
16095
16134
16162
16190
16236
16286
16315
16327
16345
16363
16361
16347
16340
16325
16278
16216
16159
16092
16002
15908
15819
15721
15611
15506
15411
15308
15191
15091
15015
14936
14846
14765
14689
14598
14501
14422
14355
14278
14193
14126
14075
14011
13936
13875
13823
13755
13676
13616
13571
13513
13452
13409
13377
13338
13301
13279
13252
13208
13171
13161
13146
13102
13052
13017
12984
12944
12912
12894
12868
12831
12807
12801
12781
12740
12705
12676
12631
12579
12544
12508
12446
12367
12297
12235
12155
12067
11999
11947
11885
11827
11796
11771
11730
11685
11650
11612
11562
11514
11475
11432
11377
11333
11310
11278
11225
11176
11138
11086
11013
10940
10880
10813
10741
10689
10661
10634
10617
10650
10745
10891
11094
11375
11721
12102
12513
12966
13445
13912
14363
14814
15256
15655
16010
16337
16620
16842
17018
17162
17252
17278
17265
17230
17159
17050
16928
16805
16659
16483
16298
16118
15938
15763
15614
15492
15375
15261
15174
15116
15061
15009
14983
14981
14973
14956
14952
14959
14948
14922
14916
14926
14926
14927
14952
14979
14991
15005
15036
15069
15093
15124
15179
15235
15272
15317
15386
15456
15504
15544
15590
15625
15640
15648
15655
15634
15580
15522
15471
15406
15321
15241
15165
15069
14959
14865
14783
14688
14588
14505
14432
14345
14250
14166
14088
13991
13887
13803
13723
13631
13544
13480
13424
13362
13314
13289
13263
13222
13189
13173
13154
13117
13082
13060
13026
12975
12925
12882
12833
12770
12718
12684
12644
12592
12555
12530
12491
12446
12421
12404
12371
12332
12300
12266
12214
12155
12113
12080
12033
11986
11960
11935
11895
11857
11829
11791
11734
11676
11627
11565
11480
11400
11339
11270
11185
11109
11046
10974
10886
10804
10733
10653
10569
10513
10492
10488
10518
10616
10776
10977
11226
11541
11912
12303
12706
13138
13582
14003
