58159
58054
57960
57872
57774
57667
57558
57445
57324
57199
57078
56953
56819
56683
56546
56405
56259
56116
55989
55877
55764
55652
55554
55456
55348
55240
55143
55056
54970
54880
54789
54695
54596
54499
54408
54315
54225
54149
54086
54025
53970
53936
53929
53955
54041
54214
54472
54804
55213
55708
56272
56877
57505
58141
58757
59335
59871
60355
60777
61133
61435
61697
61918
62089
62224
62334
62405
62432
62433
62422
62390
62324
62238
62145
62047
61948
61853
61761
61667
61571
61484
61406
61325
61232
61134
61029
60910
60774
60625
60465
60293
60129
59992
59869
59746
59632
59548
59489
59444
59420
59430
59467
59513
59572
59654
59752
59851
59953
60063
60167
60256
60337
60410
60462
60495
60514
60521
60510
60484
60449
60404
60342
60267
60187
60096
59981
59853
59728
59600
59463
59323
59187
59055
58922
58790
58665
58543
58416
58284
58156
58028
57895
57762
57636
57511
57379
57247
57120
56990
56858
56738
56630
56516
56394
56276
56171
56072
55964
55853
55751
55651
55551
55455
55357
55248
55138
55044
54965
54889
54824
54789
54787
54820
54912
55092
55371
55744
56210
56763
57371
58003
58643
59279
59883
60432
60927
61381
61781
62118
62400
62640
62833
62971
63063
63116
63132
63109
63056
62986
62900
62798
62690
62575
62443
62293
62140
61991
61842
61692
61547
61405
61259
61108
60960
60809
60649
60488
60333
60173
60002
59828
59667
59519
59385
59273
59192
59136
59095
59074
59087
59133
59197
59285
59400
59524
59640
59748
59850
59940
60016
60086
60151
60194
60212
60216
60206
60173
60117
60050
59974
59878
59766
59651
59523
59370
59207
59049
58890
58722
58555
58399
58248
58096
57943
57786
57622
57450
57285
57132
56978
56818
56662
56518
56379
56226
56063
55905
55747
55588
55435
55295
55156
55012
54870
54730
54583
54432
54288
54149
54009
53871
53744
53622
53496
53378
53280
53197
53116
53048
53027
53075
53198
53409
53733
54174
54711
55325
55997
56703
57416
58120
58800
59437
60013
60522
60962
61323
61603
61815
61975
62075
62113
62113
62087
62026
61934
61817
61685
61531
61352
61156
60950
60732
60505
60283
60068
59851
59630
59408
59181
58942
58697
58465
58246
58022
57790
57566
57355
57146
56953
56792
56660
56551
56473
56431
56418
56431
56477
56567
56687
56814
56952
57108
57266
57411
57549
57685
57809
57914
58005
58081
58131
58149
58142
58111
58046
57955
57852
57739
57609
57468
57326
57181
57025
56856
56684
56510
56321
56121
55927
55740
55551
55363
55185
55015
54850
54688
54524
54355
54181
54011
53856
53716
53573
53428
53285
53130
52959
52784
52616
52459
52307
52160
52014
51863
51708
51561
51424
51297
51185
51098
51050
51053
51129
51302
51591
52002
52536
53183
53913
54683
55469
56257
57020
57733
58391
58988
59507
59940
60293
60570
60772
60901
60972
61005
61002
60951
60861
60745
60598
60417
60217
60011
59796
59560
59312
59061
58804
58544
58288
58032
57767
57494
57222
56949
56674
56401
56140
55889
55641
55405
55193
55003
54832
54691
54592
54537
54517
54532
54584
54673
54792
54939
55109
55290
55474
55662
55852
56031
56188
56330
56458
56560
56629
56673
56691
56675
56625
56552
56463
56349
56210
56059
55900
55731
55550
55358
55155
54940
54718
54506
54303
54096
53887
53684
53473
53246
53020
52810
52622
52440
52257
52081
51910
51735
51560
51392
51225
51054
50886
50734
50584
50422
50256
50103
49953
49797
49645
49514
49404
49314
49269
49303
49431
49675
50062
50601
51276
52064
52934
53840
54739
55615
56455
57238
57938
58554
59092
59544
59893
60150
60337
60463
60528
60541
60512
60444
60338
60210
60065
59892
59687
59468
59252
59030
58793
58550
58314
58080
57843
57611
57388
57161
56925
56686
56444
56197
55952
55720
55503
55288
55081
54902
54751
54625
54530
54472
54443
54432
54445
54497
54595
54728
54881
55045
55216
55398
55587
55771
55934
56067
56176
56271
56341
56384
56414
56436
56425
56369
56281
56174
56047
55901
55742
55568
55383
55203
55025
54841
54646
54444
54244
54047
53841
53631
53437
53261
53091
52923
52767
52616
52465
52317
52172
52023
51866
51707
51553
51400
51243
51088
50947
50814
50681
50562
50472
50410
50389
50437
50578
50826
51198
51711
52364
53124
53960
54842
55736
56602
57421
58183
58883
59502
60039
60506
60898
61210
61453
61638
61765
61836
61864
61864
61831
61755
61645
61527
61405
61264
61109
60956
60804
60648
60493
60348
60207
60056
59901
59751
59602
59446
59289
59132
58972
58800
58622
58452
58288
58120
57958
57813
57686
57574
57488
57431
57390
57369
57385
57437
57510
57600
57716
57846
57969
58089
58217
58340
58439
58517
58587
58651
58700
58731
58746
58741
58707
58655
58596
58524
58432
58327
58212
58080
57929
57770
57613
57449
57270
57097
56937
56771
56596
56429
56279
56130
55977
55824
55675
55517
55349
55191
55046
54903
54757
54617
54476
54324
54172
54033
53901
53761
53620
53492
53382
53289
53219
53191
53219
53313
53501
53803
54225
54758
55396
56121
56902
57710
58525
59328
60096
60807
61454
62039
62548
62977
63341
63646
63883
64062
64200
64302
64361
64388
64400
64399
64374
64319
64253
64181
64091
63992
63903
63817
63723
63630
63545
63461
63371
63281
63198
63114
63016
62907
62801
62690
62564
62427
62294
62155
62007
61862
61724
61591
61466
61363
61288
61234
61199
61197
61230
61276
61328
61388
61448
61506
61568
61639
61712
61773
61816
61851
61873
61870
61852
61837
61812
61763
61703
61641
61570
61479
61375
61265
61144
61010
60865
60718
60570
60412
60248
60093
59942
59787
59637
59496
59356
59219
59090
58963
58831
58693
58553
58416
58282
58147
58017
57894
57768
57638
57517
57407
57295
57180
57071
56962
56846
56734
56627
56518
56401
56293
56213
56158
56125
56135
56215
56379
56631
56984
57455
58033
58692
59412
60174
60939
61669
62359
63008
63595
62795
58559
51163
42337
33301
24868
17511
11427
6644
3079
581
0
0
0
0
2407
5791
7499
9307
13648
20572
28606
36702
44172
50639
55944
60066
63082
65143
881
1522
1681
1508
1137
656
124
65132
64650
64232
63880
63596
63378
63214
63093
63015
62979
62968
62977
63018
63088
63166
63247
63338
63431
63510
63581
63650
63710
63750
63773
63791
63798
63782
63743
63695
63641
63567
63476
63388
63300
63191
63064
62936
62806
62669
62536
62408
62272
62127
61982
61844
61709
61568
61428
61292
61147
60993
60848
60716
60584
60451
60323
60199
60075
59947
59822
59704
59580
59450
59329
59219
59105
58986
58873
58757
58634
58514
58407
58306
58195
58078
57974
57887
57802
57724
57674
57657
57682
57772
57956
58241
58631
59139
59752
60428
61131
61837
62522
63160
62423
58255
50921
42151
33175
24804
17501
11466
6724
3197
739
0
0
0
0
2623
7300
13659
21890
30636
39002
46455
52719
57702
61461
64130
329
1308
1722
1728
1453
1006
481
65470
64930
64419
63961
63569
63240
62972
62766
62613
62498
62408
62344
62310
62299
62308
62346
62409
62481
62560
62659
62771
62882
62981
63075
63164
63233
63276
63303
63321
63319
63299
63275
63243
63189
63122
63052
62978
62888
62783
62673
62555
62425
62290
62158
62028
61893
61761
61636
61505
61365
61224
61086
60951
60813
60673
60535
60393
60242
60093
59954
59821
59694
59579
59467
59344
59219
59109
59005
58893
58782
58675
58572
58471
58370
58268
58162
58044
57919
57808
57707
57600
57494
57407
57346
57300
57278
57301
57383
57548
57834
58251
58778
59380
60039
60725
61398
62029
62610
63137
63594
63982
64316
64594
64809
64972
65094
65175
65216
65226
65215
65177
65099
64989
64862
64725
64582
64434
64282
64126
63952
63763
63576
63387
63188
62987
62794
62605
62415
62231
62049
61856
61660
61470
61286
61109
60947
60814
60715
60638
60567
60512
60486
60474
60474
60502
60563
60641
60730
60833
60945
61059
61181
61312
61442
61552
61639
61716
61786
61835
61862
61876
61871
61843
61802
61754
61687
61589
61471
61352
61228
61091
60948
60805
60656
60496
60338
60190
60036
59870
59704
59545
59391
59238
59088
58944
58800
58656
58522
58397
58271
58143
58017
57894
57772
57653
57550
57457
57358
57255
57162
57076
56984
56886
56792
56701
56607
56510
56423
56350
56278
56200
56123
56042
55951
55861
55780
55696
55608
55530
55481
55463
55477
55552
55717
55981
56354
56843
57432
58090
58783
59481
60153
60771
61325
61816
62240
62585
62858
63074
63232
63334
63394
63420
63412
63366
63293
63204
63097
62965
62817
62663
62500
62314
62113
61913
61705
61484
61266
61054
60837
60608
60374
60147
59919
59683
59446
59215
58983
58749
58534
58350
58194
58065
57964
57894
57853
57834
57845
57883
57940
58020
58129
58261
58403
58557
58731
58916
59092
59250
59386
59494
59572
59628
59673
59701
59700
59680
59650
59600
59527
59449
59377
59297
59195
59079
58959
58827
58683
58539
58401
58260
58107
57946
57783
57610
57433
57265
57105
56942
56778
56630
56492
56345
56197
56066
55948
55829
55712
55603
55500
55399
55297
55195
55091
54978
54859
54744
54634
54518
54404
54306
54218
54130
54051
53981
53909
53831
53756
53676
53580
53475
53375
53282
53185
53092
53018
52968
52943
52963
53061
53259
53561
53972
54496
55125
55828
56574
57331
58058
58719
59300
59807
60241
60595
60872
61089
61249
61348
61393
61401
61376
61319
61239
61136
61006
60849
60667
60469
60260
60039
59811
59580
59334
59068
58797
58531
58264
57990
57717
57448
57174
56894
56613
56330
56047
55774
55526
55311
55125
54971
54859
54784
54733
54711
54728
54776
54845
54936
55059
55210
55376
55556
55756
55969
56181
56388
56587
56763
56908
57028
57129
57209
57261
57282
57279
57256
57211
57149
57071
56974
56858
56736
56612
56473
56317
56162
56013
55855
55689
55527
55368
55206
55044
54881
54714
54540
54366
54199
54036
53873
53709
53556
53413
53272
53137
53017
52902
52788
52679
52574
52461
52340
52226
52123
52011
51880
51750
51638
51538
51441
51350
51262
51170
51079
50994
50907
50809
50708
50626
50572
50538
50536
50600
50752
51007
51393
51927
52590
53347
54165
55009
55836
56605
57296
57904
58420
58834
59157
59404
59581
59687
59738
59750
59726
59667
59586
59485
59355
59191
59004
58808
58598
58368
58124
57870
57602
57319
57030
56745
56453
56147
55834
55514
55183
54852
54548
54267
53991
53722
53479
53260
53060
52892
52767
52679
52619
52592
52601
52644
52715
52823
52970
53145
53333
53541
53772
54011
54245
54481
54718
54939
55130
55290
55425
55530
55599
55641
55663
55663
55641
55608
55562
55491
55396
55292
55183
55053
54904
54749
54587
54410
54228
54058
53890
53716
53544
53388
53243
53095
52947
52811
52682
52548
52415
52288
52164
52041
51923
51808
51688
51559
51428
51301
51173
51045
50930
50827
50720
50600
50477
50356
50237
50117
49995
49873
49751
49637
49544
49480
49449
49469
49565
49751
50038
50438
50962
51599
52329
53131
53974
54808
55589
56293
56915
57451
57898
58268
58563
58776
58912
58989
59016
59001
58952
58883
58799
58691
58554
58395
58221
58026
57811
57589
57367
57136
56889
56637
56386
56129
55867
55610
55349
55077
54806
54538
54266
53989
53725
53489
53277
53081
52907
52765
52654
52567
52510
52489
52494
52524
52589
52690
52819
52966
53140
53348
53572
53795
54016
54232
54433
54613
54778
54925
55043
55127
55183
55214
55218
55196
55161
55114
55044
54952
54854
54757
54652
54534
54408
54274
54127
53978
53838
53697
53542
53379
53218
53056
52892
52734
52593
52459
52327
52198
52079
51961
51843
51733
51634
51530
51412
51295
51191
51090
50981
50873
50770
50667
50565
50465
50362
50253
50147
50050
49960
49869
49778
49707
49661
49634
49646
49738
49933
50238
50662
51208
51858
52577
53342
54130
54900
55611
56248
56811
57295
57700
58036
58314
58519
58647
58725
58769
58767
58727
58672
58603
58507
58383
58245
58098
57931
57743
57549
57356
57159
56957
56753
56542
56318
56081
55846
55622
55397
55166
54935
54704
54469
54241
54035
53845
53667
53517
53406
53329
53278
53250
53246
53263
53298
53358
53450
53569
53701
53846
54002
54160
54318
54480
54643
54793
54928
55056
55170
55258
55321
55364
55383
55373
55346
55313
55270
55204
55120
55029
54927
54809
54677
54546
54419
54281
54136
53992
53840
53678
53521
53377
53242
53107
52974
52847
52721
52588
52460
52347
52234
52109
51984
51868
51751
51628
51509
51399
51291
51184
51084
50988
50882
50767
50663
50573
50485
50400
50332
50275
50214
50150
50098
50065
50058
50102
50232
50462
50795
51240
51796
52439
53137
53862
54587
55278
55908
56477
56984
57414
57761
58041
58266
58430
58533
58589
58605
58580
58519
58436
58338
58226
58097
57960
57818
57658
57485
57312
57140
56959
56771
56582
56390
56195
56005
55826
55645
55453
55257
55065
54875
54686
54502
54333
54175
54026
53896
53794
53717
53657
53622
53625
53663
53720
53794
53893
54019
54165
54320
54483
54651
54817
54984
55146
55286
55396
55484
55552
55594
55610
55608
55590
55542
55470
55396
55322
55228
55118
55009
54901
54778
54650
54530
54412
54284
54156
54034
53910
53783
53659
53543
53432
53318
53199
53078
52949
52813
52678
52550
52422
52298
52189
52094
51998
51898
51801
51710
51618
51527
51444
51366
51283
51194
51108
51024
50935
50848
50778
50715
50645
50580
50529
50487
50455
50448
50490
50597
50779
51056
51450
51949
52523
53162
53849
54542
55199
55805
56357
56841
57248
57583
57853
58059
58203
58305
58377
58415
58422
58406
58363
58292
58199
58098
57988
57860
57716
57572
57426
57270
57105
56944
56785
56620
56451
56281
56103
55913
55723
55537
55350
55161
54982
54819
54664
54510
54368
54248
54146
54064
54015
54007
54031
54079
54146
54229
54327
54442
54580
54742
54908
55065
55219
55370
55504
55614
55707
55780
55826
55851
55862
55854
55821
55768
55701
55619
55522
55421
55325
55236
55140
55035
54930
54817
54687
54557
54432
54307
54170
54027
53891
53764
53631
53496
53372
53254
53133
53015
52904
52787
52665
52550
52444
52337
52225
52122
52035
51948
51859
51783
51722
51657
51582
51507
51430
51343
51253
51169
51091
51018
50955
50904
50851
50794
50751
50744
50783
50875
51039
51294
51644
52085
52614
53219
53858
54491
55101
55681
56213
56675
57067
57397
57658
57853
58000
58107
58174
58206
58209
58181
58120
58038
57946
57839
57708
57558
57403
57251
57091
56921
56755
56594
56430
56264
56097
55927
55745
55554
55362
55169
54970
54774
54590
54412
54234
54068
53926
53804
53696
53612
53560
53538
53544
53586
53662
53763
53884
54033
54207
54386
54560
54726
54876
55004
55121
55232
55331
55401
55443
55475
55491
55469
55411
55339
55258
55160
55053
54948
54841
54723
54598
54468
54329
54177
54023
53880
53740
53589
53435
53291
53147
52998
52854
52722
52592
52462
52338
52224
52116
52008
51898
51791
51690
51597
51508
51416
51319
51224
51141
51064
50975
50879
50788
50697
50599
50501
50410
50324
50237
50150
50069
49995
49924
49863
49831
49829
49859
49947
50116
50369
50711
51159
51701
52303
52939
53593
54246
54862
55420
55925
56372
56740
57028
57257
57438
57566
57641
57671
57660
57610
57534
57447
57348
57225
57078
56922
56759
56576
56381
56190
56000
55802
55599
55401
55203
54994
54781
54571
54358
54139
53927
53726
53526
53326
53146
52993
52865
52761
52687
52647
52642
52667
52722
52804
52904
53022
53172
53345
53532
53728
53932
54134
54320
54486
54642
54780
54890
54978
55046
55082
55074
55036
54983
54907
54810
54710
54616
54520
54416
54308
54199
54082
53949
53805
53662
53518
53366
53215
53078
52948
52810
52675
52550
52420
52280
52144
52019
51899
51785
51679
51580
51484
51385
51292
51208
51117
51022
50942
50873
50801
50726
50655
50594
50535
50481
50436
50391
50333
50272
50223
50192
50187
50231
50351
50558
50856
51252
51744
52309
52915
53540
54167
54778
55355
55889
56372
56788
57134
57423
57657
57832
57955
58041
58091
58096
58062
58003
57916
57805
57679
57546
57410
57270
57132
57003
56874
56733
56582
56428
56265
56093
55922
55759
55596
55421
55244
55072
54899
54723
54554
54403
54269
54151
54058
53999
53973
53973
54004
54067
54149
54242
54356
54497
54656
54827
55004
55176
55334
55477
55605
55709
55788
55845
55891
55925
55936
55928
55911
55878
55817
55736
55653
55563
55461
55353
55247
55133
55003
54868
54738
54607
54465
54317
54168
54013
53855
53708
53573
53441
53315
53200
53098
53008
52925
52844
52766
52682
52595
52517
52453
52388
52317
52245
52169
52084
52002
51936
51882
51823
51763
51707
51648
51582
51521
51475
51434
51384
51328
51280
51243
51217
51221
51293
51446
51678
52003
52424
52925
53490
54107
54752
55393
56003
56575
57104
57573
57974
58319
58607
58834
59003
59131
59226
59286
59316
59325
59317
59281
59222
59150
59063
58959
58849
58743
58629
58504
58383
58271
58155
58033
57908
57784
57663
57543
57430
57327
57223
57109
56992
56881
56766
56643
56528
56438
56368
56320
56299
56302
56318
56347
56396
56465
56549
56648
56765
56890
57007
57118
57229
57332
57413
57479
57544
57602
57641
57661
57668
57661
57630
57582
57535
57484
57414
57329
57243
57149
57037
56912
56788
56667
56541
56414
56293
56168
56040
55915
55798
55684
55566
55445
55325
55202
55073
54948
54830
54714
54606
54515
54433
54350
54272
54210
54158
54101
54037
53979
53933
53888
53839
53797
53756
53702
53638
53574
53507
53431
53355
53288
53222
53154
53094
53044
52999
52958
52931
52927
52959
53039
53185
53410
53716
54105
54581
55132
55719
56316
56910
57490
58035
58539
59003
59418
59769
60062
60314
60523
60683
60799
60884
60938
60960
60957
60934
60892
60830
60753
60671
60582
60487
60392
60302
60208
60112
60020
59935
59849
59759
59676
59601
59524
59438
59344
59247
59146
59040
58940
58849
58755
58659
58582
58530
58496
58476
58476
58490
58508
58533
58573
58632
58701
58775
58855
58935
59006
59081
59164
59233
59278
59310
59335
59347
59334
59302
59265
59221
59164
59097
59030
58960
58878
58788
58696
58583
58449
58314
58181
58040
57896
57760
57626
57483
57337
57199
57068
56933
56798
56675
56561
56445
56332
56232
56143
56054
55968
55889
55811
55728
55646
55573
55500
55422
55350
55294
55243
55182
55118
55063
55014
54965
54913
54864
54818
54769
54717
54659
54585
54501
54418
54340
54260
54181
54114
54058
53997
53939
53905
53901
53934
54027
54203
54464
54807
55234
55741
56299
56879
57469
58063
58634
59158
59639
60085
60485
60829
61122
61371
61571
61714
61810
61872
61901
61894
61866
61830
61779
61697
61595
61489
61379
61263
61148
61039
60931
60830
60738
60647
60553
60460
60374
60292
60202
60099
59995
59894
59784
59668
59562
59465
59370
59291
59237
59199
59164
59141
59142
59161
59192
59240
59304
59370
59435
59504
59584
59664
59731
59790
59850
59906
59948
59981
60007
60012
59991
59961
59928
59883
59823
59750
59664
59558
59439
59319
59193
59061
58930
58805
58673
58526
58382
58251
58119
57977
57837
57711
57590
57463
57338
57224
57115
56999
56876
56760
56651
56537
56423
56320
56224
56130
56044
55973
55904
55835
55778
55729
55676
55616
55562
55515
55466
55411
55357
55303
55240
55177
55120
55061
54997
54933
54878
54824
54755
54677
54605
54533
54446
54345
54248
54165
54086
54010
53948
53903
53886
53921
54038
54245
54533
54905
55370
55913
56502
57118
57753
58380
58973
59521
60016
60442
60799
61104
61367
61578
61737
61858
61947
61999
62012
61994
61949
61882
61800
61711
61615
61505
61381
61252
61120
60980
60839
60716
60609
60498
60382
60272
60160
60032
59903
59783
59660
59523
59384
59255
59132
59013
58913
58840
58782
58729
58694
58687
58699
58722
58760
58812
58873
58942
59024
59112
59190
59257
59323
59388
59446
59499
59549
59590
59610
59608
59593
59565
59516
59453
59383
59296
59187
59074
58960
58835
58696
58554
58413
58262
58099
57934
57778
57627
57474
57328
57193
57051
56896
56737
56589
56447
56304
56162
56024
55883
55743
55618
55506
55393
55283
55182
55078
54971
54873
54789
54709
54625
54546
54487
54437
54380
54323
54275
54233
54185
54131
54081
54023
53947
53865
53780
53684
53575
53461
53354
53245
53129
53017
52916
52813
52704
52601
52511
52432
52368
52340
52372
52469
52649
52936
53329
53811
54370
54993
55656
56325
56984
57622
58217
58747
59209
59609
59948
60221
60434
60600
60719
60785
60803
60787
60736
60645
60527
60401
60257
60088
59906
59721
59532
59337
59145
58962
58783
58610
58445
58286
58126
57959
57792
57626
57449
57263
57084
56909
56728
56552
56398
56264
56142
56040
55965
55910
55876
55874
55910
55973
56048
56134
56238
56354
56470
56586
56708
56832
56940
57030
57112
57185
57236
57268
57281
57264
57216
57147
57067
56976
56861
56720
56559
56381
56193
56011
55840
55663
55475
55291
55116
54939
54765
54603
54446
54282
54112
53943
53776
53608
53444
53291
53146
53001
52859
52729
52608
52489
52376
52280
52198
52112
52024
51951
51884
51808
51727
51649
51569
51486
51411
51349
51288
51217
51142
51064
50974
50875
50782
50700
50616
50524
50429
50331
50223
50109
50001
49913
49849
49822
49845
49938
50116
50397
50792
51299
51895
52554
53256
53977
54688
55379
56044
56666
57215
57682
58074
58387
58621
58793
58915
58977
58981
58945
58883
58791
58669
58524
58358
58164
57951
57738
57525
57298
57055
56809
56564
56316
56067
55824
55587
55346
55110
54886
54663
54429
54195
53973
53765
53572
53403
53267
53159
53077
53032
53034
53074
53134
53218
53334
53470
53615
53780
53957
54130
54294
54455
54617
54773
54909
55026
55124
55196
55237
55253
55253
55232
55184
55120
55038
54932
54812
54692
54574
54451
54323
54194
54057
53902
53732
53561
53391
53212
53030
52852
52673
52495
52325
52172
52029
51893
51770
51656
51542
51427
51323
51235
51145
51046
50953
50871
50783
50688
50596
50510
50419
50325
50238
50150
50049
49940
49834
49734
49634
49542
49478
49437
49393
49356
49345
49360
49403
49498
49677
49953
50330
50816
51405
52063
52757
53473
54200
54913
55586
56209
56779
57278
57693
58035
58314
58522
58661
58748
58790
58785
58736
58657
58553
58417
58255
58083
57903
57706
57498
57294
57088
56867
56637
56408
56175
55937
55702
55475
55247
55007
54764
54528
54301
54077
53864
53670
53495
53334
53199
53093
53013
52956
52929
52937
52969
53019
53092
53194
53312
53430
53550
53682
53815
53939
54055
54163
54252
54322
54378
54420
54441
54437
54410
54355
54275
54185
54089
53974
53838
53688
53539
53386
53226
53062
52898
52732
52557
52379
52214
52063
51912
51757
51606
51453
51300
51152
51019
50897
50779
50675
50591
50516
50443
50373
50304
50231
50158
50096
50053
50021
49988
49955
49913
49854
49788
49723
49659
49590
49520
49454
49389
49329
49296
49310
49369
49484
49689
50008
50446
50992
51641
52375
53161
53968
54778
55575
56326
57012
57629
58179
58650
59037
59349
59602
59799
59941
60042
60108
60132
60117
60076
60015
59932
59832
59729
59623
59500
59363
59228
59098
58967
58834
58709
58589
58460
58325
58196
58069
57934
57799
57669
57533
57391
57251
57111
56968
56828
56706
56602
56512
56435
56382
56361
56371
56414
56493
56600
56720
56849
56995
57157
57310
57445
57576
57707
57821
57907
57976
58027
58048
58043
58027
57996
57942
57872
57798
57717
57621
57516
57417
57319
57209
57090
56971
56849
56716
56579
56454
56334
56203
56067
55937
55797
55645
55498
55365
55237
55107
54982
54862
54735
54603
54479
54367
54255
54144
54036
53924
53796
53651
53503
53360
53212
53050
52886
52724
52556
52384
52224
52085
51973
51905
51905
51986
52162
52454
52869
53383
53965
54596
55256
55918
56553
57150
57701
58189
58606
58963
59266
59504
59672
59790
59869
59912
59920
59898
59845
59756
59641
59527
59415
59286
59134
58972
58807
58632
58454
58288
58132
57971
57809
57664
57526
57376
57223
57081
56948
56815
56684
56567
56465
56366
56274
56198
56134
56076
56036
56014
56001
55992
56003
56040
56098
56167
56248
56341
56434
56521
56608
56693
56764
56815
56851
56866
56847
56797
56728
56646
56550
56443
56331
56207
56059
55901
55749
55603
55450
55292
55142
55001
54860
54717
54584
54459
54331
54208
54093
53969
53830
53692
53562
53437
53314
53192
53075
52954
52825
52702
52586
52469
52356
52251
52150
52047
51941
51843
51750
51653
51549
51448
51351
51254
51163
51087
51022
50961
50906
50874
50870
50901
50990
51169
51449
51820
52285
52852
53497
54183
54893
55617
56324
56990
57605
58164
58650
59053
59386
59654
59854
59994
60087
60139
60147
60116
60056
59968
59851
59706
59540
59365
59186
59008
58836
58667
58495
58324
58165
58013
57854
57693
57542
57397
57243
57081
56919
56754
56581
56405
56243
56094
55952
55829
55735
55661
55598
55559
55551
55562
55580
55611
55667
55737
55817
55912
56018
56122
56220
56318
56412
56487
56544
56593
56628
56637
56620
56590
56544
56473
56381
56280
56169
56042
55913
55788
55657
55515
55374
55246
55119
54982
54845
54718
54596
54475
54363
54264
54171
54077
53983
53896
53808
53712
53616
53526
53439
53353
53276
53213
53149
53079
53014
52954
52889
52823
52760
52688
52600
52506
52411
52309
52198
52090
51994
51901
51805
51709
51619
51533
51445
51369
51329
51330
51375
51489
51703
52018
52416
52893
53446
54049
54675
55312
55949
56566
57152
57706
58215
58655
59020
59319
59562
59746
59876
59961
60004
59999
59957
59896
59812
59693
59545
59384
59211
59022
58826
58632
58440
58249
58062
57883
57708
57528
57353
57188
57018
56839
56662
56495
56333
56168
56006
55865
55742
55621
55512
55431
55377
55348
55352
55389
55446
55518
55609
55716
55827
55941
56061
56186
56300
56393
56473
56544
56595
56617
56619
56597
56548
56480
56405
56323
56217
56091
55958
55812
55650
55481
55310
55136
54956
54776
54599
54422
54244
54075
53929
53791
53642
53489
53344
53207
53066
52924
52785
52639
52484
52334
52192
52052
51913
51785
51666
51545
51424
51318
51218
51110
51004
50912
50829
50740
50652
50572
50492
50401
50309
50224
50135
50036
49940
49859
49786
49717
49667
49664
49718
49833
50034
50342
50756
51256
51834
52479
53164
53864
54570
55268
55924
56521
57063
57549
57959
58288
58548
58747
58878
58944
58965
58944
58874
58769
58651
58523
58378
58214
58036
57839
57620
57386
57152
56925
56694
56460
56234
56015
55798
55593
55401
55212
55022
54848
54693
54533
54360
54196
54052
53930
53836
53775
53748
53755
53800
53884
53993
54119
54257
54409
54578
54745
54899
55056
55212
55356
55487
55604
55699
55766
55807
55825
55816
55780
55722
55651
55564
55458
55344
55223
55081
54922
54761
54606
54448
54275
54091
53908
53720
53531
53360
53203
53052
52915
52793
52680
52569
52456
52346
52245
52145
52042
51943
51847
51742
51630
51525
51429
51335
51239
51143
51048
50950
50853
50761
50674
50588
50507
50438
50379
50323
50291
50311
50397
50559
50812
51177
51646
52192
52801
53464
54157
54852
55537
56200
56817
57373
57862
58281
58629
58906
59119
59278
59381
59431
59441
59415
59352
59261
59157
59038
58898
58747
58591
58422
58236
58041
57849
57658
57460
57262
57072
56882
56690
56504
56322
56130
55927
55726
55545
55383
55238
55119
55026
54951
54900
54888
54912
54961
55033
55127
55234
55348
55477
55628
55792
55953
56114
56282
56436
56555
56647
56732
56807
56855
56875
56881
56874
56844
56800
56753
56696
56620
56532
56436
56329
56207
56075
55934
55775
55596
55413
55245
55085
54916
54746
54584
54425
54271
54130
54008
53896
53787
53683
53579
53468
53354
53248
53150
53047
52940
52833
52727
52617
52508
52406
52306
52203
52105
52021
51945
51859
51775
51713
51664
51616
51581
51588
51647
51765
51969
52280
52694
53199
53789
54447
55142
55842
56528
57194
57820
58385
58882
59312
59673
59971
60217
60416
60562
60656
60711
60736
60724
60678
60617
60540
60433
60303
60166
60025
59877
59727
59583
59439
59289
59135
58985
58840
58693
58542
58391
58240
58086
57937
57798
57664
57535
57426
57336
57253
57177
57116
57073
57041
57026
57038
57072
57119
57176
57253
57348
57446
57546
57657
57777
57888
57982
58068
58143
58191
58211
58222
58230
58225
58206
58172
58114
58031
57931
57827
57717
57596
57471
57346
57209
57058
56906
56758
56605
56448
56306
56180
56053
55917
55786
55669
55553
55429
55311
55203
55095
54988
54886
54786
54678
54564
54454
54348
54237
54133
54047
53973
53898
53820
53742
53661
53573
53483
53397
53310
53216
53125
53048
52982
52931
52915
52945
53027
53177
53413
53744
54163
54657
55221
55846
56505
57173
57838
58483
59081
59619
60099
60525
60887
61183
61427
61636
61802
61913
61977
62007
62014
62003
61980
61940
61874
61791
61706
61612
61498
61380
61270
61162
61048
60934
60827
60728
60622
60508
60396
60283
60165
60037
59895
59742
59585
59434
59296
59166
59039
58930
58847
58783
58733
58709
58713
58737
58773
58823
58884
58953
59033
59123
59215
59297
59366
59431
59491
59537
59565
59581
59585
59568
59536
59501
59453
59378
59286
59191
59091
58972
58843
58714
58576
58429
58278
58130
57982
57833
57692
57560
57427
57284
57140
56998
56848
56692
56544
56409
56282
56161
56049
55943
55832
55713
55594
55480
55367
55263
55181
55113
55039
54956
54878
54806
54723
54631
54546
54462
54371
54283
54206
54132
54053
53979
53920
53872
53839
53840
53898
54013
54190
54460
54835
55296
55822
56407
57035
57675
58306
58924
59511
60049
60533
60962
61334
61643
61897
62110
62283
62408
62493
62547
62569
62557
62514
62452
62366
62249
62120
61999
61885
61766
61643
61522
61402
61277
61156
61054
60965
60871
60777
60685
60579
60457
60334
60212
60079
59941
59815
59702
59594
59489
59405
59345
59298
59265
59252
59255
59265
59290
59337
59401
59469
59539
59622
59708
59781
59841
59897
59940
59958
59958
59945
59917
59866
59797
59729
59659
59573
59479
59386
59280
59150
59006
58860
58713
58563
58417
58278
58130
57966
57804
57656
57515
57377
57249
57127
56995
56858
56731
56612
56486
56358
56240
56129
56013
55896
55793
55704
55608
55502
55400
55303
55208
55120
55045
54972
54888
54797
54714
54636
54555
54477
54404
54325
54232
54139
54060
53985
53907
53844
53804
53788
53805
53880
54031
54261
54576
54982
55479
56045
56653
57286
57920
58535
59129
59698
60228
60702
61111
61461
61747
61964
62126
62248
62329
62369
62380
62369
62328
62254
62157
62056
61957
61845
61722
61599
61465
61320
61184
61058
60922
60779
60643
60511
60368
60209
60049
59893
59734
59574
59422
59284
59149
59016
58903
58812
58732
58667
58631
58622
58626
58641
58675
58729
58794
58872
58967
59063
59146
59220
59289
59347
59389
59423
59444
59438
59405
59355
59297
59226
59137
59042
58943
58828
58694
58556
58420
58277
58126
57972
57815
57648
57476
57308
57137
56951
56758
56574
56398
56218
56034
55855
55681
55504
55337
55191
55053
54910
54770
54638
54506
54375
54250
54137
54030
53917
53804
53703
53607
53508
53408
53309
53210
53107
53007
52915
52817
52706
52594
52485
52369
52246
52133
52030
51927
51824
51735
51663
51607
51590
51636
51756
51958
52250
52643
53134
53703
54329
54992
55666
56331
56973
57579
58132
58624
59056
59433
59750
59999
60182
60308
60375
60388
60367
60326
60254
60140
59994
59826
59631
59419
59209
59003
58790
58567
58343
58121
57893
57664
57442
57225
56998
56766
56542
56327
56110
55899
55707
55539
55385
55245
55128
55028
54937
54870
54841
54842
54864
54909
54981
55075
55178
55291
55424
55558
55684
55805
55921
56023
56101
56159
56203
56225
56213
56179
56132
56065
55981
55889
55790
55668
55523
55368
55202
55019
54824
54625
54423
54213
54003
53805
53615
53423
53228
53044
52877
52717
52560
52412
52269
52122
51973
51826
51678
51528
51385
51251
51119
50991
50875
50767
50656
50537
50424
50318
50205
50077
49941
49810
49678
49543
49419
49307
49193
49078
48979
48894
48815
48752
48734
48779
48894
49098
49416
49852
50388
51009
51700
52435
53173
53893
54593
55255
55853
56385
56856
57257
57577
57824
58007
58120
58166
58164
58117
58029
57911
57766
57598
57406
57190
56960
56719
56460
56186
55917
55656
55397
55141
54895
54656
54414
54168
53925
53682
53435
53193
52971
52765
52565
52382
52233
52120
52031
51971
51948
51952
51972
52013
52088
52192
52306
52432
52587
52764
52950
53139
53321
53472
53586
53676
53748
53806
53843
53855
53845
53806
53741
53664
53576
53469
53343
53212
53073
52918
52750
52581
52409
52223
52033
51848
51667
51484
51306
51143
50990
50837
50688
50550
50418
50279
50139
50005
49875
49747
49626
49511
49386
49251
49125
49011
48899
48788
48688
48595
48497
48390
48289
48198
48109
48022
47943
47876
47827
47804
47835
47945
48145
48444
48860
49393
50020
50716
51465
52239
53005
53745
54462
55134
55735
56267
56736
57126
57436
57676
57852
57958
58001
57991
57936
57841
57711
57558
57388
57203
56999
56782
56560
56330
56093
55858
55626
55390
55150
54916
54687
54459
54235
54024
53822
53621
53427
53244
53059
52872
52702
52566
52460
52375
52320
52308
52333
52378
52440
52527
52636
52753
52879
53021
53166
53297
53417
53535
53647
53745
53833
53905
53952
53972
53976
53969
53943
53896
53828
53737
53624
53496
53357
53211
53054
52886
52720
52557
52389
52215
52039
51862
51682
51510
51353
51205
51058
50915
50778
50642
50502
50364
50239
50120
49996
49874
49762
49650
49532
49419
49313
49199
49075
48953
48841
48738
48635
48535
48438
48338
48234
48142
48071
48015
47986
48009
48107
48295
48587
48998
49525
50152
50862
51626
52408
53177
53921
54635
55308
55927
56482
56969
57386
57722
57981
58174
58306
58382
58412
58407
58365
58286
58180
58055
57908
57744
57575
57405
57221
57026
56835
56654
56474
56295
56127
55968
55809
55644
55476
55299
55113
54927
54752
54585
54413
54235
54073
53942
53847
53783
53751
53743
53745
53761
53805
53877
53962
54057
54166
54278
54385
54494
54612
54727
54832
54929
55012
55068
55087
55078
55056
55020
54967
54904
54838
54757
54660
54553
54433
54295
54146
53999
53850
53690
53527
53376
53231
53081
52926
52773
52616
52452
52291
52140
51995
51848
51704
51573
51452
51331
51212
51100
50987
50871
50756
50640
50516
50383
50255
50135
50014
49888
49775
49680
49591
49512
49457
49432
49446
49520
49678
49930
50272
50710
51251
51875
52552
53259
53985
54712
55413
56070
56673
57206
57658
58043
58369
58635
58835
58982
59085
59143
59158
59141
59094
59016
58912
58797
58679
58559
58426
58287
58148
58001
57851
57710
57577
57448
57323
57204
57086
56952
56805
56664
56525
56375
56225
56093
55974
55854
55736
55628
55537
55460
55404
55378
55380
55396
55427
55483
55558
55635
55721
55819
55920
56014
56106
56206
56295
56356
56398
56435
56456
56450
56432
56410
56370
56306
56229
56144
56041
55920
55790
55655
55502
55341
55191
55045
54890
54725
54559
54397
54241
54095
53961
53829
53687
53543
53414
53299
53185
53067
52955
52845
52728
52611
52502
52391
52274
52160
52057
51960
51863
51770
51687
51599
51499
51401
51313
51234
51162
51111
51089
51091
51129
51236
51433
51716
52089
52557
53103
53695
54326
54991
55664
56311
56920
57489
58009
58467
58866
59209
59490
59702
59860
59978
60055
60087
60086
60061
60007
59926
59830
59730
59623
59506
59389
59281
59171
59047
58920
58802
58689
58574
58462
58352
58231
58097
57961
57828
57695
57560
57431
57310
57194
57086
57000
56939
56889
56854
56842
56847
56858
56877
56918
56977
57042
57116
57204
57299
57391
57482
57575
57662
57727
57778
57820
57838
57833
57814
57787
57753
57706
57646
57575
57484
57379
57271
57161
57043
56919
56798
56676
56544
56407
56282
56166
56041
55909
55777
55637
55487
55344
55222
55107
54991
54887
54797
54710
54612
54510
54419
54336
54244
54144
54047
53957
53869
53782
53693
53596
53487
53383
53292
53201
53107
53027
52965
52915
52877
52870
52917
53022
53196
53459
53811
54237
54737
55307
55920
56543
57162
57774
58364
58911
59407
59849
60231
60553
60824
61047
61215
61329
61405
61452
61470
61459
61422
61367
61293
61197
61090
60984
60877
60766
60665
60581
60501
60411
60314
60213
60098
59968
59845
59734
59619
59501
59383
59265
59143
59019
58907
58812
58725
58648
58587
58544
58519
58514
58532
58567
58608
58660
58731
58817
58904
58989
59067
59130
59176
59211
59247
59281
59300
59308
59307
59279
59224
59159
59097
59034
58965
58897
58827
58744
58645
58539
58431
58315
58194
58081
57972
57855
57730
57601
57470
57333
57191
57060
56941
56828
56717
56610
56504
56387
56264
56146
56030
55904
55781
55678
55585
55481
55369
55267
55177
55085
54993
54911
54826
54726
54623
54532
54453
54376
54302
54243
54198
54170
54178
54238
54357
54552
54846
55232
55689
56211
56794
57404
58001
58574
59133
59664
60139
60549
60901
61199
61440
61631
61782
61885
61946
61973
61977
61959
61913
61841
61752
61642
61509
61366
61225
61083
60938
60793
60651
60509
60365
60223
60082
59930
59765
59592
59407
59209
59007
58812
58621
58440
58279
58151
58052
57969
57899
57847
57816
57798
57794
57814
57857
57910
57967
58035
58106
58168
58221
58274
58322
58355
58376
58389
58385
58360
58313
58251
58174
58073
57957
57833
57691
57535
57373
57211
57044
56871
56699
56533
56364
56191
56024
55865
55706
55548
55404
55282
55168
55050
54927
54795
54649
54499
54357
54221
54088
53959
53844
53737
53623
53507
53399
53290
53171
53057
52956
52849
52729
52608
52490
52367
52238
52115
52004
51894
51785
51691
51614
51549
51501
51492
51534
51626
51781
52030
52384
52824
53336
53909
54524
55157
55792
56419
57020
57569
58065
58508
58886
59188
59423
59605
59737
59812
59840
59826
59763
59652
59509
59351
59183
59002
58811
58613
58408
58199
58000
57809
57615
57417
57224
57038
56848
56652
56462
56274
56070
55856
55658
55492
55343
55205
55091
54999
54922
54869
54851
54856
54876
54919
54988
55074
55173
55290
55421
55551
55680
55811
55938
56047
56131
56198
56259
56296
56299
56281
56255
56213
56154
56082
55996
55890
55765
55631
55493
55346
55196
55056
54926
54796
54665
54544
54434
54321
54205
54096
53988
53867
53743
53630
53526
53422
53320
53225
53127
53017
52904
52801
52698
52588
52480
52381
52276
52157
52038
51929
51825
51721
51623
51540
51469
51397
51328
51266
51216
51188
51209
51296
51451
51687
52024
52463
52979
53552
54174
54820
55458
56071
56662
57223
57739
58203
58614
58967
59255
59483
59663
59793
59870
59905
59922
59914
59865
59782
59678
59548
59392
59231
59073
58910
58739
58561
58378
58182
57969
57753
57541
57326
57105
56888
56678
56481
56302
56145
56004
55872
55758
55674
55618
55584
55585
55626
55695
55780
55874
55980
56100
56224
56347
56472
56593
56698
56791
56881
56965
57028
57073
57100
57095
57059
57010
56951
56883
56806
56723
56630
56520
56392
56264
56138
55999
55846
55695
55546
55393
55240
55096
54954
54808
54670
54554
54456
54358
54259
54167
54067
53938
53791
53647
53508
53361
53215
53079
52943
52801
52662
52536
52414
52287
52162
52049
51942
51843
51770
51730
51711
51721
51791
51942
52170
52476
52866
53338
53878
54470
55099
55741
56377
56995
57584
58125
58598
59001
59351
59653
59891
60066
60194
60273
60300
60286
60246
60184
60102
60009
59905
59782
59645
59511
59388
59271
59146
59020
58893
58756
58600
58437
58270
58096
57910
57724
57545
57361
57176
57010
56866
56731
56604
56506
56447
56414
56399
56413
56456
56509
56573
56662
56769
56874
56978
57090
57201
57299
57386
57468
57540
57594
57637
57669
57678
57655
57607
57546
57469
57368
57256
57145
57027
56896
56766
56640
56503
56351
56204
56067
55924
55774
55633
55500
55370
55243
55126
55022
54919
54816
54722
54640
54558
54473
54391
54308
54214
54106
53989
53860
53715
53560
53404
53246
53086
52934
52797
52670
52552
52449
52359
52273
52209
52199
52253
52372
52571
52873
53285
53789
54364
55003
55696
56412
57120
57797
58433
59005
59502
59936
60318
60638
60894
61102
61264
61370
61423
61439
61420
61363
61279
61180
61057
60907
60749
60600
60455
60305
60155
60025
59916
59812
59707
59605
59499
59372
59234
59103
58972
58831
58687
58539
58381
58223
58079
57956
57851
57762
57699
57663
57639
57626
57640
57680
57723
57766
57821
57888
57957
58025
58095
58162
58219
58271
58318
58355
58373
58377
58377
58369
58342
58302
58255
58194
58113
58021
57932
57836
57726
57613
57506
57400
57287
57167
57031
56875
56706
56546
56408
56273
56131
55992
55858
55726
55600
55480
55359
55225
55079
54936
54797
54655
54516
54383
54251
54112
53971
53840
53717
53594
53480
53389
53307
53223
53143
53080
53030
52995
52992
53052
53192
53418
53741
54156
54642
55189
55799
56457
57134
57801
58450
59070
59633
60130
60573
60963
61289
61549
61758
61922
62040
62117
62169
62191
62170
62118
62055
61977
61871
61752
61635
61512
61374
61233
61108
60988
60856
60716
60582
60445
60294
60140
59992
59840
59674
59508
59345
59174
58998
58833
58685
58553
58437
58347
58279
58221
58177
58160
58176
58214
58271
58347
58425
58488
58543
58601
58646
58670
58682
58690
58687
58662
58627
58599
58565
58513
58443
58361
58263
58145
58014
57880
57739
57582
57423
57280
57147
57009
56870
56735
56594
56436
56273
56112
55950
55792
55648
55510
55366
55220
55081
54951
54823
54688
54551
54414
54276
54144
54020
53897
53770
53643
53521
53394
53254
53110
52969
52827
52682
52539
52407
52285
52164
52055
51974
51921
51905
51952
52079
52289
52583
52970
53452
54008
54618
55272
55952
56626
57272
57883
58445
58942
59376
59756
60078
60328
60513
60651
60742
60782
60778
60740
60672
60573
60448
60310
60157
59984
59797
59609
59416
59205
58983
58769
58562
58344
58122
57917
57723
57521
57315
57118
56927
56735
56548
56372
56205
56052
55926
55827
55746
55683
55644
55621
55613
55626
55672
55742
55825
55923
56037
56156
56274
56387
56493
56588
56661
56709
56746
56771
56770
56752
56734
56703
56645
56564
56471
56360
56227
56084
55944
55801
55651
55502
55358
55206
55038
54868
54704
54540
54372
54206
54042
53867
53682
53501
53325
53152
52983
52823
52667
52503
52339
52194
52064
51930
51788
51647
51507
51366
51232
51105
50978
50844
50716
50596
50475
50353
50237
50132
50033
49929
49825
49742
49687
49667
49707
49831
50046
50358
50769
51283
51883
52546
53258
53991
54708
55392
56038
56636
57163
57621
58023
58370
58647
58851
58990
59068
59080
59034
58948
58832
58681
58495
58290
58070
57831
57579
57318
57046
56763
56481
56213
55953
55692
55433
55171
54899
54616
54341
54084
53835
53589
53359
53157
52974
52811
52685
52597
52538
52512
52520
52556
52607
52683
52797
52940
53091
53247
53418
53593
53750
53887
54015
54130
54221
54286
54328
54347
54339
54316
54283
54228
54145
54044
53935
53809
53662
53501
53334
53154
52966
52785
52617
52455
52290
52131
51984
51839
51694
51554
51418
51278
51136
51000
50871
50738
50597
50455
50315
50172
50027
49887
49745
49599
49458
49333
49213
49086
48955
48829
48706
48577
48448
48326
48208
48091
47990
47931
47922
47963
48078
48295
48614
49032
49555
50181
50891
51650
52432
53208
53948
54637
55274
55852
56355
56779
57136
57421
57633
57780
57872
57906
57874
57785
57663
57523
57359
57173
56979
56776
56552
56314
56070
55816
55548
55274
54999
54721
54436
54150
53873
53600
53329
53066
52818
52579
52344
52129
51944
51783
51654
51568
51525
51515
51535
51591
51686
51804
51937
52085
52245
52403
52556
52716
52876
53020
53145
53260
53366
53455
53529
53593
53633
53640
53622
53588
53535
53456
53355
53241
53114
52969
52816
52663
52505
52339
52173
52012
51848
51680
51520
51373
51224
51068
50916
50770
50622
50471
50321
50177
50028
49873
49727
49594
49457
49321
49199
49084
48967
48854
48749
48642
48522
48400
48289
48187
48080
47969
47864
47761
47652
47547
47461
47395
47359
47384
47484
47674
47973
48391
48929
49577
50310
51104
51935
52768
53572
54338
55056
55712
56296
56812
57263
57634
57921
58143
58308
58411
58456
58459
58423
58348
58244
58120
57973
57801
57617
57434
57245
57045
56841
56636
56417
56181
55937
55699
55463
55221
54981
54754
54537
54324
54122
53941
53776
53621
53482
53365
53262
53172
53108
53074
53069
53095
53147
53221
53313
53423
53552
53690
53823
53952
54086
54209
54308
54387
54455
54511
54544
54558
54567
54569
54552
54518
54476
54421
54339
54235
54131
54027
53907
53775
53638
53487
53324
53168
53011
52844
52675
52516
52365
52213
52058
51911
51775
51635
51489
51347
51208
51060
50905
50754
50600
50423
50230
50043
49865
49691
49531
49395
49266
49131
49003
48888
48779
48670
48564
48469
48376
48275
48176
48087
47998
47897
47791
47693
47614
47565
47577
47677
47878
48192
48634
49199
49865
50610
51416
52247
53069
53867
54636
55355
56004
56582
57090
57521
57868
58138
58345
58489
58566
58589
58580
58539
58458
58344
58215
58070
57906
57732
57559
57383
57197
57008
56831
56660
56484
56311
56141
55961
55769
55577
55385
55186
54983
54790
54612
54440
54278
54136
54016
53911
53824
53765
53732
53709
53697
53707
53735
53775
53834
53921
54031
54152
54277
54403
54517
54611
54689
54762
54818
54845
54852
54854
54846
54817
54768
54701
54607
54488
54365
54250
54132
54002
53866
53726
53572
53403
53238
53083
52924
52754
52589
52431
52270
52116
51980
51853
51717
51576
51442
51305
51153
50996
50846
50701
50552
50405
50272
50145
50014
49886
49774
49669
49560
49459
49365
49263
49152
49047
48943
48825
48702
48586
48479
48371
48263
48169
48100
48056
48047
48094
48215
48420
48723
49139
49669
50287
50976
51722
52501
53279
54033
54753
55419
56010
56529
56987
57381
57700
57948
58142
58282
58363
58397
58406
58382
58316
58214
58093
57950
57783
57613
57448
57268
57072
56878
56693
56508
56312
56111
55913
55712
55506
55307
55117
54925
54734
54558
54391
54223
54055
53904
53776
53665
53576
53519
53487
53473
53483
53522
53583
53655
53740
53839
53947
54051
54157
54264
54359
54436
54505
54565
54607
54625
54631
54639
54633
54596
54541
54476
54391
54290
54185
54075
53953
53819
53678
53531
53367
53190
53009
52830
52651
52477
52318
52167
52011
51849
51691
51536
51379
51215
51050
50887
50722
50562
50410
50263
50118
49980
49852
49722
49580
49444
49315
49188
49064
48946
48836
48717
48577
48438
48309
48175
48030
47890
47762
47642
47534
47452
47398
47367
47381
47468
47634
47883
48238
48722
49321
49998
50729
51497
52268
53013
53724
54392
54997
55525
55982
56378
56705
56961
57150
57281
57354
57364
57319
57240
57132
56990
56823
56639
56435
56210
55972
55728
55475
55208
54939
54674
54410
54144
53886
53632
53366
53091
52822
52560
52295
52035
51800
51593
51398
51216
51063
50937
50831
50753
50714
50708
50724
50768
50844
50943
51051
51167
51304
51452
51589
51715
51842
51955
52043
52118
52181
52216
52220
52207
52184
52136
52061
51978
51888
51779
51649
51513
51372
51222
51058
50885
50701
50504
50303
50107
49907
49693
49475
49265
49062
48853
48651
48472
48303
48132
47964
47799
47629
47452
47275
47108
46945
46778
46614
46463
46309
46147
45995
45852
45704
45551
45402
45261
45119
44977
44854
44751
44665
44611
44611
44676
44815
45048
45396
45871
46462
47152
47926
48752
49591
50417
51214
51958
52623
53204
53708
54134
54476
54745
54956
55108
55195
55226
55209
55144
55033
54890
54719
54517
54284
54034
53769
53482
53183
52886
52596
52301
52000
51711
51436
51157
50867
50580
50303
50027
49749
49485
49240
49011
48814
48656
48528
48423
48351
48322
48329
48362
48427
48531
48663
48802
48959
49142
49332
49512
49689
49871
50046
50197
50325
50437
50524
50578
50608
50616
50600
50556
50494
50420
50326
50210
50086
49957
49817
49662
49506
49355
49197
49034
48878
48720
48549
48372
48204
48047
47896
47750
47611
47469
47314
47156
47014
46880
46742
46605
46478
46351
46219
46097
45987
45874
45753
45631
45512
45392
45278
45183
45112
45068
45074
45162
45350
45644
46051
46581
47226
47956
48741
49552
50359
51128
51848
52521
53132
53666
54120
54508
54829
55073
55246
55366
55437
55454
55426
55369
55283
55160
55013
54846
54648
54421
54187
53953
53703
53436
53172
52919
52666
52410
52160
51920
51678
51431
51190
50963
50745
50535
50344
50169
50002
49854
49746
49677
49636
49626
49662
49736
49828
49938
50071
50215
50359
50501
50640
50770
50884
50988
51083
51157
51200
51216
51215
51196
51150
51084
51005
50913
50806
50694
50582
50462
50328
50186
50041
49888
49724
49553
49377
49190
49000
48820
48646
48469
48300
48147
48001
47852
47702
47562
47430
47290
47144
47012
46900
46796
46694
46594
46493
46377
46257
46147
46040
45926
45817
45721
45637
45577
45566
45622
45761
46001
46361
46848
47446
48136
48894
49690
50490
51269
52012
52700
53309
53834
54287
54675
54994
55249
55449
55595
55679
55705
55686
55628
55527
55403
55271
55127
54962
54789
54619
54451
54284
54123
53971
53822
53668
53518
53378
53239
53090
52934
52775
52605
52418
52226
52045
51872
51714
51589
51502
51442
51404
51397
51425
51477
51549
51648
51762
51879
51999
52129
52265
52389
52500
52602
52690
52753
52794
52823
52832
52810
52771
52726
52666
52586
52502
52425
52347
52250
52140
52030
51915
51795
51683
51578
51467
51346
51219
51086
50951
50811
50678
50565
50456
50342
50234
50133
50031
49931
49841
49749
49646
49542
49446
49356
49257
49151
49039
48916
48783
48657
48554
48468
48392
48345
48341
48386
48490
48675
48969
49370
49860
50435
51091
51798
52524
53249
53952
54612
55219
55780
56290
56733
57114
57441
57717
57941
58117
58250
58347
58406
58432
58439
58432
58397
58336
58258
58160
58044
57921
57807
57702
57592
57477
57369
57263
57152
57039
56925
56805
56676
56542
56409
56269
56119
55977
55850
55725
55600
55491
55405
55332
55276
55243
55232
55231
55241
55266
55303
55345
55395
55457
55528
55595
55656
55716
55775
55829
55870
55901
55916
55907
55882
55852
55812
55753
55680
55604
55523
55428
55326
55221
55106
54980
54854
54728
54599
54467
54340
54222
54103
53976
53854
53741
53619
53477
53329
53190
53058
52926
52794
52662
52520
52376
52243
52121
51993
51864
51749
51644
51545
51460
51387
51321
51268
51241
51265
51356
51517
51764
52110
52545
53045
53601
54206
54830
55446
56052
56645
57203
57705
58152
58544
58877
59147
59363
59531
59647
59718
59759
59775
59759
59719
59663
59591
59498
59392
59286
59180
59066
58948
58835
58722
58600
58474
58352
58233
58104
57965
57825
57683
57533
57386
57248
57114
56981
56857
56755
56673
56603
56551
56515
56487
56463
56454
56474
56510
56553
56607
56668
56721
56762
56807
56859
56902
56930
56952
56964
56957
56934
56904
56861
56794
56708
56623
56541
56447
56338
56220
56089
55941
55776
55598
55407
55198
54979
54762
54543
54316
54087
53873
53669
53464
53261
53069
52874
52666
52456
52258
52071
51888
51712
51540
51358
51161
50963
50773
50583
50390
50199
50008
49817
49634
49476
49345
49236
49165
49153
49200
49310
49506
49803
50191
50660
51209
51836
52514
53204
53889
54556
55191
55778
56315
56803
57235
57594
57877
58101
58264
58357
58396
58398
58360
58277
58161
58023
57858
57669
57476
57288
57096
56900
56707
56516
56321
56121
55924
55727
55514
55284
55048
54809
54562
54313
54074
53847
53632
53444
53295
53174
53075
53003
52961
52945
52948
52968
53001
53046
53108
53183
53267
53351
53429
53504
53581
53656
53717
53765
53805
53825
53823
53816
53804
53776
53730
53676
53613
53538
53451
53354
53246
53125
52993
52853
52698
52524
52345
52175
52013
51849
51682
51516
51349
51176
51008
50852
50697
50534
50370
50213
50055
49887
49720
49558
49386
49200
49017
48844
48679
48512
48358
48226
48102
47985
47892
47832
47803
47821
47905
48069
48320
48666
49121
49677
50312
51008
51735
52454
53136
53771
54361
54900
55370
55774
56121
56417
56649
56812
56921
56982
56989
56955
56894
56806
56689
56555
56414
56263
56097
55928
55759
55584
55401
55214
55025
54830
54632
54437
54240
54034
53820
53612
53422
53236
53052
52896
52783
52703
52651
52626
52622
52633
52670
52744
52839
52942
53058
53193
53340
53485
53625
53766
53897
54007
54099
54184
54253
54297
54317
54316
54294
54254
54202
54139
54052
53940
53817
53688
53546
53391
53233
53079
52920
52751
52586
52429
52279
52132
51985
51839
51693
51554
51430
51314
51192
51069
50953
50833
50699
50560
50431
50309
50182
50055
49936
49822
49698
49575
49480
49416
49381
49391
49463
49597
49808
50117
50532
51039
51616
52250
52922
53597
54252
54881
55465
55989
56451
56864
57223
57516
57747
57929
58067
58153
58196
58204
58179
58120
58032
57922
57789
57631
57458
57283
57109
56927
56741
56558
56374
56184
56000
55821
55639
55446
55251
55053
54850
54647
54459
54290
54138
54000
53887
53803
53742
53707
53706
53734
53784
53860
53967
54095
54225
54349
54475
54604
54717
54814
54905
54990
55055
55099
55122
55119
55089
55038
54974
54899
54810
54716
54619
54508
54376
54234
54092
53942
53780
53617
53465
53317
53165
53016
52872
52727
52579
52439
52309
52179
52050
51938
51841
51737
51619
51496
51369
51234
51099
50976
50858
50733
50600
50472
50346
50219
50104
50015
49954
49930
49962
50076
50280
50576
50975
51484
52076
52723
53417
54137
54849
55529
56177
56786
57329
57803
58223
58587
58885
59119
59303
59437
59516
59546
59550
59537
59494
59426
59355
59281
59193
59094
58996
58894
58782
58663
58545
58429
58304
58177
58057
57934
57799
57661
57524
57381
57233
57093
56962
56832
56701
56580
56483
56404
56335
56285
56262
56262
56282
56321
56381
56447
56514
56599
56699
56792
56871
56942
56997
57028
57048
57068
57078
57069
57046
57010
56955
56882
56805
56729
56645
56546
56436
56322
56208
56082
55951
55826
55700
55566
55429
55301
55178
55054
54927
54803
54681
54562
54457
54364
54263
54147
54027
53907
53783
53653
53526
53401
53266
53122
52986
52860
52729
52590
52460
52348
52247
52165
52125
52131
52192
52333
52576
52914
53338
53844
54423
55050
55705
56385
57069
57724
58326
58874
59373
59813
60181
60493
60752
60947
61081
61168
61221
61238
61220
61188
61151
61099
61032
60964
60896
60819
60735
60649
60565
60481
60399
60320
60237
60141
60038
59936
59836
59728
59614
59500
59379
59249
59119
59003
58892
58777
58671
58589
58528
58475
58429
58397
58376
58359
58351
58363
58388
58422
58472
58538
58600
58652
58696
58732
58747
58742
58733
58720
58687
58634
58574
58508
58422
58318
58215
58111
57983
57837
57694
57556
57409
57260
57123
56994
56860
56727
56600
56472
56336
56201
56075
55945
55807
55676
55559
55441
55311
55177
55051
54927
54800
54677
54558
54428
54280
54130
53991
53859
53728
53603
53484
53364
53252
53165
53104
53062
53053
53107
53236
53441
53735
54124
54598
55139
55736
56372
57023
57667
58296
58899
59457
59955
60399
60793
61130
61400
61617
61792
61919
61994
62033
62044
62025
61983
61924
61854
61765
61656
61549
61448
61345
61238
61138
61043
60936
60822
60713
60603
60473
60323
60172
60026
59877
59724
59576
59431
59285
59147
59031
58939
58859
58794
58755
58733
58714
58711
58730
58760
58798
58849
58910
58975
59041
59109
59173
59223
59255
59276
59291
59289
59269
59242
59211
59165
59102
59031
58952
58859
58751
58634
58508
58370
58223
58083
57943
57788
57623
57466
57312
57155
57003
56865
56726
56574
56423
56284
56146
56004
55864
55732
55602
55461
55318
55185
55055
54917
54775
54639
54506
54369
54237
54115
53985
53847
53713
53582
53447
53314
53195
53086
52968
52848
52746
52667
52600
52561
52573
52641
52776
53005
53343
53780
54300
54892
55540
56214
56882
57530
58158
58749
59275
59734
60137
60478
60755
60975
61145
61261
61320
61335
61315
61257
61166
61054
60930
60790
60631
60463
60289
60108
59923
59742
59568
59388
59203
59030
58869
58696
58506
58313
58115
57902
57682
57472
57272
57078
56903
56754
56630
56520
56428
56365
56327
56307
56309
56344
56401
56465
56536
56618
56691
56750
56805
56861
56910
56946
56972
56986
56983
56961
56928
56884
56817
56729
56631
56521
56392
56254
56124
55992
55832
55649
55457
55258
55050
54839
54637
54441
54244
54057
53891
53742
53603
53468
53334
53195
53047
52892
52743
52596
52442
52292
52151
52005
51847
51689
51540
51391
51236
51087
50948
50802
50648
50497
50351
50203
50057
49928
49811
49698
49605
49547
49529
49566
49675
49875
50176
50579
51087
51696
52382
53113
53862
54610
55329
55993
56602
57157
57644
58054
58391
58655
58845
58973
59051
59092
59092
59043
58951
58827
58664
58466
58252
58031
57799
57556
57311
57064
56810
56559
56321
56082
55834
55585
55339
55091
54831
54571
54327
54096
53869
53656
53466
53297
53148
53032
52958
52917
52896
52901
52940
52995
53055
53140
53257
53389
53525
53670
53824
53970
54093
54197
54284
54342
54366
54370
54362
54336
54284
54211
54115
53992
53849
53695
53526
53341
53149
52958
52767
52572
52378
52188
51999
51806
51618
51443
51276
51109
50947
50793
50638
50471
50304
50154
50002
49837
49681
49540
49403
49260
49116
48973
48825
48675
48537
48411
48282
48147
48026
47917
47811
47712
47645
47626
47654
47746
47930
48216
48610
49124
49757
50484
51270
52091
52921
53727
54484
55181
55813
56368
56842
57248
57589
57854
58037
58148
58203
58209
58166
58082
57965
57810
57615
57406
57202
56997
56784
56570
56355
56132
55905
55685
55466
55235
54997
54763
54527
54284
54034
53787
53547
53316
53101
52910
52741
52591
52465
52377
52321
52290
52289
52325
52389
52468
52562
52674
52798
52929
53069
53221
53371
53497
53607
53704
53772
53808
53830
53838
53820
53781
53737
53680
53601
53507
53406
53297
53168
53016
52852
52681
52495
52301
52110
51931
51759
51593
51433
51268
51092
50911
50740
50575
50403
50233
50083
49948
49807
49661
49521
49385
49245
49105
48970
48835
48691
48550
48422
48292
48156
48029
47918
47817
47727
47658
47618
47611
47654
47777
47996
48315
48752
49320
50003
50773
51606
52478
53350
54190
54978
55703
56353
56917
57399
57803
58124
58358
58517
58620
58672
58670
58621
58541
58429
58290
58136
57974
57793
57585
57366
57150
56934
56714
56503
56302
56096
55882
55673
55467
55250
55026
54806
54596
54388
54190
54015
53861
53718
53588
53478
53384
53301
53233
53193
53175
53171
53188
53231
53291
53355
53428
53525
53638
53745
53843
53936
54011
54058
54083
54091
54073
54025
53964
53897
53816
53717
53613
53505
53383
53242
53086
52918
52731
52531
52334
52135
51922
51701
51477
51250
51017
50782
50552
50329
50106
49886
49678
49477
49276
49081
48903
48733
48561
48386
48221
48061
47893
47724
47569
47417
47261
47109
46960
46808
46652
46510
46400
46328
46311
46376
46544
46826
47239
47797
48485
49273
50138
51056
51990
52894
53736
54513
55214
55823
56349
56803
57176
57466
57684
57845
57942
57976
57969
57932
57861
57757
57635
57499
57348
57178
56993
56800
56599
56393
56194
56014
55843
55667
55488
55313
55130
54936
54749
54574
54405
54244
54096
53957
53819
53690
53590
53527
53490
53473
53488
53534
53595
53663
53746
53846
53951
54061
54179
54294
54398
54496
54595
54691
54767
54829
54888
54935
54963
54982
54990
54981
54956
54914
54858
54784
54688
54580
54475
54358
54220
54079
53942
53800
53648
53491
53332
53163
52980
52792
52604
52411
52215
52027
51841
51653
51469
51299
51138
50973
50807
50655
50518
50384
50260
50153
50044
49925
49806
49688
49565
49444
49341
49268
49225
49221
49285
49442
49697
50059
50544
51145
51829
52563
53331
54112
54870
55583
56258
56889
57450
57932
58344
58687
58960
59174
59340
59457
59517
59529
59505
59446
59347
59215
59058
58878
58680
58475
58263
58037
57804
57576
57357
57137
56902
56658
56414
56160
55894
55625
55351
55065
54772
54487
54216
53955
53706
53476
53264
53071
52906
52776
52682
52621
52601
52626
52688
52776
52885
53019
53165
53307
53446
53585
53716
53828
53923
54003
54055
54072
54058
54022
53966
53881
53774
53656
53525
53373
53211
53050
52892
52724
52553
52387
52220
52048
51883
51727
51566
51402
51248
51100
50942
50769
50591
50411
50215
50006
49794
49580
49350
49103
48857
48619
48381
48144
47924
47720
47533
47381
47275
47214
47205
47263
47409
47650
47988
48443
49027
49713
50467
51267
52091
52912
53715
54493
55228
55894
56483
57010
57473
57856
58155
58384
58549
58652
58706
58723
58700
58631
58528
58405
58261
58093
57915
57739
57562
57378
57192
57009
56819
56613
56395
56179
55965
55753
55552
55362
55173
54984
54811
54656
54507
54365
54245
54150
54069
54002
53959
53944
53949
53972
54016
54086
54173
54267
54371
54484
54591
54690
54789
54880
54947
54998
55046
55081
55091
55078
55054
55018
54962
54893
54824
54744
54644
54533
54419
54294
54148
53993
53846
53701
53546
53392
53246
53098
52940
52776
52611
52439
52256
52069
51878
51673
51456
51238
51022
50804
50592
50400
50230
50076
49941
49844
49792
49785
49844
49995
50239
50574
51010
51548
52169
52839
53536
54239
54922
55573
56184
56742
57227
57627
57957
58234
58445
58588
58687
58747
58763
58739
58693
58627
58532
58406
58265
58112
57938
57746
57551
57357
57154
56940
56725
56508
56273
56020
55765
55501
55207
54900
54601
54301
53997
53698
53415
53147
52896
52676
52502
52368
52270
52215
52211
52251
52325
52443
52604
52788
52978
53176
53372
53542
53676
53787
53873
53924
53940
53929
53890
53819
53722
53612
53483
53321
53132
52938
52735
52507
52264
52022
51775
51514
51252
51005
50772
50541
50313
50094
49877
49655
49436
49234
49051
48874
48702
48542
48390
48242
48104
47984
47872
47767
47685
47643
47650
47718
47876
48137
48503
48984
49585
50286
51049
51845
52651
53438
54173
54852
55483
56061
56559
56971
57311
57588
57795
57937
58028
58070
58061
58016
57949
57859
57740
57600
57446
57272
57080
56878
56671
56455
56219
55975
55729
55468
55189
54906
54623
54334
54038
53744
53454
53166
52885
52622
52378
52147
51944
51791
51688
51623
51589
51595
51642
51717
51815
51948
52109
52282
52466
52664
52862
53044
53208
53357
53481
53575
53647
53704
53736
53739
53720
53682
53602
53473
53310
53123
52905
52658
52396
52129
51852
51560
51261
50959
50653
50340
50025
49707
49381
49057
48749
48452
48158
47875
47623
47407
47221
47067
46951
46873
46834
46846
46932
47105
47377
47774
48316
48991
49766
50616
51501
52374
53201
53973
54688
55329
55883
56363
56775
57111
57368
57562
57705
57791
57821
57812
57766
57675
57548
57408
57252
57065
56854
56638
56416
56179
55937
55701
55461
55208
54942
54674
54402
54120
53837
53568
53310
53049
52802
52590
52401
52220
52057
51921
51815
51744
51715
51729
51775
51849
51959
52110
52285
52472
52680
52908
53135
53348
53547
53728
53877
53995
54095
54166
54199
54202
54186
54148
54083
53998
53907
53810
53692
53553
53412
53268
53112
52955
52806
52661
52512
52360
52210
52063
51911
51764
51633
51512
51398
51296
51211
51136
51067
51024
51025
51077
51197
51407
51717
52120
52609
53173
53794
54442
55096
55752
56385
56961
57472
57927
58320
58641
58897
59097
59238
59316
59345
59347
59321
59260
59173
59071
58952
58819
58684
58558
58433
58301
58177
58066
57949
57812
57665
57514
57357
57191
57023
56859
56694
56526
56370
56238
56125
56033
55972
55936
55910
55896
55914
55970
56052
56157
56292
56445
56595
56745
56907
57069
57217
57354
57485
57604
57694
57763
57818
57848
57847
57831
57810
57783
57744
57697
57648
57586
57503
57408
57309
57198
57071
56941
56812
56669
56514
56361
56208
56041
55858
55675
55500
55322
55141
54971
54808
54648
54509
54403
54330
54291
54312
54413
54599
54867
55216
55649
56143
56660
57185
57712
58222
58693
59123
59512
59854
60150
60404
60626
60819
60977
61101
61200
61270
61311
61338
61361
61366
61352
61336
61311
61264
61200
61130
61060
60987
60911
60843
60783
60716
60633
60549
60465
60372
60272
60177
60072
59946
59818
59703
59595
59492
59401
59322
59248
59179
59130
59106
59102
59116
59151
59203
59260
59319
59393
59478
59553
59610
59664
59714
59744
59754
59759
59760
59743
59710
59671
59621
59550
59470
59394
59314
59213
59097
58984
58880
58774
58664
58556
58444
58316
58182
58049
57910
57757
57602
57453
57303
57155
57023
56909
56806
56712
56634
56576
56534
56518
56557
56669
56852
57111
57456
57876
58340
58820
59305
59784
60240
60671
61081
61465
61808
62109
62375
62606
62792
62933
63043
63125
63176
63203
63220
63219
63194
63159
63125
63080
63020
62956
62897
62840
62780
62712
62639
62559
62474
62391
62310
62218
62113
62007
61904
61794
61675
61559
61455
61358
61276
61217
61168
61115
61066
61031
61008
60989
60980
60990
61020
61060
61103
61152
61203
61250
61300
61349
61384
61397
61400
61398
61390
61377
61360
61333
61287
61218
61135
61042
60934
60816
60708
60611
60507
60389
60265
60139
60004
59858
59717
59596
59480
59365
59266
59181
59100
59023
58958
58897
58832
58765
58706
58651
58587
58519
58453
58383
58303
58221
58137
58050
57963
57869
57766
57654
57539
57435
57355
57298
57259
57254
57306
57425
57622
57914
58300
58751
59243
59769
60306
60831
61331
61801
62232
62617
62955
63259
63533
63767
63960
64114
64226
64290
64319
64327
64314
64273
64212
64149
64089
64012
63927
63850
63774
63696
63623
63560
63493
63412
63322
63228
63123
63006
62884
62765
62633
62486
62341
62211
62088
61969
61857
61754
61654
61567
61507
61465
61426
61402
61406
61433
61462
61489
61530
61587
61645
61703
61769
61838
61893
61937
61975
61998
62005
62001
61991
61969
61926
61867
61809
61745
61658
61554
61443
61321
61189
61058
60934
60799
60647
60501
60367
60232
60088
59946
59809
59674
59541
59418
59306
59197
59096
59011
58941
58870
58798
58735
58676
58600
58515
58433
58343
58239
58133
58033
57933
57830
57733
57654
57577
57495
57421
57359
57299
57239
57194
57171
57160
57168
57220
57335
57523
57788
58141
58574
59055
59562
60088
60615
61114
61575
62004
62393
62729
63010
63242
63421
63549
63639
63704
63745
63756
63743
63716
63670
63599
63516
63436
63354
63258
63158
63074
62995
62907
62814
62726
62638
62538
62427
62311
62188
62050
61901
61745
61581
61415
61262
61123
60983
60846
60729
60635
60552
60482
60435
60413
60404
60402
60416
60444
60479
60522
60575
60629
60673
60710
60745
60773
60786
60787
60784
60769
60736
60694
60650
60603
60548
60481
60401
60317
60240
60162
60075
59969
59845
59715
59586
59448
59303
59163
59027
58888
58746
58613
58480
58335
58186
58046
57906
57758
57615
57495
57386
57274
57165
57066
56966
56853
56732
56617
56510
56396
56275
56157
56042
55921
55805
55700
55595
55481
55370
55273
55189
55121
55088
55106
55184
55331
55571
55918
56358
56874
57451
58065
58676
59256
59803
60302
60733
61093
61399
61648
61832
61961
62052
62106
62124
62114
62086
62035
61953
61852
61742
61620
61478
61322
61168
61015
60852
60686
60521
60340
60141
59945
59756
59560
59357
59161
58977
58800
58631
58480
58345
58211
58082
57974
57892
57829
57784
57770
57782
57806
57836
57883
57950
58034
58135
58252
58377
58501
58627
58751
58857
58934
58986
59020
59030
59011
58971
58917
58847
58757
58660
58560
58442
58308
58177
58053
57921
57779
57634
57491
57342
57190
57042
56901
56761
56622
56492
56365
56224
56068
55913
55761
55603
55447
55300
55152
54996
54844
54705
54569
54429
54291
54167
54051
53938
53831
53732
53635
53540
53464
53421
53411
53444
53544
53727
53991
54342
54788
55321
55912
56529
57150
57753
58311
58814
59261
59643
59950
60186
60366
60497
60573
60603
60600
60568
60500
60404
60299
60185
60049
59901
59751
59593
59418
59228
59030
58819
58591
58350
58102
57851
57596
57352
57125
56893
56647
56408
56189
55986
55801
55647
55525
55426
55348
55302
55296
55319
55367
55442
55536
55645
55774
55929
56092
56246
56391
56537
56677
56792
56884
56963
57025
57056
57066
57061
57033
56981
56912
56827
56721
56595
56460
56327
56190
56043
55898
55766
55632
55486
55339
55200
55060
54913
54768
54627
54481
54331
54197
54085
53976
53863
53750
53641
53525
53404
53281
53157
53030
52910
52806
52715
52627
52540
52467
52417
52385
52387
52452
52599
52839
53189
53649
54188
54781
55412
56067
56716
57321
57870
58362
58784
59127
59407
59635
59795
59889
59943
59963
59941
59879
59799
59709
59602
59483
59360
59233
59094
58949
58809
58671
58525
58372
58214
58046
57865
57678
57501
57331
57152
56969
56794
56623
56451
56286
56141
56011
55887
55776
55694
55634
55595
55585
55603
55639
55691
55763
55860
55971
56086
56209
56337
56459
56569
56668
56756
56822
56862
56891
56911
56908
56886
56855
56811
56747
56670
56586
56498
56399
56294
56195
56096
55980
55851
55724
55602
55474
55345
55224
55099
54963
54832
54713
54594
54470
54358
54261
54159
54049
53943
53840
53735
53627
53520
53410
53292
53172
53066
52970
52874
52781
52709
52668
52655
52687
52798
53003
53302
53707
54215
54795
55407
56025
56633
57211
57740
58214
58640
59008
59300
59529
59718
59865
59966
60029
60065
60070
60037
59977
59895
59790
59678
59575
59482
59383
59271
59159
59054
58948
58837
58731
58625
58506
58375
58242
58111
57976
57836
57697
57556
57406
57248
57095
56954
56820
56699
56608
56541
56484
56445
56433
56435
56447
56475
56526
56589
56654
56722
56798
56876
56945
57003
57056
57099
57130
57153
57169
57165
57143
57107
57059
56999
56928
56849
56753
56631
56491
56358
56229
56091
55946
55809
55672
55529
55386
55247
55105
54955
54806
54672
54546
54415
54286
54166
54045
53912
53778
53656
53542
53425
53308
53194
53073
52948
52833
52734
52637
52542
52462
52409
52382
52396
52483
52658
52918
53276
53743
54296
54897
55522
56155
56767
57328
57832
58286
58686
59023
59300
59528
59708
59837
59923
59976
59996
59975
59927
59869
59796
59701
59599
59498
59391
59280
59173
59076
58985
58894
58801
58707
58606
58494
58384
58277
58154
58009
57863
57717
57560
57400
57248
57104
56964
56833
56722
56632
56556
56492
56446
56417
56400
56403
56430
56473
56520
56570
56640
56724
56798
56855
56904
56936
56947
56950
56952
56943
56926
56906
56877
56830
56764
56684
56591
56487
56382
56285
56196
56100
55991
55875
55753
55616
55466
55318
55175
55028
54876
54727
54578
54415
54244
54083
53930
53775
53622
53477
53335
53190
53049
52913
52770
52619
52472
52334
52202
52069
51948
51849
51766
51713
51722
51813
51995
52277
52668
53165
53744
54377
55045
55716
56350
56927
57449
57905
58282
58587
58838
59037
59180
59276
59341
59368
59343
59278
59195
59100
58986
58861
58733
58594
58432
58257
58081
57897
57698
57499
57308
57109
56900
56696
56491
56277
56056
55844
55648
55450
55246
55051
54868
54694
54535
54404
54301
54215
54150
54112
54101
54115
54152
54221
54314
54413
54517
54635
54763
54882
54992
55096
55187
55252
55293
55318
55327
55311
55273
55221
55141
55031
54908
54783
54649
54504
54351
54194
54028
53850
53669
53491
53312
53126
52950
52789
52627
52457
52292
52136
51975
51804
51633
51456
51266
51074
50891
50712
50529
50346
50173
50008
49841
49678
49533
49406
49295
49213
49177
49194
49276
49462
49778
50216
50762
51396
52097
52835
53580
54311
55001
55622
56160
56618
57001
57304
57523
57676
57769
57797
57769
57705
57613
57494
57360
57224
57076
56901
56706
56499
56280
56040
55790
55540
55287
55019
54743
54471
54199
53920
53638
53361
53085
52810
52553
52323
52114
51925
51768
51645
51546
51467
51427
51438
51473
51525
51609
51725
51858
52005
52173
52352
52522
52677
52830
52977
53097
53186
53263
53324
53353
53356
53345
53311
53245
53154
53050
52930
52791
52645
52500
52344
52167
51978
51792
51607
51420
51234
51064
50906
50750
50602
50460
50315
50161
50009
49863
49716
49567
49427
49294
49155
49012
48879
48753
48632
48525
48449
48405
48396
48446
48590
48846
49212
49687
50266
50929
51641
52380
53129
53859
54537
55147
55689
56152
56532
56845
57105
57303
57433
57506
57539
57532
57486
57414
57326
57214
57070
56901
56719
56524
56316
56109
55902
55686
55463
55246
55034
54818
54596
54376
54160
53938
53713
53501
53300
53100
52912
52751
52614
52502
52422
52380
52373
52392
52443
52529
52643
52776
52925
53086
53251
53419
53591
53758
53901
54016
54116
54207
54279
54323
54345
54350
54331
54284
54222
54147
54053
53946
53839
53731
53608
53472
53339
53205
53051
52886
52730
52584
52442
52303
52172
52041
51904
51764
51628
51492
51349
51205
51072
50941
50800
50661
50534
50418
50303
50193
50093
49993
49897
49827
49796
49806
49869
50019
50280
50656
51138
51710
52353
53039
53749
54468
55167
55807
56376
56888
57336
57706
58007
58262
58472
58626
58733
58812
58862
58872
58857
58834
58787
58707
58606
58495
58372
58239
58101
57957
57802
57648
57509
57380
57247
57103
56955
56810
56659
56504
56354
56203
56044
55882
55732
55601
55486
55382
55290
55212
55148
55109
55107
55140
55198
55273
55365
55464
55562
55665
55777
55883
55974
56054
56125
56177
56205
56213
56212
56195
56149
56082
56014
55943
55858
55768
55685
55600
55507
55414
55321
55219
55108
54991
54866
54727
54574
54418
54267
54116
53966
53826
53691
53548
53395
53242
53094
52946
52799
52665
52537
52405
52277
52161
52054
51949
51859
51799
51770
51785
51877
52069
52357
52726
53189
53744
54356
54993
55637
56273
56877
57432
57939
58397
58796
59134
59425
59668
59853
59987
60091
60171
60214
60219
60204
60170
60108
60023
59926
59818
59695
59561
59426
59285
59135
58985
58841
58696
58547
58400
58257
58108
57955
57803
57653
57505
57361
57223
57101
56995
56903
56832
56785
56752
56734
56739
56770
56814
56874
56956
57046
57131
57213
57295
57372
57429
57470
57514
57561
57592
57612
57628
57627
57599
57555
57503
57434
57347
57253
57159
57060
56949
56831
56719
56614
56501
56382
56265
56143
56010
55874
55739
55605
55467
55328
55191
55047
54897
54756
54618
54471
54320
54174
54039
53910
53787
53676
53574
53466
53363
53294
53261
53263
53331
53495
53751
54090
54516
55022
55579
56159
56747
57332
57893
58410
58881
59313
59691
60010
60283
60521
60723
60880
60994
61068
61102
61097
61070
61023
60946
60845
60735
60620
60493
60356
60217
60073
59913
59742
59568
59387
59194
59000
58816
58639
58457
58276
58108
57945
57781
57627
57496
57380
57275
57195
57147
57121
57110
57128
57178
57239
57300
57371
57454
57534
57603
57661
57711
57752
57779
57799
57811
57799
57770
57736
57696
57638
57561
57471
57369
57251
57122
56997
56872
56730
56571
56410
56244
56063
55883
55717
55557
55394
55237
55094
54952
54797
54637
54485
54340
54188
54041
53915
53788
53639
53486
53345
53215
53094
52984
52881
52783
52688
52609
52550
52506
52493
52535
52648
52844
53131
53513
53982
54512
55090
55708
56338
56945
57516
58052
58539
58961
59324
59637
59891
60088
60238
60346
60405
60416
60393
60344
60266
60157
60027
59881
59719
59538
59344
59142
58919
58681
58452
58231
58001
57758
57513
57271
57031
56800
56583
56376
56173
55974
55788
55624
55491
55396
55350
55349
55376
55437
55537
55661
55793
55932
56080
56233
56381
56522
56658
56779
56874
56953
57024
57072
57085
57083
57081
57066
57026
56968
56902
56820
56716
56600
56477
56343
56198
56055
55913
55759
55591
55420
55241
55047
54855
54675
54504
54338
54182
54043
53915
53788
53669
53565
53465
53356
53241
53124
53002
52871
52744
52631
52521
52409
52313
52247
52217
52234
52321
52494
52754
53104
53549
54076
54659
55276
55915
56553
57164
57735
58267
58752
59180
59546
59862
60134
60349
60515
60644
60732
60776
60781
60762
60720
60646
60543
60422
60288
60137
59978
59821
59654
59472
59286
59105
58918
58719
58517
58320
58121
57913
57707
57510
57326
57159
57016
56898
56798
56717
56665
56647
56656
56693
56765
56865
56975
57097
57234
57377
57507
57625
57743
57858
57947
58018
58086
58139
58163
58167
58158
58127
58066
57986
57906
57817
57708
57590
57471
57341
57197
57050
56908
56756
56591
56424
56258
56090
55917
55742
55572
55407
55248
55101
54963
54823
54684
54561
54449
54334
54214
54106
54012
53922
53829
53737
53643
53540
53437
53349
53274
53205
53157
53156
53207
53318
53514
53814
54212
54695
55254
55877
56530
57178
57812
58424
58994
59506
59962
60362
60700
60975
61198
61374
61495
61566
61601
61607
61573
61503
61423
61335
