16822
16577
16426
16391
16257
16009
15860
15806
15637
15372
15223
15154
14949
14660
14505
14417
14191
13920
13815
13773
13593
13395
13375
13405
13300
13200
13275
13374
13337
13325
13483
13637
13657
13713
13910
14062
14072
14131
14312
14410
14361
14378
14507
14530
14422
14394
14458
14402
14230
14158
14171
14051
13838
13749
13739
13597
13388
13317
13298
13124
12897
12818
12782
12596
12375
12299
12236
12017
11786
11709
11635
11417
11223
11187
11134
10942
10798
10800
10749
10563
10451
10480
10430
10253
10166
10203
10146
9976
9909
9953
9893
9742
9715
9780
9719
9574
9552
9597
9501
9338
9317
9348
9233
9077
9071
9100
8981
8850
8886
8952
8890
8871
9062
9309
9472
9726
10197
10704
11134
11666
12375
13039
13568
14158
14858
15441
15854
16312
16837
17199
17388
17632
17931
18065
18051
18112
18215
18156
17994
17945
17945
17794
17572
17482
17435
17245
17021
16943
16889
16689
16475
16406
16335
16115
15902
15838
15762
15554
15378
15338
15257
15050
14908
14911
14863
14706
14641
14710
14700
14586
14582
14699
14727
14673
14751
14932
14990
14964
15075
15258
15289
15239
15323
15458
15428
15325
15354
15411
15304
15156
15148
15154
15005
14837
14811
14781
14601
14434
14410
14353
14143
13961
13909
13795
13541
13352
13299
13173
12918
12749
12709
12582
12346
12210
12183
12049
11814
11687
11652
11504
11281
11188
11173
11038
10855
10819
10840
10725
10576
10580
10623
10526
10409
10438
10478
10374
10266
10299
10319
10196
10095
10135
10141
10012
9928
9971
9953
9807
9723
9754
9706
9540
9458
9478
9400
9222
9144
9158
9088
8973
8995
9126
9210
9324
9660
10140
10555
10977
11592
12295
12884
13452
14162
14882
15432
15932
16532
17081
17424
17708
18072
18361
18462
18543
18714
18798
18713
18651
18689
18638
18446
18325
18321
18226
18011
17878
17845
17710
17478
17355
17322
17174
16941
16830
16801
16651
16436
16355
16329
16158
15936
15866
15841
15673
15490
15478
15509
15409
15318
15394
15483
15426
15386
15496
15580
15527
15526
15671
15763
15721
15744
15890
15949
15871
15863
15958
15951
15823
15778
15815
15735
15551
15466
15457
15327
15117
15028
15005
14853
14648
14581
14565
14409
14203
14133
14093
13907
13697
13627
13565
13354
13135
13052
12961
12737
12542
12487
12403
12196
12044
12025
11958
11780
11679
11700
11640
11466
11378
11399
11329
11162
11093
11124
11057
10911
10883
10940
10890
10778
10789
10856
10787
10658
10658
10697
10595
10453
10447
10461
10332
10191
10194
10203
10072
9948
9962
9965
9843
9750
9779
9763
9622
9544
9604
9619
9550
9607
9843
10070
10277
10662
11225
11757
12250
12884
13618
14235
14757
15370
16012
16476
16824
17251
17678
17914
18058
18298
18533
18582
18566
18659
18734
18630
18487
18464
18417
18215
18019
17956
17859
17622
17427
17365
17252
17016
16855
16831
16735
16512
16365
16329
16204
15971
15836
15794
15640
15397
15280
15263
15143
14967
14936
14990
14924
14817
14869
14982
14955
14895
14987
15111
15088
15044
15145
15254
15216
15176
15278
15361
15290
15229
15293
15308
15180
15099
15143
15116
14949
14844
14846
14752
14534
14403
14379
14253
14015
13878
13839
13692
13457
13335
13286
13106
12849
12717
12640
12423
12157
12041
11970
11752
11508
11422
11365
11169
10972
10929
10890
10705
10529
10490
10423
10216
10054
10039
9983
9800
9685
9703
9653
9484
9408
9461
9427
9280
9229
9281
9226
9071
9028
9074
8999
8840
8802
8838
8746
8599
8596
8646
8550
8403
8397
8425
8302
8152
8146
8150
8004
7858
7864
7859
7706
7571
7580
7555
7387
7253
7233
7165
7012
6964
7067
7152
7207
7439
7870
8285
8663
9209
9911
10536
11080
11743
12471
13042
13494
14027
14569
14913
15142
15460
15768
15872
15893
16022
16139
16070
15957
15972
15973
15809
15634
15590
15511
15277
15058
14965
14822
14546
14328
14246
14102
13840
13665
13616
13483
13235
13081
13032
12878
12630
12500
12465
12317
12100
12029
12052
11959
11823
11846
11947
11923
11867
11972
12130
12147
12139
12277
12421
12399
12362
12473
12571
12509
12451
12528
12561
12436
12352
12413
12407
12244
12143
12173
12108
11899
11774
11765
11643
11391
11242
11199
11032
10763
10623
10576
10392
10122
9990
9931
9730
9468
9357
9297
9080
8819
8716
8648
8431
8201
8136
8091
7908
7743
7743
7735
7585
7468
7494
7471
7304
7193
7216
7167
6989
6899
6941
6899
6741
6687
6751
6709
6562
6526
6586
6523
6359
6297
6294
6176
6008
5962
5964
5853
5722
5737
5806
5779
5773
5947
6191
6378
6634
7077
7561
7964
8418
9013
9593
10061
10554
11126
11590
11892
12235
12677
12998
13145
13334
13598
13716
13675
13697
13791
13741
13563
13483
13485
13346
13107
12992
12942
12740
12464
12328
12236
11982
11688
11558
11462
11204
10919
10784
10659
10383
10119
10033
9957
9747
9561
9511
9437
9262
9166
9214
9220
9134
9139
9271
9346
9340
9437
9642
9756
9778
9894
10079
10144
10121
10193
10313
10294
10199
10209
10247
10143
9992
9961
9955
9812
9642
9599
9563
9389
9207
9150
9083
8887
8701
8630
8528
8304
8116
8043
7925
7703
7546
7500
7389
7179
7049
7018
6902
6692
6566
6522
6387
6180
6078
6050
5923
5742
5679
5678
5571
5426
5408
5433
5338
5218
5225
5251
5150
5030
5028
5025
4895
4770
4774
4779
4693
4666
4802
4956
5058
5278
5691
6129
6532
7057
7727
8345
8864
9448
10097
10625
11025
11467
11940
12272
12487
12758
13047
13183
13220
13329
13448
13415
13309
13299
13295
13137
12930
12830
12733
12503
12262
12148
12033
11798
11582
11492
11379
11146
10948
10868
10734
10479
10278
10185
10026
9765
9598
9559
9453
9265
9183
9207
9157
9044
9053
9160
9178
9136
9211
9358
9400
9402
9534
9709
9753
9756
9878
10012
9996
9947
10015
10075
9987
9891
9911
9904
9759
9626
9606
9548
9370
9235
9214
9126
8915
8758
8697
8557
8317
8159
8095
7948
7720
7589
7538
7382
7151
7021
6956
6785
6563
6461
6415
6253
6054
5985
5951
5789
5601
5547
5517
5368
5217
5196
5173
5017
4867
4848
4813
4661
4549
4566
4544
4412
4337
4378
4358
4234
4187
4245
4229
4131
4146
4288
4391
4478
4737
5152
5554
5971
6563
7260
7871
8440
9118
9813
10354
10818
11357
11869
12204
12474
12823
13133
13271
13366
13544
13667
13623
13562
13588
13555
13381
13230
13177
13057
12819
12642
12570
12426
12186
12024
11949
11785
11538
11378
11293
11110
10852
10691
10594
10394
10145
10022
9963
9801
9612
9559
9559
9460
9350
9374
9430
9381
9335
9419
9515
9506
9513
9643
9756
9752
9771
9893
9970
9935
9947
10058
10099
10027
10010
10073
10038
9890
9814
9819
9729
9553
9468
9458
9350
9172
9098
9081
8950
8761
8680
8636
8468
8259
8167
8099
7901
7683
7596
7522
7322
7130
7073
7015
6838
6674
6625
6547
6358
6214
6189
6121
5956
5862
5878
5825
5670
5590
5607
5540
5381
5308
5322
5245
5091
5037
5058
4980
4845
4820
4845
4755
4624
4622
4671
4618
4574
4707
4924
5095
5337
5787
6317
6791
7321
8009
8697
9265
9847
10516
11110
11555
12006
12510
12891
13109
13342
13626
13780
13790
13838
13937
13913
13780
13729
13742
13639
13453
13360
13322
13167
12942
12817
12737
12543
12309
12188
12095
11882
11652
11547
11456
11242
11023
10926
10830
10622
10439
10382
10305
10124
9997
10000
9972
9855
9823
9917
9957
9908
9948
10093
10161
10142
10209
10361
10418
10392
10459
10592
10617
10568
10613
10692
10640
10533
10542
10579
10481
10339
10312
10294
10143
9976
9929
9883
9713
9544
9489
9409
9206
9032
8978
8888
8684
8526
8475
8364
8142
7982
7923
7792
7568
7434
7401
7288
7093
6994
6976
6865
6690
6622
6619
6506
6339
6286
6278
6147
5980
5945
5950
5839
5713
5710
5713
5587
5457
5449
5437
5304
5183
5174
5138
4988
4881
4896
4879
4782
4781
4930
5072
5190
5462
5910
6361
6802
7390
8100
8738
9307
9963
10656
11203
11640
12128
12613
12937
13171
13483
13787
13921
13978
14116
14231
14177
14074
14067
14037
13850
13644
13548
13424
13172
12947
12844
12700
12445
12247
12168
12029
11780
11607
11542
11391
11127
10942
10851
10666
10391
10220
10146
9988
9780
9710
9727
9646
9529
9549
9627
9592
9537
9633
9778
9805
9819
9965
10121
10143
10156
10288
10407
10390
10381
10488
10560
10498
10460
10523
10526
10409
10342
10372
10319
10144
10024
9976
9834
9605
9465
9402
9243
9013
8888
8833
8677
8462
8354
8297
8130
7924
7843
7811
7673
7515
7481
7462
7314
7146
7090
7022
6824
6630
6561
6488
6311
6171
6154
6105
5954
5863
5889
5860
5726
5659
5691
5646
5505
5445
5472
5411
5267
5213
5229
5139
4979
4923
4929
4833
4694
4675
4709
4647
4584
4689
4883
5031
5231
5627
6112
6547
7041
7699
8371
8922
9469
10105
10675
11087
11489
11951
12313
12518
12736
13008
13157
13159
13195
13285
13255
13106
13022
13003
12870
12645
12508
12431
12244
11994
11850
11753
11533
11253
11079
10937
10670
10372
10196
10037
9753
9471
9329
9212
8990
8788
8716
8644
8473
8346
8354
8348
8259
8241
8344
8403
8379
8441
8614
8720
8742
8848
9031
9116
9113
9193
9330
9349
9288
9317
9387
9331
9210
9186
9192
9071
8913
8874
8852
8700
8523
8462
8399
8206
8013
7937
7843
7617
7398
7290
7153
6909
6714
6641
6520
6297
6146
6110
6009
5811
5690
5660
5544
5341
5226
5192
5065
4869
4781
4768
4652
4480
4429
4443
4347
4210
4195
4220
4131
4015
4015
4026
3911
3789
3792
3794
3682
3592
3629
3658
3597
3607
3777
3959
4090
4339
4770
5218
5631
6164
6834
7450
7976
8571
9231
9777
10211
10696
11199
11544
11761
12020
12284
12388
12389
12456
12527
12449
12314
12285
12264
12098
11898
11813
11728
11508
11285
11183
11070
10838
10624
10513
10353
10063
9801
9643
9432
9128
8905
8796
8627
8377
8221
8172
8060
7891
7838
7885
7864
7802
7865
8007
8053
8056
8178
8343
8392
8409
8548
8711
8744
8742
8849
8961
8938
8892
8952
8992
8893
8793
8802
8784
8650
8543
8533
8464
8279
8147
8109
7997
7786
7646
7594
7460
7235
7095
7037
6891
6670
6545
6496
6357
6165
6086
6072
5960
5811
5782
5790
5673
5524
5497
5494
5372
5241
5231
5223
5102
4999
5019
5021
4899
4798
4813
4802
4688
4623
4676
4695
4648
4715
4943
5170
5377
5740
6273
6794
7288
7907
8624
9254
9804
10425
11067
11554
11933
12375
12815
13087
13272
13532
13777
13845
13844
13933
14008
13932
13827
13820
13786
13612
13428
13344
13221
12969
12742
12622
12450
12175
11964
11857
11680
11402
11191
11066
10858
10568
10371
10262
10070
9816
9676
9620
9491
9339
9324
9384
9359
9315
9403
9537
9557
9557
9692
9852
9893
9923
10071
10208
10210
10209
10322
10417
10390
10385
10486
10536
10463
10429
10480
10446
10288
10186
10177
10091
9903
9788
9756
9635
9431
9324
9295
9163
8955
8848
8800
8654
8470
8407
8389
8247
8062
8001
7969
7818
7653
7612
7591
7452
7308
7288
7270
7144
7041
7051
7022
6879
6781
6795
6753
6603
6514
6526
6467
6311
6234
6256
6203
6085
6082
6199
6290
6391
6671
7098
7512
7947
8552
9251
9869
10457
11155
11868
12432
12924
13481
14002
14349
14631
14974
15258
15366
15427
15557
15622
15525
15426
15421
15361
15176
15030
14978
14850
14611
14439
14365
14214
13964
13790
13697
13508
13237
13061
12959
12765
12517
12382
12304
12118
11891
11790
11740
11591
11430
11406
11420
11330
11243
11291
11361
11331
11316
11426
11533
11536
11573
11736
11870
11883
11929
12072
12146
12100
12104
12197
12208
12113
12083
12131
12085
11939
11871
11882
11804
11653
11594
11588
11472
11293
11209
11162
10996
10785
10691
10628
10444
10243
10166
10098
9906
9710
9636
9564
9387
9234
9206
9153
8983
8841
8801
8723
8550
8436
8425
8359
8201
8116
8124
8061
7915
7847
7858
7786
7639
7583
7594
7505
7353
7308
7324
7237
7111
7105
7148
7094
7040
7150
7336
7471
7670
8070
8558
9011
9530
10203
10896
11496
12120
12834
13482
13987
14500
15075
15543
15850
16158
16498
16710
16783
16881
17016
17025
16916
16860
16845
16711
16493
16357
16267
16068
15819
15687
15604
15410
15181
15066
14981
14783
14566
14466
14370
14143
13909
13790
13656
13403
13169
13056
12932
12719
12572
12560
12521
12400
12365
12453
12492
12451
12496
12643
12717
12709
12785
12934
12984
12955
13022
13152
13175
13131
13182
13269
13234
13142
13142
13154
13044
12907
12871
12832
12665
12485
12420
12355
12180
12023
11990
11935
11758
11604
11555
11464
11267
11121
11072
10955
10737
10588
10537
10408
10185
10045
9989
9845
9632
9521
9489
9364
9177
9093
9065
8938
8781
8742
8745
8639
8504
8483
8492
8396
8291
8297
8303
8186
8066
8057
8032
7895
7780
7774
7734
7587
7484
7489
7459
7357
7361
7519
7673
7803
8086
8544
9007
9461
10060
10773
11411
11981
12637
13326
13874
14323
14821
15301
15611
15826
16092
16322
16385
16385
16457
16498
16394
16258
16199
16102
15874
15648
15521
15368
15117
14910
14806
14655
14407
14212
14108
13938
13679
13483
13360
13160
12886
12702
12598
12417
12184
12054
11993
11854
11684
11627
11632
11556
11465
11504
11599
11610
11608
11713
11831
11841
11849
11973
12094
12101
12114
12224
12301
12257
12226
12284
12286
12168
12079
12072
12000
11833
11733
11723
11635
11451
11330
11281
11149
10940
10815
10756
10600
10380
10256
10180
9998
9769
9646
9562
9374
9161
9064
8991
8804
8608
8527
8454
8279
8118
8076
8027
7866
7727
7701
7653
7506
7396
7381
7318
7161
7061
7053
6979
6820
6740
6749
6683
6543
6486
6497
6420
6296
6288
6359
6367
6379
6550
6826
7070
7360
7836
8402
8905
9430
10096
10779
11340
11878
12494
13056
13450
13813
14246
14580
14710
14817
15002
15086
15004
14952
14997
14939
14742
14620
14603
14479
14237
14073
13978
13774
13484
13276
13124
12867
12550
12338
12179
11927
11652
11502
11396
11187
10960
10859
10789
10615
10451
10424
10417
10316
10246
10316
10389
10366
10389
10547
10689
10738
10839
11035
11164
11194
11283
11450
11527
11503
11544
11652
11659
11574
11563
11608
11542
11400
11350
11353
11246
11084
11024
10996
10846
10657
10586
10543
10379
10197
10138
10084
9905
9727
9669
9600
9409
9232
9169
9077
8872
8709
8660
8564
8363
8227
8194
8085
7875
7754
7742
7651
7476
7396
7401
7310
7152
7109
7139
7063
6923
6889
6906
6812
6687
6698
6772
6764
6781
6982
7265
7496
7797
8301
8869
9369
9922
10621
11306
11864
12429
13071
13625
14019
14411
14845
15155
15312
15487
15704
15787
15730
15713
15745
15657
15465
15346
15279
15096
14837
14678
14578
14369
14113
13974
13868
13633
13362
13211
13078
12814
12532
12374
12225
11957
11701
11584
11472
11260
11097
11081
11058
10943
10887
10947
10967
10907
10933
11068
11138
11136
11233
11426
11535
11561
11676
11863
11946
11951
12042
12173
12178
12108
12126
12165
12061
11906
11876
11878
11749
11588
11553
11529
11375
11209
11154
11087
10900
10731
10678
10589
10380
10205
10134
10007
9774
9606
9546
9429
9222
9096
9063
8948
8754
8655
8639
8530
8343
8246
8218
8097
7924
7869
7875
7779
7643
7627
7656
7572
7463
7478
7499
7379
7244
7230
7219
7094
6979
6985
6981
6882
6857
7003
7177
7322
7608
8090
8593
9066
9674
10423
11114
11708
12367
13084
13677
14154
14684
15234
15619
15878
16182
16479
16607
16634
16721
16790
16691
16528
16459
16386
16176
15949
15835
15710
15451
15194
15068
14944
14719
14524
14442
14317
14070
13855
13737
13557
13272
13064
12972
12818
12585
12451
12423
12319
12144
12077
12109
12074
11998
12038
12149
12169
12148
12240
12383
12419
12419
12534
12671
12683
12667
12762
12852
12808
12756
12817
12853
12750
12647
12647
12605
12438
12308
12289
12218
12039
11919
11897
11804
11613
11491
11452
11331
11124
10996
10941
10790
10565
10431
10355
10181
9964
9864
9815
9660
9473
9410
9384
9233
9053
8994
8953
8793
8622
8569
8514
8349
8204
8185
8154
8017
7918
7934
7919
7801
7733
7761
7727
7598
7537
7563
7510
7369
7302
7315
7245
7107
7072
7120
7105
7083
7225
7489
7733
8019
8498
9091
9633
10192
10906
11655
12272
12845
13496
14113
14580
15010
15501
15920
16167
16375
16634
16806
16823
16840
16919
16903
16760
16660
16635
16519
16296
16143
16080
15936
15704
15556
15483
15311
15069
14926
14844
14654
14405
14264
14171
13961
13708
13568
13455
13229
12995
12900
12835
12665
12507
12494
12507
12430
12392
12496
12593
12581
12611
12768
12889
12899
12954
13102
13173
13133
13156
13268
13298
13233
13247
13338
13329
13237
13231
13272
13188
13029
12962
12932
12777
12574
12483
12422
12235
12020
11927
11857
11673
11489
11441
11400
11238
11082
11041
10977
10787
10615
10553
10454
10246
10085
10030
9932
9753
9657
9667
9612
9474
9419
9451
9401
9270
9217
9227
9147
9015
8993
9031
8960
8840
8833
8867
8792
8695
8729
8785
8709
8610
8630
8659
8577
8506
8569
8656
8677
8783
9079
9424
9739
10175
10798
11432
12005
12675
13464
14174
14763
15396
16077
16623
17029
17466
17919
18208
18361
18553
18758
18818
18785
18820
18864
18763
18595
18519
18452
18246
18008
17886
17770
17532
17288
17159
17028
16781
16546
16421
16275
16031
15823
15718
15571
15329
15145
15059
14914
14682
14530
14479
14367
14195
14140
14196
14189
14129
14175
14294
14324
14309
14399
14540
14572
14559
14655
14784
14796
14770
14844
14923
14877
14815
14860
14893
14792
14672
14641
14579
14396
14226
14150
14029
13802
13627
13561
13446
13237
13097
13053
12929
12704
12552
12482
12323
12077
11922
11846
11676
11448
11330
11277
11124
10927
10845
10813
10668
10486
10421
10384
10231
10068
10028
10000
9857
9715
9693
9662
9516
9397
9397
9378
9259
9185
9220
9211
9102
9048
9087
9053
8918
8854
8875
8811
8658
8592
8613
8561
8473
8526
8697
8836
8993
9328
9788
10213
10670
11306
12013
12620
13218
13943
14668
15239
15763
16364
16890
17201
17471
17844
18140
18239
18354
18602
18718
18598
18541
18639
18593
18342
18204
18222
18081
17760
17576
17525
17308
16957
16743
16621
16344
15970
15739
15587
15290
14945
14777
14673
14415
14134
14039
13991
13793
13602
13602
13624
13494
13392
13475
13551
13481
13471
13638
13760
13728
13765
13953
14057
14008
14049
14224
14276
14176
14182
14303
14279
14124
14096
14177
14109
13931
13883
13901
13743
13501
13418
13390
13182
12918
12833
12797
12594
12369
12318
12281
12065
11839
11785
11713
11456
11220
11156
11053
10787
10586
10551
10448
10204
10056
10055
9961
9737
9618
9626
9531
9328
9243
9263
9160
8964
8904
8934
8833
8660
8635
8675
8561
8396
8396
8441
8319
8162
8169
8197
8067
7933
7972
8034
7976
7987
8224
8516
8737
9074
9634
10203
10677
11264
12012
12665
13158
13722
14384
14892
15223
15616
16071
16353
16480
16687
16933
16984
16903
16921
16972
16840
16621
16537
16485
16256
15977
15860
15770
15514
15245
15138
15027
14744
14461
14332
14179
13869
13591
13459
13279
12961
12707
12600
12439
12176
12027
12032
11969
11815
11791
11905
11934
11886
11975
12172
12257
12268
12418
12643
12723
12725
12856
13027
13042
13009
13119
13246
13197
13110
13170
13233
13126
13002
13023
13020
12843
12675
12649
12582
12372
12212
12187
12088
11846
11676
11629
11489
11232
11088
11077
10958
10722
10604
10596
10468
10244
10144
10125
9973
9752
9676
9668
9518
9320
9277
9270
9094
8886
8846
8829
8655
8485
8492
8498
8343
8204
8227
8233
8100
8022
8116
8201
8208
8355
8716
9076
9387
9858
10513
11116
11631
12261
12988
13567
14007
14532
15106
15504
15774
16133
16508
16679
16732
16889
17050
17007
16882
16891
16903
16726
16514
16454
16388
16147
15904
15812
15694
15407
15133
14995
14804
14467
14191
14056
13847
13500
13248
13142
12957
12666
12492
12446
12313
12097
12015
12051
11985
11853
11876
12006
12027
12001
12134
12338
12405
12434
12618
12836
12888
12903
13061
13219
13202
13158
13250
13315
13209
13112
13151
13142
12986
12878
12898
12843
12645
12520
12519
12418
12178
12026
11988
11841
11581
11431
11377
11207
10960
10855
10843
10702
10483
10385
10340
10158
9933
9858
9828
9652
9443
9375
9324
9131
8936
8894
8856
8685
8541
8546
8527
8370
8252
8268
8229
8057
7957
7994
7958
7795
7714
7756
7716
7584
7587
7744
7853
7936
8213
8663
9076
9495
10115
10849
11468
12045
12782
13557
14147
14666
15310
15935
16344
16680
17120
17505
17664
17767
17972
18102
18019
17927
17960
17921
17709
17540
17500
17372
17090
16885
16810
16636
16335
16143
16072
15886
15582
15387
15276
15022
14673
14463
14341
14086
13777
13644
13595
13414
13209
13185
13223
13123
13021
13103
13216
13184
13168
13328
13493
13511
13559
13762
13932
13951
14016
14216
14339
14312
14349
14497
14526
14403
14371
14452
14413
14254
14205
14250
14163
13977
13917
13937
13816
13612
13532
13495
13298
13048
12955
12904
12692
12449
12371
12315
12098
11876
11822
11768
11554
11350
11299
11224
11000
10815
10776
10688
10469
10328
10331
10258
10062
9959
9978
9901
9720
9657
9697
9611
9424
9357
9374
9258
9067
9016
9041
8928
8761
8748
8792
8697
8595
8688
8852
8919
9044
9408
9854
10210
10648
11316
12015
12590
13229
14035
14771
15322
15906
16588
17117
17435
17791
18224
18480
18536
18652
18845
18872
18753
18743
18815
18722
18509
18424
18398
18190
17895
17760
17682
17431
17135
17022
16947
16690
16403
16292
16192
15917
15642
15539
15423
15142
14903
14840
14738
14480
14300
14299
14236
14051
14001
14128
14168
14090
14151
14360
14450
14415
14518
14740
14815
14776
14878
15064
15079
15005
15092
15239
15204
15104
15169
15262
15156
15001
15014
15035
14861
14666
14646
14623
14427
14243
14224
14165
13936
13750
13719
13614
13345
13155
13122
13000
12745
12597
12577
12442
12184
12050
12026
11867
11608
11498
11489
11338
11103
11024
11017
10850
10629
10581
10587
10427
10235
10224
10241
10081
9913
9933
9966
9831
9711
9768
9798
9658
9559
9622
9630
9483
9403
9464
9441
9282
9223
9298
9263
9102
9065
9145
9094
8929
8898
8970
8900
8743
8747
8852
8846
8835
9051
9394
9652
9965
10548
11244
11826
12436
13254
14086
14730
15361
16131
16818
17261
17674
18199
18616
18807
19007
19311
19481
19451
19473
19601
19582
19387
19287
19301
19176
18921
18791
18769
18602
18325
18186
18127
17905
17602
17455
17364
17097
16775
16634
16545
16287
16008
15915
15849
15623
15413
15395
15372
15183
15035
15086
15123
15017
14989
15143
15238
15190
15240
15442
15538
15482
15538
15733
15800
15731
15784
15937
15934
15812
15822
15918
15856
15706
15709
15776
15673
15504
15491
15512
15348
15142
15110
15099
14906
14700
14668
14623
14387
14163
14118
14049
13813
13616
13574
13471
13220
13051
13033
12917
12656
12499
12474
12332
12072
11951
11964
11857
11654
11601
11653
11564
11391
11369
11416
11293
11099
11073
11100
10952
10770
10777
10827
10706
10571
10617
10667
10540
10420
10469
10482
10315
10189
10228
10217
10052
9962
10029
10003
9813
9720
9786
9761
9612
9583
9681
9653
9509
9492
9577
9521
9373
9377
9481
9466
9443
9656
10001
10247
10532
11102
11807
12397
13001
13811
14637
15267
15870
16622
17307
17746
18179
18771
19225
19380
19554
19888
20062
19985
19996
20173
20182
19977
19890
19944
19816
19515
19375
19365
19159
18814
18660
18622
18386
18050
17921
17877
17612
17268
17149
17085
16784
16441
16341
16274
15977
15688
15657
15637
15399
15204
15260
15298
15145
15084
15253
15349
15254
15277
15505
15603
15502
15545
15773
15841
15732
15788
15996
16016
15878
15919
16083
16035
15852
15863
15955
15808
15568
15555
15605
15410
15136
15056
15013
14778
14520
14443
14363
14094
13841
13778
13691
13430
13219
13190
13108
12864
12703
12702
12603
12341
12176
12152
12012
11735
11578
11540
11368
11089
10967
10965
10822
10599
10554
10596
10460
10245
10214
10252
10110
9917
9912
9944
9788
9608
9621
9655
9515
9387
9445
9485
9345
9237
9302
9319
9167
9075
9138
9111
8927
8850
8935
8907
8724
8660
8743
8710
8576
8617
8821
8941
9029
9347
9838
10243
10635
11264
12024
12642
13223
14011
14826
15368
15826
16482
17108
17425
17673
18103
18459
18514
18540
18747
18859
18705
18586
18652
18596
18301
18098
18082
17923
17566
17364
17347
17167
16814
16627
16593
16377
16020
15850
15803
15558
15209
15079
15045
14787
14456
14383
14388
14141
13851
13844
13903
13730
13570
13701
13853
13754
13676
13859
14027
13972
13986
14240
14413
14354
14387
14624
14723
14598
14594
14771
14771
14561
14493
14582
14491
14245
14190
14268
14130
13852
13776
13807
13618
13325
13240
13218
12964
12630
12487
12381
12096
11802
11699
11613
11366
11146
11110
11052
10824
10638
10613
10530
10290
10127
10123
10040
9814
9690
9709
9623
9415
9337
9386
9309
9130
9096
9163
9087
8921
8907
8966
8859
8687
8686
8746
8636
8478
8497
8556
8447
8337
8434
8573
8582
8654
8967
9330
9591
9957
10562
11173
11669
12258
13010
13680
14184
14753
15427
15942
16267
16666
17131
17362
17393
17564
17839
17883
17764
17817
17954
17853
17623
17587
17611
17379
17060
16970
16928
16638
16293
16160
16054
15754
15440
15310
15168
14833
14519
14400
14255
13932
13670
13591
13447
13150
12961
12955
12874
12669
12607
12713
12723
12633
12707
12929
13014
12986
13119
13361
13440
13422
13562
13770
13789
13724
13826
13971
13916
13811
13890
13983
13867
13713
13727
13733
13552
13383
13393
13371
13170
13006
13002
12934
12701
12537
12517
12397
12126
11962
11942
11798
11510
11351
11330
11184
10927
10819
10827
10686
10448
10369
10383
10240
10025
9977
9988
9819
9602
9569
9583
9427
9256
9276
9310
9164
9025
9068
9100
8955
8833
8873
8865
8695
8589
8647
8641
8514
8530
8752
8927
9025
9320
9839
10316
10750
11396
12207
12888
13465
14194
14993
15587
16052
16633
17220
17562
17786
18141
18485
18584
18603
18769
18909
18824
18708
18754
18762
18564
18374
18347
18264
17993
17770
17706
17561
17250
17023
16944
16748
16396
16162
16073
15859
15516
15311
15230
15015
14711
14579
14558
14389
14158
14123
14186
14090
13951
14013
14142
14101
14046
14202
14404
14434
14459
14670
14873
14879
14890
15067
15199
15139
15112
15245
15301
15178
15122
15212
15193
15007
14917
14959
14870
14638
14526
14530
14392
14134
14015
13996
13821
13551
13437
13397
13193
12927
12843
12821
12622
12381
12323
12291
12067
11825
11772
11722
11493
11287
11277
11242
11028
10864
10883
10850
10658
10544
10585
10526
10315
10221
10286
10241
10064
10019
10107
10059
9886
9860
9944
9866
9680
9653
9711
9603
9427
9427
9496
9400
9277
9380
9581
9670
9815
10230
10748
11167
11670
12424
13200
13814
14474
15305
16048
16560
17082
17717
18209
18484
18821
19277
19545
19587
19715
19957
20027
19919
19911
19982
19863
19609
19506
19487
19284
18983
18845
18776
18539
18249
18141
18071
17796
17488
17386
17305
17024
16741
16660
16573
16294
16060
16043
15956
15640
15437
15501
15479
15256
15196
15378
15420
15270
15316
15573
15645
15538
15635
15904
15961
15864
15994
16256
16266
16139
16244
16439
16361
16185
16271
16412
16259
16046
16112
16217
16048
15858
15924
15961
15713
15489
15517
15482
15186
14962
14981
14901
14588
14404
14445
14336
14009
13857
13922
13798
13466
13326
13361
13188
12856
12757
12811
12625
12304
12231
12284
12094
11817
11814
11896
11710
11470
11511
11597
11411
11206
11279
11356
11161
10985
11082
11142
10940
10797
10904
10924
10698
10579
10698
10688
10459
10395
10549
10525
10296
10262
10419
10381
10185
10227
10463
10535
10546
10878
11424
11810
12171
12859
13681
14259
14784
15590
16434
16973
17443
18142
18797
19123
19403
19888
20278
20340
20397
20656
20791
20640
20562
20696
20676
20405
20265
20328
20210
19877
19715
19738
19561
19206
19067
19101
18911
18571
18458
18455
18192
17815
17695
17674
17401
17073
17035
17072
16848
16600
16650
16743
16586
16454
16612
16757
16638
16572
16781
16936
16844
16837
17071
17199
17105
17142
17392
17481
17356
17399
17633
17667
17501
17516
17680
17614
17381
17362
17469
17328
17051
17001
17039
16810
16489
16432
16450
16202
15903
15876
15884
15617
15332
15309
15270
14967
14703
14712
14669
14362
14121
14131
14060
13759
13575
13620
13535
13244
13120
13207
13117
12832
12749
12862
12773
12515
12479
12604
12503
12269
12283
12422
12310
12091
12125
12240
12081
11850
11897
11997
11820
11612
11681
11768
11601
11461
11594
11689
11512
11381
11504
11552
11351
11244
11363
11342
11082
10966
11072
11013
10754
10703
10882
10918
10844
11050
11493
11797
12047
12614
13379
13960
14474
15258
16134
16740
17252
18004
18741
19092
19353
19901
20414
20532
20597
20942
21209
21099
21002
21188
21257
20986
20801
20893
20831
20474
20280
20345
20196
19780
19590
19653
19478
19073
18922
18977
18754
18336
18207
18259
18017
17621
17532
17576
17309
16951
16937
17026
16796
16529
16633
16803
16654
16515
16732
16947
16836
16774
17050
17256
17129
17086
17341
17468
17294
17261
17495
17538
17307
17281
17505
17491
17230
17199
17362
17242
16909
16840
16938
16737
16370
16291
16335
16065
15688
15637
15675
15379
15015
14989
15004
14675
14326
14321
14321
13996
13711
13766
13779
13479
13251
13326
13294
12969
12781
12873
12802
12468
12340
12478
12401
12075
11973
12098
12036
11815
11818
11978
11907
11690
11702
11834
11716
11491
11522
11638
11490
11275
11334
11449
11294
11113
11209
11317
11152
10994
11098
11160
10943
10770
10857
10885
10678
10568
10700
10739
10601
10671
11028
11303
11456
11872
12556
13113
13554
14243
15107
15744
16207
16862
17605
18059
18341
18811
19315
19501
19557
19825
20095
20035
19884
19973
20057
19837
19588
19593
19570
19269
18991
18969
18882
18530
18247
18207
18062
17680
17427
17393
17196
16778
16537
16508
16293
15881
15670
15645
15413
15032
14894
14916
14716
14412
14387
14508
14410
14257
14403
14647
14640
14605
14868
15170
15185
15179
15441
15686
15648
15624
15847
16013
15916
15875
16058
16128
15947
15867
15999
15979
15726
15615
15694
15578
15252
15111
15154
14998
14676
14562
14592
14390
14049
13940
13952
13724
13400
13330
13334
13073
12754
12716
12731
12475
12199
12210
12236
11991
11765
11813
11827
11576
11388
11456
11445
11194
11055
11156
11131
10892
10814
10947
10910
10682
10646
10791
10732
10502
10484
10614
10515
10276
10279
10425
10357
10224
10392
10711
10847
10992
11476
12084
12494
12928
13676
14453
14949
15436
16165
16797
17081
17391
17975
18435
18547
18727
19161
19402
19306
19335
19593
19610
19328
19240
19373
19235
18846
18703
18761
18537
18115
17977
18015
17763
17363
17262
17277
16966
16545
16443
16412
16041
15612
15528
15498
15147
14797
14799
14812
14520
14294
14424
14543
14405
14344
14538
14647
14537
14572
14850
14982
14898
14987
15283
15376
15248
15303
15533
15542
15380
15438
15635
15573
15355
15364
15477
15325
15060
15051
15124
14923
14653
14650
14686
14435
14151
14138
14125
13838
13567
13563
13521
13221
12985
13009
12955
12653
12451
12486
12392
12075
11920
11994
11896
11585
11464
11549
11439
11150
11072
11150
10992
10693
10649
10745
10599
10343
10343
10440
10277
10044
10094
10206
10040
9841
9922
10027
9861
9700
9812
9903
9739
9643
9841
10015
9990
10123
10579
11013
11306
11822
12629
13317
13815
14517
15435
16136
16620
17312
18138
18604
18795
19202
19715
19862
19800
19998
20276
20192
19968
20051
20193
19974
19677
19704
19746
19430
19092
19083
19051
18682
18356
18362
18297
17907
17603
17598
17464
17030
16748
16747
16566
16123
15907
15964
15808
15435
15332
15463
15344
15047
15054
15264
15209
15019
15149
15430
15408
15282
15492
15800
15770
15666
15898
16173
16099
15987
16208
16414
16256
16104
16276
16387
16158
15992
16135
16163
15874
15706
15821
15764
15422
15272
15387
15278
14905
14760
14844
14690
14332
14190
14208
14001
13658
13561
13600
13401
13101
13053
13089
12853
12538
12493
12502
12235
11938
11930
11938
11666
11412
11454
11486
11256
11081
11178
11206
10975
10837
10941
10921
10665
10552
10668
10625
10378
10320
10460
10401
10158
10124
10258
10175
9944
9952
10111
10053
9908
10057
10364
10479
10591
11052
11653
12043
12456
13220
14060
14642
15228
16083
16893
17386
17898
18667
19282
19493
19724
20191
20471
20408
20455
20738
20794
20554
20506
20691
20617
20283
20174
20261
20061
19645
19501
19539
19284
18867
18756
18780
18481
18066
17983
18010
17729
17367
17297
17278
16972
16649
16622
16613
16344
16115
16181
16224
16018
15903
16076
16181
16050
16044
16286
16402
16302
16370
16654
16754
16643
16718
16970
17004
16859
16927
17135
17090
16886
16910
17048
16930
16699
16717
16809
16621
16358
16369
16430
16209
15955
15982
16014
15755
15493
15495
15464
15160
14899
14894
14810
14468
14226
14238
14140
13820
13652
13710
13602
13285
13153
13216
13086
12787
12711
12806
12673
12386
12333
12412
12250
11990
12001
12118
11975
11747
11783
11868
11661
11404
11435
11507
11316
11132
11239
11334
11154
11015
11155
11243
11074
10979
11125
11158
10944
10854
10988
10964
10730
10687
10872
10901
10793
10970
11419
11749
12012
12584
13370
13972
14488
15277
16181
16809
17337
18144
18968
19374
19639
20188
20723
20844
20878
21203
21474
21361
21241
21421
21510
21235
21011
21082
21025
20649
20408
20454
20323
19910
19703
19768
19613
19207
19041
19105
18915
18504
18320
18309
18069
17691
17567
17584
17365
17060
17033
17104
16912
16667
16724
16858
16733
16597
16766
16964
16892
16844
17083
17294
17227
17200
17430
17579
17465
17436
17640
17712
17539
17506
17684
17677
17439
17375
17503
17417
17130
17054
17153
17031
16763
16731
16821
16650
16349
16295
16338
16114
15800
15749
15751
15465
15134
15091
15077
14789
14504
14499
14476
14182
13933
13960
13935
13664
13478
13529
13466
13163
12990
13046
12954
12658
12551
12660
12579
12305
12246
12378
12292
12026
11981
12086
11956
11696
11688
11799
11651
11404
11426
11534
11369
11148
11217
11327
11147
10946
11035
11125
10930
10744
10830
10877
10652
10488
10592
10626
10426
10357
10564
10685
10643
10847
11361
11775
12054
12602
13409
14050
14538
15264
16124
16657
16993
17611
18363
18767
18989
19478
20011
20142
20137
20438
20752
20661
20478
20605
20709
20431
20137
20163
20127
19739
19410
19409
19316
18904
18609
18621
18488
18071
17834
17870
17688
17228
16995
17017
16799
16356
16185
16235
16018
15628
15554
15676
15518
15235
15286
15481
15371
15181
15348
15610
15529
15399
15630
15901
15817
15718
15960
16175
16035
15928
16147
16290
16102
15997
16187
16230
15954
15816
15942
15869
15520
15382
15500
15377
15003
14874
14962
14778
14386
14278
14360
14166
13810
13707
13723
13482
13146
13076
13082
12803
12456
12390
12370
12067
11749
11729
11719
11434
11174
11205
11217
10970
10788
10873
10876
10622
10470
10561
10523
10256
10150
10273
10221
9948
9861
9980
9899
9640
9605
9749
9672
9442
9451
9595
9482
9236
9239
9346
9204
9014
9149
9398
9426
9482
9897
10415
10731
11121
11852
12600
13090
13632
14430
15096
15419
15821
16490
16973
17112
17374
17873
18121
18045
18138
18434
18444
18180
18136
18273
18105
17711
17585
17625
17357
16931
16799
16798
16529
16164
16059
16015
15687
15297
15188
15114
14747
14358
14259
14165
13811
13514
13525
13506
13225
13030
13127
13159
12961
12910
13126
13219
13098
13165
13474
13607
13532
13653
13969
14078
14006
14148
14434
14463
14328
14418
14615
14556
14400
14505
14666
14521
14289
14322
14384
14141
13866
13884
13914
13661
13412
13427
13398
13097
12855
12874
12806
12473
12238
12249
12132
11788
11612
11674
11569
11261
11151
11243
11131
10831
10744
10826
10676
10366
10291
10350
10162
9859
9816
9883
9693
9431
9458
9565
9403
9207
9301
9418
9249
9069
9160
9231
9042
8932
9140
9347
9365
9547
10063
10555
10889
11422
12236
12929
13424
14091
14942
15568
15966
16545
17251
17610
17697
18002
18423
18485
18336
18459
18687
18567
18308
18355
18468
18215
17870
17855
17868
17518
17134
17081
17017
16617
16253
16219
16118
15673
15275
15161
14980
14564
14271
14224
14048
13661
13463
13510
13394
13088
13001
13130
13076
12870
12913
13149
13174
13069
13231
13535
13586
13527
13730
14018
14029
13966
14174
14416
14350
14240
14415
14600
14490
14369
14501
14585
14382
14221
14316
14324
14062
13890
13961
13905
13611
13461
13528
13413
13072
12920
12977
12839
12512
12402
12471
12305
11968
11870
11926
11748
11455
11422
11489
11280
10984
10969
11025
10806
10550
10598
10687
10495
10293
10365
10419
10194
10000
10079
10104
9860
9688
9769
9756
9516
9416
9554
9543
9310
9251
9415
9420
9267
9360
9689
9871
9965
10365
10996
11468
11871
12577
13444
14075
14611
15408
16261
16779
17195
17892
18576
18849
19025
19475
19858
19837
19786
20022
20167
19944
19761
19865
19844
19502
19274
19322
19203
18803
18585
18618
18429
17987
17773
17787
17554
17109
16907
16886
16640
16252
16103
16091
15846
15499
15415
15438
15215
14937
14953
15054
14904
14734
14863
15032
14945
14882
15117
15355
15338
15355
15624
15832
15793
15825
16068
16188
16078
16078
16261
16279
16093
16072
16233
16207
15993
15954
16074
15992
15751
15701
15767
15606
15315
15235
15256
15053
14762
14701
14712
14497
14237
14214
14226
14006
13772
13765
13754
13522
13312
13327
13321
13108
12947
12995
12981
12779
12680
12778
12756
12550
12479
12585
12544
12336
12283
12385
12315
12095
12049
12136
12033
11804
11765
11832
11704
11496
11504
11585
11441
11246
11294
11394
11281
11184
11380
11662
11791
12011
12551
13153
13604
14162
14994
15797
16392
17047
17852
18455
18782
19232
19875
20291
20428
20702
21129
21291
21204
21291
21517
21471
21235
21225
21348
21195
20894
20843
20889
20649
20312
20249
20242
19932
19566
19493
19452
19126
18797
18757
18701
18359
18033
17957
17860
17567
17364
17395
17356
17127
17021
17119
17099
16913
16893
17072
17113
16999
17064
17290
17329
17218
17303
17534
17576
17501
17632
17859
17853
17742
17840
17990
17885
17707
17759
17846
17679
17472
17497
17529
17329
17143
17194
17207
16974
16778
16796
16740
16467
16280
16293
16181
15855
15658
15659
15515
15194
15042
15066
14925
14638
14539
14590
14453
14194
14143
14205
14057
13817
13801
13873
13719
13499
13516
13589
13419
13213
13251
13313
13135
12961
13038
13108
12940
12804
12901
12946
12762
12645
12748
12754
12542
12441
12536
12489
12246
12156
12254
12192
11972
11961
12160
12231
12230
12509
12999
13365
13701
14327
15105
15697
16235
17015
17844
18400
18896
19646
20375
20745
21029
21540
21976
22053
22100
22383
22563
22413
22292
22411
22406
22117
21933
21987
21876
21516
21332
21383
21235
20857
20681
20706
20501
20102
19940
19941
19677
19252
19091
19067
18776
18382
18291
18332
18136
17879
17883
17948
17779
17596
17684
17801
17686
17591
17759
17916
17843
17816
18023
18171
18101
18124
18367
18501
18422
18463
18690
18755
18610
18605
18758
18713
18478
18410
18483
18351
18075
18009
18071
17916
17651
17614
17669
17483
17210
17173
17196
16962
16674
16641
16639
16385
16117
16098
16073
15805
15566
15574
15536
15255
15033
15040
14962
14675
14508
14553
14471
14189
14056
14114
14007
13724
13628
13707
13601
13349
13306
13405
13296
13067
13055
13148
13013
12786
12792
12870
12707
12488
12521
12607
12451
12271
12345
12421
12237
12060
12130
12166
11956
11801
11897
11944
11794
11785
12061
12299
12408
12738
13360
13908
14326
14962
15807
16465
16952
17671
18533
19085
19408
19928
20523
20775
20845
21155
21523
21535
21396
21516
21662
21454
21172
21190
21217
20916
20599
20579
20526
20161
19838
19812
19715
19329
19039
19026
18889
18488
18238
18251
18122
17774
17581
17581
17407
17061
16915
16944
16787
16502
16453
16562
16476
16298
16369
16555
16517
16410
16566
16803
16800
16755
16965
17197
17152
17071
17230
17375
17259
17160
17303
17391
17217
17085
17169
17159
16919
16781
16841
16755
16452
16293
16320
16177
15847
15698
15719
15546
15213
15080
15091
14893
14569
14467
14474
14242
13909
13819
13813
13565
13262
13220
13228
12980
12716
12724
12751
12533
12336
12392
12416
12194
12025
12098
12107
11891
11767
11862
11843
11614
11520
11633
11600
11383
11340
11477
11425
11197
11162
11282
11202
10989
11004
11168
11135
11027
11208
11554
11733
11915
12427
13070
13511
13953
14695
15481
16001
16493
17207
17858
18201
18530
19066
19508
19670
19872
20258
20456
20342
20325
20511
20478
20167
20020
20084
19952
19607
19431
19408
19174
18774
18579
18527
18259
17868
17708
17655
17356
16954
16789
16695
16348
15959
15847
15792
15498
15206
15192
15204
14994
14836
14960
15072
14961
14926
15146
15309
15260
15315
15591
15743
15682
15763
16044
16150
16043
16103
16342
16381
16234
16267
16434
16373
16159
16151
16250
16113
15869
15846
15887
15669
15379
15339
15348
15096
14804
14768
14749
14472
14200
14190
14160
13874
13628
13629
13575
13296
13108
13149
13086
12806
12660
12730
12655
12376
12259
12331
12228
11952
11872
11963
11860
11610
11572
11674
11559
11326
11321
11416
11276
11056
11087
11191
11040
10839
10905
11012
10865
10702
10798
10898
10760
10675
10876
11072
11071
11196
11637
12081
12386
12878
13648
14331
14829
15490
16345
17013
17462
18048
18757
19209
19440
19855
20372
20555
20518
20700
20965
20898
20683
20735
20860
20660
20363
20358
20387
20085
19719
19632
19582
19287
19004
18975
18911
18584
18292
18242
18131
17788
17528
17491
17339
16965
16726
16710
16556
16228
16100
16192
16128
15906
15903
16089
16088
15957
16062
16316
16351
16278
16452
16725
16746
16680
16860
17088
17043
16944
17100
17271
17163
17041
17172
17278
17113
16962
17049
17078
16847
16662
16690
16616
16308
16114
16143
16034
15713
15551
15592
15456
15124
14977
15007
14842
14516
14405
14439
14246
13918
13817
13830
13616
13321
13281
13324
13120
12862
12869
12923
12718
12494
12536
12586
12376
12171
12224
12251
12031
11869
11958
11976
11755
11629
11736
11733
11517
11448
11593
11578
11358
11308
11439
11379
11152
11130
11269
11200
10994
11008
11153
11085
10947
11101
11416
11571
11751
12285
12969
13464
13968
14775
15631
16231
16813
17628
18392
18855
19319
20002
20535
20700
20889
21284
21498
21402
21413
21636
21658
21423
21371
21530
21453
21137
21023
21082
20884
20496
20347
20346
20075
19669
19544
19540
19253
18876
18797
18812
18559
18241
18179
18150
17866
17573
17544
17529
17291
17106
17193
17253
17081
16984
17150
17266
17182
17216
17467
17591
17509
17570
17824
17910
17807
17878
18116
18156
18025
18081
18271
18234
18048
18065
18182
18054
17817
17816
17896
17732
17500
17517
17578
17369
17112
17108
17116
16860
16598
16578
16533
16245
16001
16002
15941
15640
15420
15429
15340
15036
14861
14901
14797
14494
14361
14428
14328
14052
13962
14036
13911
13636
13576
13651
13502
13241
13219
13305
13161
12942
12964
13049
12886
12678
12730
12822
12664
12499
12595
12689
12531
12395
12505
12568
12383
12255
12357
12374
12158
12043
12145
12120
11892
11821
11963
11958
11788
11833
12109
12264
12331
12681
13265
13716
14113
14800
15646
16286
16843
17639
18500
19080
19557
20252
20916
21200
21386
21824
22214
22236
22222
22466
22631
22455
22302
22413
22419
22122
21914
21966
21872
21507
21291
21312
21143
20744
20560
20595
20404
20013
19859
19883
19653
19256
19124
19160
18970
18662
18589
18622
18430
18178
18188
18270
18110
17928
18033
18189
18102
18017
18195
18367
18290
18246
18455
18620
18545
18543
18774
18903
18789
18767
18946
18973
18773
18721
18869
18840
18612
18557
18672
18581
18311
18238
18310
18155
17850
17760
17783
17572
17268
17214
17248
17031
16747
16719
16732
16476
16197
16193
16204
15958
15723
15735
15705
15421
15193
15220
15180
14902
14731
14810
14783
14531
14412
14505
14442
14185
14100
14200
14118
13867
13806
13902
13796
13550
13513
13597
13462
13226
13224
13314
13153
12912
12930
13012
12830
12616
12687
12789
12614
12417
12474
12515
12295
12106
12174
12187
11942
11763
11824
11808
11594
11547
11785
11964
12024
12332
12919
13408
13783
14410
15253
15926
16462
17211
18085
18693
19108
19695
20337
20672
20842
21196
21554
21569
21478
21661
21852
21695
21485
21560
21602
21305
21011
21008
20945
20572
20262
20237
20111
19702
19411
19382
19225
18850
18622
18598
18410
18030
17832
17826
17630
17257
17090
17095
16907
16598
16536
16626
16505
16293
16350
16529
16483
16385
16564
16811
16803
16762
16992
17243
17221
17191
17418
17616
17539
17473
17636
17726
17555
17443
17550
17552
17323
17207
17293
17219
16930
16800
16863
16743
16435
16310
16345
16177
15853
15737
15753
15530
15175
15055
15045
14795
14461
14386
14388
14132
13825
13790
13797
13535
13251
13235
13228
12971
12742
12770
12762
12508
12306
12346
12315
12061
11912
11986
11938
11688
11592
11705
11649
11396
11330
11456
11396
11171
11157
11306
11239
11023
11026
11150
11030
10788
10778
10855
10689
10476
10557
10734
10701
10696
11034
11466
11706
12023
12668
13349
13824
14371
15175
15911
16383
16905
17616
18172
18456
18811
19317
19614
19653
19810
20108
20174
20018
20025
20169
20075
19794
19700
19724
19506
19156
19035
19022
18760
18396
18283
18239
17926
17557
17465
17417
17108
16790
16746
16702
16396
16120
16110
16062
15774
15563
15607
15585
15353
15252
15399
15438
15288
15315
15564
15653
15559
15659
15947
16036
15951
16063
16321
16352
16235
16338
16554
16521
16373
16455
16606
16481
16269
16305
16375
16159
15901
15910
15928
15674
15418
15407
15356
15048
14797
14803
14740
14434
14209
14211
14110
13793
13616
13663
13554
13236
13089
13137
13002
12691
12580
12639
12489
12188
12118
12191
12034
11759
11731
11809
11641
11393
11406
11492
11323
11109
11158
11239
11059
10870
10944
11004
10802
10631
10720
10758
10543
10391
10474
10470
10247
10150
10286
10315
10190
10303
10705
11018
11223
11707
12457
13074
13569
14303
15196
15854
16355
17060
17839
18322
18648
19164
19695
19901
19980
20264
20544
20511
20408
20535
20636
20439
20231
20268
20255
19962
19698
19674
19574
19225
18967
18942
18793
18417
18179
18150
17955
17559
17344
17317
17092
16682
16474
16434
16192
15831
15728
15778
15613
15363
15385
15530
15442
15288
15419
15636
15592
15506
15702
15940
15916
15882
16110
16319
16254
16216
16432
16581
16460
16400
16575
16652
16493
16431
16559
16515
16238
16124
16218
16131
15851
15756
15817
15664
15354
15262
15321
15159
14864
14792
14819
14586
14251
14181
14194
13936
13619
13577
13577
13306
13012
12999
13000
12744
12510
12538
12526
12262
12063
12118
12101
11846
11692
11777
11752
11519
11444
11587
11562
11327
11269
11399
11341
11117
11105
11256
11192
10983
10999
11142
11043
10823
10825
10904
10741
10518
10561
10671
10530
10368
10502
10695
10675
10730
11137
11619
11921
12330
13059
13782
14293
14911
15780
16536
17038
17632
18401
18967
19261
19659
20188
20466
20496
20667
20951
20969
20781
20777
20884
20734
20438
20364
20392
20176
19867
19809
19809
19522
19170
19091
19054
18743
18401
18315
18220
17855
17510
17424
17293
16907
16590
16544
16447
16139
15960
16035
16000
15765
15698
15855
15865
15706
15751
15993
16050
15941
16042
16304
16353
16266
16409
16674
16698
16611
16756
16966
16899
16746
16847
16985
16837
16655
16745
16842
16659
16465
16517
16531
16280
16067
16097
16059
15783
15597
15644
15583
15305
15163
15229
15129
14817
14673
14722
14585
14272
14170
14239
14090
13777
13689
13750
13582
13287
13236
13292
13099
12826
12812
12861
12643
12377
12390
12451
12262
12074
12155
12222
12021
11853
11943
11983
11767
11610
11684
11668
11432
11319
11433
11415
11197
11145
11304
11288
11072
11039
11185
11130
10918
10950
11180
11237
11218
11512
12021
12389
12749
13429
14245
14842
15396
16220
17071
17616
18090
18781
19427
19745
20001
20446
20794
20829
20879
21141
21287
21157
21098
21245
21239
20974
20818
20851
20706
20344
20153
20152
19960
19594
19433
19432
19206
18826
18666
18630
18344
17929
17758
17693
17377
16995
16899
16887
16623
16331
16335
16384
16175
15968
16044
16126
15971
15873
16056
16202
16113
16114
16364
16517
16435
16469
16719
16813
16682
16715
16951
16992
16822
16835
17023
16996
16790
16779
16897
16775
16501
16443
16494
16305
16023
15992
16040
15836
15572
15563
15589
15344
15067
15049
15039
14769
14506
14493
14456
14178
13951
13967
13907
13605
13399
13431
13347
13040
12884
12951
12863
12569
12452
12533
12425
12143
12068
12156
12028
11764
11736
11844
11722
11494
11514
11625
11480
11260
11304
11398
11207
10965
10997
11063
10875
10700
10803
10886
10694
10531
10623
10660
10456
10355
10528
10638
10563
10680
11096
11444
11665
12144
12907
13544
14031
14747
15647
16323
16811
17484
18247
18710
18984
19438
19939
20122
20149
20380
20633
20570
20408
20486
20568
20336
20059
20044
20017
19706
19398
19346
19243
18873
18566
18513
18369
17971
17665
17578
17359
16919
16630
16555
16327
15920
15717
15716
15519
15150
15009
15049
14893
14628
14629
14785
14725
14584
14722
14967
14956
14884
15096
15366
15355
15296
15489
15674
15573
15467
15623
15755
15626
15541
15703
15771
15563
15437
15559
15576
15358
15261
15364
15287
14983
14851
14919
14797
14489
14370
14411
14232
13884
13748
13738
13488
13126
13027
13046
12807
12472
12408
12421
12167
11869
11859
11894
11658
11408
11426
11433
11181
10969
11017
11009
10747
10569
10652
10644
10394
10270
10398
10401
10184
10118
10249
10195
9946
9896
10031
9965
9737
9728
9871
9797
9612
9701
9972
10066
10126
10515
11072
11443
11814
12518
13322
13878
14404
15192
15967
16430
16855
17490
18031
18250
18464
18881
19171
19154
19182
19407
19478
19293
19226
19346
19269
18958
18809
18838
18657
18278
18099
18082
17830
17410
17213
17146
16842
16427
16265
16200
15872
15457
15302
15214
14866
14489
14406
14374
14100
13848
13886
13933
13741
13613
13784
13926
13827
13816
14066
14231
14166
14224
14509
14650
14581
14674
14948
15014
14870
14913
15130
15124
14938
14963
15127
15029
14767
14746
14842
14680
14427
14430
14499
14299
14033
14024
14062
13836
13583
13596
13602
13327
13067
13077
13045
12741
12485
12474
12381
12051
11824
11822
11686
11339
11172
11246
11159
10870
10768
10859
10761
10504
10466
10583
10466
10200
10169
10264
10127
9900
9923
10031
9881
9663
9708
9808
9656
9480
9587
9733
9637
9586
9866
10204
10361
10642
11261
11896
12353
12945
13804
14564
15089
15721
16533
17149
17512
17992
18605
18960
19060
19298
19658
19761
19657
19733
19905
19796
19529
19497
19559
19340
19014
18939
18920
18626
18286
18228
18207
17911
17592
17534
17450
17076
16711
16604
16461
16076
15772
15725
15602
15260
15052
15088
15009
14742
14655
14794
14781
14596
14621
14847
14883
14760
14868
15143
15194
15107
15262
15545
15570
15470
15611
15828
15775
15639
15761
15929
15825
15681
15796
15904
15723
15539
15613
15641
15384
15156
15169
15103
14791
14578
14605
14520
14213
14050
14104
13991
13663
13508
13545
13397
13078
12964
13005
12826
12503
12409
12445
12238
11914
11841
11877
11671
11395
11391
11458
11256
11006
11034
11103
10902
10691
10747
10792
10572
10379
10448
10465
10216
10029
10094
10091
9867
9762
9894
9920
9775
9851
10206
10463
10599
11001
11658
12182
12615
13334
14247
14953
15525
16307
17166
17736
18147
18750
19368
19649
19792
20147
20498
20532
20499
20699
20864
20723
20566
20649
20664
20381
20123
20099
19988
19634
19379
19349
19193
18832
18632
18648
18491
18118
17919
17912
17703
17308
17121
17107
16884
16520
16402
16437
16249
15964
15946
16037
15890
15698
15798
15984
15930
15855
16064
16310
16298
16278
16514
16739
16714
16721
16957
17117
17018
16973
17152
17227
17068
17027
17189
17178
16933
16842
16957
16897
16643
16569
16645
16491
16172
16077
16124
15929
15610
15539
15577
15364
15062
15019
15065
14850
14568
14553
14572
14309
14025
14018
14012
13730
13461
13454
13404
13090
12840
12859
12808
12522
12361
12443
12392
12112
11981
12060
11976
11700
11624
11751
11692
11465
11450
11599
11525
11306
11320
11457
11341
11108
11125
11251
11153
11030
11232
11560
11701
11902
12475
13165
13671
14228
15074
15922
16523
17155
18016
18782
19248
19724
20364
20830
20999
21229
21622
21817
21752
21798
21990
21976
21756
21691
21760
21606
21280
21140
21115
20856
20469
20310
20256
19960
19578
19449
19392
19077
18707
18597
18513
18158
17785
17674
17572
17236
16952
16951
16934
16693
16530
16613
16625
16428
16351
16514
16575
16455
16510
16788
16913
16850
16966
17257
17347
17265
17378
17635
17669
17549
17631
17813
17750
17573
17626
17754
17621
17405
17428
17490
17284
17035
17042
17070
16844
16615
16636
16633
16378
16156
16170
16129
15862
15675
15703
15619
15313
15127
15141
15009
14689
14535
14561
14406
14078
13944
13977
13802
13476
13379
13437
13287
13022
12985
13041
12834
12535
12500
12548
12357
12134
12187
12276
12097
11897
11950
11993
11778
11593
11662
11691
11476
11317
11392
11391
11172
11064
11170
11133
10870
10757
10857
10803
10580
10582
10818
10934
10961
11263
11783
12171
12520
13185
14028
14676
15249
16068
16950
17541
18017
18689
19343
19674
19914
20352
20725
20773
20772
20972
21100
20938
20791
20865
20846
20563
20350
20347
20218
19863
19640
19626
19448
19061
18838
18801
18579
18180
17981
17944
17703
17315
17142
17102
16837
16461
16332
16324
16103
15831
15838
15930
15773
15583
15680
15833
15736
15635
15817
16011
15959
15950
16209
16423
16382
16397
16632
16758
16645
16631
16817
16852
16667
16628
16781
16755
16532
16480
16582
16469
16180
16095
16166
16021
15736
15675
15723
15521
15213
15147
15150
14884
14555
14496
14480
14197
13894
13863
13840
13561
13300
13289
13240
12940
12688
12677
12593
12284
12088
12128
12054
11773
11646
11735
11662
11388
11293
11397
11330
11096
11049
11147
11035
10789
10767
10872
10752
10529
10546
10651
10501
10272
10311
10429
10281
10082
10167
10296
10161
10035
10211
10425
10440
10563
11024
11518
11841
12309
13069
13767
14256
14868
15692
16374
16834
17422
18162
18677
18950
19341
19830
20047
20035
20172
20403
20372
20180
20187
20268
20078
19775
19704
19693
19406
19053
18964
18904
18563
18185
18054
17919
17531
17162
17050
16901
16503
16167
16082
15923
15541
15276
15253
15129
14819
14679
14764
14716
14506
14502
14705
14740
14626
14731
15003
15077
15020
15179
15461
15526
15496
15705
15983
15980
15884
16034
16224
16126
15973
16073
16181
16008
15819
15879
15916
15701
15525
15589
15583
15320
15115
15123
15016
14684
14482
14498
14369
14034
13867
13908
13780
13467
13355
13425
13293
12999
12923
12991
12835
12555
12509
12573
12391
12112
12076
12104
11877
11601
11599
11648
11435
11199
11224
11257
11048
10874
10962
11008
10806
10672
10780
10802
10589
10484
10601
10580
10344
10264
10387
10333
10082
10032
10196
10209
10105
10270
10659
10905
11094
11599
12310
12859
13368
14164
15057
15689
16237
17018
17808
18281
18662
19244
19783
20004
20166
20525
20802
20767
20721
20880
20942
20730
20568
20603
20503
20163
19946
19939
19773
19390
19166
19138
18929
18528
18318
18274
18020
17618
17437
17385
17103
16707
16555
16508
16229
15887
15816
15833
15613
15370
15423
15541
15417
15298
15459
15635
15570
15540
15772
15964
15918
15945
16211
16390
16338
16394
16651
16747
16614
16637
16865
16913
16753
16757
16916
16864
16635
16591
16679
16549
16286
16241
16311
16144
15869
15823
15850
15616
15313
15275
15289
15051
14785
14769
14749
14467
14196
14183
14157
13905
13708
13742
13704
13432
13239
13263
13184
12896
12750
12826
12755
12476
12362
12450
12380
12147
12098
12199
12102
11882
11884
12003
11902
11700
11723
11834
11710
11503
11528
11606
11433
11222
11276
11369
11212
11031
11073
11096
10880
10712
10828
10954
10913
11015
11431
11850
12137
12622
13390
14087
14633
15365
16313
17098
17664
18353
19155
19708
20043
20513
21049
21304
21385
21636
21934
21951
21832
21910
22031
21883
21649
21640
21652
21389
21078
20998
20909
20568
20239
20154
20038
19686
19379
19293
19135
18764
18490
18424
18249
17884
17664
17656
17512
17195
17051
17100
16997
16752
16710
16834
16787
16638
16717
16928
16937
16855
17009
17254
17265
17208
17398
17647
17651
17608
17801
18005
17954
17887
18042
18155
18010
17890
17990
18025
17832
17702
17778
17759
17533
17410
17472
17383
17084
16934
16976
16851
16541
16389
16390
16213
15902
15793
15814
15633
15346
15288
15335
15145
14861
14818
14848
14629
14354
14332
14355
14134
13906
13945
13989
13779
13572
13593
13582
13362
13226
13326
13344
13140
13041
13164
13161
12944
12865
12980
12935
12709
12671
12823
12785
12573
12551
12674
12585
12373
12392
12519
12398
12161
12155
12239
12091
11904
12024
12264
12310
12394
12821
13354
13721
14167
14923
15702
16277
16921
17806
18605
19132
19696
20426
20988
21275
21624
22109
22372
22369
22477
22727
22766
22603
22596
22711
22592
22303
22209
22231
22015
21670
21548
21519
21244
20880
20761
20700
20380
20015
19911
19839
19514
19176
19085
18990
18655
18353
18306
18223
17913
17688
17723
17702
17483
17390
17521
17541
17385
17414
17664
17760
17677
17782
18071
18179
18133
18277
18545
18587
18488
18592
18784
18729
18573
18651
18798
18684
18493
18549
18652
18495
18297
18340
18375
18142
17907
17908
17878
17618
17410
17418
17337
17020
16793
16787
16664
16334
16148
16167
16027
15692
15533
15568
15436
15143
15043
15093
14941
14647
14557
14591
14403
14108
14049
14090
13892
13623
13614
13677
13492
13271
13310
13376
13192
13004
13064
13107
12901
12727
12799
12831
12636
12511
12604
12596
12370
12265
12368
12330
12095
12024
12158
12122
11888
11822
11914
11815
11587
11586
11747
11749
11709
11972
12426
12736
13041
13669
14441
15008
15544
16352
17198
17766
18268
18959
19589
19915
20211
20705
21108
21212
21316
21594
21733
21590
21502
21598
21547
21270
21121
21158
21025
20686
20500
20478
20263
19876
19679
19624
19355
18953
18768
18697
18398
17993
17821
17746
17436
17054
16935
16892
16611
16314
16297
16318
16101
15904
15992
16104
16002
15959
16170
16335
16282
16318
16578
16729
16658
16708
16965
17074
16983
17050
17295
17337
17169
17170
17331
17287
17080
17067
17176
17055
16804
16769
16824
16631
16343
16293
16310
16076
15798
15787
15812
15569
15300
15281
15250
14952
14663
14620
14543
14228
13972
13950
13854
13556
13388
13453
13391
13117
12993
13071
12980
12699
12606
12701
12607
12339
12267
12359
12258
12023
11995
12078
11934
11704
11728
11851
11738
11558
11626
11749
11613
11437
11525
11641
11496
11328
11389
11422
11221
11086
11225
11340
11271
11343
11709
12052
12262
12678
13372
13969
14403
15031
15875
16549
17030
17669
18429
18935
19239
19699
20232
20482
20553
20801
21106
21132
21030
21132
21253
21068
20796
20762
20742
20445
20123
20049
19958
19606
19276
19189
19060
18691
18375
18273
18067
17627
17303
17200
16964
16524
16256
16210
16014
15654
15499
15540
15421
15179
15164
15314
15280
15152
15280
15549
15602
15565
15773
16073
16126
16100
16319
16583
16585
16550
16768
16986
16937
16886
17066
17179
17013
16882
16981
16994
16761
16612
16681
16625
16347
16210
16291
16212
15918
15787
15835
15678
15333
15181
15195
15009
14681
14562
14564
14338
14001
13908
13924
13701
13405
13380
13437
13244
12999
13010
13050
12816
12576
12614
12659
12456
12280
12351
12376
12162
12020
12122
12146
11947
11853
11963
11932
11695
11617
11740
11693
11459
11418
11565
11516
11289
11253
11376
11318
11174
11312
11639
11818
11986
12475
13111
13568
14036
14820
15688
16319
16921
17757
18553
19036
19483
20129
20679
20911
21120
21501
21750
21717
21737
21946
21992
21773
21664
21744
21642
21315
21142
21142
20949
20584
20418
20404
20179
19816
19668
19639
19367
18965
18796
18719
18398
18008
17882
17826
17523
17192
17137
17121
16866
16631
16677
16726
16548
16446
16627
16760
16648
16618
16845
17002
16953
17033
17328
17468
17384
17452
17713
17791
17674
17732
17940
17931
17752
17771
17923
17843
17622
17621
17719
17566
17308
17290
17338
17120
16844
16837
16869
16638
16388
16394
16393
16124
15861
15833
15762
15453
15203
15185
15083
14756
14550
14577
14462
14117
13929
13971
13881
13614
13522
13608
13509
13253
13200
13293
13165
12892
12841
12915
12762
12514
12517
12615
12461
12233
12268
12374
12236
12067
12157
12261
12103
11947
12045
12112
11915
11766
11875
11927
11754
11691
11899
12076
12132
12409
12981
13489
13875
14500
15379
16119
16689
17441
18339
19005
19475
20099
20793
21202
21431
21827
22259
22391
22389
22591
22819
22754
22607
22689
22773
22569
22324
22309
22268
21953
21645
21571
21441
21067
20764
20698
20544
20165
19893
19833
19642
19252
19017
18985
18792
18414
18224
18232
18073
17769
17683
17765
17655
17435
17453
17598
17532
17403
17552
17794
17795
17750
17963
18213
18201
18160
18368
18580
18533
18485
18669
18821
18732
18671
18818
18885
18719
18634
18755
18752
18535
18442
18536
18472
18207
18098
18166
18044
17741
17622
17661
17500
17195
17102
17125
16908
16575
16484
16484
16230
15898
15833
15851
15622
15347
15326
15325
15079
14852
14884
14891
14644
14427
14450
14421
14170
14015
14096
14074
13825
13691
13771
13723
13481
13403
13526
13482
13253
13204
13320
13242
13009
12973
13070
12955
12722
12719
12829
12706
12492
12515
12610
12460
12258
12314
12415
12281
12164
12360
12636
12751
12978
13548
14168
14621
15200
16068
16895
17516
18226
19116
19837
20294
20836
21530
22021
22278
22653
23140
23369
23357
23483
23715
23690
23479
23449
23512
23326
23021
22934
22908
22618
22246
22124
22063
21747
21391
21289
21201
20852
20499
20398
20290
19951
19649
19579
19462
19126
18879
18878
18796
18511
18359
18420
18352
18111
18054
18205
18206
18056
18111
18345
18393
18302
18438
18714
18766
18698
18849
19081
19057
18927
19023
19174
19070
18912
19009
19147
19025
18869
18950
19009
18798
18591
18620
18608
18352
18142
18150
18069
17760
17558
17577
17477
17176
17015
17043
16912
16599
16464
16499
16330
15995
15872
15911
15746
15456
15383
15430
15261
15001
14967
14995
14773
14490
14471
14509
14294
14048
14062
14094
13877
13667
13714
13748
13549
13404
13501
13530
13320
13188
13266
13226
12978
12872
12983
12960
12750
12697
12816
12750
12508
12453
12557
12458
12214
12176
12266
12152
11945
11980
12134
12088
12011
12237
12597
12777
12985
13546
14230
14722
15258
16088
16925
17504
18091
18890
19595
20007
20430
21023
21465
21625
21833
22183
22337
22241
22264
22446
22417
22159
22046
22073
21878
21504
21327
21292
21039
20656
20490
20427
20129
19732
19568
19471
19120
18702
18526
18393
18012
17618
17509
17435
17115
16821
16798
16759
16488
16297
16371
16403
16247
16223
16437
16538
16440
16500
16772
16890
16807
16890
17170
17277
17193
17273
17497
17519
17397
17475
17655
17592
17410
17441
17534
17365
17120
17129
17199
17010
16778
16796
16819
16579
16326
16303
16243
15924
15642
15625
15562
15250
15010
15010
14920
14607
14407
14415
14286
13960
13804
13864
13771
13505
13419
13491
13361
13084
13024
13100
12952
12675
12628
12709
12574
12358
12391
12496
12349
12147
12202
12292
12126
11943
12016
12092
11917
11758
11851
11913
11736
11624
11747
11778
11567
11445
11544
11549
11384
11405
11683
11861
11903
12190
12750
13218
13600
14242
15080
15738
16263
16985
17794
18332
18715
19284
19893
20204
20394
20783
21158
21210
21176
21364
21530
21396
21218
21254
21256
21005
20765
20723
20597
20226
19927
19860
19699
19316
19051
18995
18793
18383
18129
18056
17801
17384
17162
17094
16826
16408
16203
16160
15947
15658
15630
15733
15615
15423
15507
15693
15650
15579
15788
16048
16055
16046
16288
16513
16481
16473
16707
16896
16853
16864
17078
17190
17077
17062
17233
17243
17029
16952
17054
16972
16695
16601
16691
16605
16365
16314
16372
16189
15880
15791
15794
15561
15233
15143
15143
14906
14596
14532
14517
14240
13932
13899
13899
13661
13437
13466
13468
13204
12973
12996
12965
12687
12495
12552
12519
12282
12181
12279
12213
11954
11881
12005
11948
11712
11659
11768
11681
11444
11413
11519
11417
11196
11188
11287
11177
10994
11057
11210
11172
11161
11486
11916
12160
12475
13135
13873
14424
15027
15884
16698
17263
17871
18680
19357
19758
20219
20839
21265
21416
21649
22019
22171
22078
22103
22255
22195
21953
21878
21925
21746
21424
21312
21291
21018
20641
20502
20433
20107
19720
19580
19480
19126
18745
18620
18492
18107
17756
17690
17614
17297
17043
17040
16964
16671
16496
16568
16559
16381
16388
16634
16740
16662
16761
17037
17134
17083
17237
17540
17627
17569
17724
17985
17991
17871
17974
18139
18034
17850
17914
18024
17859
17640
17672
17721
17498
17251
17253
17255
17019
16806
16807
16731
16409
16158
16144
16046
15732
15536
15554
15435
15115
14943
14953
14791
14460
14332
14396
14278
14010
13946
14007
13840
13555
13492
13521
13311
13019
12978
13016
12808
12542
12525
12551
12324
12081
12103
12130
11893
11660
11671
11648
11381
11171
11216
11202
10967
10834
10926
10909
10703
10666
10871
10973
10954
11188
11682
12084
12423
13050
13893
14578
15155
15960
16884
17569
18118
18855
19630
20111
20459
20990
21489
21642
21689
21942
22173
22111
22020
22157
22238
22034
21842
21866
21811
21516
21293
21284
21160
20790
20519
20448
20235
19836
19608
19564
19339
18932
18709
18662
18429
18050
17882
17864
17647
17322
17235
17276
17114
16899
16950
17067
16930
16762
16875
17029
16932
16843
17030
17226
17176
17156
17391
17582
17517
17499
17699
17797
17659
17628
17814
17867
17707
17685
17846
17831
17616
17568
17684
17595
17329
17247
17296
17125
16824
16737
16739
16491
16146
16041
16012
15746
15429
15366
15350
15082
14783
14741
14721
14456
14214
14234
14214
13928
13677
13667
13611
13339
13146
13171
13106
12848
12732
12819
12739
12450
12334
12406
12282
11983
11905
12015
11939
11724
11717
11840
11743
11525
11536
11656
11545
11357
11418
11545
11412
11218
11285
11404
11301
11231
11468
11768
11895
12124
12684
13304
13788
14412
15308
16134
16744
17457
18360
19103
19617
20246
21018
21558
21838
22210
22674
22880
22863
22982
23195
23156
22947
22924
22997
22818
22518
22438
22423
22144
21794
21700
21651
21339
20989
20887
20785
20421
20051
19922
19768
19375
19040
18960
18825
18465
18203
18170
18040
17723
17566
17639
17586
17360
17326
17503
17527
17406
17497
17752
17809
17730
17873
18153
18218
18162
18319
18551
18529
18425
18568
18763
18687
18552
18658
18772
18616
18444
18508
18544
18317
18113
18146
18122
17856
17650
17660
17583
17306
17143
17172
17055
16743
16587
16621
16488
16172
16034
16060
15893
15566
15439
15458
15266
14941
14837
14859
14660
14367
14311
14328
14094
13809
13793
13832
13631
13422
13473
13531
13339
13159
13226
13263
13059
12909
12998
13019
12812
12695
12789
12767
12534
12425
12510
12446
12196
12120
12241
12196
11987
11970
12108
12035
11811
11794
11887
11743
11491
11483
11592
11510
11423
11666
12052
12263
12526
13157
13909
14482
15099
15983
16862
17500
18147
18987
19721
20175
20648
21274
21726
21884
22076
22398
22519
22388
22375
22513
22446
22170
22049
22070
21878
21514
21339
21294
21030
20650
20499
20443
20134
19717
19537
19422
19033
18571
18375
18232
17830
17414
17283
17190
16883
16625
16630
16609
16362
16187
16254
16261
16071
16006
16182
16273
16201
16299
16607
16767
16741
16868
17143
17212
17106
17202
17454
17484
17369
17470
17674
17626
17457
17514
17638
17481
17229
17218
17258
17039
16772
16756
16756
16490
16213
16173
16104
15798
15542
15538
15487
15210
14995
14975
14838
14490
14271
14259
14097
13728
13521
13513
13335
12988
12842
12876
12726
12437
12367
12448
12329
12106
12118
12231
12100
11872
11879
11949
11754
11502
11522
11600
11445
11299
11420
11531
11380
11241
11339
11381
11178
11048
11158
11184
10986
10901
11057
11126
11029
11140
11533
11856
12074
12545
13265
13864
14359
15094
15989
16666
17198
17920
18704
19207
19565
20092
20620
20833
20909
21174
21435
21384
21253
21338
21404
21193
20959
20937
20854
20499
20173
20078
19909
19507
19191
19097
18894
18481
18205
18132
17900
17470
17208
17140
16902
16493
16274
16228
16008
15667
15556
15590
15423
15173
15191
15339
15278
15171
15343
15600
15621
15612
15866
16148
16175
16196
16467
16718
16704
16704
16935
17092
16982
16924
17084
17140
16961
16875
16980
16929
16660
16549
16636
16545
16258
16142
16193
16044
15728
15618
15652
15464
15147
15057
15073
14850
14535
14465
14478
14258
13986
13952
13951
13701
13426
13402
13390
13150
12946
12999
13024
12802
12626
12689
12670
12417
12270
12355
12332
12109
12023
12121
12049
11781
11697
11811
11752
11525
11473
11560
11453
11227
11228
11366
11308
11187
11349
11650
11785
11949
12457
13092
13548
14049
14871
15762
16418
17054
17902
18682
19160
19618
20257
20784
21018
21267
21682
21942
21918
21949
22135
22133
21900
21808
21882
21756
21427
21254
21221
20982
20603
20428
20367
20081
19679
19494
19395
19054
18623
18427
18296
17915
17490
17338
17243
16916
16592
16533
16490
16221
16000
16058
16098
15912
15810
15969
16074
15981
16008
16257
16389
16337
16445
16757
16914
16880
16998
17266
17338
17245
17331
17534
17512
17351
17393
17532
17431
17218
17222
17289
17096
16836
16830
16872
16649
16381
16364
16364
16106
15836
15795
15726
15419
15161
15151
15095
14809
14595
14595
14487
14170
13987
14005
13877
13570
13439
13494
13370
13065
12944
12993
12866
12607
12553
12628
12495
12254
12245
12340
12210
12005
12043
12150
12011
11832
11919
12051
11926
11773
11851
11900
11681
11482
11538
11558
11349
11223
11347
11411
11311
11387
11736
12030
12209
12628
13330
13964
14508
15289
16265
17059
17692
18495
19398
20039
20493
21107
21764
22113
22288
22634
22997
23058
23008
23160
23314
23174
22960
22963
22957
22687
22404
22340
22220
21843
21523
21455
21334
20990
20720
20641
20431
20015
19744
19677
19462
19065
18836
18787
18569
18200
18037
18051
17899
17637
17601
17706
17614
17433
17492
17647
17589
17496
17667
17896
17877
17832
18062
18317
18312
18296
18516
18715
18683
18687
18899
19023
18908
18868
19033
19080
18903
18827
18928
18863
18582
18446
18505
18409
18137
18028
18063
17900
17583
17462
17476
17275
16947
16845
16857
16638
16326
16252
16254
16018
15740
15719
15727
15471
15199
15190
15192
14955
14743
14773
14763
14519
14329
14355
14295
14023
13873
13950
13917
13694
13624
13756
13734
13533
13498
13628
13578
13368
13338
13443
13345
13120
13105
13195
13065
12841
12842
12921
12772
12579
12657
12819
12783
12779
13106
13541
13831
14223
14936
15698
16289
16980
17937
18826
19454
20119
20947
21610
22008
22462
23036
23394
23495
23695
24012
24104
23979
23990
24105
23991
23732
23679
23739
23558
23239
23120
23078
22785
22393
22233
22142
21819
21463
21360
21286
20964
20628
20533
20418
20060
19743
19675
19562
19221
18957
18938
18862
18616
18516
18641
18661
18514
18535
18765
18860
18799
18918
19201
19293
19220
19344
19614
19675
19603
19734
19951
19929
19812
19919
20085
19994
19832
19905
20004
19834
19636
19690
19739
19533
19342
19391
19391
19130
18894
18866
18763
18446
18222
18205
18086
17791
17641
17676
17546
17222
17059
17064
16888
16555
16415
16420
16228
15911
15806
15819
15617
15319
15258
15286
15077
14804
14784
14834
14661
14460
14492
14536
14344
14158
14216
14246
14027
13844
13895
13897
13688
13571
13681
13681
13460
13362
13482
13485
13312
13289
13437
13418
13237
13219
13321
13215
12973
12938
13042
12966
12824
12960
13263
13424
13612
14148
14843
15372
15923
16788
17724
18420
19081
19946
20755
21260
21722
22347
22860
23078
23288
23648
23863
23818
23838
24021
24040
23836
23744
23798
23652
23297
23093
23037
22781
22365
22144
22066
21789
21387
21193
21105
20795
20386
20196
20078
19732
19338
19197
19112
18798
18476
18409
18364
18105
17890
17940
17979
17802
17692
17841
17963
17894
17930
18185
18328
18274
18359
18636
18765
18712
18816
19082
19149
19028
19078
19262
19239
19075
19108
19239
19136
18916
18904
18961
18770
18498
18459
18469
18227
17945
17904
17877
17607
17336
17301
17244
16944
16677
16639
16549
16245
16026
16028
15933
15624
15430
15441
15321
15014
14861
14899
14786
14505
14388
14412
14246
13949
13861
13900
13729
13453
13398
13444
13273
13029
13037
13123
12961
12744
12784
12864
12692
12499
12557
12628
12467
12326
12419
12466
12276
12145
12238
12258
12083
12034
12224
12336
12304
12479
12924
13300
13579
14095
14845
15483
16014
16753
17634
18315
18862
19590
20377
20880
21210
21683
22164
22353
22423
22680
22929
22880
22754
22822
22860
22625
22359
22290
22185
21859
21586
21535
21416
21072
20791
20696
20480
20062
19774
19678
19440
19022
18762
18676
18431
18048
17856
17815
17601
17277
17166
17194
17050
16841
16883
17042
17006
16930
17115
17375
17407
17405
17650
17918
17938
17945
18186
18403
18370
18354
18545
18660
18536
18466
18589
18605
18406
18316
18422
18390
18153
18049
18119
18021
17738
17612
17634
17461
17133
16999
17002
16801
16477
16361
16345
16105
15780
15678
15629
15330
14975
14865
14808
14529
14242
14201
14160
13889
13650
13649
13615
13359
13162
13197
13164
12902
12724
12754
12668
12379
12225
12271
12194
11976
11942
12081
12048
11859
11852
11977
11893
11678
11665
11758
11637
11421
11431
11533
11429
11308
11488
11789
11929
12122
12640
13250
13703
14239
15079
15950
16617
17320
18226
19038
19589
20160
20859
21374
21615
21914
22338
22550
22517
22585
22774
22739
22484
22365
22374
22186
21858
21726
21710
21467
21100
20946
20878
20576
20196
20053
19961
19608
19198
19030
18896
18535
18172
18047
17918
17570
17260
17185
17081
16782
16577
16613
16590
16392
16334
16501
16558
16441
16495
16761
16886
16853
16995
17289
17398
17363
17517
17791
17846
17764
17868
18061
18047
17951
18061
18218
18113
17923
17958
18026
17848
17642
17662
17668
17423
17204
17232
17205
16924
16691
16682
16594
16272
16030
16002
15875
15555
15371
15393
15292
15024
14906
14940
14800
14507
14396
14425
14266
13986
13908
13944
13776
13513
13480
13538
13365
13119
13109
13151
12952
12732
12763
12813
12621
12423
12454
12477
12296
12189
12352
12515
12533
12716
13203
13690
14066
14634
15453
16178
16753
17502
18429
19170
19694
20330
21057
21530
21794
22192
22653
22841
22846
23004
23202
23130
22948
22974
23041
22849
22590
22556
22539
22264
21961
21879
21773
21413
21064
20944
20787
20407
20087
19982
19793
19395
19090
18972
18736
18326
18078
18036
17863
17540
17411
17470
17385
17187
17198
17369
17378
17302
17460
17735
17789
17744
17919
18167
18182
18134
18325
18559
18541
18483
18651
18814
18723
18618
18726
18801
18634
18487
18548
18540
18309
18162
18226
18190
17967
17872
17953
17872
17612
17519
17596
17509
17255
17154
17183
17014
16703
16589
16594
16385
16068
15972
