12958
12850
12746
12654
12564
12467
12377
12310
12261
12224
12207
12213
12223
12228
12245
12283
12327
12365
12407
12453
12493
12526
12560
12591
12611
12619
12625
12625
12605
12568
12531
12496
12453
12404
12362
12325
12280
12226
12184
12146
12094
12044
12005
11966
11917
11864
11820
11778
11732
11688
11650
11611
11559
11503
11458
11416
11370
11323
11276
11222
11160
11106
11065
11025
10979
10930
10881
10830
10780
10743
10719
10692
10660
10626
10586
10538
10493
10461
10436
10404
10375
10364
10355
10332
10304
10287
10270
10238
10200
10172
10145
10115
10101
10118
10158
10215
10300
10435
10619
10850
11132
11457
11817
12202
12594
12967
13303
13599
13866
14100
14290
14444
14581
14700
14788
14851
14901
14940
14960
14970
14977
14973
14947
14908
14866
14818
14763
14715
14679
14642
14592
14538
14491
14445
14395
14344
14295
14236
14164
14082
13995
13911
13833
13764
13701
13634
13566
13514
13482
13455
13428
13411
13403
13391
13377
13377
13392
13401
13402
13414
13428
13429
13420
13418
13419
13410
13392
13372
13340
13292
13240
13201
13165
13114
13047
12972
12882
12780
12688
12616
12545
12464
12381
12304
12228
12156
12099
12056
12016
11974
11935
11899
11859
11815
11778
11746
11703
11651
11607
11572
11537
11510
11500
11494
11479
11455
11434
11417
11389
11351
11317
11282
11242
11207
11176
11141
11100
11055
11006
10947
10882
10826
10787
10751
10706
10663
10623
10579
10532
10497
10477
10463
10460
10492
10570
10687
10848
11068
11343
11652
11994
12375
12773
13144
13477
13784
14059
14293
14500
14683
14828
14930
15001
15055
15091
15098
15087
15071
15050
15019
14988
14960
14923
14878
14837
14802
14757
14702
14650
14604
14549
14481
14416
14357
14290
14209
14125
14036
13933
13822
13715
13607
13493
13384
13299
13242
13201
13172
13159
13155
13145
13133
13133
13144
13150
13155
13163
13162
13148
13131
13123
13111
13090
13070
13052
13020
12970
12925
12893
12861
12822
12780
12738
12685
12620
12553
12484
12406
12326
12251
12177
12098
12020
11958
11905
11839
11765
11701
11640
11575
11513
11465
11418
11356
11290
11238
11195
11154
11115
11077
11038
10998
10963
10937
10910
10879
10850
10825
10793
10748
10704
10666
10625
10582
10549
10525
10501
10474
10449
10428
10402
10372
10345
10318
10278
10230
10192
10161
10126
10098
10093
10108
10134
10178
10263
10394
10560
10770
11034
11334
11657
12011
12395
12778
13129
13443
13724
13957
14141
14294
14430
14544
14631
14698
14743
14753
14735
14710
14681
14637
14585
14538
14493
14440
14390
14351
14313
14265
14213
14163
14100
14015
13925
13841
13757
13660
13557
13464
13372
13272
13176
13092
13015
12942
12881
12841
12820
12811
12820
12849
12883
12913
12949
12991
13026
13043
13051
13053
13043
13024
13004
12984
12952
12912
12883
12861
12826
12775
12720
12656
12576
12488
12410
12339
12265
12191
12125
12056
11982
11909
11847
11789
11723
11655
11600
11548
11491
11439
11396
11349
11293
11247
11218
11192
11163
11134
11105
11067
11022
10990
10975
10959
10938
10924
10915
10903
10896
10896
10899
10897
10893
10896
10902
10892
10868
10842
10810
10767
10724
10691
10665
10637
10613
10596
10584
10583
10613
10681
10772
10886
11040
11243
11487
11773
12101
12457
12812
13155
13487
13800
14071
14289
14465
14612
14732
14828
14903
14955
14980
14983
14975
14953
14916
14876
14839
14797
14742
14678
14623
14578
14526
14465
14402
14333
14255
14184
14127
14067
13992
13913
13841
13771
13699
13635
13579
13522
13461
13412
13386
13379
13381
13390
13408
13428
13447
13473
13512
13549
13578
13604
13622
13627
13627
13631
13630
13607
13565
13519
13469
13413
13364
13323
13274
13206
13133
13072
13015
12947
12873
12808
12741
12665
12596
12542
12484
12413
12344
12283
12218
12147
12085
12038
11995
11948
11905
11870
11837
11802
11781
11774
11763
11738
11707
11675
11644
11618
11598
11578
11553
11527
11508
11489
11460
11425
11393
11367
11342
11326
11323
11321
11303
11272
11241
11206
11164
11131
11115
11102
11096
11115
11166
11248
11369
11539
11757
12015
12312
12662
13057
13461
13855
14235
14582
14876
15130
15359
15558
15714
15831
15921
15981
16013
16034
16054
16065
16052
16021
15982
15929
15862
15801
15760
15728
15693
15661
15635
15601
15552
15501
15455
15402
15335
15264
15192
15106
15011
14923
14842
14757
14674
14607
14552
14492
14434
14388
14349
14312
14291
14291
14303
14310
14312
14326
14351
14367
14377
14390
14393
14373
14346
14327
14309
14279
14247
14220
14186
14135
14088
14053
14014
13956
13889
13820
13741
13654
13579
13516
13457
13401
13353
13306
13252
13196
13147
13105
13059
13005
12952
12894
12829
12763
12710
12670
12628
12583
12541
12497
12449
12414
12400
12392
12370
12336
12300
12263
12224
12197
12179
12150
12103
12056
12024
12000
11974
11955
11943
11926
11899
11874
11851
11819
11783
11759
11748
11744
11758
11812
11902
12022
12185
12402
12668
12971
13303
13659
14032
14400
14745
15065
15350
15585
15782
15957
16104
16213
16296
16360
16398
16415
16420
16416
16401
16370
16329
16288
16251
16216
16184
16153
16113
16068
16029
15996
15961
15921
15881
15827
15745
15645
15548
15455
15357
15251
15154
15066
14983
14915
14863
14814
14756
14701
14662
14635
14609
14589
14569
14539
14498
14467
14453
14441
14420
14396
14371
14334
14287
14243
14203
14158
14111
14072
14035
13993
13950
13914
13883
13844
13796
13758
13727
13687
13642
13603
13568
13529
13487
13452
13423
13387
13345
13300
13244
13177
13109
13052
13000
12946
12899
12859
12812
12752
12694
12646
12597
12540
12482
12422
12356
12292
12245
12210
12169
12121
12079
12047
12013
11981
11958
11937
11909
11876
11844
11810
11764
11714
11669
11621
11564
11507
11459
11418
11379
11348
11336
11343
11369
11432
11548
11712
11913
12155
12443
12766
13116
13503
13916
14320
14692
15032
15334
15579
15761
15905
16023
16106
16156
16188
16204
16196
16172
16140
16094
16025
15947
15875
15803
15724
15649
15581
15513
15430
15339
15256
15180
15100
15016
14934
14844
14742
14642
14554
14467
14380
14301
14229
14164
14107
14065
14043
14030
14016
14010
14007
13994
13977
13977
13993
14006
14015
14032
14056
14072
14080
14091
14099
14091
14071
14048
14015
13967
13910
13858
13806
13748
13690
13642
13598
13551
13513
13487
13465
13431
13390
13350
13308
13261
13224
13201
13180
13153
13124
13100
13077
13051
13035
13025
13004
12968
12933
12900
12856
12800
12744
12695
12643
12596
12567
12544
12516
12491
12479
12466
12440
12413
12398
12385
12360
12329
12299
12258
12200
12141
12096
12056
12015
11982
11966
11965
11980
12018
12092
12203
12355
12555
12803
13087
13399
13739
14096
14454
14800
15127
15422
15667
15870
16053
16212
16333
16420
16481
16516
16523
16514
16502
16484
16447
16398
16350
16306
16259
16213
16176
16140
16089
16025
15962
15895
15816
15732
15648
15551
15439
15325
15217
15110
15006
14918
14848
14780
14713
14661
14627
14603
14587
14588
14600
14612
14632
14668
14706
14727
14740
14759
14783
14799
14810
14823
14826
14805
14775
14751
14725
14683
14626
14563
14497
14427
14362
14305
14233
14143
14055
13984
13920
13858
13804
13751
13685
13609
13540
13480
13419
13358
13311
13269
13219
13166
13125
13093
13053
13009
12973
12935
12889
12846
12813
12784
12745
12701
12668
12644
12622
12604
12597
12591
12574
12549
12521
12483
12434
12389
12357
12328
12295
12271
12258
12240
12220
12214
12223
12241
12273
12335
12432
12568
12750
12989
13279
13597
13937
14314
14711
15090
15439
15758
16032
16257
16445
16610
16751
16858
16935
16995
17033
17049
17054
17053
17043
17013
16975
16938
16892
16832
16774
16726
16673
16611
16550
16489
16415
16324
16233
16147
16054
15955
15862
15774
15679
15584
15504
15436
15368
15309
15267
15232
15194
15164
15157
15168
15179
15194
15215
15235
15247
15259
15278
15294
15295
15288
15284
15274
15252
15224
15196
15169
15142
15117
15088
15046
15000
14957
14911
14852
14784
14715
14650
14579
14508
14457
14422
14379
14326
14278
14234
14178
14119
14076
14041
13997
13946
13904
13860
13801
13740
13692
13655
13621
13595
13575
13544
13499
13459
13435
13415
13391
13373
13358
13337
13313
13299
13291
13281
13268
13258
13248
13230
13208
13189
13172
13149
13129
13130
13151
13183
13242
13357
13529
13745
14018
14350
14719
15092
15455
15810
16145
16447
16729
16990
17214
17398
17552
17685
17787
17852
17893
17917
17921
17907
17890
17873
17850
17821
17796
17775
17752
17727
17711
17703
17688
17659
17625
17584
17530
17471
17411
17344
17256
17156
17067
16988
16905
16820
16747
16682
16611
16546
16502
16467
16432
16401
16382
16374
16370
16371
16372
16365
16346
16324
16310
16299
16280
16260
16232
16183
16120
16064
16021
15969
15902
15834
15766
15694
15624
15565
15511
15442
15355
15266
15173
15075
14980
14899
14832
14769
14708
14655
14600
14532
14465
14414
14370
14318
14264
14214
14155
14079
14014
13972
13938
13897
13858
13830
13804
13773
13744
13723
13696
13657
13617
13576
13528
13479
13438
13402
13353
13290
13232
13183
13132
13077
13024
12980
12942
12917
12914
12925
12945
12993
13091
13245
13445
13696
13999
14339
14698
15074
15463
15841
16189
16498
16765
16986
17162
17307
17425
17508
17558
17595
17627
17641
17635
17625
17613
17580
17522
17460
17399
17327
17249
17183
17129
17068
16998
16930
16861
16787
16717
16657
16594
16518
16437
16366
16306
16253
16211
16183
16160
16140
16123
16114
16116
16126
16148
16174
16197
16219
16249
16293
16336
16369
16400
16423
16423
16403
16382
16360
16327
16288
16256
16225
16179
16122
16070
16023
15966
15908
15856
15808
15754
15694
15632
15564
15490
15423
15372
15330
15284
15239
15206
15178
15152
15140
15137
15122
15090
15056
15024
14984
14936
14901
14884
14861
14820
14780
14749
14722
14696
14672
14644
14603
14555
14520
14492
14458
14426
14407
14396
14376
14349
14332
14323
14311
14303
14308
14323
14348
14397
14490
14632
14821
15066
15366
15696
16038
16396
16766
17117
17430
17711
17964
18172
18341
18476
18572
18631
18663
18688
18703
18697
18676
18657
18634
18591
18531
18462
18382
18288
18193
18111
18038
17960
17887
17826
17763
17687
17606
17537
17475
17404
17329
17260
17187
17106
17040
17002
16972
16938
16906
16879
16858
16844
16841
16845
16838
16816
16801
16804
16808
16804
16798
16787
16761
16726
16696
16668
16621
16552
16481
16415
16343
16272
16206
16136
16056
15974
15903
15839
15772
15703
15641
15579
15511
15448
15394
15338
15271
15202
15141
15079
15013
14954
14910
14869
14829
14795
14767
14737
14703
14679
14671
14663
14649
14633
14615
14587
14558
14544
14540
14526
14498
14467
14440
14413
14383
14357
14329
14290
14247
14210
14176
14144
14119
14109
14106
14116
14160
14254
14394
14574
14796
15061
15362
15692
16044
16399
16739
17051
17336
17592
17806
17975
18113
18227
18312
18374
18420
18443
18436
18410
18380
18346
18307
18273
18251
18236
18216
18190
18168
18147
18118
18080
18031
17961
17867
17768
17684
17601
17506
17407
17318
17233
17144
17058
16985
16925
16875
16840
16817
16795
16771
16762
16773
16783
16783
16777
16768
16749
16731
16732
16737
16727
16704
16684
16660
16614
16551
16490
16431
16368
16306
16252
16199
16146
16097
16048
15987
15914
15851
15805
15751
15676
15595
15521
15447
15370
15298
15237
15171
15094
15026
14974
14923
14875
14841
14816
14785
14750
14718
14687
14650
14609
14575
14549
14519
14484
14453
14422
14387
14359
14341
14320
14285
14244
14202
14158
14113
14075
14050
14018
13964
13912
13879
13857
13838
13835
13858
13900
13957
14034
14142
14286
14474
14717
15011
15332
15672
16027
16376
16692
16972
17224
17443
17613
17734
17826
17895
17935
17948
17946
17929
17896
17859
17829
17796
17742
17677
17616
17549
17471
17391
17318
17243
17163
17086
17010
16920
16816
16707
16598
16487
16375
16273
16182
16095
16015
15953
15911
15877
15851
15843
15850
15859
15877
15912
15958
16003
16053
16116
16177
16220
16248
16274
16296
16301
16295
16287
16270
16239
16201
16161
16109
16051
16002
15960
15914
15862
15815
15777
15732
15678
15630
15586
15533
15469
15412
15367
15323
15283
15254
15229
15198
15160
15123
15081
15026
14967
14912
14859
14798
14729
14663
14606
14560
14529
14517
14508
14487
14460
14443
14435
14418
14396
14374
14340
14287
14235
14189
14133
14066
14005
13953
13904
13858
13831
13829
13848
13895
13978
14098
14250
14442
14693
14996
15325
15672
16034
16396
16742
17062
17355
17610
17816
17972
18091
18171
18214
18241
18266
18286
18292
18290
18281
18252
18204
18161
18132
18102
18062
18019
17973
17916
17853
17796
17748
17706
17663
17610
17542
17457
17366
17284
17210
17133
17056
16994
16942
16892
16845
16816
16803
16788
16774
16765
16752
16738
16733
16745
16764
16778
16786
16791
16787
16766
16739
16720
16703
16677
16656
16642
16613
16561
16502
16444
16377
16291
16194
16096
15992
15884
15790
15717
15647
15575
15516
15467
15410
15346
15301
15277
15245
15193
15138
15085
15031
14978
14937
14904
14869
14833
14801
14768
14735
14715
14716
14720
14710
14699
14694
14685
14667
14650
14635
14611
14576
14535
14489
14437
14384
14337
14294
14241
14175
14116
14069
14028
14005
14010
14034
14075
14146
14261
14422
14620
14862
15151
15473
15808
16147
16484
16807
17104
17375
17616
17823
17989
18126
18241
18320
18364
18396
18424
18427
18399
18364
18333
18297
18248
18192
18137
18075
18009
17954
17916
17881
17841
17799
17749
17684
17609
17536
17462
17365
17248
17139
17035
16922
16805
16700
16603
16509
16430
16371
16327
16291
16273
16274
16281
16277
16271
16275
16278
16268
16261
16259
16242
16209
16174
16143
16105
16056
16001
15942
15873
15799
15737
15684
15628
15569
15521
15480
15433
15385
15345
15303
15244
15175
15114
15064
15009
14950
14899
14845
14778
14706
14646
14595
14540
14484
14436
14393
14343
14301
14275
14250
14216
14184
14157
14124
14089
14066
14055
14043
14023
14003
13982
13953
13926
13911
13904
13878
13830
13782
13730
13668
13612
13574
13551
13528
13502
13500
13533
13592
13682
13810
13976
14178
14426
14733
15081
15445
15823
16205
16565
16886
17171
17424
17634
17796
17921
18016
18073
18094
18099
18098
18081
18054
18023
17986
17939
17888
17844
17808
17764
17716
17678
17641
17588
17523
17461
17395
17313
17230
17157
17085
17006
16926
16854
16789
16727
16674
16631
16589
16543
16506
16484
16468
16449
16435
16432
16434
16436
16441
16441
16424
16396
16372
16355
16332
16302
16270
16229
16169
16097
16033
15976
15912
15848
15791
15729
15656
15582
15524
15476
15425
15374
15331
15292
15249
15203
15163
15126
15087
15055
15033
15002
14955
14909
14875
14838
14791
14753
14730
14706
14672
14641
14616
14587
14553
14528
14512
14493
14469
14448
14424
14393
14359
14323
14278
14224
14171
14129
14093
14047
13992
13938
13878
13808
13740
13692
13671
13676
13718
13803
13922
14070
14262
14506
14790
15102
15437
15781
16111
16423
16723
17004
17247
17446
17609
17734
17811
17848
17868
17874
17855
17820
17786
17751
17702
17645
17597
17555
17506
17454
17407
17357
17301
17254
17220
17184
17132
17072
17018
16966
16910
16858
16816
16771
16719
16668
16624
16579
16532
16493
16467
16449
16436
16436
16444
16449
16455
16471
16490
16494
16483
16472
16456
16421
16372
16324
16274
16213
16146
16086
16032
15974
15916
15865
15812
15748
15679
15622
15576
15530
15483
15440
15392
15336
15286
15251
15213
15158
15095
15033
14970
14904
14843
14787
14730
14670
14614
14560
14497
14434
14384
14340
14286
14227
14178
14137
14095
14053
14013
13976
13939
13904
13881
13864
13846
13834
13830
13820
13797
13767
13735
13702
13662
13627
13603
13575
13539
13511
13501
13499
13514
13567
13657
13773
13926
14134
14393
14687
15009
15358
15719
16077
16424
16759
17074
17348
17574
17759
17905
18005
18066
18104
18116
18099
18062
18014
17955
17882
17804
17736
17666
17578
17485
17402
17327
17251
17180
17119
17062
17008
16962
16919
16866
16805
16741
16670
16582
16486
16403
16337
16269
16197
16136
16089
16040
15989
15951
15920
15882
15847
15830
15824
15810
15791
15773
15752
15723
15698
15684
15670
15639
15597
15558
15515
15462
15410
15364
15307
15232
15155
15090
15028
14965
14909
14861
14809
14751
14698
14652
14607
14565
14534
14507
14467
14418
14376
14342
14303
14258
14212
14163
14104
14043
13994
13952
13902
13847
13796
13744
13685
13629
13586
13553
13520
13493
13474
13450
13414
13381
13363
13343
13310
13274
13236
13189
13135
13088
13051
13011
12963
12916
12875
12835
12799
12776
12761
12743
12731
12747
12795
12866
12972
13135
13344
13585
13869
14198
14559
14932
15304
15672
16021
16334
16616
16875
17091
17247
17357
17443
17501
17524
17528
17522
17495
17450
17402
17356
17304
17245
17189
17134
17068
16992
16927
16871
16802
16722
16642
16558
16460
16359
16266
16174
16067
15950
15842
15738
15630
15530
15450
15381
15314
15256
15218
15196
15180
15177
15188
15201
15206
15210
15220
15222
15204
15185
15168
15140
15105
15074
15048
15013
14972
14935
14899
14855
14801
14754
14719
14686
14651
14616
14578
14529
14476
14434
14393
14343
14295
14259
14227
14187
14136
14084
14030
13974
13929
13900
13871
13836
13804
13785
13773
13755
13732
13713
13688
13648
13613
13594
13580
13563
13546
13532
13513
13485
13463
13450
13440
13430
13420
13404
13377
13344
13317
13292
13260
13224
13189
13152
13104
13049
13002
12967
12931
12895
12864
12834
12797
12768
12763
12787
12838
12929
13063
13226
13415
13637
13896
14187
14501
14839
15195
15549
15887
16212
16519
16782
16994
17165
17296
17385
17443
17487
17514
17508
17472
17424
17364
17292
17220
17152
17082
17000
16915
16838
16764
16682
16601
16535
16464
16368
16255
16136
16013
15892
15783
15688
15599
15513
15441
15392
15355
15321
15300
15290
15279
15261
15249
15243
15238
15239
15254
15277
15291
15296
15305
15315
15316
15312
15312
15306
15284
15249
15211
15167
15115
15059
15000
14933
14858
14783
14723
14669
14614
14567
14532
14499
14459
14423
14396
14366
14321
14266
14210
14148
14083
14026
13981
13931
13874
13823
13771
13708
13643
13595
13560
13518
13470
13428
13386
13342
13306
13279
13251
13212
13167
13131
13104
13082
13067
13056
13039
13010
12985
12969
12953
12929
12905
12884
12852
12815
12787
12769
12750
12731
12728
12749
12779
12815
12881
12985
13122
13294
13511
13764
14034
14325
14653
15010
15369
15712
16040
16348
16621
16862
17076
17252
17376
17457
17508
17525
17510
17478
17441
17384
17302
17220
17153
17092
17031
16978
16936
16895
16846
16795
16750
16703
16650
16597
16538
16460
16369
16285
16204
16116
16028
15953
15891
15831
15775
15737
15708
15677
15651
15634
15621
15611
15608
15617
15633
15643
15648
15655
15659
15653
15645
15641
15630
15600
15565
15533
15493
15441
15391
15349
15299
15233
15164
15095
15022
14950
14888
14834
14777
14718
14668
14625
14577
14527
14490
14466
14436
14395
14357
14323
14285
14250
14225
14191
14135
14072
14018
13966
13913
13866
13828
13784
13732
13693
13676
13663
13641
13624
13614
13599
13576
13554
13538
13515
13482
13450
13426
13403
13376
13351
13327
13292
13250
13220
13202
13180
13162
13155
13148
13139
13140
13167
13223
13299
13400
13546
13733
13948
14202
14506
14847
15206
15577
15954
16320
16665
16995
17306
17571
17776
17938
18071
18169
18231
18266
18277
18263
18231
18200
18171
18131
18082
18036
17989
17936
17882
17842
17810
17765
17706
17651
17594
17521
17442
17366
17283
17187
17092
17016
16953
16890
16830
16777
16723
16665
16618
16591
16574
16555
16542
16540
16538
16533
16533
16538
16534
16519
16510
16511
16512
16511
16508
16500
16482
16458
16434
16408
16363
16301
16246
16201
16151
16100
16051
15997
15931
15862
15800
15746
15690
15632
15572
15504
15433
15378
15344
15309
15254
15186
15115
15036
14953
14881
14816
14743
14659
14580
14511
14442
14375
14312
14251
14186
14122
14074
14042
14000
13945
13893
13843
13795
13753
13721
13694
13663
13632
13612
13594
13565
13534
13510
13493
13476
13462
13453
13434
13401
13371
13352
13334
13311
13301
13322
13368
13441
13561
13731
13936
14168
14437
14749
15092
15453
15826
16198
16546
16864
17157
17417
17630
17797
17930
18027
18081
18104
18108
18092
18045
17976
17899
17819
17730
17641
17557
17471
17380
17292
17214
17137
17054
16972
16895
16812
16720
16634
16559
16483
16401
16322
16249
16178
16116
16073
16046
16019
15992
15976
15973
15967
15957
15955
15958
15963
15970
15979
15985
15984
15974
15958
15930
15886
15841
15811
15781
15735
15677
15620
15565
15508
15457
15415
15372
15324
15282
15247
15207
15156
15105
15059
15012
14969
14934
14904
14863
14815
14778
14753
14722
14679
14637
14590
14534
14487
14455
14426
14389
14342
14297
14256
14214
14173
14139
14105
14063
14024
13998
13976
13948
13922
13905
13883
13852
13831
13828
13827
13817
13804
13800
13798
13790
13779
13767
13749
13729
13721
13730
13741
13752
13781
13846
13945
14083
14267
14486
14727
15001
15313
15645
15974
16293
16607
16906
17179
17426
17648
17837
17974
18067
18134
18170
18169
18142
18099
18029
17935
17836
17743
17644
17536
17431
17333
17236
17141
17058
16982
16891
16782
16675
16575
16471
16372
16286
16211
16139
16072
16019
15976
15931
15886
15858
15841
15823
15812
15818
15836
15848
15857
15871
15884
15891
15906
15931
15949
15947
15941
15945
15946
15932
15909
15883
15843
15795
15754
15721
15683
15633
15587
15551
15515
15479
15451
15428
15402
15379
15365
15354
15333
15301
15272
15248
15217
15183
15151
15111
15056
14998
14951
14908
14859
14805
14751
14693
14632
14581
14542
14493
14430
14373
14330
14282
14228
14176
14128
14074
14009
13948
13895
13839
13776
13716
13653
13582
13512
13452
13400
13351
13311
13291
13288
13286
13290
13312
13353
13408
13491
13615
13778
13970
14192
14453
14749
15071
15417
15780
16137
16474
16804
17128
17415
17648
17839
17994
18104
18175
18225
18263
18275
18257
18220
18170
18106
18033
17964
17897
17816
17720
17625
17538
17447
17358
17273
17184
17084
16985
16890
16793
16688
16585
16498
16426
16361
16310
16277
16248
16219
16204
16210
16223
16230
16239
16256
16269
16279
16296
16316
16325
16325
16328
16335
16333
16321
16306
16284
16249
16209
16174
16144
16106
16060
16023
15985
15932
15870
15809
15743
15665
15585
15518
15459
15395
15324
15255
15186
15114
15052
15002
14949
14888
14836
14799
14759
14706
14652
14601
14542
14478
14426
14388
14350
14303
14260
14222
14182
14148
14126
14106
14072
14033
14007
13991
13965
13932
13903
13871
13833
13795
13764
13729
13682
13633
13593
13552
13509
13473
13455
13444
13431
13435
13475
13546
13640
13768
13937
14135
14359
14622
14921
15236
15553
15871
16187
16485
16757
16997
17204
17371
17495
17592
17668
17718
17740
17739
17716
17667
17602
17539
17478
17402
17312
17229
17152
17069
16987
16911
16830
16744
16662
16589
16510
16418
16329
16250
16170
16087
16015
15956
15897
15831
15771
15724
15683
15646
15624
15610
15595
15579
15579
15592
15604
15613
15619
15614
15602
15595
15596
15590
15569
15539
15510
15475
15430
15383
15342
15294
15227
15152
15089
15036
14982
14930
14882
14830
14771
14715
14664
14608
14545
14486
14437
14386
14335
14292
14253
14210
14165
14132
14110
14083
14054
14033
14019
14001
13975
13951
13930
13901
13865
13832
13797
13757
13723
13704
13685
13655
13620
13590
13561
13525
13487
13453
13415
13366
13323
13291
13257
13215
13173
13138
13102
13067
13045
13037
13034
13042
13083
13166
13283
13444
13654
13900
14167
14454
14765
15083
15383
15664
15934
16189
16417
16618
16789
16915
16992
17035
17060
17062
17036
16998
16959
16910
16851
16791
16730
16655
16567
16485
16415
16346
16271
16197
16122
16042
15959
15878
15796
15705
15609
15531
15474
15420
15373
15343
15323
15298
15275
15271
15285
15299
15313
15331
15353
15377
15411
15456
15493
15509
15514
15526
15543
15553
15559
15565
15566
15559
15550
15541
15520
15479
15432
15393
15352
15303
15256
15211
15157
15099
15051
15010
14964
14917
14878
14838
14784
14730
14695
14671
14646
14623
14608
14596
14579
14561
14549
14529
14491
14448
14413
14381
14345
14308
14276
14242
14203
14168
14138
14108
14070
14031
14002
13979
13959
13944
13931
13912
13888
13867
13848
13821
13793
13785
13797
13816
13844
13894
13965
14062
14196
14380
14610
14869
15151
15461
15790
16121
16455
16786
17092
17366
17615
17842
18035
18175
18267
18328
18358
18356
18339
18310
18262
18197
18135
18081
18021
17951
17885
17822
17754
17683
17616
17550
17474
17394
17314
17231
17138
17038
16946
16862
16780
16713
16668
16629
16583
16535
16505
16491
16476
16457
16442
16426
16407
16397
16399
16400
16394
16388
16382
16361
16323
16283
16243
16191
16129
16072
16023
15971
15919
15877
15840
15795
15746
15707
15672
15628
15580
15537
15505
15475
15449
15437
15426
15404
15382
15365
15340
15297
15251
15214
15181
15152
15137
15135
15130
15115
15104
15099
15090
15077
15072
15072
15067
15059
15061
15073
15076
15060
15044
15039
15028
15010
14994
14975
14942
14901
14861
14823
14781
14735
14695
14659
14616
14578
14558
14547
14544
14566
14627
14727
14858
15025
15232
15472
15737
16037
16364
16693
17007
17313
17612
17891
18149
18391
18608
18784
18921
19034
19128
19190
19217
19225
19218
19193
19163
19137
19106
19058
19004
18961
18927
18889
18847
18809
18769
18718
18661
18605
18542
18469
18400
18345
18288
18221
18155
18105
18064
18021
17982
17951
17926
17905
17895
17894
17892
17888
17888
17890
17886
17876
17870
17867
17852
17825
17805
17792
17773
17749
17728
17699
17654
17598
17545
17496
17436
17363
17289
17215
17140
17070
17009
16947
16877
16807
16746
16688
16624
16567
16519
16466
16402
16341
16286
16226
16157
16090
16029
15967
15905
15850
15798
15744
15691
15652
15628
15600
15566
15537
15504
15458
15405
15357
15311
15258
15204
15162
15127
15083
15030
14976
14919
14858
14800
14751
14699
14643
14596
14564
14532
14495
14474
14482
14514
14572
14672
14819
15005
15227
15493
15796
16117
16449
16797
17147
17475
17774
18048
18288
18488
18658
18802
18918
18996
19041
19073
19095
19091
19063
19026
18978
18914
18841
18769
18690
18593
18494
18409
18332
18259
18199
18147
18085
18007
17925
17842
17746
17637
17530
17435
17343
17256
17184
17125
17069
17014
16969
16931
16896
16878
16882
16890
16891
16891
16901
16915
16921
16922
16922
16914
16896
16879
16863
16832
16779
16717
16659
16599
16525
16449
16389
16334
16277
16229
16194
16153
16100
16050
16002
15947
15888
15833
15783
15726
15665
15617
15581
15542
15494
15450
15404
15350
15292
15239
15185
15124
15068
15033
15011
14986
14959
14931
14901
14866
14839
14828
14822
14806
14778
14751
14720
14678
14633
14585
14527
14467
14419
14386
14355
14319
14288
14264
14237
14210
14197
14204
14229
14281
14373
14506
14674
14879
15129
15415
15718
16042
16392
16748
17082
17394
17684
17943
18158
18335
18481
18582
18629
18641
18634
18608
18563
18503
18434
18352
18265
18195
18149
18105
18052
17994
17939
17882
17818
17751
17677
17585
17480
17379
17283
17181
17080
16996
16926
16860
16807
16777
16762
16746
16725
16705
16685
16666
16657
16662
16671
16674
16678
16693
16707
16711
16717
16725
16714
16681
16647
16618
16580
16527
16473
16423
16366
16305
16254
16216
16178
16140
16106
16072
16030
15985
15948
15917
15880
15840
15805
15768
15722
15682
15653
15625
15585
15542
15509
15483
15453
15425
15407
15388
15361
15333
15315
15296
15264
15231
15209
15189
15169
15155
15150
15141
15118
15095
15079
15061
15038
15019
14999
14971
14933
14899
14871
14834
14792
14757
14726
14693
14667
14673
14714
14781
14885
15044
15244
15471
15734
16044
16383
16729
17077
17428
17765
18072
18353
18617
18849
19031
19179
19307
19398
19446
19467
19469
19448
19406
19366
19334
19298
19254
19212
19171
19123
19077
19047
19024
18989
18938
18883
18828
18763
18693
18627
18557
18474
18389
18320
18259
18191
18117
18049
17990
17937
17896
17872
17853
17836
17825
17825
17828
17825
17821
17823
17821
17809
17796
17784
17769
17753
17740
17726
17697
17659
17627
17596
17552
17496
17444
17397
17346
17296
17255
17214
17166
17117
17077
17042
17002
16961
16928
16897
16859
16818
16781
16746
16704
16663
16626
16584
16537
16494
16455
16413
16366
16323
16286
16244
16201
16171
16153
16130
16099
16068
16040
16009
15984
15969
15954
15930
15906
15895
15890
15873
15846
15818
15783
15730
15673
15627
15583
15527
15465
15412
15372
15337
15319
15331
15368
15432
15537
15693
15892
16128
16403
16715
17052
17404
17767
18125
18460
18765
19054
19320
19546
19734
19893
20016
20096
20151
20198
20234
20242
20225
20205
20178
20137
20095
20070
20048
20013
19975
19949
19925
19892
19856
19823
19779
19713
19641
19575
19501
19412
19323
19238
19153
19066
18988
18923
18862
18804
18759
18723
18684
18649
18629
18616
18597
18580
18575
18580
18584
18584
18587
18586
18569
18539
18507
18478
18442
18404
18374
18342
18298
18251
18212
18174
18123
18070
18022
17970
17908
17847
17792
17736
17683
17640
17609
17583
17552
17523
17496
17467
17437
17416
17399
17371
17339
17316
17298
17271
17239
17209
17175
17133
17097
17079
17068
17047
17020
16995
16966
16924
16880
16842
16808
16766
16718
16673
16632
16591
16549
16507
16456
16392
16334
16287
16239
16181
16122
16066
16005
15943
15887
15831
15767
15700
15646
15607
15572
15548
15557
15598
15664
15769
15923
16123
16360
16639
16965
17322
17682
18045
18412
18767
19089
19372
19624
19832
19983
20093
20184
20247
20281
20303
20318
20317
20305
20297
20295
20285
20258
20223
20186
20140
20088
20038
19984
19916
19840
19768
19694
19602
19503
19417
19341
19263
19182
19105
19024
18931
18839
18758
18681
18607
18547
18502
18457
18404
18360
18339
18327
18304
18280
18266
18250
18230
18217
18209
18196
18173
18143
18111
18082
18062
18050
18037
18008
17963
17913
17865
17817
17766
17710
17653
17601
17548
17490
17435
17384
17338
17298
17259
17217
17173
17127
17079
17025
16968
16910
16854
16798
16741
16684
16624
16560
16495
16432
16371
16310
16245
16174
16101
16035
15978
15929
15886
15847
15812
15787
15766
15747
15731
15713
15684
15652
15630
15615
15591
15561
15536
15511
15481
15450
15429
15413
15389
15359
15336
15318
15297
15281
15279
15280
15282
15301
15346
15411
15499
15627
15802
16012
16259
16554
16892
17259
17643
18036
18427
18801
19153
19476
19759
19990
20171
20317
20424
20489
20526
20541
20528
20490
20440
20390
20337
20271
20198
20126
20050
19968
19895
19841
19792
19734
19672
19614
19546
19463
19373
19281
19181
19073
18972
18884
18800
18717
18645
18586
18534
18497
18486
18489
18491
18495
18515
18549
18579
18603
18629
18655
18673
18684
18696
18702
18693
18676
18659
18635
18598
18563
18537
18509
18463
18407
18354
18293
18224
18167
18120
18069
18009
17946
17888
17828
17766
17712
17665
17614
17558
17507
17458
17400
17337
17280
17226
17168
17106
17051
16999
16941
16881
16831
16786
16734
16684
16648
16612
16568
16523
16487
16454
16416
16378
16344
16308
16272
16241
16215
16184
16147
16114
16090
16069
16050
16035
16022
16002
15978
15957
15939
15915
15885
15865
15859
15853
15849
15860
15883
15913
15959
16039
16154
16291
16461
16674
16921
17194
17493
17809
18119
18409
18683
18941
19166
19348
19500
19630
19730
19798
19847
19883
19898
19882
19845
19803
19750
19689
19632
19582
19524
19459
19406
19367
19325
19275
19226
19175
19113
19046
18982
18918
18841
18761
18697
18646
18592
18539
18497
18454
18404
18358
18324
18297
18270
18251
18245
18236
18219
18211
18218
18223
18218
18214
18211
18198
18174
18154
18135
18103
18053
18004
17966
17923
17872
17823
17773
17715
17653
17595
17527
17446
17367
17301
17238
17168
17101
17052
17011
16960
16897
16835
16782
16736
16696
16666
16631
16578
16518
16466
16418
16368
16325
16286
16240
16183
16133
16098
16066
16027
15987
15951
15913
15871
15838
15811
15781
15750
15724
15695
15656
15621
15599
15576
15540
15493
15450
15413
15375
15342
15319
15293
15256
15216
15187
15162
15132
15109
15102
15106
15123
15168
15246
15353
15489
15665
15888
16145
16432
16749
17083
17411
17722
18023
18313
18576
18804
18997
19146
19245
19301
19332
19341
19322
19283
19239
19188
19123
19055
18998
18939
18864
18782
18709
18643
18569
18492
18419
18341
18252
18168
18100
18030
17945
17854
17766
17670
17566
17467
17378
17292
17210
17137
17071
17009
16960
16934
16922
16907
16889
16883
16886
16889
16890
16888
16872
16838
16799
16765
16732
16690
16643
16600
16555
16501
16443
16388
16324
16243
16156
16082
16012
15935
15859
15792
15726
15663
15610
15567
15524
15473
15421
15368
15309
15241
15164
15076
14970
14858
14760
14669
14572
14478
14397
14322
14243
14163
14096
14040
13982
13926
13880
13834
13776
13712
13656
13611
13567
13522
13484
13446
13406
13370
13341
13313
13282
13252
13225
13195
13166
13142
13119
13083
13038
12998
12966
12930
12895
12878
12885
12905
12944
13010
13105
13232
13400
13617
13882
14175
14492
14833
15178
15507
15822
16127
16408
16652
16865
17049
17192
17298
17382
17452
17496
17510
17512
17512
17499
17470
17440
17410
17367
17313
17258
17206
17154
17106
17063
17016
16954
16881
16808
16733
16648
16559
16479
16409
16342
16289
16261
16242
16216
16186
16168
16161
16150
16138
16134
16128
16112
16105
16115
16125
16121
16114
16114
16111
16098
16087
16082
16072
16051
16028
16006
15977
15945
15920
15899
15866
15823
15785
15752
15712
15668
15626
15578
15519
15458
15411
15378
15343
15301
15259
15211
15160
15116
15085
15050
15000
14948
14910
14876
14835
14792
14753
14715
14680
14660
14650
14633
14605
14577
14552
14526
14503
14492
14494
14490
14474
14457
14437
14407
14377
14358
14338
14301
14254
14215
14176
14125
14072
14034
14003
13964
13929
13917
13932
13966
14026
14124
14253
14406
14596
14830
15095
15380
15688
16020
16358
16685
17000
17303
17579
17813
18011
18175
18300
18393
18468
18527
18557
18560
18549
18524
18480
18427
18378
18328
18267
18200
18142
18093
18041
17981
17917
17838
17736
17625
17515
17396
17261
17121
16991
16872
16756
16652
16565
16489
16416
16356
16311
16265
16219
16185
16163
16139
16113
16098
16098
16094
16073
16047
16023
15991
15957
15937
15920
15890
15853
15820
15783
15741
15705
15679
15651
15609
15563
15524
15489
15449
15413
15386
15350
15298
15246
15202
15159
15115
15078
15048
15009
14955
14900
14855
14811
14763
14722
14679
14623
14558
14506
14471
14433
14390
14356
14322
14270
14210
14160
14116
14063
14005
13947
13889
13827
13770
13722
13671
13607
13542
13490
13448
13403
13358
13315
13262
13197
13136
13086
13039
12992
12954
12932
12920
12920
12950
13024
13133
13271
13455
13688
13952
14240
14555
14882
15193
15482
15750
15986
16184
16353
16499
16614
16691
16737
16767
16782
16780
16772
16770
16768
16752
16728
16708
16686
16661
16640
16632
16625
16612
16597
16576
16543
16502
16466
16429
16375
16305
16235
16175
16112
16047
15987
15925
15858
15802
15772
15756
15738
15717
15701
15685
15665
15645
15635
15625
15602
15572
15544
15518
15489
15460
15429
15382
15319
15256
15204
15148
15080
15015
14960
14895
14810
14722
14641
14563
14479
14399
14329
14259
14189
14127
14063
13986
13907
13842
13785
13720
13653
13594
13541
13473
13397
13330
13270
13206
13144
13089
13027
12955
12884
12828
12783
12727
12665
12613
12570
12531
12508
12504
12502
12499
12505
12517
12526
12533
12551
12582
12607
12620
12638
12668
12700
12728
12751
12765
12765
12766
12785
12814
12840
12868
12912
12977
13058
13165
13313
13499
13711
13952
14232
14542
14867
15207
15562
15912
16231
16522
16792
17027
17225
17397
17542
17647
17711
17750
17777
17790
17788
17783
17772
17743
17699
17655
17615
17566
17510
17460
17410
17350
17288
17235
17183
17113
17031
16958
16893
16817
16734
16658
16583
16500
16417
16344
16277
16214
16162
16126
16091
16049
16019
16014
16019
16022
16030
16045
16056
16065
16086
16114
16131
16135
16135
16129
16115
16097
16079
16059
16025
15981
15947
15921
15878
15819
15765
15715
15660
15597
15537
15480
15418
15355
15292
15219
15133
15048
14980
14915
14843
14775
14717
14661
14604
14552
14511
14475
14439
14407
14374
14334
14290
14258
14238
14211
14175
14145
14119
14091
14061
14041
14029
14012
13989
13969
13946
13917
13890
13873
13860
13834
13799
13766
13733
13695
13658
13628
13596
13554
13512
13475
13436
13397
13377
13390
13432
13499
13605
13754
13938
14151
14404
14692
14999
15316
15641
15963
16271
16565
16848
17110
17331
17506
17651
17770
17857
17914
17951
17966
17956
17930
17899
17864
17822
17781
17750
17718
17668
17610
17556
17501
17438
17376
17319
17255
17176
17093
17017
16942
16864
16794
16731
16660
16578
16503
16443
16393
16351
16323
16302
16281
16265
16264
16271
16273
16278
16297
16322
16338
16345
16350
16347
16327
16302
16279
16245
16201
16157
16122
16085
16042
16000
15961
15916
15866
15814
15762
15702
15640
15591
15557
15520
15470
15414
15357
15299
15242
15192
15144
15087
15028
14982
14943
14898
14851
14817
14792
14764
14733
14713
14700
14678
14650
14628
14604
14568
14531
14503
14477
14443
14410
14389
14369
14336
14296
14262
14231
14200
14168
14134
14090
14035
13988
13956
13928
13903
13893
13899
13911
13933
13991
14087
14208
14364
14571
14821
15096
15392
15716
16054
16386
16708
17018
17292
17511
17681
17816
17915
17982
18028
18062
18075
18058
18020
17975
17920
17855
17797
17750
17701
17648
17603
17566
17525
17481
17444
17410
17362
17293
17216
17139
17053
16958
16869
16786
16700
16620
16558
16504
16448
16404
16387
16387
16383
16378
16391
16418
16450
16490
16541
16586
16611
16623
16637
16648
16643
16627
16613
16595
16563
16525
16486
16437
16380
16324
16270
16206
16133
16066
16005
15941
15880
15831
15788
15727
15653
15590
15541
15499
15472
15466
15467
15442
15390
15330
15263
15184
15108
15047
14994
14940
14895
14860
14826
14788
14756
14729
14686
14630
14584
14555
14533
14517
14510
14503
14478
14437
14403
14389
14374
14354
14341
14333
14309
14264
14217
14180
14140
14090
14039
13991
13942
13908
13906
13935
13990
14085
14224
14397
14593
14824
15101
15412
15736
16073
16414
16737
17037
17328
17607
17850
18047
18207
18333
18421
18468
18495
18512
18508
18481
18447
18409
18364
18319
18279
18240
18191
18140
18100
18061
18018
17982
17959
17936
17892
17833
17780
17728
17665
17597
17532
17461
17381
17305
17247
17197
17148
17111
17091
17074
17056
17046
17047
17048
17043
17037
17028
17008
16984
16971
16965
16947
16920
16899
16874
16829
16771
16725
16686
16633
16574
16518
16455
16382
16314
16260
16211
16159
16113
16078
16043
15996
15949
15911
15869
15815
15760
15713
15659
15589
15523
15477
15436
15385
15338
15300
15254
15196
15141
15097
15053
15006
14965
14933
14898
14858
14826
14801
14768
14725
14684
14640
14583
14521
14474
14443
14413
14384
14363
14338
14298
14252
14218
14195
14172
14149
14130
14107
14073
14043
14024
14004
13978
13967
13984
14025
14092
14205
14368
14571
14816
15109
15441
15787
16138
16499
16859
17199
17506
17785
18030
18227
18378
18500
18590
18642
18672
18696
18709
18704
18688
18670
18652
18626
18600
18579
18551
18509
18459
18413
18365
18308
18252
18204
18152
18090
18030
17979
17925
17864
17811
17770
17726
17678
17639
17608
17572
17533
17502
17476
17446
17420
17411
17408
17397
17394
17417
17452
17476
17491
17511
17526
17530
17533
17543
17550
17542
17525
17505
17470
17410
17335
17253
17161
17058
16957
16857
16746
16630
16520
16416
16309
16207
16123
16053
15983
15913
15859
15823
15789
15751
15717
15686
15649
15614
15589
15563
15517
15457
15395
15330
15254
15174
15105
15043
14979
14915
14854
14790
14730
14691
14679
14671
14651
14632
14624
14622
14619
14622
14632
14634
14626
14622
14621
14613
14598
14583
14564
14529
14485
14456
14448
14453
14477
14536
14630
14753
14921
15155
15447
15774
16121
16483
16845
17195
17534
17860
18153
18401
18614
18795
18936
19033
19100
19146
19163
19153
19137
19126
19105
19071
19035
18998
18945
18879
18819
18768
18718
18672
18634
18598
18551
18488
18418
18343
18259
18173
18098
18020
17930
17841
17771
17716
17668
17634
17616
17604
17589
17577
17584
17605
17623
17640
17661
17672
17664
17655
17652
17645
17634
17625
17613
17586
17546
17510
17483
17454
17419
17384
17350
17308
17264
17220
17169
17103
17028
16951
16873
16793
16717
16647
16572
16483
16391
16314
16253
16196
16144
16099
16047
15989
15942
15908
15874
15831
15791
15756
15717
15672
15635
15614
15596
15574
15554
15536
15511
15482
15464
15456
15440
15414
15393
15378
15359
15338
15331
15334
15322
15296
15272
15247
15217
15183
15152
15118
15070
15014
14964
14920
14879
14856
14856
14867
14889
14943
15049
15204
15399
15642
15935
16263
16611
16984
17371
17747
18093
18413
18703
18953
19165
19350
19498
19592
19644
19677
19698
19698
19683
19670
19648
19609
19559
19512
19470
19424
19377
19334
19293
19250
19213
19185
19156
19115
19068
19026
18982
18922
18855
18790
18717
18634
18546
18461
18383
18314
18257
18206
18151
18098
18063
18049
18044
18047
18059
18072
18074
18074
18088
18111
18122
18121
18114
18093
18057
18011
17965
17918
17863
17807
17747
17672
17579
17481
17389
17297
17195
17091
16993
16889
16776
16671
16577
16481
16378
16281
16193
16108
16028
15959
15898
15830
15753
15680
15610
15531
15455
15396
15344
15284
15220
15173
15147
15124
15101
15085
15066
15032
14993
14958
14915
14864
14822
14792
14757
14715
14683
14670
14660
14640
14618
14603
14585
14565
14552
14541
14519
14483
14446
14414
14379
14342
14315
14298
14284
14275
14290
14336
14405
14506
14647
14825
15040
15303
15610
15947
16299
16652
17010
17359
17683
17984
18259
18495
18682
18824
18926
18994
19031
19044
19040
19016
18975
18935
18900
18855
18795
18731
18671
18614
18565
18524
18484
18429
18356
18279
18204
18123
18040
17964
17888
17795
17689
17592
17504
17417
17338
17272
17208
17139
17077
17035
17013
16996
16982
16971
16955
16939
16937
16954
16975
16985
16989
16991
16984
16968
16951
16934
16909
16875
16839
16806
16767
16720
16666
16608
16547
16489
16444
16412
16380
16342
16302
16254
16198
16145
16103
16061
16007
15949
15905
15873
15840
15807
15778
15738
15683
15631
15594
15557
15510
15471
15445
15408
15358
15314
15282
15255
15228
15204
15177
15139
15099
15068
15040
15004
14963
14928
14897
14859
14822
14798
14781
14765
14751
14741
14728
14700
14658
14619
14583
14546
14516
14499
14488
14484
14501
14551
14634
14740
14877
15056
15271
15518
15811
16150
16510
16871
17232
17582
17900
18179
18429
18644
18804
18913
18991
19043
19064
19060
19048
19028
18993
18953
18916
18874
18818
18756
18702
18656
18608
18561
18516
18461
18393
18327
18272
18211
18130
18038
17950
17858
17758
17665
17587
17517
17449
17387
17335
17289
17250
17229
17224
17221
17214
17216
17230
17244
17252
17262
17270
17262
17236
17206
17172
17130
17082
17035
16982
16922
16867
16825
16786
16737
16685
16638
16594
16547
16504
16466
16420
16363
16313
16277
16237
16184
16134
16090
16040
15984
15937
15904
15872
15832
15792
15760
15729
15703
15684
15664
15628
15586
15556
15535
15506
15474
15449
15422
15386
15348
15318
15294
15265
15231
15203
15181
15159
15144
15140
15132
15108
15080
15059
15033
14996
14955
14912
14862
14814
14780
14760
14742
14729
14736
14766
14806
14863
14965
15119
15305
15515
15765
16059
16380
16717
17068
17414
17732
18023
18295
18535
18732
18895
19034
19140
19209
19255
19291
19308
19296
19267
19228
19177
19119
19069
19029
18984
18925
18865
18813
18759
18705
18655
18610
18558
18497
18435
18372
18301
18221
18135
18045
17947
17852
17779
17723
17670
17627
17603
17585
17561
17542
17543
17556
17571
17586
17606
17626
17643
17665
17697
17724
17737
17745
17760
17774
17783
17783
17770
17735
17685
17639
17601
17558
17507
17454
17398
17334
17273
17227
17187
17136
17072
17008
16944
16870
16794
16731
16676
16611
16536
16462
16385
16302
16225
16163
16109
16050
15988
15933
15882
15825
15772
15730
15687
15629
15571
15523
15479
15434
15396
15365
15326
15278
15238
15204
15157
15091
15026
14971
14917
14868
14827
14783
14728
14666
14610
14559
14504
14455
14423
14404
14398
14425
14499
14612
14756
14939
15168
15437
15732
16054
16402
16759
17106
17444
17771
18068
18322
18534
18704
18831
18918
18981
19026
19046
19047
19042
19028
18999
18961
18927
18899
18863
18823
18795
18775
18749
18715
18679
18635
18579
18521
18466
18402
18319
18235
18154
18066
17970
17873
17791
17721
17656
17602
17561
17516
17462
17418
17393
17374
17349
17327
17311
17289
17260
17236
17217
17188
17146
17102
17057
17005
16953
16910
16872
16821
16767
16726
16690
16643
16591
16548
16508
16460
16411
16371
16336
16293
16244
16195
16145
16091
16045
16016
15989
15954
15923
15901
15873
15836
15804
15776
15731
15667
15600
15538
15475
15416
15373
15338
15300
15256
15215
15177
15139
15107
15092
15083
15060
15026
15002
14986
14961
14933
14912
14889
14857
14829
14809
14787
14756
14724
14697
14667
14640
14629
14639
14656
14675
14714
14791
14903
15047
15233
15458
15709
15983
16289
16623
16968
17315
17652
17962
18237
18475
18688
18876
19033
19164
19274
19357
19414
19454
19485
19504
19500
19473
19437
19391
19330
19263
19201
19135
19060
18991
18940
18897
18848
18793
18735
18668
18594
18529
18482
18438
18386
18331
18282
18232
18189
18168
18167
18167
18165
18175
18196
18215
18233
18258
18285
18299
18304
18311
18316
18304
18278
18254
18231
18203
18179
18161
18135
18090
18037
17989
17938
17879
17820
17763
17696
17621
17549
17480
17398
17308
17227
17160
17097
17036
16992
16959
16919
16866
16813
16764
16711
16658
16613
16569
16516
16463
16422
16393
16360
16321
16290
16262
16227
16193
16163
16129
16083
16033
15988
15946
15900
15857
15826
15797
15767
15749
15744
15730
15698
15670
15658
15648
15627
15604
15584
15568
15567
15590
15642
15714
15814
15960
16152
16373
16620
16900
17208
17530
17867
18219
18568
18890
19179
19444
19676
19861
20009
20127
20206
20246
20266
20277
20266
20226
20174
20125
20068
19998
19930
19870
19798
19716
19640
19574
19499
19407
19316
19226
19129
19032
18945
18861
18770
18684
18617
18562
18501
18437
18386
18348
18316
18294
18286
18289
18293
18303
18327
18359
18386
18411
18436
18450
18447
18435
18426
18408
18373
18331
18292
18248
18194
18136
18075
17999
17910
17824
17744
17662
17577
17499
17421
17336
17250
17175
17110
17042
16972
16916
16865
16801
16731
16671
16616
16556
16505
16472
16442
16406
16371
16344
16320
16293
16268
16244
16210
16165
16123
16087
16048
16003
15961
15928
15894
15856
15821
15792
15760
15726
15698
15676
15646
15605
15569
15530
15476
15418
15366
15315
15254
15192
15149
15130
15128
15153
15221
15326
15461
15641
15874
16150
16450
16773
17127
17497
17856
18198
18515
18790
19013
19194
19340
19449
19519
19560
19581
19582
19564
19538
19505
19457
19400
19352
19315
19271
19224
19192
19170
19141
19109
19081
19043
18979
18903
18832
18759
18668
18565
18466
18373
18279
18194
18124
18059
17990
17928
17886
17851
17811
17780
17765
17755
17741
17729
17720
17703
17684
17680
17690
17686
17665
17642
17615
17572
17520
17473
17424
17361
17291
17235
17188
17129
17056
16985
16916
16842
16769
16707
16644
16571
16496
16434
16383
16332
16279
16231
16185
16134
16089
16052
16014
15969
15929
15897
15859
15813
15771
15732
15688
15641
15605
15575
15534
15483
15435
15394
15344
15289
15240
15188
15124
15061
15014
14977
14934
14885
14846
14809
14760
14706
14652
14587
14507
14428
14364
14312
14260
14215
14187
14168
14160
14182
14250
14353
14491
14682
14924
15202
15513
15857
16220
16576
16917
17249
17571
17863
18116
18332
18507
18633
18717
18771
18794
18782
18744
18696
18642
18577
18509
18441
18368
18287
18211
18150
18095
18032
17965
17899
17824
17734
17644
17569
17494
17408
17317
17227
17134
17045
16969
16905
16843
16783
16742
16719
16698
16678
16671
16667
16655
16640
16638
16640
16631
16618
16613
16607
16595
16586
16582
16567
16529
16483
16442
16398
16344
16288
16237
16178
16110
16048
15997
15949
15898
15855
15824
15794
15756
15718
15685
15646
15590
15529
15469
15400
15329
15269
15214
15152
15089
15037
14993
14952
14920
14903
14887
14861
14834
14820
14818
14818
14819
14824
14823
14812
14795
14776
14751
14714
14674
14639
14598
14544
14482
14418
14351
14286
14233
14198
14170
14150
14145
14152
14162
14183
14234
14321
14437
14582
14772
15007
15279
15593
15948
16327
16710
17084
17450
17799
18108
18374
18607
18800
18944
19050
19130
19173
19174
19146
19108
19065
19014
18958
18897
18826
18747
18677
18614
18543
18461
18381
18312
18247
18184
18124
18059
17974
17876
17785
17701
17608
17509
17427
17365
17310
17266
17237
17219
17204
17198
17215
17249
17283
17321
17368
17415
17451
17486
17526
17564
17590
17609
17624
17630
17624
17614
17602
17582
17548
17509
17476
17445
17410
17375
17344
17309
17269
17233
17198
17155
17104
17054
17008
16960
16916
16884
16854
16812
16762
16719
16684
16644
16603
16566
16523
16466
16408
16362
16317
16269
16223
16181
16131
16065
16001
15948
15894
15834
15782
15742
15701
15657
15619
15589
15553
15506
15459
15420
15381
15342
15309
15278
15235
15185
15147
15121
15096
15081
15098
15148
15223
15335
15503
15725
15982
16272
16608
16976
17358
17746
18128
18484
18800
19086
19350
19578
19757
19892
19996
20072
20122
20157
20182
20188
20174
20156
20136
20103
20058
20015
19974
19926
19879
19848
19828
19800
19761
19718
19667
19600
19525
19445
19356
19256
19152
19058
18969
18882
18803
18736
18673
18610
18563
18540
18526
18505
18483
18463
18439
18410
18384
18360
18327
18291
18264
18236
18192
18137
18084
18031
17964
17889
17823
17762
17687
17598
17510
17424
17336
17254
17186
17124
17053
16980
16917
16856
16788
16721
16663
16603
16537
16476
16427
16379
16315
16247
16193
16140
16077
16012
15950
15886
15816
15750
15697
15645
15591
15550
15519
15486
15458
15444
15434
15413
15385
15367
15357
15335
15302
15265
15217
15157
15095
15047
15008
14964
14918
14884
14853
14820
14805
14819
14858
14922
15024
15178
15374
15605
15875
16181
16512
16860
17222
17586
17929
18241
18526
18782
18997
19170
19315
19428
19494
19519
19524
19514
19481
19432
19381
19323
19259
19206
19170
19138
19100
19064
19039
19014
18978
18935
18894
18841
18764
18678
18598
18517
18425
18328
18240
18151
18055
17965
17891
17820
17751
17693
17651
17608
17559
17513
17472
17427
17388
17361
17335
17297
17249
17204
17166
17123
17073
17026
16980
16920
16850
16777
16692
16585
16465
16346
16227
16104
15989
15884
15776
15655
15532
15418
15307
15197
15092
14990
14884
14773
14669
14579
14496
14412
14336
14265
14189
14109
14038
13974
13907
13839
13777
13720
13663
13609
13559
13506
13442
13381
13338
13306
13270
13232
13203
13173
13130
13084
13047
13014
12977
12943
12919
12892
12858
12830
12817
12806
12794
12803
12847
12920
13021
13163
13348
13562
13801
14075
14386
14725
15083
15459
15834
16182
16500
16806
17091
17329
17518
17671
17788
17868
17920
17954
17962
17941
17897
17841
17775
17700
17626
17560
17496
17419
17335
17262
17191
17107
17015
16922
16822
16712
16603
16506
16408
16305
16209
16123
16031
15933
15845
15776
15713
15656
15622
15610
15610
15622
15651
15690
15727
15768
15815
15858
15887
15905
15925
15939
15935
15921
15907
15885
15854
15826
15803
15774
15733
15684
15632
15574
15513
15459
15413
15363
15308
15260
15220
15179
15137
15104
15074
15032
14984
14943
14907
14863
14817
14782
14751
14716
14681
14653
14624
14584
14541
14513
14495
14475
14457
14446
14432
14408
14388
14380
14369
14349
14330
14319
14306
14286
14266
14251
14228
14189
14144
14095
14039
13982
13934
13898
13865
13842
13855
13909
13986
14092
14251
14461
14710
14998
15332
15695
16065
16437
16813
17178
17506
17788
18028
18226
18381
18506
18611
18687
18724
18733
18729
18707
18669
18631
18597
18557
18511
18470
18437
18402
18360
18322
18288
18244
18187
18131
18074
18006
17927
17855
17787
17714
17642
17579
17525
17471
17420
17382
17354
17325
17300
17286
17276
17263
17257
17267
17284
17294
17301
17312
17316
17314
17319
17331
17337
17332
17322
17308
17282
17248
17219
17190
17146
17089
17033
16978
16914
16845
16782
16719
16646
16568
16496
16427
16351
16272
16203
16140
16078
16021
15975
15925
15866
15806
15754
15705
15652
15604
15566
15531
15489
15448
15418
15388
15353
15317
15280
15237
15191
15154
15122
15080
15029
14988
14960
14930
14899
14875
14855
14825
14783
14751
14730
14700
14657
14608
14558
14502
14450
14422
14419
14432
14472
14556
14678
14831
15035
15303
15616
15950
16306
16684
17062
17416
17748
18054
18314
18519
18682
18814
18906
18960
18996
19020
19022
19004
18988
18979
18960
18929
18901
18876
18844
18814
18799
18792
18775
18745
18709
18659
18589
18510
18431
18347
18250
18152
18070
17994
17916
17841
17769
17695
17618
17557
17518
17491
17466
17444
17428
17403
17370
17345
17336
17325
17307
17294
17289
17278
17262
17251
17235
17202
17150
17096
17042
16978
16909
16842
16768
16678
16586
16512
16449
16381
16317
16265
16216
16160
16105
16062
16025
15974
15914
15859
15806
15750
15697
15654
15604
15543
15492
15452
15412
15367
15329
15303
15271
15232
15198
15170
15134
15089
15050
15016
14973
14930
14898
14866
14830
14798
14777
14759
14730
14691
14653
14613
14564
14519
14486
14449
14398
14347
14314
14296
14290
14316
14388
14500
14654
14858
15118
15421
15756
16126
16528
16945
17361
17772
18160
18507
18808
19072
19294
19461
19579
19666
19718
19728
19712
19687
19653
19599
19533
19474
19421
19366
19317
19276
19230
19172
19111
19060
19011
18955
18894
18825
18741
18646
18556
18474
18386
18296
18219
18159
18101
18041
17995
17968
17947
17924
17911
17907
17903
17900
17913
17935
17948
17952
17962
17976
17979
17969
17958
17943
17917
17883
17846
17792
17719
17645
17579
17511
17427
17343
17273
17197
17107
17019
16946
16877
16803
16738
16683
16629
16577
16535
16495
16444
16384
16333
16293
16247
16194
16148
16111
16068
16021
15979
15943
15902
15862
15828
15795
15759
15722
15688
15650
15600
15540
15482
15423
15357
15293
15235
15171
15101
15041
14994
14945
14889
14844
14815
14789
14766
14762
14784
14830
14902
15014
15173
15372
15613
15898
16215
16547
16887
17245
17612
17959
18277
18571
18828
19037
19205
19333
19416
19454
19452
19425
19374
19300
19213
19123
19025
18920
18824
18743
18663
18579
18501
18434
18366
18294
18231
18178
18119
18044
17963
17885
17805
17722
17651
17592
17533
17475
17435
17406
17376
17352
17350
17367
17387
17410
17452
17509
17562
17616
17678
17733
17767
17784
17796
17798
17784
17763
17744
17718
17682
17646
17619
17590
17546
17500
17461
17425
17387
17354
17329
17292
17232
17164
17097
17023
16942
16869
16798
16714
16622
16543
16471
16388
16300
16226
16161
16094
16028
15976
15929
15877
15821
15764
15702
15635
15572
15523
15480
15429
15384
15356
15337
15315
15299
15294
15291
15283
15274
15269
15258
15240
15220
15193
15144
15079
15020
14971
14919
14871
14845
14845
14864
14914
15015
15169
15366
15613
15918
16270
16653
17058
17479
17897
18286
18645
18982
19284
19542
19759
19936
20063
20138
20183
20215
20221
20193
20149
20100
20041
19969
19899
19835
19766
19688
19610
19536
19456
19373
19301
19235
19157
19067
18982
18899
18803
18698
18596
18496
18398
18311
18239
18171
18097
18023
17964
17917
17875
17840
17813
17783
17751
17732
17731
17731
17722
17715
17716
17710
17688
17664
17643
17612
17569
17527
17489
17444
17392
17342
17292
17233
17165
17100
17039
16965
16877
16793
16713
16631
16552
16479
16408
16334
16258
16188
16120
16050
15988
15936
15882
15813
15742
15686
15643
15601
15562
15528
15490
15448
15417
15393
15364
15323
15289
15271
15261
15255
15256
15256
15236
15194
15157
15137
15119
15095
15069
15033
14982
14929
14890
14860
14823
14778
14741
14716
14705
14721
14779
14873
14997
15160
15373
15634
15933
16269
16638
17015
17382
17735
18073
18388
18673
18927
19147
19316
19434
19516
19570
19594
19594
19578
19543
19481
19401
19319
19241
19157
19073
18998
18921
18835
18749
18671
18596
18512
18426
18348
18271
18183
18100
18032
17966
17891
17817
17755
17701
17650
17608
17586
17571
17552
17539
17541
17550
17555
17561
17569
17570
17565
17561
17556
17540
17511
17481
17448
17402
17348
17295
17238
17164
17080
17003
16931
16853
16776
16703
16621
16520
16409
16307
16213
16115
16019
15933
15846
15755
15673
15606
15540
15471
15413
15365
15310
15245
15186
15141
15102
15064
15038
15025
15011
14992
14983
14986
14990
14992
15002
15016
15020
15019
15022
15024
15016
15002
14997
14999
14991
14972
14951
14932
14918
14922
14955
15015
15103
15231
15408
15623
15866
16142
16451
16778
17108
17449
17797
18126
18419
18676
18901
19083
19220
19326
19404
19439
19436
19415
19379
19318
19238
19154
19065
18964
18856
18752
18651
18538
18416
18301
18188
18074
17962
17854
17735
17603
17473
17358
17247
17128
17012
16911
16817
16722
16639
16573
16511
16446
16393
16363
16346
16339
16346
16363
16379
16396
16421
16454
16483
16511
16547
16582
16603
16616
16631
16636
16621
16594
16569
16545
16512
16480
16447
16402
16343
16286
16246
16211
16158
16105
16066
16019
15954
15891
15844
15801
15749
15695
15639
15570
15492
15419
15350
15279
15204
15136
15074
15010
14938
14867
14795
14706
14604
14514
14434
14357
14287
14231
14179
14121
14060
14010
13970
13923
13872
13828
13783
13735
13697
13682
13684
13701
13748
13836
13958
14115
14318
14571
14858
15165
15494
15842
16193
16534
16868
17188
17477
17731
17951
18130
18257
18340
18395
18422
18413
18379
18336
18279
18201
18106
18009
17911
17802
17693
17594
17499
17399
17302
17214
17126
17024
16916
16815
16713
16607
16511
16432
16362
16295
16242
16203
16168
16134
16108
16091
16071
16048
16043
16063
16090
16115
16149
16183
16205
16223
16248
16277
16293
16303
16316
16319
16300
16274
16248
16209
16148
16078
16017
15962
15901
15841
15790
15737
15674
15614
15568
15525
15475
15427
15380
15325
15260
15198
15143
15081
15008
14934
14867
14800
14736
14688
14651
14610
14564
14524
14488
14442
14399
14377
14373
14361
14336
14313
14290
14259
14230
14208
14182
14139
14087
14035
13984
13941
13925
13946
13991
14060
14172
14342
14559
14816
15115
15449
15796
16142
16493
16846
17188
17503
17790
18037
18233
18387
18516
18612
18664
18683
18686
18668
18619
18547
18468
18387
18298
18199
18101
18002
17896
17800
17724
17657
17577
17486
17394
17299
17198
17104
17018
16930
16836
16744
16658
16574
16488
16415
16366
16332
16303
16288
16289
16293
16296
16311
16336
16353
16363
16380
16397
16400
16393
16394
16397
16380
16347
16313
16272
16221
16174
16140
16105
16060
16013
15978
15950
15923
15905
15902
15901
15887
15864
15837
15808
15777
15752
15728
15689
15634
15571
15506
15435
15363
15296
15231
15156
15073
14993
14914
14832
14749
14673
14599
14518
14437
14361
14285
14200
14107
14018
13927
13825
13728
13653
13590
13522
13453
13401
13372
13363
13387
13453
13559
13705
13908
14163
14448
14757
15102
15472
15843
16210
16578
16935
17258
17541
17793
18012
18193
18336
18446
18522
18559
18564
18558
18548
18526
18485
18428
18355
18270
18188
18118
18052
17977
17895
17816
17734
17643
17554
17471
17381
17285
17197
17118
17037
16944
16848
16759
16671
16587
16520
16473
16431
16392
16366
16353
16345
16341
16349
16363
16369
16368
16368
16368
16355
16328
16299
16260
16204
16142
16086
16024
15947
15864
15793
15729
15658
15582
15515
15449
15378
15310
15253
15194
15121
15042
14969
14893
14811
14729
14653
14577
14501
14440
14392
14338
14274
14218
14176
14136
14095
14061
14029
13992
13955
13932
13923
13912
13897
13883
13862
13824
13782
13754
13724
13680
13632
13591
13548
13500
13457
13422
13385
13347
13333
13358
13413
13496
13627
13813
14038
14291
14577
14900
15243
15592
15947
16297
16620
16907
17163
17379
17541
17657
17745
17811
17845
17848
17831
17791
17731
17663
17603
17541
17462
17374
17293
17217
17139
17070
17012
16950
16872
16791
16717
16638
16550
16467
16390
16301
16201
16108
16028
15952
15877
15812
15760
15710
15665
15635
15618
15599
15576
15566
15566
15562
15560
15566
15572
15565
15554
15548
15543
15523
15496
15469
15435
15386
15331
15281
15228
15165
15097
15038
14984
14921
14854
14786
14711
14633
14568
14515
14458
14394
14329
14271
14212
14148
14081
14010
13930
13849
13788
13748
13711
13670
13634
13606
13583
13562
13543
13526
13509
13493
13484
13479
13465
13440
13415
13390
13361
13333
13308
13279
13233
13177
13124
13074
13023
12977
12940
12910
12897
12927
13005
13126
13291
13513
13788
14093
14420
14770
15133
15482
15812
16127
16422
16678
16898
17085
17232
17331
17388
17412
17406
17372
17324
17277
17223
17152
17077
17011
16944
16864
16780
16709
16644
16574
16498
16416
16317
16201
16090
15992
15903
15822
15750
15685
15619
15552
15496
15455
15418
15380
15353
15338
15322
15310
15313
15327
15335
15337
15341
15346
15346
15353
15370
15383
15382
15373
15360
15338
15299
15256
15219
15179
15124
15067
15020
14980
14936
14891
14846
14794
14740
14697
14662
14615
14557
14503
14459
14415
14376
14348
14322
14288
14250
14220
14197
14166
14128
14100
14077
14047
14016
13993
13969
13932
13893
13861
13831
13794
13760
13733
13700
13655
13615
13587
13560
13524
13489
13457
13426
13398
13384
13383
13383
13382
13393
13431
13491
13579
13708
13880
14084
14321
14601
14921
15258
15608
15979
16360
16729
17079
17404
17688
17924
18120
18283
18410
18497
18554
18596
18612
18599
18572
18545
18503
18436
18359
18283
18208
18133
18064
17997
17923
17840
17762
17690
17609
17520
17433
17346
17251
17150
17052
16960
16862
16763
16681
16616
16551
16487
16440
16405
16375
16354
16350
16356
16353
16348
16351
16354
16345
16333
16330
16319
16286
16243
16204
16159
16103
16046
15996
15937
15867
15799
15735
15665
15588
15515
15448
15382
15314
15249
15187
15120
15051
14992
14943
14883
14814
14752
14694
14633
14575
14527
14481
14425
14369
14325
14290
14249
14202
14154
14105
14057
14018
13992
13964
13926
13894
13879
13868
13846
13821
13794
13760
13721
13683
13645
13603
13557
13515
13475
13430
13388
13365
13363
13368
13381
13422
13498
13604
13752
13951
14191
14462
14770
15123
15508
15899
16290
16680
17048
17377
17673
17939
18157
18319
18444
18549
18627
18670
18689
18691
18668
18623
18575
18530
18479
18415
18349
18283
18214
18146
18089
18038
17977
17902
17822
17740
17644
17540
17446
17358
17266
17175
17097
17028
16962
16903
16863
16834
16802
16775
16762
16756
16749
16750
16759
16764
16753
16744
16747
16750
16742
16733
16727
16711
16688
16671
16660
16639
16605
16575
16550
16518
16476
16433
16388
16334
16277
16231
16191
16141
16079
16028
15984
15930
15879
15839
15797
15745
15692
15652
15614
15564
15510
15461
15413
15365
15328
15305
15284
15253
15223
15211
15209
15205
15208
15214
15207
15188
15171
15162
15151
15135
15120
15102
15073
15037
15004
14974
14929
14874
14825
14783
14744
14716
14707
14715
14742
14807
14925
15089
15290
15532
15821
16140
16479
16841
17223
17600
17949
18270
18565
18825
19043
19228
19384
19502
19572
19608
19621
19609
19570
19522
19476
19421
19355
19291
19230
19165
19099
19040
18982
18913
18837
18770
18708
18634
18547
18462
18378
18288
18197
18116
18043
17966
17895
17842
17799
17758
17729
17714
17701
17685
17682
17700
17720
17733
17748
17770
17783
17784
17781
17774
17754
17720
17685
17651
17607
17558
17510
17459
17395
17325
17266
17210
17140
17063
16999
16941
16875
16811
16756
16703
16638
16564
16498
16442
16386
16333
16284
16229
16166
16108
16057
15999
15928
15860
15803
15750
15699
15660
15632
15601
15565
15539
15524
15503
15475
15450
15425
15388
15348
15315
15283
15241
15193
15154
15121
15078
15033
14995
14961
14921
14886
14877
14892
14926
14989
15094
15239
15419
15645
15927
16250
16592
16954
17340
17728
18099
18454
18796
19106
19369
19586
19764
19899
19994
20059
20096
20103
20088
20068
20041
19995
19942
19897
19855
19802
19750
19714
19682
19635
19580
19530
19477
19413
19348
19288
19218
19124
19019
18920
18822
18719
18623
18539
18458
18383
18323
18280
18241
18199
18168
18153
18143
18136
18140
18156
18167
18167
18162
18147
18117
18086
18062
18038
18001
17954
17915
17881
17833
17774
17714
17649
17576
17505
17447
17396
17336
17272
17212
17145
17068
17000
16949
16896
16829
16764
16711
16658
16596
16537
16486
16432
16373
16320
16274
16223
16164
16106
16044
15968
15890
15832
15790
15743
15695
15662
15637
15601
15562
15537
15521
15499
15467
15433
15393
15340
15279
15217
15147
15068
14995
14939
14889
14844
14823
14833
14863
14910
14985
15095
15239
15421
15655
15934
16241
16569
16925
17302
17671
18025
18370
18694
18975
19209
19414
19587
19716
19805
19875
19922
19930
19909
19874
19820
19743
19655
19571
19488
19400
19319
19246
19168
19085
19014
18958
18900
18830
18757
18686
18607
18519
18429
18344
18257
18163
18073
17992
17913
17836
17772
17723
17679
17641
17622
17619
17616
17615
17626
17646
17656
17658
17665
17668
17653
17621
17589
17559
17523
17486
17450
17402
17336
17264
17203
17143
17073
17003
16940
16872
16795
16724
16665
16603
16526
16446
16373
16303
16234
16176
16128
16076
16015
15956
15902
15844
15785
15734
15685
15627
15567
15527
15502
15469
15432
15405
15378
15341
15301
15276
15258
15236
15212
15190
15160
15122
15088
15064
15035
14996
14960
14938
14922
14904
14890
14881
14866
14843
14829
14824
14825
14844
14900
14995
15121
15288
15514
15794
16105
16441
16809
17194
17580
17961
18327
18659
18942
19180
19391
19570
19703
19795
19860
19889
19877
19842
19805
19759
19696
19624
19550
19468
19378
19302
19246
19185
19105
19025
18954
18875
18778
18678
18583
18480
18368
18262
18158
18053
17955
17877
17813
17745
17676
17628
17598
17572
17556
17555
17556
17548
17535
17531
17532
17527
17517
17507
17489
17460
17432
17412
17387
17348
17305
17268
17234
17195
17160
17132
17095
17039
16971
16900
16823
16745
16674
16605
16524
16438
16366
16306
16243
16178
16127
16085
16033
15968
15908
15853
15786
15711
15643
15570
15489
15418
15366
15326
15285
15247
15220
15194
15165
15143
15135
15124
15098
15075
15066
15053
15019
14977
14941
14905
14862
14820
14783
14746
14709
14684
14671
14659
14647
14659
14704
14773
14876
15032
15240
15488
15778
16123
16510
16919
17344
17780
18208
18608
18981
19330
19645
19915
20143
20331
20471
20563
20627
20674
20691
20676
20651
20626
20590
20541
20492
20445
20388
20321
20255
20190
20116
20033
19949
19860
19761
19652
19542
19428
19310
19196
19101
19021
18944
18874
18821
18775
18731
18704
18705
18717
18724
18730
18749
18773
18794
18818
18844
18853
18840
18823
18811
18794
18766
18730
18683
18618
18539
18463
18395
18327
18261
18202
18147
18083
18012
17948
17894
17839
17783
17738
17696
17656
17627
17607
17576
17521
17451
17384
17316
17246
17190
17154
17121
17079
17036
17007
16987
16965
16946
16936
16928
16919
16923
16937
16941
16931
16922
16919
16909
16891
16874
16855
16822
16772
16715
16655
16589
16524
16467
16410
16341
16267
16206
16155
16103
16069
16069
16096
16147
16235
16377
16572
16809
17092
17421
17774
18132
18494
18859
19206
19520
19808
20069
20288
20459
20594
20699
20767
20793
20791
20763
20699
20605
20508
20417
20321
20224
20138
20067
19998
19937
19897
19872
19842
19806
19771
19730
19677
19613
19549
19487
19414
19334
19253
19169
19080
18993
18917
18843
18762
18686
18627
18578
18538
18519
18521
18521
18509
18502
18507
18511
18510
18513
18512
18489
18448
18407
18365
18313
18255
18202
18145
18070
17985
17911
17845
17775
17703
17636
17565
17480
17389
17305
17222
17129
17037
16951
16858
16751
16650
16569
16501
16436
16377
16331
16289
16244
16209
16189
16171
16150
16130
16111
16098
16093
16096
16098
16086
16063
16047
16040
16034
16031
16038
16050
16050
16042
16035
16026
16008
15989
15978
15965
15940
15913
15898
15893
15893
15912
15966
16053
16173
16334
16543
16795
17082
17404
17756
18126
18506
18896
19281
19637
19956
20241
20485
20678
20826
20938
21015
21048
21041
21010
20959
20887
20806
20727
20644
20547
20439
20332
20225
20108
19992
19884
19778
19661
19539
19426
19325
19223
19119
19014
18900
18772
18651
18546
18450
18361
18286
18229
18177
18122
18076
18052
18042
18038
18044
18057
18061
18054
18052
18060
18062
18057
18054
18047
18024
17986
17952
17921
17879
17828
17768
17691
17598
17502
17413
17329
17244
17160
17082
17003
16919
16844
16786
16733
16676
16621
16572
16522
16463
16410
16373
16338
16295
16252
16215
16177
16135
16103
16082
16054
16017
15983
15951
15914
15879
15859
15852
15843
15828
15820
15817
15809
15795
15782
15770
15751
15731
15721
15713
15695
15680
15683
15709
15758
15841
15963
16118
16308
16542
16820
17122
17441
17777
18127
18471
18802
19120
19416
19673
19886
20064
20207
20307
20369
20400
20402
20371
20318
20257
20183
20086
19980
19874
19763
19637
19504
19378
19256
19128
19003
18886
18769
18639
18506
18388
18281
18177
18087
18014
17940
17864
17800
17753
17714
17678
17653
17641
17631
17624
17630
17647
17661
17671
17684
17695
17697
17694
17700
17710
17714
17714
17720
17722
17700
17660
17622
17583
17531
17477
17430
17377
17307
17230
17160
17090
17016
16945
16879
16808
16727
16653
16595
16547
16502
16467
16441
16416
16387
16368
16365
16370
16379
16397
16419
16437
16452
16482
16524
16567
16611
16665
16720
16763
16797
16835
16869
16886
16895
16911
16926
16932
16948
16993
17064
17152
17274
17442
17647
17881
18159
18487
18839
19192
19542
19885
20207
20498
20764
21005
21206
21364
21490
21582
21640
21670
21683
21680
21648
21593
21534
21471
21393
21312
21238
21160
21063
20951
20843
20736
20622
20502
20383
20254
20115
19980
19863
19757
19654
19561
19483
19407
19328
19267
19234
19212
19191
19173
19165
19159
19152
19154
19164
19167
19160
19152
19143
19129
19112
19102
19098
19087
19071
19061
19051
19031
19010
19001
18988
18956
18914
18874
18835
18790
18747
18713
18684
18652
18623
18603
18580
18540
18494
18457
18419
18367
18318
18279
18230
18158
18083
18009
17927
17841
17763
17688
17602
17502
17403
17313
17222
17133
17060
17001
16937
16866
16801
16747
16698
16654
16623
16601
16577
16556
16558
16591
16656
16765
16927
17134
17377
17666
18013
18401
18811
19239
19676
20102
20501
20866
21195
21483
21732
21949
22136
22283
22387
22462
22515
22543
22549
22551
22551
22536
22502
22464
22420
22367
22309
22259
22219
22172
22115
22055
21993
21923
21850
21782
21711
21628
21540
21456
21370
21278
21191
21123
21066
21002
20936
20881
20835
20797
20768
20747
20724
20697
20678
20671
20666
20662
20669
20681
20684
20673
20658
20641
20614
20583
20558
20531
20489
20439
20389
20334
20270
20199
20129
20057
19971
19879
19789
19693
19584
19472
19369
19268
19156
19041
18931
18820
18705
18599
18507
18419
18328
18240
18161
18084
18008
17943
17888
17830
17775
17736
17712
17688
17662
17638
17608
17559
17499
17443
17393
17344
17300
17271
17255
17245
17249
17286
17363
17476
17636
17850
18111
18414
18768
19172
19599
20023
20444
20857
21236
21567
21857
22115
22324
22480
22594
22681
22739
22773
22796
22812
22811
22793
22775
22757
22738
22717
22702
22690
22671
22643
22619
22601
22578
22549
22513
22464
22396
22316
22233
22147
22053
21957
21860
21752
21633
21518
21420
21333
21249
21171
21102
21035
20977
20937
20917
20904
20895
20894
20901
20901
20890
20882
20879
20864
20836
20806
20773
20732
20685
20641
20599
20551
20498
20448
20399
20344
20286
20231
20175
20110
20036
19961
19884
19800
19713
19629
19542
19447
19355
19277
19205
19132
19067
19013
18950
18872
18796
18734
18672
18606
18550
18504
18457
18405
18353
18304
18254
18205
18164
18126
18077
18020
17971
17931
17889
17843
17802
17762
17715
17669
17645
17641
17657
17707
17800
17928
18089
18302
18578
18907
19272
19667
20085
20503
20899
21271
21617
21917
22152
22329
22461
22553
22612
22655
22689
22703
22698
22686
22670
22649
22628
22615
22601
22574
22536
22497
22452
22399
22343
22293
22245
22181
22100
22016
21930
21833
21737
21650
21560
21458
21353
21257
21165
21074
20996
20942
20898
20852
20813
20785
20757
20729
20716
20720
20722
20719
20718
20718
20709
20692
20677
20663
20639
20600
20555
20503
20440
20373
20316
20265
20203
20134
20071
20007
19936
19872
19821
19768
19702
19629
19558
19487
19409
19336
19275
19213
19138
19065
19004
18940
18859
18779
18710
18640
18565
18502
18453
18406
18355
18307
18264
18215
18163
18120
18078
18029
17985
17954
17922
17871
17814
17770
17739
17709
17683
17667
17653
17631
17607
17590
17572
17552
17542
17555
17589
17646
17742
17888
18085
18336
18651
19025
19433
19851
20272
20689
21086
21448
21777
22069
22305
22483
22623
22731
22801
22842
22874
22893
22887
22860
22830
22795
22749
22699
22655
22606
22546
22479
22417
22359
22298
22235
22175
22114
22039
21954
21865
21776
21686
21604
21532
21455
21367
21287
21224
21169
21121
21092
21080
21068
21052
21044
21046
21047
21052
21069
21094
21110
21117
21122
21124
21114
21098
21084
21066
21039
21010
20983
20945
20887
20817
20751
20685
20606
20522
20444
20361
20269
20180
20109
20046
19976
19904
19839
19774
19701
19634
19574
19514
19453
19399
19351
19300
19249
19210
19183
19151
19109
19069
19034
18995
18954
18923
18898
18861
18814
18772
18728
18672
18614
18567
18532
18494
18453
18416
18383
18347
18313
18285
18258
18236
18230
18248
18281
18330
18418
18564
18760
19003
19303
19653
20033
20431
20844
21255
21633
21966
22259
22506
22696
22835
22944
23024
23065
23076
23072
23054
23017
22966
22915
22859
22787
22708
22631
22551
22456
22353
22253
22153
22047
21945
21856
21770
21670
21559
21449
21333
21212
21103
21007
20910
20811
20725
20653
20583
20518
20471
20445
20426
20416
20423
20441
20455
20472
20502
20539
20563
20576
20585
20588
20581
20572
20566
20555
20530
20493
20452
20395
20322
20250
20187
20125
20055
19986
19923
19858
19786
19718
19665
19612
19549
19488
19432
19372
19308
19255
19213
19171
19126
19081
19037
18988
18938
18897
18862
18820
18775
18741
18708
18666
18622
18594
18576
18546
18508
18476
18451
18427
18410
18401
18383
18344
18296
18254
18211
18164
18124
18098
18075
18059
18071
18125
18217
18346
18532
18788
19104
19469
19878
20314
20754
21185
21598
21972
22287
22545
22767
22959
23112
23233
23334
23407
23444
23459
23471
23476
23465
23442
23413
23372
23319
23263
23218
23180
23134
23081
23025
22962
22883
22802
22732
22659
22577
22493
22408
22314
22218
22133
22065
22005
21948
21907
21884
21867
21862
21874
21893
21904
21909
21923
21946
21969
21994
22030
22065
22084
22091
22101
22110
22106
22096
22083
22056
22007
21953
21907
21863
21812
21759
21708
21645
21571
21499
21440
21390
21336
21277
21214
21142
21065
21002
20956
20911
20863
20821
20788
20750
20706
20669
20646
20619
20585
20555
20528
20498
20468
20437
20402
20356
20306
20261
20215
20162
20110
20073
20041
19995
19936
19876
19811
19738
19674
19621
19558
19483
19411
19348
19289
19241
19222
19243
19302
19403
19562
19787
20065
20390
20760
21157
21545
21907
22240
22541
