32229
32269
32257
32243
32276
32294
32268
32302
32307
32325
32322
32319
32412
32355
32391
32434
32409
32425
32450
32448
32466
32469
32498
32545
32590
32583
32629
32674
32735
32754
32837
32876
32930
33004
33051
33106
33135
33216
33264
33315
33348
33426
33425
33440
33456
33531
33493
33547
33533
33546
33576
33530
33551
33550
33531
33541
33496
33492
33502
33474
33458
33450
33430
33402
33401
33422
33424
33425
33441
33449
33449
33423
33465
33444
33458
33502
33476
33494
33513
33518
33497
33500
33485
33472
33486
33453
33450
33444
33439
33422
33434
33465
33419
33433
33437
33414
33424
33403
33411
33386
33389
33403
33388
33374
33384
33406
33383
33404
33395
33379
33373
33348
33350
33394
33391
33322
33324
33338
33316
33317
33290
33291
33293
33257
33248
33238
33207
33196
33145
33162
33128
33118
33127
33087
33035
33030
33033
33036
33017
33040
33065
33074
33101
33061
33031
33068
33026
33034
33042
33000
33008
33013
32987
32975
32980
32997
32970
32948
32951
32980
32948
32969
32931
32966
32949
32924
32924
32901
32894
32878
32869
32858
32843
32814
32826
32775
32785
32814
32807
32801
32795
32796
32784
32760
32758
32743
32711
32698
32682
32672
32635
32636
32602
32585
32567
32560
32533
32546
32530
32566
32548
32529
32499
32525
32520
32488
32472
32496
32533
32495
32528
32529
32528
32558
32562
32553
32604
32593
32676
32662
32740
32721
32778
32790
32817
32875
32903
32890
32953
32938
33009
33022
33069
33151
33134
33146
33207
33250
33279
33280
33367
33410
33417
33463
33531
33591
33608
33611
33657
33669
33676
33674
33672
33647
33633
33632
33656
33624
33576
33592
33570
33562
33548
33571
33569
33552
33579
33578
33612
33569
33600
33601
33591
33555
33594
33593
33582
33523
33555
33548
33548
33568
33542
33553
33512
33533
33545
33539
33516
33531
33526
33538
33550
33522
33540
33527
33554
33560
33581
33532
33555
33569
33532
33526
33527
33535
33508
33508
33513
33510
33483
33460
33476
33510
33460
33487
33475
33506
33489
33500
33529
33510
33480
33503
33508
33480
33514
33468
33496
33490
33458
33461
33445
33452
33444
33416
33411
33412
33421
33413
33427
33407
33398
33393
33371
33351
33381
33320
33334
33297
33321
33321
33319
33320
33298
33249
33249
33208
33210
33168
33134
33110
33100
33065
33074
33017
33011
33000
32990
32949
32973
32971
32933
32993
32905
32921
32934
32904
32857
32818
32800
32753
32730
32706
32654
32654
32611
32621
32608
32600
32571
32578
32571
32539
32579
32562
32533
32507
32463
32463
32442
32435
32446
32440
32455
32447
32461
32460
32427
32474
32485
32462
32491
32523
32510
32513
32548
32574
32577
32601
32605
32629
32635
32655
32662
32721
32702
32703
32736
32775
32764
32806
32853
32924
32877
32940
32966
33032
33044
33112
33135
33240
33249
33304
33385
33407
33488
33529
33572
33582
33657
33678
33703
33688
33675
33685
33670
33649
33691
33632
33625
33602
33567
33524
33486
33458
33465
33480
33461
33442
33446
33406
33392
33406
33405
33399
33393
33422
33431
33444
33424
33423
33399
33352
33307
33303
33289
33222
33242
33200
33206
33174
33141
33093
33052
33062
33093
33105
33131
33116
33102
33078
33047
33038
33056
33095
33146
33204
33215
33168
33115
33080
33028
33008
33037
33085
33100
33095
33036
33007
32970
32953
32945
32974
32981
32990
32968
32996
33018
33001
32984
32965
32944
32932
32931
32895
32917
32898
32894
32905
32924
32891
32910
32879
32900
32893
32936
32916
32926
32947
32931
32954
32995
32993
32987
33011
33007
32991
32976
32965
32977
33014
32969
32960
32960
32953
32963
32998
33029
33027
33034
33088
33133
33163
33159
33144
33206
33171
33174
33171
33178
33145
33145
33124
33112
33081
33107
33114
33078
33053
33062
33025
33017
33006
33024
32996
33036
33016
33032
33020
33034
33022
33043
32968
32940
32897
32900
32881
32810
32804
32841
32812
32817
32866
32815
32813
32716
32673
32635
32599
32554
32581
32507
32504
32559
32563
32552
32606
32653
32675
32692
32747
32745
32789
32803
32850
32878
32844
32911
32938
32984
33056
33094
33166
33202
33257
33289
33358
33372
33375
33421
33421
33452
33484
33477
33483
33485
33489
33474
33450
33406
33424
33394
33351
33359
33357
33339
33332
33322
33344
33334
33338
33322
33336
33331
33341
33368
33405
33371
33390
33427
33410
33389
33430
33406
33414
33409
33388
33387
33368
33374
33398
33386
33347
33355
33323
33332
33276
33289
33274
33299
33260
33300
33272
33237
33223
33242
33249
33271
33250
33265
33249
33245
33228
33200
33180
33171
33156
33169
33134
33104
33156
33142
33161
33155
33189
33175
33203
33204
33222
33244
33205
33256
33208
33172
33165
33119
33082
33033
33041
33013
33025
32947
32962
32972
32958
32953
32949
32943
32966
32939
32945
32919
32907
32881
32887
32864
32836
32815
32797
32842
32828
32793
32795
32815
32786
32826
32840
32818
32836
32850
32866
32857
32846
32861
32868
32858
32861
32860
32894
32829
32832
32837
32815
32839
32836
32840
32818
32850
32809
32787
32756
32773
32752
32748
32730
32715
32687
32678
32662
32674
32667
32627
32603
32623
32612
32576
32635
32629
32617
32566
32583
32623
32566
32597
32610
32616
32621
32613
32661
32617
32647
32663
32671
32676
32681
32714
32740
32703
32738
32780
32782
32804
32824
32892
32971
32987
33044
33098
33143
33176
33228
33270
33322
33316
33364
33388
33416
33420
33448
33439
33458
33464
33472
33447
33426
33456
33415
33394
33384
33375
33381
33313
33335
33325
33294
33303
33269
33247
33252
33215
33233
33241
33218
33188
33221
33234
33163
33165
33174
33177
33163
33157
33145
33150
33172
33157
33171
33141
33118
33136
33128
33070
33099
33093
33095
33078
33104
33027
33055
33039
33059
33054
32993
32965
32996
32974
32958
32939
32941
32928
32897
32946
32948
32935
32933
32936
32958
32937
32929
32899
32898
32850
32838
32819
32797
32800
32844
32783
32820
32788
32833
32834
32787
32776
32787
32835
32753
32794
32771
32766
32771
32736
32739
32762
32740
32751
32718
32682
32640
32628
32617
32539
32526
32498
32497
32450
32422
32424
32400
32339
32385
32374
32384
32352
32371
32372
32308
32345
32331
32327
32296
32318
32292
32339
32293
32278
32306
32234
32249
32248
32220
32232
32208
32207
32205
32170
32179
32215
32211
32143
32175
32143
32146
32099
32064
32091
32080
32067
32083
32029
32022
32006
32012
32001
31983
31985
32003
32052
32029
32034
32053
32054
32072
32126
32140
32130
32177
32169
32212
32221
32252
32253
32267
32254
32325
32303
32332
32342
32385
32433
32484
32483
32562
32639
32690
32775
32837
32942
32965
33047
33151
33155
33199
33233
33267
33304
33331
33338
33398
33413
33406
33391
33442
33420
33424
33440
33435
33394
33381
33404
33356
33376
33356
33359
33383
33382
33368
33365
33367
33350
33340
33369
33310
33311
33301
33306
33340
33324
33308
33322
33306
33265
33334
33325
33342
33333
33403
33335
33361
33401
33349
33385
33410
33394
33410
33409
33368
33417
33368
33376
33399
33395
33385
33391
33357
33380
33364
33381
33400
33358
33407
33397
33386
33367
33380
33371
33353
33370
33381
33392
33380
33339
33367
33359
33318
33328
33329
33342
33301
33298
33266
33254
33236
33208
33225
33184
33158
33173
33159
33124
33128
33137
33118
33102
33074
33097
33066
33039
33009
33025
33016
32991
32995
32973
32957
32954
32943
32956
32901
32904
32894
32853
32831
32791
32766
32728
32685
32654
32630
32573
32532
32527
32496
32482
32462
32472
32470
32418
32432
32402
32358
32360
32344
32354
32312
32314
32323
32314
32277
32256
32277
32282
32239
32237
32237
32232
32206
32212
32194
32170
32158
32182
32158
32146
32180
32167
32157
32158
32152
32155
32199
32178
32181
32206
32194
32235
32260
32294
32298
32337
32353
32384
32391
32411
32455
32482
32500
32543
32596
32586
32665
32704
32724
32738
32798
32811
32864
32883
32958
32979
33029
33082
33125
33210
33216
33241
33327
33400
33424
33460
33505
33555
33572
33587
33600
33590
33618
33623
33628
33624
33621
33611
33598
33593
33598
33568
33571
33545
33547
33563
33579
33561
33591
33574
33584
33575
33604
33584
33560
33552
33541
33551
33514
33497
33514
33511
33505
33500
33459
33483
33487
33433
33432
33456
33443
33424
33413
33396
33400
33385
33421
33408
33388
33396
33382
33359
33357
33401
33345
33326
33318
33312
33305
33316
33271
33288
33316
33288
33302
33287
33288
33281
33290
33328
33287
33296
33338
33283
33294
33291
33299
33273
33294
33294
33299
33278
33278
33310
33297
33276
33298
33281
33296
33232
33227
33236
33213
33215
33188
33176
33170
33170
33197
33171
33153
33150
33128
33077
33076
33082
33073
33027
33004
32977
32998
32949
32947
32952
32940
32899
32874
32868
32876
32847
32817
32841
32778
32809
32771
32792
32776
32782
32773
32749
32716
32699
32691
32661
32653
32623
32616
32614
32642
32626
32617
32585
32603
32617
32551
32514
32538
32489
32462
32441
32409
32440
32403
32411
32362
32401
32407
32429
32440
32459
32436
32449
32458
32467
32519
32512
32539
32566
32568
32601
32606
32644
32626
32637
32659
32688
32684
32714
32742
32785
32852
32884
32968
33012
33102
33154
33188
33270
33326
33375
33416
33440
33493
33515
33535
33567
33565
33538
33516
33565
33534
33540
33551
33516
33499
33477
33495
33484
33464
33465
33472
33479
33465
33446
33465
33428
33416
33418
33441
33441
33404
33403
33378
33375
33381
33370
33323
33322
33304
33356
33337
33347
33357
33328
33278
33325
33328
33320
33288
33318
33293
33285
33244
33243
33273
33240
33241
33246
33247
33257
33256
33241
33243
33244
33220
33182
33150
33140
33128
33082
33056
33033
32992
32982
32966
32941
32949
32907
32861
32876
32861
32854
32833
32790
32804
32780
32724
32742
32752
32738
32730
32782
32776
32779
32831
32834
32830
32817
32830
32864
32862
32820
32824
32828
32805
32783
32768
32790
32745
32714
32702
32695
32639
32589
32617
32581
32549
32550
32519
32485
32520
32500
32479
32460
32467
32467
32440
32429
32418
32420
32411
32395
32380
32358
32363
32362
32396
32380
32374
32432
32447
32430
32464
32478
32540
32531
32504
32526
32508
32463
32441
32452
32390
32404
32399
32406
32386
32370
32340
32348
32410
32395
32393
32418
32424
32410
32450
32451
32475
32479
32529
32543
32575
32612
32654
32668
32673
32734
32718
32739
32759
32754
32785
32817
32855
32916
32943
32949
32982
33005
33056
33102
33132
33179
33241
33276
33346
33419
33430
33466
33512
33556
33565
33538
33635
33638
33699
33712
33736
33708
33727
33759
33754
33821
33779
33772
33772
33788
33767
33750
33755
33746
33771
33759
33764
33725
33700
33675
33627
33676
33602
33627
33592
33551
33542
33524
33488
33517
33480
33456
33425
33417
33423
33444
33366
33348
33350
33316
33316
33363
33350
33340
33328
33281
33329
33281
33309
33297
33277
33250
33285
33228
33217
33261
33216
33195
33176
33154
33159
33120
33071
33090
33080
33046
33038
33029
33055
33023
33036
33028
33038
33006
33058
33013
33034
32992
32993
32948
32982
32937
32915
32926
32892
32897
32891
32878
32851
32864
32874
32856
32877
32849
32873
32864
32866
32880
32833
32841
32840
32796
32815
32820
32803
32782
32792
32766
32753
32746
32725
32759
32776
32773
32729
32746
32764
32758
32725
32702
32721
32728
32712
32682
32670
32685
32648
32640
32651
32629
32641
32647
32659
32612
32607
32603
32617
32618
32629
32611
32607
32566
32584
32535
32518
32499
32491
32510
32466
32476
32439
32446
32435
32408
32398
32423
32381
32391
32428
32438
32457
32453
32509
32521
32541
32556
32551
32555
32553
32593
32583
32545
32551
32539
32564
32576
32640
32677
32729
32768
32859
32876
32941
33015
33075
33147
33178
33259
33261
33266
33280
33276
33337
33324
33336
33353
33415
33427
33463
33527
33527
33518
33540
33557
33546
33561
33527
33534
33530
33490
33488
33447
33404
33394
33384
33396
33375
33387
33388
33358
33376
33368
33371
33345
33349
33412
33387
33363
33380
33381
33391
33378
33426
33413
33423
33406
33418
33423
33390
33417
33394
33443
33411
33431
33434
33434
33421
33437
33454
33434
33420
33430
33396
33390
33370
33355
33397
33378
33360
33382
33372
33332
33361
33342
33324
33322
33320
33306
33279
33285
33263
33292
33269
33273
33263
33293
33245
33233
33261
33230
33203
33242
33229
33201
33171
33177
33169
33124
33099
33113
33133
33087
33113
33100
33089
33099
33079
33054
33014
33032
32956
32961
32904
32855
32811
32788
32744
32703
32697
32653
32592
32615
32552
32558
32534
32548
32541
32549
32566
32538
32518
32507
32567
32561
32530
32528
32527
32520
32477
32483
32471
32428
32393
32362
32384
32352
32374
32380
32392
32420
32398
32400
32436
32423
32418
32406
32413
32383
32366
32355
32335
32309
32323
32317
32323
32269
32300
32278
32259
32244
32276
32277
32300
32279
32301
32322
32354
32344
32375
32381
32364
32398
32416
32452
32430
32431
32511
32516
32543
32574
32620
32668
32676
32750
32817
32854
32914
32965
33013
33044
33116
33144
33156
33236
33248
33296
33335
33338
33402
33389
33402
33388
33386
33402
33357
33382
33398
33402
33382
33358
33361
33361
33346
33318
33358
33314
33296
33276
33284
33276
33259
33262
33251
33234
33259
33262
33285
33237
33253
33263
33250
33267
33284
33278
33294
33312
33328
33266
33319
33302
33300
33284
33304
33249
33268
33261
33202
33263
33238
33213
33249
33208
33226
33222
33239
33215
33165
33177
33158
33120
33132
33081
33071
33067
33017
33054
33053
32994
33031
33018
33001
32971
33010
33007
32994
32983
32972
32961
32979
32957
32941
32964
32940
32914
32912
32939
32903
32872
32890
32855
32829
32833
32842
32823
32816
32797
32793
32760
32738
32758
32719
32724
32690
32684
32655
32640
32642
32624
32589
32578
32581
32542
32565
32535
32553
32517
32505
32498
32446
32452
32393
32406
32368
32381
32312
32321
32338
32309
32320
32307
32310
32271
32273
32320
32306
32244
32258
32231
32211
32137
32158
32130
32129
32116
32093
32088
32072
32086
32068
32051
32051
32080
32043
32059
32046
32065
32068
32068
32044
32061
32066
32090
32145
32128
32182
32216
32217
32243
32272
32257
32281
32340
32344
32337
32392
32394
32418
32495
32523
32604
32664
32674
32762
32819
32867
32915
32975
33008
33077
33081
33134
33168
33149
33180
33237
33201
33211
33227
33212
33232
33200
33238
33232
33200
33163
33189
33167
33150
33133
33157
33097
33116
33123
33131
33152
33114
33156
33167
33121
33164
33187
33146
33157
33143
33122
33153
33067
33083
33111
33082
33098
33114
33094
33094
33148
33131
33108
33153
33152
33088
33115
33107
33098
33120
33076
33057
33072
33049
33055
33069
33050
33029
33048
33063
33042
33042
33030
33034
33025
32995
33028
32990
32976
32976
32998
32975
32968
32955
32961
32979
32960
32981
32981
32986
32936
32938
32947
32921
32903
32892
32875
32881
32845
32876
32860
32839
32823
32822
32825
32775
32788
32788
32770
32737
32752
32742
32700
32684
32679
32657
32654
32609
32623
32595
32543
32520
32530
32489
32441
32443
32428
32387
32376
32359
32348
32339
32292
32282
32269
32254
32230
32251
32245
32193
32196
32201
32182
32159
32137
32142
32147
32138
32129
32119
32134
32096
32108
32120
32098
32067
32097
32070
32053
32056
32071
32080
32059
32041
32078
32055
32069
32088
32105
32088
32085
32145
32145
32116
32163
32150
32185
32197
32189
32245
32288
32313
32345
32328
32348
32382
32467
32471
32535
32559
32596
32583
32664
32717
32779
32761
32828
32922
32967
33002
33041
33054
33110
33073
33127
33145
33177
33211
33190
33225
33238
33247
33214
33208
33207
33232
33171
33160
33158
33151
33125
33137
33138
33106
33119
33089
33106
33104
33096
33106
33117
33154
33113
33133
33139
33103
33120
33071
33078
33070
33050
33029
32999
33020
33022
32994
33063
33041
33022
33064
33036
33059
33081
33101
33085
33068
33069
33061
33079
33059
33074
33028
33058
33051
33032
33053
33031
33024
33021
33045
33045
33043
33059
33072
33060
33094
33089
33088
33086
33074
33078
33033
33043
33070
33026
33029
32988
33037
33028
33000
33022
33013
33008
32969
32996
33004
32950
32943
32934
32939
32912
32890
32906
32908
32859
32872
32868
32891
32870
32876
32885
32854
32887
32865
32887
32817
32846
32835
32830
32827
32802
32778
32797
32766
32763
32764
32736
32751
32733
32754
32745
32701
32747
32717
32705
32733
32710
32694
32698
32671
32666
32637
32601
32560
32562
32540
32512
32493
32471
32461
32441
32402
32412
32376
32406
32377
32342
32353
32303
32313
32287
32273
32262
32284
32246
32255
32300
32270
32256
32281
32271
32239
32250
32261
32306
32257
32269
32297
32285
32290
32326
32312
32340
32348
32364
32403
32388
32402
32477
32474
32472
32524
32578
32566
32650
32642
32730
32799
32834
32924
32971
32998
33068
33105
33144
33151
33181
33197
33242
33235
33234
33265
33275
33219
33214
33237
33219
33211
33193
33195
33180
33149
33168
33164
33165
33176
33179
33200
33189
33200
33196
33207
33181
33207
33203
33203
33176
33176
33185
33143
33131
33121
33132
33106
33152
33148
33109
33099
33093
33115
33098
33106
33118
33113
33112
33093
33095
33100
33086
33058
33081
33095
33053
33078
33069
33032
33017
33002
32990
32972
32974
32987
32980
32964
32946
32923
32935
32889
32916
32890
32886
32890
32881
32907
32868
32824
32874
32866
32870
32857
32846
32880
32890
32828
32841
32835
32797
32818
32747
32774
32752
32704
32697
32695
32661
32647
32664
32610
32604
32613
32601
32599
32597
32576
32594
32531
32589
32571
32548
32534
32561
32541
32522
32482
32480
32449
32440
32404
32410
32348
32333
32367
32330
32255
32260
32294
32268
32266
32255
32278
32227
32240
32202
32194
32176
32191
32191
32160
32092
32099
32123
32095
32109
32084
32114
32086
32069
32100
32084
32117
32100
32094
32112
32065
32133
32129
32122
32118
32113
32091
32111
32111
32067
32089
32067
32056
32055
32065
32046
32025
32072
32036
32062
32103
32108
32110
32132
32174
32184
32199
32243
32292
32311
32340
32379
32432
32462
32498
32557
32606
32695
32714
32771
32864
32917
32976
32994
33077
33098
33135
33182
33184
33198
33222
33273
33267
33272
33265
33264
33223
33232
33233
33212
33208
33179
33206
33206
33173
33184
33223
33190
33185
33216
33188
33202
33186
33204
33194
33216
33219
33201
33198
33213
33232
33207
33258
33238
33234
33251
33225
33227
33247
33253
33235
33228
33222
33220
33185
33195
33206
33210
33207
33203
33220
33220
33204
33203
33166
33222
33176
33203
33202
33176
33186
33138
33129
33149
33129
33153
33154
33173
33172
33175
33131
33096
33151
33143
33142
33135
33185
33187
33154
33152
33170
33127
33127
33093
33103
33090
33112
33079
33096
33102
33060
33077
33051
33024
33033
33031
33033
33006
32988
32995
32967
32936
32938
32912
32886
32912
32896
32874
32841
32845
32814
32819
32795
32795
32787
32793
32794
32772
32756
32730
32736
32712
32720
32649
32631
32633
32571
32553
32546
32522
32502
32485
32499
32478
32457
32456
32409
32394
32410
32390
32376
32367
32312
32333
32300
32276
32268
32258
32234
32257
32184
32208
32196
32166
32140
32173
32152
32134
32105
32111
32109
32107
32111
32106
32109
32093
32137
32113
32124
32111
32134
32125
32149
32148
32186
32162
32164
32196
32206
32251
32232
32265
32277
32311
32320
32355
32328
32397
32435
32483
32504
32551
32642
32694
32735
32813
32905
32975
33007
33064
33113
33133
33177
33221
33218
33215
33224
33267
33276
33256
33248
33246
33245
33260
33261
33246
33234
33218
33204
33224
33215
33212
33249
33272
33258
33252
33290
33297
33273
33296
33317
33287
33313
33370
33325
33314
33337
33367
33364
33367
33326
33324
33349
33304
33315
33264
33268
33238
33229
33191
33214
33163
33196
33172
33171
33164
33159
33214
33172
33191
33161
33188
33140
33177
33167
33159
33134
33157
33149
33140
33132
33171
33151
33123
33136
33154
33117
33126
33102
33073
33046
33013
32987
32984
32918
32921
32899
32901
32841
32861
32878
32817
32815
32831
32836
32830
32818
32824
32824
32776
32792
32815
32785
32748
32751
32709
32713
32664
32640
32659
32619
32614
32620
32640
32620
32603
32599
32632
32605
32593
32610
32638
32651
32650
32657
32651
32654
32623
32667
32609
32680
32672
32669
32654
32652
32699
32687
32666
32729
32797
32805
32799
32805
32851
32800
32806
32816
32787
32748
32782
32735
32709
32703
32667
32663
32652
32659
32686
32675
32682
32660
32684
32707
32678
32694
32702
32718
32739
32701
32741
32752
32741
32790
32804
32767
32848
32848
32886
32907
32948
32980
32999
32987
33013
33072
33113
33125
33211
33220
33285
33295
33297
33331
33326
33374
33374
33386
33378
33391
33387
33438
33440
33519
33556
33590
33638
33665
33733
33726
33746
33806
33803
33770
33804
33784
33784
33785
33732
33736
33686
33674
33654
33654
33625
33649
33696
33672
33725
33718
33716
33690
33640
33657
33663
33657
33642
33693
33644
33588
33579
33600
33619
33564
33604
33612
33549
33552
33562
33520
33539
33495
33464
33498
33431
33441
33465
33435
33431
33390
33397
33377
33372
33351
33332
33336
33327
33316
33315
33254
33273
33263
33295
33239
33228
33262
33242
33237
33241
33263
33245
33251
33276
33274
33275
33306
33266
33278
33302
33306
33305
33299
33271
33246
33265
33247
33213
33232
33205
33151
33164
33169
33154
33147
33116
33104
33086
33043
33080
33081
33097
33058
33039
33055
33024
33012
33018
33026
32999
33003
33014
32993
32963
32940
32946
32930
32874
32870
32862
32847
32798
32765
32772
32754
32720
32680
32695
32674
32682
32639
32626
32636
32607
32603
32576
32521
32526
32465
32426
32379
32375
32350
32313
32310
32271
32233
32146
32160
32103
32076
32068
32056
32044
32032
31997
31990
31958
31971
31967
31988
31977
31985
32008
32002
31974
31962
31961
31963
31967
32002
32059
32057
32087
32113
32168
32177
32203
32199
32254
32277
32292
32323
32354
32356
32377
32441
32494
32521
32608
32641
32713
32760
32825
32871
32919
32973
33001
33014
33022
33106
33111
33139
33095
33145
33155
33146
33170
33155
33138
33114
33125
33110
33158
33100
33109
33165
33163
33147
33161
33197
33138
33109
33145
33158
33116
33078
33110
33130
33111
33103
33159
33124
33113
33118
33126
33120
33118
33098
33102
33118
33109
33136
33151
33134
33144
33178
33210
33169
33167
33242
33203
33238
33255
33239
33264
33256
33228
33234
33219
33243
33213
33199
33182
33206
33165
33169
33141
33119
33135
33104
33126
33129
33117
33072
33078
33082
33067
33052
33015
33024
33000
32972
32961
32948
32934
32934
32951
32957
32906
32919
32887
32900
32845
32819
32803
32760
32721
32704
32688
32621
32605
32559
32542
32427
32489
32440
32405
32389
32369
32372
32339
32341
32305
32316
32316
32293
32288
32270
32249
32247
32219
32212
32174
32150
32134
32111
32055
32069
32026
32005
32024
32013
31967
32015
31979
31968
31989
31966
31965
32001
31992
31974
31984
31970
31940
31944
31951
31949
31944
31906
31923
31891
31857
31915
31896
31908
31886
31933
31898
31913
31916
31977
31961
32010
32001
32030
32022
32018
32063
32081
32095
32134
32171
32189
32190
32244
32244
32317
32286
32340
32365
32353
32414
32395
32467
32519
32525
32571
32642
32694
32753
32811
32895
32957
32991
33062
33097
33147
33188
33233
33276
33278
33277
33318
33299
33322
33312
33305
33286
33263
33276
33221
33196
33222
33188
33168
33180
33158
33159
33134
33149
33116
33119
33109
33089
33108
33111
33093
33121
33103
33104
33085
33071
33074
33056
33047
33032
33036
33026
33058
33049
33061
33035
33054
33068
33091
33044
33021
33073
33012
33037
33028
33009
33022
32994
32983
33001
32968
32970
32974
32939
32944
32902
32905
32922
32874
32896
32889
32863
32865
32873
32888
32875
32906
32891
32871
32852
32860
32828
32783
32765
32777
32791
32775
32693
32731
32727
32712
32715
32741
32741
32749
32712
32730
32761
32699
32703
32708
32654
32630
32596
32630
32555
32555
32544
32506
32472
32444
32430
32431
32376
32409
32365
32349
32337
32343
32344
32278
32298
32286
32265
32247
32255
32224
32250
32217
32213
32190
32155
32150
32107
32117
32062
32043
32030
32052
32028
31962
31987
31967
31951
31926
31937
31934
31913
31906
31904
31882
31856
31834
31794
31742
31754
31752
31715
31675
31663
31618
31624
31599
31615
31601
31641
31638
31658
31645
31642
31663
31706
31718
31705
31807
31797
31857
31863
31908
31947
32000
31989
32026
32066
32037
32093
32116
32127
32140
32174
32225
32229
32274
32320
32349
32425
32495
32583
32638
32700
32778
32861
32902
32985
33016
33040
33116
33137
33164
33205
33185
33232
33219
33212
33248
33160
33205
33221
33182
33209
33180
33167
33129
33137
33143
33134
33122
33120
33106
33116
33104
33085
33089
33061
33063
33068
33049
33014
33000
33046
32989
32977
32998
32970
32964
32972
32951
32983
32957
32943
32984
32969
32931
32966
32941
32880
32905
32891
32911
32883
32863
32865
32885
32900
32902
32924
32934
32894
32902
32895
32903
32879
32871
32902
32860
32853
32837
32829
32839
32820
32821
32795
32790
32799
32808
32794
32774
32792
32766
32751
32730
32759
32717
32724
32725
32714
32708
32685
32678
32661
32648
32662
32649
32613
32639
32583
32584
32586
32560
32578
32570
32570
32541
32561
32562
32498
32508
32467
32456
32438
32421
32411
32393
32371
32375
32363
32355
32361
32378
32392
32384
32381
32401
32345
32336
32339
32272
32294
32250
32259
32204
32164
32197
32178
32172
32161
32185
32150
32204
32174
32158
32137
32132
32096
32103
32042
32038
32025
31994
32021
32009
31997
32038
32015
31994
32025
32046
32054
32075
32065
32067
32090
32112
32113
32121
32076
32081
32081
32093
32086
32040
32079
32078
32064
32079
32132
32148
32142
32217
32237
32271
32307
32346
32375
32399
32392
32496
32513
32528
32636
32685
32723
32791
32853
32948
32989
32998
33073
33079
33116
33159
33183
33216
33231
33205
33222
33223
33238
33223
33234
33194
33203
33182
33195
33187
33153
33199
33181
33169
33222
33189
33185
33187
33198
33196
33181
33194
33196
33222
33210
33208
33198
33212
33210
33189
33195
33177
33184
33143
33154
33105
33086
33085
33054
33069
33039
33066
33056
33041
33058
33001
33014
32954
32971
32909
32967
32935
32924
32934
32966
32954
32944
33012
32993
33022
33018
33032
33047
33031
33088
33057
33041
33056
33064
32987
33006
32969
32976
32941
32911
32904
32908
32868
32840
32830
32830
32781
32806
32783
32751
32718
32679
32665
32691
32641
32614
32658
32610
32562
32584
32557
32515
32543
32556
32521
32460
32479
32441
32384
32371
32379
32371
32360
32371
32324
32309
32296
32252
32230
32193
32141
32127
32112
32023
31978
31943
31917
31833
31805
31771
31755
31750
31724
31727
31704
31668
31718
31689
31695
31691
31705
31694
31694
31675
31694
31662
31592
31553
31547
31502
31464
31443
31481
31427
31439
31484
31474
31461
31476
31472
31526
31560
31588
31564
31590
31604
31643
31668
31658
31660
31714
31704
31720
31724
31741
31767
31780
31837
31842
31903
31910
31980
31995
32061
32104
32135
32206
32242
32339
32373
32480
32565
32614
32724
32743
32788
32839
32849
32887
32905
32926
32877
32887
32884
32877
32885
32850
32890
32868
32912
32885
32916
32882
32890
32868
32864
32887
32869
32872
32879
32872
32855
32880
32865
32890
32878
32865
32872
32903
32873
32865
32870
32895
32871
32857
32866
32833
32823
32816
32779
32813
32775
32772
32739
32813
32781
32770
32748
32774
32804
32812
32777
32782
32798
32779
32780
32714
32724
32676
32647
32619
32626
32623
32590
32604
32601
32570
32561
32547
32600
32561
32580
32578
32582
32589
32608
32612
32629
32596
32628
32604
32578
32579
32593
32554
32515
32448
32439
32386
32362
32362
32333
32296
32245
32215
32211
32190
32183
32180
32130
32166
32147
32178
32164
32152
32152
32144
32151
32148
32133
32113
32099
32061
32088
32056
32035
31987
31970
31991
31965
31957
31985
31949
31969
31985
31977
31966
31974
31965
31947
31892
31886
31932
31876
31869
31854
31892
31857
31843
31858
31868
31855
31863
31848
31861
31818
31832
31847
31808
31789
31804
31807
31785
31802
31813
31800
31822
31803
31837
31958
31919
31954
31958
32018
32043
32028
32096
32111
32140
32197
32225
32242
32300
32309
32343
32385
32380
32393
32416
32456
32488
32523
32601
32669
32774
32814
32884
32976
32961
33082
33076
33134
33184
33227
33237
33266
33327
33329
33320
33345
33332
33339
33333
33349
33333
33310
33327
33279
33259
33233
33263
33242
33229
33224
33212
33251
33193
33218
33193
33222
33188
33165
33193
33182
33133
33163
33156
33126
33115
33074
33074
33068
33047
33050
33066
33049
33069
33061
33033
32995
33006
33003
32954
33010
33004
33016
33028
32984
33011
33061
33018
33014
33067
33068
33052
33050
33084
33045
33023
33040
33054
33039
32981
32970
32963
32959
32928
32910
32923
32906
32893
32863
32920
32868
32834
32859
32813
32774
32775
32785
32725
32750
32786
32771
32788
32765
32736
32751
32792
32780
32818
32825
32841
32899
32870
32842
32884
32844
32860
32865
32849
32853
32819
32827
32814
32825
32775
32782
32777
32764
32754
32752
32763
32770
32717
32681
32685
32654
32639
32614
32589
32593
32546
32509
32447
32401
32402
32367
32383
32351
32317
32298
32309
32292
32225
32238
32205
32168
32171
32144
32173
32148
32116
32094
32123
32057
32039
32034
32044
32010
31983
31966
31950
31925
31877
31901
31864
31877
31866
31852
31841
31829
31841
31844
31882
31863
31911
31879
31908
31929
31960
31993
32041
32086
32101
32164
32196
32207
32256
32269
32315
32341
32374
32435
32505
32546
32636
32679
32756
32795
32888
32878
32914
32942
32977
32969
32991
32951
32984
33005
32986
32981
32990
33004
32986
33003
32969
32984
32988
32990
33009
33048
33032
33032
33066
33033
33016
33023
33027
33043
33009
33041
33065
33078
33065
33118
33109
33138
33161
33163
33204
33172
33177
33196
33179
33183
33187
33190
33166
33169
33180
33197
33188
33140
33160
33079
33071
33087
33076
33023
33019
33072
33072
33067
33123
33152
33147
33187
33226
33303
33349
33380
33434
33488
33487
33537
33582
33557
33585
33596
33597
33576
33542
33555
33500
33444
33442
33452
33458
33402
33359
33382
33373
33370
33376
33415
33377
33408
33419
33411
33402
33403
33381
33395
33399
33390
33360
33343
33274
33267
33257
33217
33155
33171
33101
33077
32998
32961
32892
32825
32762
32702
32670
32550
32540
32492
32414
32345
32327
32283
32243
32221
32220
32181
32154
32121
32117
32106
32057
32078
32066
32035
32019
32006
32033
32014
32014
32010
32000
32012
31989
32020
31962
31967
31941
31942
31934
31937
31938
31978
31984
31977
32000
32020
32009
32007
31989
32026
32019
32028
32059
32026
32062
32038
32072
32071
32096
32084
32112
32133
32156
32187
32250
32264
32302
32350
32453
32451
32550
32640
32719
32793
32868
32951
33012
33059
33163
33245
33249
33296
33345
33407
33377
33453
33462
33515
33548
33565
33575
33562
33552
33562
33560
33487
33498
33507
33491
33453
33456
33415
33395
33374
33384
33366
33368
33388
33376
33363
33387
33357
33384
33417
33365
33424
33415
33440
33431
33432
33451
33491
33511
33492
33518
33509
33501
33499
33510
33458
33404
33423
33385
33360
33326
33313
33287
33254
33263
33248
33241
33211
33211
33231
33253
33220
33197
33208
33199
33209
33201
33224
33239
33268
33282
33277
33246
33290
33316
33306
33327
33290
33306
33308
33317
33339
33280
33277
33296
33273
33287
33256
33249
33242
33217
33166
33174
33114
33135
33089
33091
33050
33004
33046
32983
32975
32945
32947
32913
32924
32944
32989
32982
32987
33025
33073
33094
33093
33117
33097
33091
33087
33034
33046
33034
33005
32970
32965
32909
32894
32886
32883
32833
32885
32855
32810
32800
32773
32756
32704
32659
32686
32649
32611
32593
32604
32612
32566
32587
32555
32541
32502
32481
32483
32438
32383
32390
32366
32353
32347
32332
32360
32348
32349
32368
32360
32355
32370
32362
32381
32393
32381
32383
32414
32419
32425
32430
32408
32425
32456
32455
32495
32537
32562
32597
32604
32708
32717
32735
32776
32871
32899
32932
33023
33091
33088
33146
33206
33235
33296
33353
33379
33434
33448
33477
33448
33447
33488
33516
33537
33528
33527
33506
33508
33454
33460
33426
33418
33392
33422
33414
33451
33416
33431
33452
33410
33386
33386
33376
33347
33372
33328
33337
33349
33366
33362
33365
33348
33339
33354
33367
33306
33372
33330
33334
33328
33312
33327
33321
33279
33315
33303
33291
33277
33285
33273
33273
33262
33329
33301
33259
33288
33293
33240
33237
33260
33237
33250
33254
33219
33226
33226
33213
33235
33202
33199
33247
33245
33237
33211
33223
33208
33143
33130
33106
33080
33022
33022
32998
32991
32985
32953
32962
32938
32955
32981
32968
32960
32946
32933
32858
32839
32775
32756
32756
32741
32784
32790
32794
32844
32827
32847
32817
32787
32780
32743
32707
32720
32664
32640
32559
32580
32545
32472
32493
32477
32460
32442
32456
32468
32416
32434
32425
32448
32473
32424
32417
32415
32338
32352
32317
32311
32275
32267
32222
32224
32180
32210
32187
32174
32174
32198
32102
32146
32109
32128
32124
32079
32117
32097
32117
32107
32164
32172
32143
32188
32163
32187
32157
32218
32212
32206
32263
32272
32308
32348
32393
32396
32440
32479
32496
32521
32538
32618
32602
32663
32728
32744
32802
32856
32896
32958
33047
33165
33177
33254
33297
33379
33450
33472
33489
33481
33513
33546
33539
33552
33514
33551
33564
33564
33546
33534
33513
33476
33499
33503
33478
33483
33474
33459
33470
33439
33453
33495
33475
33440
33497
33510
33471
33441
33437
33471
33446
33409
33455
33403
33425
33449
33462
33425
33411
33394
33424
33394
33403
33396
33387
33349
33351
33352
33356
33357
33336
33352
33338
33317
33333
33343
33297
33310
33308
33263
33295
33297
33283
33266
33249
33249
33231
33270
33214
33222
33210
33203
33191
33203
33193
33174
33181
33189
33189
33167
33167
33153
33158
33148
33130
33160
33129
33096
33123
33078
33070
33050
33016
33007
32996
33037
33010
32986
32987
32947
33010
32947
32979
32959
32970
32929
32942
32950
32956
32952
32911
32903
32895
32872
32864
32853
32855
32840
32825
32844
32811
32832
32800
32784
32799
32766
32778
32779
32756
32727
32745
32694
32684
32696
32655
32628
32622
32597
32602
32545
32570
32549
32499
32509
32477
32478
32426
32418
32415
32394
32375
32343
32353
32388
32319
32343
32314
32329
32275
32302
32303
32289
32283
32281
32289
32283
32279
32341
32351
32354
32371
32402
32431
32436
32445
32453
32472
32438
32480
32511
32521
32532
32599
32623
32669
32710
32760
32838
32922
32997
33060
33113
33168
33221
33273
33281
33309
33404
33427
33452
33456
33520
33467
33502
33490
33505
33485
33511
33475
33476
33476
33472
33457
33482
33412
33431
33421
33429
33447
33415
33448
33428
33397
33435
33434
33421
33401
33409
33430
33453
33432
33441
33432
33379
33395
33416
33411
33418
33422
33408
33384
33377
33375
33386
33395
33424
33449
33464
33465
33484
33474
33459
33413
33426
33453
33416
33424
33426
33430
33430
33400
33401
33385
33384
33347
33388
33382
33353
33375
33364
33326
33346
33316
33344
33283
33328
33291
33315
33289
33297
33264
33266
33251
33246
33224
33236
33218
33234
33245
33228
33244
33241
33242
33242
33219
33245
33220
33228
33238
33202
33206
33172
33208
33207
33148
33154
33162
33145
33154
33108
33126
33091
33081
33053
33056
33025
33026
33028
32976
32970
32968
32949
32923
32938
32911
32899
32941
32894
32907
32896
32889
32887
32842
32842
32832
32825
32853
32811
32789
32788
32753
32735
32729
32698
32671
32676
32615
32597
32572
32546
32529
32515
32469
32472
32489
32484
32500
32453
32499
32501
32530
32531
32541
32609
32578
32590
32617
32660
32656
32658
32719
32696
32676
32723
32756
32754
32755
32832
32886
32927
32939
32995
33050
33076
33141
33178
33237
33299
33300
33353
33377
33418
33465
33519
33529
33597
33580
33608
33629
33609
33626
33634
33609
33621
33582
33627
33611
33590
33594
33551
33547
33570
33558
33502
33533
33539
33507
33499
33479
33513
33471
33464
33487
33494
33489
33493
33498
33515
33525
33497
33514
33525
33514
33498
33496
33508
33470
33483
33463
33445
33431
33451
33438
33413
33386
33411
33449
33393
33435
33410
33437
33398
33412
33402
33370
33401
33368
33356
33349
33344
33321
33330
33313
33300
33319
33286
33286
33287
33268
33292
33264
33250
33275
33264
33228
33232
33237
33237
33248
33243
33194
33187
33201
33162
33148
33130
33114
33103
33061
33074
33054
33029
33058
33019
33020
33006
32959
33024
32950
32962
32949
32919
32938
32879
32899
32843
32856
32814
32796
32788
32757
32723
32716
32720
32689
32650
32641
32611
32563
32564
32561
32500
32491
32446
32436
32435
32380
32333
32329
32324
32270
32259
32255
32208
32202
32144
32158
32109
32108
32116
32073
32049
32037
31975
31977
31916
31927
31899
31884
31866
31892
31872
31876
31890
31896
31934
31948
31974
31993
31983
31974
31965
31993
32010
32008
32033
32061
32080
32076
32104
32103
32099
32133
32152
32186
32158
32210
32235
32254
32245
32337
32389
32432
32477
32627
32680
32814
32864
33008
33051
33105
33158
33193
33257
33273
33292
33329
33320
33350
33350
33374
33339
33333
33356
33343
33325
33342
33360
33331
33341
33312
33317
33318
33258
33300
33317
33280
33319
33317
33278
33280
33246
33292
33228
33239
33247
33250
33240
33226
33246
33234
33225
33231
33251
33242
33248
33207
33226
33216
33243
33228
33224
33223
33192
33219
33178
33161
33145
33138
33147
33104
33096
33151
33081
33060
33031
33051
33030
33043
33054
33036
33065
33017
33011
33011
32984
32998
32991
32948
32904
32922
32907
32854
32891
32903
32866
32873
32873
32868
32881
32850
32856
32841
32840
32831
32801
32799
32766
32759
32791
32748
32709
32714
32672
32649
32636
32653
32619
32599
32584
32573
32542
32506
32503
32498
32500
32443
32468
32426
32434
32423
32386
32403
32388
32372
32333
32371
32295
32299
32292
32271
32249
32229
32219
32209
32233
32221
32206
32200
32203
32171
32152
32150
32135
32142
32135
32067
32071
32059
32052
32027
32028
32001
32016
31980
32036
31989
31987
31967
31963
31973
31976
32019
31997
32035
32023
32056
32046
32065
32054
32085
32081
32052
32132
32152
32158
32123
32168
32191
32216
32189
32231
32281
32282
32321
32338
32380
32418
32435
32488
32547
32556
32695
32746
32840
32900
32984
33082
33171
33201
33225
33295
33336
33373
33371
33409
33418
33407
33433
33419
33402
33407
33396
33390
33389
33386
33426
33400
33372
33403
33391
33397
33357
33337
33376
33365
33345
33328
33310
33313
33308
33295
33314
33295
33256
33278
33303
33276
33287
33298
33270
33246
33264
33273
33244
33254
33242
33233
33248
33219
33232
33214
33181
33225
33195
33220
33202
33165
33179
33199
33163
33167
33169
33187
33162
33193
33160
33146
33159
33138
33132
33102
33092
33107
33059
33077
33072
33057
33029
33023
33023
33016
33001
32988
33003
33004
33018
33038
33000
33004
33000
33010
33013
33007
33006
33006
32973
32954
32986
32987
32939
32961
32939
32889
32880
32887
32856
32807
32755
32750
32731
32702
32661
32675
32669
32661
32621
32632
32598
32628
32603
32674
32604
32588
32638
32569
32563
32508
32497
32484
32459
32439
32445
32457
32436
32417
32422
32431
32351
32378
32381
32330
32317
32313
32297
32309
32282
32253
32283
32252
32251
32215
32208
32184
32143
32128
32170
32116
32149
32126
32097
32070
32092
32122
32125
32097
32106
32105
32106
32138
32141
32153
32164
32206
32177
32174
32205
32235
32216
32257
32277
32281
32308
32289
32342
32392
32450
32447
32560
32558
32586
32682
32713
32829
32910
32984
33099
33124
33179
33203
33254
33299
33291
33287
33303
33307
33310
33313
33268
33313
33276
33301
33272
33269
33262
33251
33254
33276
33270
33292
33290
33280
33309
33301
33284
33283
33296
33270
33268
33268
33279
33252
33254
33211
33278
33221
33228
33247
33231
33210
33219
33207
33213
33172
33175
33219
33174
33146
33155
33160
33139
33119
33119
33135
33103
33125
33082
33104
33081
33073
33077
33031
33036
33016
33014
33004
32974
32982
32981
32974
32965
32951
32935
32914
32901
32885
32880
32870
32882
32861
32825
32866
32872
32877
32845
32849
32866
32897
32866
32876
32874
32887
32852
32881
32896
32887
32873
32872
32866
32836
32835
32819
32781
32809
32756
32750
32719
32726
32692
32678
32681
32641
32633
32656
32619
32670
32644
32598
32611
32641
32587
32592
32578
32563
32536
32499
32497
32464
32466
32448
32447
32442
32396
32401
32358
32371
32372
32334
32333
32306
32288
32270
32269
32237
32200
32160
32193
32179
32131
32085
32061
32022
32034
31990
31987
31959
31908
31863
31894
31849
31864
31820
31835
31766
31779
31787
31817
31836
31812
31879
31852
31865
31859
31932
31893
31860
31881
31906
31886
31924
31921
31945
31987
32018
32072
32130
32166
32200
32281
32362
32386
32476
32613
32697
32783
32839
32940
33028
33029
33089
33108
33113
33095
33097
33085
33070
33039
33063
33029
33046
33035
33041
33020
33018
33052
33025
33036
33032
33049
33073
33062
33043
33046
33030
33003
32992
33035
33015
33007
33070
33024
33032
33072
33032
33017
33080
33061
33044
33076
33039
33054
33048
33057
33074
33041
33053
33033
33030
33038
33048
33037
33027
33041
33040
33045
33081
33049
33050
33085
33058
33053
33059
33053
33063
33014
33023
33046
33027
33039
32998
33021
33021
33016
33025
33036
33035
32992
33045
33004
32996
32986
32990
32942
32949
32926
32880
32843
32824
32791
32764
32766
32752
32726
32702
32652
32655
32581
32592
32570
32569
32519
32529
32534
32473
32458
32449
32431
32397
32378
32324
32287
32281
32233
32206
32137
32102
32097
32072
32079
32058
32097
32010
32033
32038
32056
32014
32020
32031
32034
32002
31992
32040
31985
31993
32012
32009
31953
31946
31909
31854
31807
31802
31759
31728
31701
31634
31621
31606
31604
31609
31597
31572
31553
31557
31538
31529
31526
31517
31557
31518
31500
31542
31568
31593
31599
31631
31648
31634
31648
31648
31675
31649
31651
31705
31634
31691
31699
31733
31738
31807
31824
31832
31885
31938
31985
32048
32064
32126
32212
32305
32404
32501
32650
32731
32889
33011
33015
33103
33158
33195
33231
33240
33303
33284
33284
33294
33292
33283
33281
33250
33230
33194
33234
33266
33188
33200
33197
33207
33185
33170
33157
33163
33168
33131
33135
33168
33114
33154
33103
33103
33108
33085
33120
33132
33122
33138
33122
33162
33138
33150
33141
33118
33143
33120
33114
33086
33116
33107
33119
33107
33104
33088
33095
33058
33065
33047
33033
33018
33002
32972
32931
32974
32927
32932
32913
32881
32907
32876
32883
32887
32883
32869
32867
32858
32868
32865
32831
32860
32864
32852
32863
32845
32788
32765
32741
32734
32746
32728
32701
32642
32658
32626
32658
32638
32598
32575
32579
32545
32559
32524
32523
32473
32397
32393
32372
32373
32328
32307
32295
32272
32234
32230
32211
32175
32160
32165
32152
32130
32114
32116
32098
32099
32079
32041
32072
32043
32041
32007
31983
31986
32024
31988
31944
31943
31945
31922
31909
31960
31918
31909
31901
31892
31875
31840
31842
31775
31754
31755
31677
31675
31636
31631
31614
31634
31605
31596
31623
31630
31634
31639
31657
31670
31707
31682
31694
31695
31680
31726
31727
31762
31778
31803
31815
31808
31846
31871
31900
31912
32012
32029
32072
32152
32172
32247
32280
32401
32482
32577
32709
32789
32899
33006
33108
33144
33185
33233
33286
33300
33328
33332
33364
33311
33371
33317
33305
33340
33285
33244
33232
33260
33245
33198
33249
33220
33234
33202
33202
33242
33251
33253
33189
33231
33217
33204
33221
33235
33246
33208
33220
33224
33180
33213
33176
33157
33187
33157
33148
33152
33147
33147
33151
33159
33154
33160
33166
33157
33119
33134
33119
33101
33150
33105
33083
33089
33074
33073
33026
33033
33008
33014
32990
33016
32975
32987
32978
33035
32995
33004
32967
33019
33002
32968
32969
32961
32988
32977
32914
32951
32936
32922
32942
32880
32917
32873
32885
32891
32868
32867
32867
32910
32888
32872
32877
32897
32842
32866
32845
32867
32804
32764
32775
32730
32755
32718
32681
32638
32553
32527
32499
32368
32364
32277
32210
32203
32128
32101
32107
32065
32070
32033
32032
31991
32012
31960
31998
31993
31981
31944
31924
31936
31919
31859
31807
31852
31806
31793
31780
31800
31749
31721
31742
31744
31737
31745
31764
31785
31785
31822
31826
31834
31836
31857
31859
31864
31875
31942
31929
31929
31974
31988
31979
31986
31994
32000
32057
32056
32096
32174
32185
32208
32219
32274
32287
32358
32439
32543
32553
32635
32750
32778
32902
33031
33122
33234
33319
33422
33502
33539
33587
33607
33654
33692
33724
33761
33773
33759
33739
33752
33722
33695
33710
33657
33673
33655
33621
33614
33586
33569
33549
33531
33515
33504
33527
33480
33492
33496
33497
33459
33491
33498
33490
33445
33488
33437
33434
33422
33446
33421
33420
33450
33451
33469
33461
33477
33461
33486
33499
33498
33525
33490
33504
33507
33483
33506
33478
33493
33461
33473
33458
33450
33443
33427
33425
33435
33409
33425
33414
33395
33426
33389
33406
33410
33388
33397
33396
33398
33399
33383
33407
33396
33383
33377
33386
33368
33346
33335
33375
33332
33344
33315
33334
33329
33338
33341
33326
33353
33327
33349
33342
33341
33334
33300
33271
33247
33260
33269
33225
33229
33197
33195
33174
33149
33151
33153
33153
33155
33103
33119
33070
33098
33068
33048
33063
33057
33076
33029
33014
33024
33034
32987
32979
32959
32951
32923
32927
32911
32899
32880
32874
32872
32828
32864
32852
32797
32776
32761
32731
32708
32673
32660
32642
32661
32601
32586
32638
32610
32635
32677
32727
32730
32718
32739
32755
32766
32769
32792
32780
32816
32839
32835
32827
32856
32864
32877
32899
32916
32949
32997
33048
33072
33152
33175
33246
33316
33346
33420
33482
33508
33519
33552
33607
33645
33665
33720
33706
33706
33705
33671
33733
33731
33711
33669
33692
33681
33623
33629
33624
33618
33629
33629
33627
33631
33628
33616
33627
33599
33592
33612
33601
33581
33556
33549
33540
33538
33543
33532
33550
33545
33521
33564
33514
33509
33501
33531
33479
33509
33493
33514
33528
33511
33498
33512
33531
33510
33532
33541
33503
33526
33525
33508
33528
33522
33528
33484
33516
33517
33475
33482
33489
33513
33478
33489
33519
33489
33469
33463
33443
33421
33377
33380
33356
33350
33321
33307
33287
33316
33257
33286
33270
33254
33276
33250
33219
33199
33176
33203
33158
33156
33155
33101
33081
33037
33036
33032
32971
32948
32965
32927
32911
32866
32883
32823
32790
32768
32703
32644
32633
32595
32555
32519
32516
32464
32466
32430
32460
32439
32432
32431
32404
32399
32332
32362
32343
32335
32291
32273
32268
32226
32199
32183
32150
32144
32127
32139
32075
32066
32078
32089
32082
32088
32083
32060
32117
32090
32076
32109
32105
32104
32123
32111
32100
32160
32182
32169
32167
32179
32180
32202
32247
32219
32226
32221
32250
32274
32300
32359
32366
32479
32515
32546
32669
32721
32797
32927
32960
33039
33078
33158
33212
33276
33292
33319
33371
33385
33451
33438
33455
33504
33458
33463
33490
33441
33387
33344
33369
33326
33331
33280
33274
33253
33235
33214
33234
33215
33215
33230
33216
33195
33182
33178
33162
33161
33176
33197
33212
33238
33226
33236
33211
33232
33214
33241
33246
33252
33267
33257
33219
33220
33208
33173
33198
33204
33220
33222
33212
33234
33193
33173
33139
33119
33119
33116
33100
33122
33055
33036
32996
32980
32969
32937
32940
32953
32944
32970
33013
33021
33007
33009
33020
33008
32983
33002
33006
33007
32972
32983
32882
32815
32776
32759
32803
32820
32811
32822
32748
32639
32623
32634
32603
32654
32690
32680
32673
32638
32608
32550
32505
32482
32429
32417
32378
32334
32325
32311
32295
32266
32263
32249
32225
32202
32193
32174
32122
32134
32094
32081
32031
32012
31964
31938
31905
31914
31863
31891
31885
31895
31831
31840
31813
31822
31776
31778
31727
31687
31689
31681
31648
31661
31621
31609
31624
31638
31657
31663
31689
31670
31712
31713
31706
31686
31752
31778
31778
31800
31858
31869
31887
31897
31972
31992
32049
32072
32103
32113
32165
32218
32220
32243
32276
32311
32322
32373
32417
32509
32560
32620
32727
32772
32865
32940
32997
33016
33075
33067
33134
33127
33138
33190
33162
33141
33119
33154
33155
33106
33073
33082
33064
33096
33075
33099
33134
33080
33094
33127
33106
33129
33125
33104
33089
33101
33072
33075
33033
33029
33044
33022
32988
32945
32950
32995
32986
32988
32971
32976
32938
32948
32950
32925
32931
32959
32966
32929
32940
32915
32935
32953
32905
32944
32902
32889
32862
32804
32801
32747
32750
32742
32702
32690
32728
32701
32713
32696
32671
32706
32692
32692
32738
32706
32716
32739
32717
32741
32675
32701
32669
32690
32707
32695
32727
32728
32741
32720
32735
32705
32718
32712
32710
32686
32725
32668
32648
32635
32646
32636
32585
32603
32632
32560
32593
32552
32536
32461
32454
32388
32368
32347
32288
32313
32328
32310
32304
32306
32315
32314
32324
32364
32323
32372
32347
32335
32333
32362
32309
32321
32313
32298
32300
32304
32324
32353
32376
32377
32394
32391
32419
32373
32383
32389
32392
32410
32399
32421
32436
32452
32483
32479
32516
32564
32645
32647
32722
32713
32801
32808
32858
32936
33012
33028
33076
33131
33160
33199
33221
33274
33309
33363
33440
33486
33480
33540
33564
33587
33573
33648
33692
33737
33739
33779
33821
33780
33809
33790
33829
33804
33808
33809
33862
33813
33844
33796
33797
33696
33674
33679
33713
33710
33755
33736
33696
33638
33640
33562
33575
33640
33703
33725
33741
33699
33652
33596
33567
33568
33568
33545
33541
33497
33496
33502
33481
33480
33482
33473
33471
33491
33498
33451
33498
33475
33445
33454
33432
33435
33462
33457
33397
33415
33393
33412
33368
33375
33372
33370
33383
33396
33364
33329
33379
33363
33322
33324
33323
33295
33270
33284
33305
33349
33317
33317
33334
33292
33286
33277
33306
33285
33279
33295
33272
33286
33250
33242
33251
33247
33271
33230
33248
33260
33199
33227
33189
33201
33195
33203
33189
33193
33207
33216
33220
33216
33220
33224
33214
33224
33240
33246
33267
33284
33290
33277
33291
33276
33258
33252
33244
33269
33227
33266
33254
33237
33217
33201
33204
33213
33200
33176
33184
33195
33164
33138
33163
33143
33174
33155
33183
33146
33190
33215
33202
33193
33184
33214
33202
33183
33210
33222
33184
33216
33232
33252
33245
33284
33256
33277
33274
33264
33320
33327
33367
33396
33383
33418
33444
33489
33506
33518
33541
33581
33618
33624
33705
33741
33781
33818
33835
33844
33877
33926
33933
33950
33951
33951
33952
33937
33952
33918
33932
33893
33877
33876
33868
33869
33883
33875
33887
33864
33880
33851
33882
33895
33935
33898
33872
33904
33918
33911
33910
33898
33951
33931
33894
33931
33923
33931
33902
33912
33933
33924
33944
33938
33948
33940
33933
33940
33955
33948
33991
33975
33952
33994
33969
33968
33952
33953
33918
33958
33912
33890
33905
33894
33889
33870
33901
33908
33922
33892
33894
33857
33908
33891
33864
33869
33873
33842
33854
33841
33841
33843
33821
33844
33832
33855
33818
33857
33817
33800
33784
33804
33773
33781
33758
33758
33761
33756
33736
33715
33740
33710
33693
33716
33674
33662
33648
33636
33658
33626
33611
33560
33598
33557
33540
33546
33514
33484
33522
33501
33509
33468
33451
33476
33450
33439
33451
33463
33439
33457
33464
33423
33405
33395
33444
33405
33387
33408
33403
33419
33373
33422
33410
33382
33403
33365
33359
33321
33331
33316
33295
33277
33263
33264
33247
33252
33258
33278
33263
33280
33298
33348
33281
33335
33391
33359
33394
33395
33405
33393
33436
33449
33460
33492
33504
33555
33577
33616
33638
33654
33717
33743
33761
33826
33828
33869
33893
33895
33934
33929
33939
33972
33988
34006
34045
34039
34057
34068
34065
34100
34104
34103
34127
34116
34110
34117
34059
34056
34057
34046
34062
34046
34024
34052
34057
34084
34070
34093
34055
34099
34099
34082
34098
34106
34127
34137
34134
34149
34139
34194
34179
34195
34196
34197
34211
34205
34201
34199
34172
34196
34176
34133
34146
34145
34139
34146
34152
34120
34100
34099
34099
34052
34051
34028
34020
34001
33979
33980
34006
33951
33944
33936
33954
33949
33915
33938
33914
33918
33913
33929
33907
33901
33898
33888
33845
33857
33844
33825
33818
33825
33773
33753
33767
33763
33761
33721
33720
33729
33697
33682
33694
33669
33667
33635
33633
33628
33588
33611
33561
33586
33578
33535
33507
33538
33528
33497
33490
33489
33481
33473
33485
33476
33435
33442
33478
33436
33423
33436
33442
33434
33425
33438
33426
33389
33368
33427
33395
33368
33380
33371
33369
33363
33363
33347
33327
33324
33341
33299
33288
33250
33210
33197
33167
33151
33173
33161
33118
33115
33101
33129
33142
33147
33181
33192
33229
33258
33294
33290
33300
33339
33329
33337
33341
33353
33356
33335
33343
33402
33390
33421
33424
33428
33490
33502
33489
33515
33512
33529
33534
33591
33631
33673
33722
33757
33785
33852
33871
33928
33943
33940
33964
33915
33941
34014
34055
34098
34091
34098
34122
34122
34089
34132
34111
34069
34082
34072
34092
34087
34074
34049
34007
34060
34071
34024
34042
34048
34049
34044
34014
34031
34005
34019
34031
34002
33999
34011
34015
34017
34002
33972
33993
33988
34025
34011
34011
34002
33990
34000
34014
33997
34007
33981
33977
33954
33918
33922
33945
33909
33924
33912
33901
33922
33882
33894
33893
33900
33887
33890
33869
33847
33854
33831
33817
33829
33842
33857
33809
33797
33822
33812
33776
33799
33781
33760
33728
33707
33700
33698
33679
33675
33708
33670
33673
33711
33728
33671
33704
33714
33717
33708
33727
33729
33725
33713
33723
33708
33707
33673
33694
33676
33662
33673
33634
33644
33613
33624
33628
33622
33613
33601
33577
33582
33563
33553
33549
33528
33534
33502
33513
33457
33471
33480
33489
33452
33457
33500
33486
33483
33489
33519
33498
33508
33497
33496
33478
33484
33473
33480
33458
33475
33459
33419
33407
33439
33483
33439
33420
33421
33359
33355
33355
33330
33325
33379
33334
33345
33373
33374
33401
33385
33375
33395
33413
33449
33415
33457
33457
33487
33480
33490
33531
33540
33537
33532
33585
33563
33558
33626
33653
33661
33690
33720
33781
33790
33823
33851
33922
33922
33925
33943
33991
33967
34016
34051
34021
34056
34079
34091
34113
34107
34104
34106
34114
34104
34123
34122
34107
34096
34114
34095
34092
34091
34104
34062
34040
34055
34012
34042
34021
34039
34054
34039
34058
34044
34038
34027
34018
34015
33995
33994
33995
33969
33969
34019
33989
33983
33966
33967
33975
33972
33993
34005
33982
33944
33978
33943
33953
33938
33960
33994
33978
33990
34007
33999
33995
33973
33998
34001
33966
33990
33981
33951
33970
33980
33971
33972
33960
33942
33960
33936
33951
33949
33977
33939
33943
33963
33954
33944
33903
33913
33903
33908
33881
33899
33857
33863
33889
33845
33847
33862
33854
33829
33789
33828
33833
33835
33812
33803
33824
33781
33781
33754
33791
33741
33716
33704
33723
33685
33697
33699
33687
33658
33688
33682
33657
33602
33601
33583
33545
33533
33512
33514
33511
33488
33502
33495
33469
33475
33495
33488
33460
33479
33479
33466
33495
33445
33483
33491
33478
33470
33477
33467
33501
33481
33471
33461
33472
33447
33428
33401
33408
33379
33359
33336
33339
33311
33301
33292
33267
33216
33202
33236
33213
33212
33236
33238
33259
33267
33282
33357
33364
33408
33364
33394
33412
33437
33443
33447
33480
33504
33484
33562
33532
33553
33579
33572
33619
33634
33654
33656
33720
33728
33773
33813
33840
33860
33931
33939
33976
34002
34013
34021
34045
34047
34073
34043
34066
34064
34065
34091
34128
34153
34147
34200
34170
34210
34207
34235
34215
34215
34246
34235
34219
34220
34216
34194
34212
34220
34185
34185
34191
34182
34161
34194
34190
34181
34205
34183
34198
34188
34206
34203
34195
34185
34195
34159
34176
34194
34132
34181
34192
34183
34187
34147
34145
34126
34142
34098
34129
34116
34113
34096
34067
34080
34034
34027
34032
34019
34028
34021
34039
34013
34032
34058
34092
34111
34094
34076
34066
34068
34051
34026
34044
34049
34034
34023
34027
34043
34016
34037
34029
34034
34021
34000
33973
33967
33942
33942
33888
33880
33865
33843
33782
33820
33779
33814
33783
33778
33772
33762
33735
33714
33694
33677
33668
33662
33645
33622
33626
33630
33638
33609
33648
33621
33651
33629
33571
33598
33566
33545
33547
33531
33531
33544
33545
33537
33523
33539
33538
33533
33532
33544
33530
33517
33473
33479
33464
33447
33431
33446
33448
33398
33413
33419
33385
33383
33390
33392
33392
33339
33361
33344
33365
33369
33395
33421
33436
33443
33467
33464
33497
33494
33482
33461
33487
33462
33472
33482
33432
33457
33447
33444
33448
33484
33515
33512
33526
33521
33535
33571
33602
33655
33656
33674
33732
33749
33770
33826
33838
33891
33874
33950
33932
33950
33983
33999
34026
33971
33986
33989
34005
33969
33962
33932
33975
33939
33934
33934
33909
33925
33917
33885
33906
33872
33897
33903
33876
33879
33858
33859
33838
33821
33828
33856
33823
33827
33868
33849
33804
33811
33859
33820
33794
33840
33845
33834
33828
33820
33814
33833
33832
33851
33859
33826
33847
33866
33798
33849
33823
33848
33813
33839
33802
33817
33827
33808
33817
33821
33830
33857
33852
33865
33833
33846
33842
33799
33780
33826
33830
33806
33800
33801
33779
33785
33774
33785
33803
33778
33790
33808
33784
33779
33791
33762
33784
33784
33784
33807
33775
33778
33784
33734
33695
33703
33678
33725
33688
33677
33669
33668
33619
33662
33617
33627
33591
33584
33583
33592
33573
33566
33550
33558
33529
33546
33519
33508
33514
33524
33468
33465
33486
33474
33488
33465
33496
33435
33434
33453
33470
33469
33444
33440
33426
33430
33454
33430
33432
33411
33379
33383
33351
33316
33383
33344
33287
33304
33322
33311
33281
33320
33333
33334
33331
33300
33315
33310
33282
33269
33338
33327
33317
33354
33352
33354
33343
33342
33364
33355
33380
33354
33391
33377
33394
33408
33401
33429
33434
33472
33456
33466
33487
33508
33469
33539
33519
33562
33569
33596
33622
33656
33671
33706
33773
33800
33815
33871
33873
33921
33922
33994
33995
34013
34065
34039
34060
34048
34093
34077
34088
34100
34070
34060
34042
34064
34041
34014
33984
34014
34008
34022
34019
34032
34048
34028
34038
34045
34065
34023
34015
34032
34055
34023
34028
34013
34028
34047
33986
34011
33992
33964
34001
34004
34004
34021
33980
34012
33969
34017
34001
33984
34010
33999
33998
33990
33989
33993
33996
33989
34018
33982
33991
33965
33978
33970
33952
33933
33951
33961
33965
33959
33954
33964
33938
33975
33963
33970
33982
33934
33937
33908
33919
33929
33924
33921
33897
33896
33901
33904
33889
33902
33881
33831
33857
33818
33830
33804
33842
33815
33834
33810
33790
33843
33789
33810
33804
33765
33758
33755
33762
33741
33732
33729
33743
33752
33743
33725
33726
33711
33692
33699
33713
33683
33642
33688
33628
33642
33615
33615
33623
33642
33602
33618
33605
33593
33604
33612
33563
33597
33575
33564
33574
33557
33544
33566
33542
33511
33525
33536
33547
33532
33491
33506
33523
33526
33513
33473
33520
33506
33515
33483
33510
33488
33507
33501
33465
33466
33448
33496
33461
33476
33490
33490
33483
33478
33480
33523
33524
33514
33552
33542
33556
33573
33593
33616
33595
33600
33605
33654
33637
33636
33685
33680
33693
33689
33754
33791
33826
33865
33913
33875
33927
33976
33973
33994
34035
34049
34087
34114
34139
34125
34147
34153
34192
34130
34192
34182
34160
34149
34164
34131
34140
34136
34126
34122
34096
34123
34151
34139
34170
34177
34129
34159
34150
34167
34143
34098
34137
34132
34088
34074
34090
34054
34078
34086
34081
34032
34078
34067
34071
34080
34030
34062
34067
34060
34094
34079
34096
34061
34129
34092
34115
34130
34101
34088
34108
34098
34119
34143
34098
34094
34116
34106
34063
34114
34115
34116
34105
34098
34061
34090
34055
34047
34022
34018
34041
34038
34012
34059
34038
34044
34017
34036
34068
34007
34028
34046
34010
34057
34022
34034
34045
34037
34033
34015
34031
34029
34035
34049
34022
33993
33982
33970
33967
33926
33938
33927
33889
33898
33875
33876
33840
33807
33848
33846
33811
33839
33827
33784
33783
33814
33814
33782
33791
33802
33767
33787
33765
33757
33789
33782
33772
33755
33805
33743
33768
33770
33759
33733
33754
33795
33764
33726
33741
33768
33712
33734
33722
33728
33690
33694
33664
33666
33628
33650
33651
33638
33599
33632
33603
33574
33621
33595
33599
33622
33652
33665
33662
33710
33690
33731
33706
33741
33745
33710
33677
33756
33739
33732
33767
33753
33772
33814
33802
33863
33891
33914
33912
33935
33969
34002
34049
33999
34044
34071
34112
34131
34194
34218
34237
34239
34246
34271
34235
34254
34239
34299
34326
34312
34338
34330
34365
34361
34366
34375
34435
34389
34380
34394
34361
34368
34338
34350
34340
34304
34282
34276
34249
34243
34241
34235
34248
34219
34230
34252
34245
34200
34199
34186
34180
34176
34169
34157
34121
34114
34152
34161
34116
34137
34162
34128
34138
34118
34115
34167
34152
34139
34125
34135
34148
34148
34172
34160
34181
34199
34201
34231
34239
34196
34231
34223
34207
34250
34199
34207
34180
34182
34134
34150
34166
34187
34186
34142
34192
34177
34196
34173
34208
34203
34203
34202
34184
34165
34194
34134
34165
34150
34135
34125
34080
34107
34077
34056
34057
34034
34030
34016
34013
33981
34021
33962
33938
33955
33928
33886
33915
33894
33844
33820
33802
33778
33727
33709
33707
33648
33657
33616
33604
33656
33607
33599
33625
33626
33595
33595
33575
33586
33586
33597
33583
33565
33552
33521
33508
33500
33481
33443
33436
33414
33421
33440
33376
33375
33377
33366
33310
33315
33308
33273
33290
33220
33233
33244
33219
33214
33246
33218
33205
33227
33216
33240
33274
33257
33327
33316
33363
33378
33405
33434
33453
33482
33539
33507
33546
33593
33582
33606
33649
33636
33659
33649
33683
33713
33726
33758
33778
33827
33879
33932
33974
34023
34026
34139
34123
34153
34178
34188
34181
34184
34231
34199
34222
34238
34172
34166
34168
34181
34146
34215
34160
34137
34152
34102
34087
34074
34061
34041
34058
34045
34050
34056
34032
34058
34031
34019
34050
33998
33999
33954
33962
33942
33949
33910
33970
33933
33928
33942
33924
33974
33963
33954
33962
33989
33966
33931
33970
33947
33917
33925
33885
33852
33858
33836
33836
33793
33795
33798
33771
33757
33784
33800
33805
33813
33808
33800
33809
33776
33774
33783
33786
33733
33774
33770
33744
33724
33752
33748
33741
33714
33706
33748
33733
33731
33711
33700
33654
33689
33695
33636
33647
33627
33654
33636
33642
33623
33628
33627
33627
33623
33646
33640
33613
33679
33653
33661
33652
33694
33667
33649
33665
33628
33607
33615
33542
33584
33567
33549
33515
33544
33569
33551
33512
33551
33526
33508
33513
33491
33438
33454
33430
33430
33414
33430
33411
33400
33426
33411
33441
33444
33443
33428
33387
33399
33381
33372
33357
33357
33373
33348
33339
33329
33328
33308
33336
33335
33347
33364
33353
33381
33397
33406
33409
33456
33460
33450
33500
33534
33515
33540
33553
33565
33590
33599
33651
33649
33654
33684
33700
33703
33722
33769
33796
33814
33818
33862
33891
33910
33934
33989
34001
34023
34094
34098
34151
34172
34207
34213
34252
34269
34301
34343
34361
34366
34403
34422
34414
34438
34479
34465
34463
34489
34486
34450
34472
34472
34446
34465
34443
34442
34434
34340
34360
34321
34310
34277
34298
34267
34269
34283
34252
34263
34244
34222
34238
34254
34226
34208
34217
34202
34213
34192
34166
34183
34176
34152
34177
34165
34154
34136
34137
34099
34097
34132
34104
34079
34047
34066
34048
34031
34017
34020
34009
33980
33967
33975
33958
33989
33997
33965
33973
33987
33968
33931
33933
33955
33918
33944
33898
33884
33876
33828
33840
33795
33771
33746
33747
33762
33686
33728
33693
33667
33681
33640
33653
33665
33630
33666
33650
33669
33638
33661
33682
33709
33696
33711
33707
33676
33666
33658
33623
33584
33586
33569
33525
33550
33497
33480
33492
33456
33465
33470
33474
33452
33479
33460
33452
33430
33429
33380
33395
33389
33379
33375
33398
33351
33379
33363
33354
33334
33344
33317
33331
33324
33336
33287
33323
33311
33306
33241
33248
33199
33188
33202
33142
33165
33152
33063
33086
33102
33092
33104
33124
33164
33175
33191
33213
33270
33256
33276
33342
33353
33369
33443
33426
33479
33502
33536
33562
33555
33559
33606
33646
33645
33651
33671
33666
33678
33721
33732
33783
33781
33829
33876
33908
33903
33949
33963
34007
34015
34077
34093
34102
34120
34115
34166
34180
34183
34201
34207
34208
34217
34197
34193
34167
34158
34152
34136
34077
34162
34123
34147
34184
34209
34202
34245
34226
34274
34265
34284
34271
34274
34269
34250
34222
34195
34194
34204
34193
34157
34178
34197
34144
34158
34184
34158
34176
34165
34163
34131
34142
34099
34093
34081
34068
34046
34071
34070
34025
34016
34007
33972
33966
33956
33932
33898
33915
33854
33849
33843
33803
33810
33794
33771
33769
33755
33698
33705
33691
33696
33689
33670
33644
33670
33661
33635
33633
33644
33621
33602
33594
33560
33565
33540
33515
33503
33478
33469
33475
33445
33396
33427
33436
33393
33433
33416
33408
33396
33417
33459
33487
33455
33468
33472
33497
33508
33492
33538
33532
33539
33532
33520
33520
33515
33483
33529
33493
33524
33502
33540
33544
33506
33566
33561
33590
33590
33569
33582
33606
33644
33670
33620
33626
33636
33637
33640
33643
33658
33647
33646
33603
33603
33604
33557
33531
33513
33453
33482
33452
33412
33357
33365
33391
33357
33315
33356
33394
33392
33403
33409
33433
33395
33404
33422
33421
33421
33397
33388
33392
33414
33434
33430
33438
33417
33461
33434
33454
33458
33488
33497
33525
33591
33618
33650
33676
33753
33829
33855
33866
33940
33951
33954
33953
33956
33984
33959
33993
33974
34008
33998
33975
33971
33993
33931
33932
33883
33899
33932
33886
33895
33890
33882
33906
33881
33850
33876
33885
33851
33872
33870
33846
33849
33855
33844
33852
33815
33813
33834
33820
33820
33812
33825
33770
33751
33725
33712
33691
33703
33708
33669
33656
33648
33642
33582
33592
33566
33535
33542
33573
33538
33534
33507
33507
33507
33529
33510
33486
33535
33514
33482
33516
33530
33505
33516
33516
33517
33542
33525
33520
33529
33507
33506
33514
33519
33490
33504
33523
33527
33527
33531
33536
33533
33558
33549
33564
33568
33588
33532
33542
33531
33516
33525
33522
33540
33538
33543
33536
33507
33513
33477
33480
33475
33466
33460
33441
33435
33422
33421
33437
33450
33424
33430
33367
33390
33395
33368
33393
33398
33388
33385
33360
33357
33338
33320
33358
33371
33349
33382
33396
33385
33342
33346
33376
33361
33373
33385
33384
33381
33349
33401
33394
33361
33378
33354
33331
33360
33322
33308
33304
33245
33258
33220
33191
33145
33150
33125
33124
33103
33108
33076
33086
33048
33057
33027
33066
33055
33015
33034
33083
33042
33100
33070
33103
33121
33121
33142
33164
33186
33208
33238
33258
33285
33278
33347
33392
33388
33437
33468
33522
33563
33580
33650
33699
33753
33768
33801
33880
33905
33881
33903
33931
33939
33982
33974
33963
33978
33958
33946
33910
33911
33926
33885
33902
33905
33874
33898
33880
33902
33928
33930
33889
33921
33914
33926
33945
33919
33943
33951
33961
33951
33973
33976
33981
33969
33988
33961
33969
34018
33983
33962
33988
33966
33961
33979
33961
33971
33991
33950
33999
33981
33967
33949
33972
33945
33955
33966
33938
33936
33913
33974
33944
33921
33925
33893
33950
33944
33957
34003
33963
33973
34001
33969
33982
33923
33905
33904
33908
33838
33813
33831
33826
33803
33783
33761
33757
33752
33762
33752
33738
33735
33744
33740
33713
33699
33709
33711
33698
33685
33721
33667
33675
33690
33694
33671
33706
33667
33664
33654
33637
33617
33602
33614
33566
33619
33594
33517
33546
33558
33514
33510
33464
33511
33428
33441
33434
33391
33385
33375
33375
33332
33300
33320
33267
33261
33264
33244
33266
33216
33227
33246
33234
33206
33213
33193
33199
33209
33214
33212
33129
33122
33158
33099
33083
33092
33077
33023
33019
32991
33029
33023
32966
33008
32984
32967
33020
32985
32962
32983
32962
32986
32962
32957
32946
32966
32988
32944
33011
33075
33028
33074
33073
33116
33092
33084
33118
33139
33107
33217
33207
33217
33273
33319
33374
33384
33439
33493
33522
33540
33565
33577
33592
33589
33581
33639
33623
33624
33673
33653
33691
33691
33694
33710
33672
33748
33722
33738
33769
33752
33772
33771
33722
33781
33781
33741
33771
33752
33784
33746
33770
33769
33789
33794
33807
33835
33805
33854
33843
33839
33781
33763
33776
33766
33767
33760
33739
33762
33747
33738
33748
33732
33703
33700
33716
33698
33703
33724
33701
33689
33683
33693
33656
33603
33628
33634
33604
33604
33595
33648
33574
33579
33575
33558
33546
33559
33521
33506
33506
33485
33520
33521
33489
33506
33492
33503
33459
33450
33489
33471
33465
33428
33463
33440
33446
33412
33390
33439
33376
33424
33387
33390
33412
33395
33381
33327
33339
33319
33288
33279
33295
33296
33280
33268
33275
33291
33262
33306
33230
33270
33235
33254
33215
33188
33225
33203
33202
33172
33182
33147
33181
33122
33138
33130
33154
33144
33124
33121
33095
33109
33085
33082
33038
33053
33039
33038
33029
32995
33004
32995
32979
32965
32983
32956
32956
32953
32931
32919
32962
32954
32910
32894
32927
32909
32902
32912
32926
32927
32950
32947
32953
32992
32988
33053
33033
33056
33099
33082
33139
33151
33115
33179
33169
33177
33202
33203
33219
33254
33249
33293
33296
33312
33321
33365
33378
33382
33437
33467
33429
33472
33521
33565
33571
33626
33681
33686
33741
33752
33782
33800
33847
33854
33884
33908
33915
33906
33893
33892
33874
33879
33860
33870
33849
33882
33836
33879
33830
33850
33863
33850
33854
33816
33829
33809
33785
33829
33802
33813
33768
33765
33751
33803
33786
33798
33796
33803
33803
33787
33767
33778
33774
33762
33766
33783
33765
33750
33772
33748
33745
33742
33730
33766
33762
33742
33766
33744
33717
33745
33754
33770
33737
33737
33729
33726
33715
33699
33683
33674
33676
33689
33689
33681
33684
33658
33672
33675
33674
33690
33661
33675
33670
33681
33657
33646
33664
33685
33665
33654
33696
33643
33670
33696
33700
33671
33641
33640
33677
33644
33664
33640
33639
33657
33660
33673
33687
33676
33703
33681
33663
33678
33674
33659
33680
33647
33634
33604
33605
33579
33608
33572
33555
33555
33548
33509
33519
33493
33519
33478
33476
33473
33500
33500
33474
33503
33492
33486
33481
33543
33502
33491
33501
33521
33501
33497
33461
33505
33493
33485
33446
33472
33478
33435
33493
33476
33437
33418
33407
33388
33358
33411
33410
33336
33362
33365
33352
33345
33385
33395
33406
33379
33418
33425
33426
33383
33402
33432
33457
33423
33412
33474
33437
33461
33462
33483
33476
33517
33522
33540
33554
33605
33608
33639
33682
33695
33723
33779
33821
33842
33867
33889
33915
33963
33954
34002
33999
34011
34042
34045
34062
34041
34042
34053
34078
34020
34031
34016
33999
33993
33974
33999
34012
33980
33990
33978
33989
34014
34000
34026
34017
34022
34047
34076
34046
34030
34050
34070
34031
34071
34029
34052
34026
34041
34017
34002
34007
34005
34008
33999
33970
34002
34014
34043
34017
34040
34058
34038
34079
34064
34048
34046
34072
34074
34055
34076
34075
34068
34073
34071
34079
34100
34049
34109
34126
34110
34084
34097
34056
34063
34057
34039
34065
34035
33999
34023
34008
33975
33993
34019
34039
34013
33986
33969
33993
33989
34002
33990
34015
34003
33987
33999
34001
34001
34034
34009
33981
33965
33952
33937
33908
33865
33879
33851
33798
33786
33809
33759
33760
33774
33767
33756
33762
33724
33724
33725
33718
33648
33616
33604
33576
33572
33548
33558
33531
33533
33511
33493
33507
33494
33488
33518
33523
33480
33506
33448
33426
33398
33414
33420
33439
33367
33373
33364
33361
33325
33303
33322
33281
33277
33274
33317
33312
33301
33336
33310
33374
33366
33397
33383
33359
33356
33375
33392
33381
33399
33424
33448
33467
33442
33494
33519
33544
33550
33568
33605
33587
33589
33618
33602
33596
33629
33609
33629
33664
33713
33736
33806
33835
33860
33904
33976
33981
34011
34001
34026
34043
34073
34046
34039
34059
34014
34016
33987
33997
33922
33960
33962
33943
33937
33931
33971
33961
33974
33949
33956
33935
33928
33923
33930
33871
33847
33873
33877
33891
33877
33860
33886
33858
33875
33836
33864
33822
33833
33847
33835
33833
33850
33847
33850
33808
33797
33796
33789
33789
33755
33742
33711
33689
33699
33677
33652
33705
33656
33665
33691
33695
33699
33699
33715
33666
33661
33666
33639
33649
33587
33625
33602
33607
33579
33558
33598
33589
33593
33589
33604
33597
33575
33583
33561
33554
33577
33522
33548
33544
33530
33510
33494
33463
33501
33527
33465
33497
33483
33491
33462
33478
33458
33486
33485
33507
33525
33473
33485
33456
33471
33458
33458
33416
33411
33435
33426
33427
33430
33413
33405
33424
33413
33394
33417
33428
33410
33395
33405
33409
33367
33380
33378
33365
33373
33387
33413
33396
33372
33365
33356
33365
33321
33344
33294
33273
33272
33293
33240
33213
33145
33161
33140
33156
33119
33131
33152
33141
33135
33178
33143
33138
33137
33145
33138
33130
33143
33135
33128
33158
33197
33212
33191
33197
33207
33256
33260
33301
33305
33371
33365
33433
33454
33478
33540
33565
33610
33622
33685
33711
33754
33759
33784
33812
33794
33841
33852
33876
33851
33845
33853
33863
33894
33882
33898
33879
33902
33880
33917
33897
33891
33871
33885
33827
33856
33828
33871
33817
33817
33803
33794
33788
33787
33791
33775
33771
33766
33720
33729
33721
33724
33717
33705
33707
33718
33742
33755
33780
33790
33810
33800
33793
33811
33813
33791
33798
33775
33750
33771
33762
33752
33723
33740
33741
33753
33741
33712
33738
33752
33769
33764
33794
33778
33772
33770
33783
33722
33732
33707
33712
33727
33716
33716
33706
33667
33685
33634
33658
33654
33597
33585
33605
33568
33584
33561
33568
33568
33582
33556
33578
33580
33577
33583
33587
33626
33601
33583
33605
33583
33568
33566
33537
33577
33515
33543
33522
33483
33483
33428
33442
33420
33388
33367
33358
33312
33294
33320
33295
33247
33209
33199
33216
33209
33184
33185
33199
33177
33194
33188
33184
33173
33152
33170
33184
33169
33177
33100
33151
33154
33156
33150
33174
33130
33136
33144
33084
33052
33038
33033
32972
32958
32938
32906
32895
32873
32827
32830
32835
32816
32820
32829
32844
32844
32834
32835
32870
32898
32889
32927
32954
32974
33004
32968
33014
33033
33033
33023
33071
33069
33076
33080
33114
33109
33159
33198
33226
33293
33297
33359
33385
33425
33465
33508
33591
33601
33650
33668
33686
33694
33748
33755
33764
33762
33772
33777
33721
33765
33761
33765
33776
33808
33806
33813
33798
33805
33817
33792
33822
33798
33802
33792
33786
33845
33825
33817
33866
33865
33854
33866
33857
33851
33854
33850
33844
33837
33830
33807
33814
33815
33844
33833
33843
33834
33845
33862
33837
33822
33852
33851
33862
33895
33884
33863
33887
33903
33869
33882
33894
33902
33912
33927
33914
33931
33925
33945
33920
33913
33917
33944
33924
33962
33952
33948
33964
33958
33920
33910
33923
33978
33998
33954
33977
33966
33930
33913
33898
33918
33901
33909
33865
33827
33769
33752
33743
33712
33692
33663
33653
33680
33612
33616
33603
33567
33498
33495
33506
33501
33478
33499
33496
33450
33441
33405
33371
33356
33338
33328
33349
33284
33253
33260
33214
33191
33185
33196
33177
33160
33191
33174
33170
33157
33139
33141
33137
33119
33114
33122
33087
33072
33083
33075
33056
33044
33027
32996
32989
32980
32991
33027
32973
32978
32912
32967
32957
32912
32946
32963
32962
33014
33005
33028
33061
33083
33081
33061
33078
33121
33105
33142
33118
33162
