40347
40555
40985
41075
40676
41032
41120
41239
40781
41428
41422
41124
41027
41761
41042
41691
40336
42211
41306
40717
41220
41704
41510
41028
41163
41872
41524
41264
41276
41343
41242
41409
40731
41586
41121
41030
41031
41324
40855
41206
41015
41026
40611
41148
41228
40912
40915
40639
41769
40704
40921
41011
41229
40637
40998
41163
40622
40976
41245
41510
40854
41048
40862
41201
40406
40773
40796
41148
40879
40800
41024
41060
40599
40846
40758
40832
40937
40869
40943
40606
40681
40800
41054
40545
40844
40858
40896
40407
40815
40924
40578
40485
40777
40831
40519
40664
40494
40785
40447
40514
41005
40739
40386
40572
40564
40539
40253
40614
40661
40539
40251
40575
40721
40577
40403
40695
40702
40241
40396
40898
40029
40348
40542
40965
40665
40314
40683
41006
40952
40972
41299
41420
41063
40747
40994
41146
40517
41021
41088
41041
40898
41250
41221
40922
40521
41230
41076
40770
40812
41047
41035
41071
40717
40623
41058
40725
40941
40948
40562
40663
40837
41070
40892
40769
40847
40787
40207
40617
40499
40950
40432
41429
40990
40645
40850
40775
41007
41100
40599
40769
40843
40304
40599
40759
40683
40100
40732
40981
40556
40590
40962
40891
40330
40363
40535
40878
40029
40604
40874
40812
40436
40771
40625
40798
40158
40552
40545
40534
40296
40672
40681
40170
40402
40532
40621
40290
40466
40580
40522
40051
40362
40872
40763
39971
40666
40571
40211
40159
40461
40544
40046
40137
40596
40534
40008
40521
40760
40515
40309
40430
40584
40174
40252
40739
40930
40561
40595
40980
41067
40868
40903
41073
40901
40565
40812
41204
40785
40846
41128
40917
40755
40922
40878
41081
40710
40704
40819
41045
40718
40665
41158
40651
40571
40809
41064
40748
40881
40954
40968
40420
40630
40694
41000
40315
41099
40995
40957
40377
40950
40851
40565
40451
40804
41035
40585
40574
41073
40903
40557
40609
40805
40772
40133
40694
40953
40678
40612
40639
40967
40555
40529
40938
40804
40295
40559
40808
40928
40281
40499
40819
40371
40099
40428
40679
40318
40501
40408
40707
39975
40614
40531
40562
39904
40427
40318
40608
40122
40386
40438
40221
40000
40661
40769
40475
40501
40603
40892
40269
40433
40470
40539
40148
40425
40559
40239
40762
40576
40880
40589
40731
40999
41168
40841
40838
40954
40997
40592
40774
41035
40821
40777
40866
41026
41148
40734
40869
40419
40826
40782
40732
41123
40579
40953
41063
41070
40560
40878
41312
40727
40632
40975
40975
40836
40810
40784
41105
40534
40903
40737
40792
40640
40979
41249
40563
40675
40999
40955
40606
40802
41149
40839
40617
40152
40193
41221
40558
40783
41009
40761
40533
40845
40930
40904
40675
40937
40856
40793
40767
40791
40882
40714
40490
40877
40965
40455
40430
40820
40266
40382
40458
40786
40154
40486
40834
40666
40000
40483
40709
40593
40076
40522
40526
40326
40227
40484
40448
40089
40655
40657
40520
40233
40327
40582
40601
40135
40677
40844
40429
40665
40583
41030
40581
40673
41143
41204
41096
41023
41212
41359
40678
40972
41286
41162
41178
41426
41331
40777
41106
40988
41044
40885
40757
41496
41304
40767
41073
41448
41154
40807
41203
41225
40832
40746
41094
41404
40936
40858
40831
41078
40756
40733
41251
41153
40844
41019
41119
41022
40864
41044
40857
40759
41078
41113
41374
40848
41082
40687
41168
40703
40883
41226
40847
40594
40656
41286
40787
40911
40771
41071
40706
40985
41010
40891
40804
40644
41218
40949
40303
40895
41240
40720
40566
40981
41033
41038
40733
40872
41019
40711
40851
41073
41022
40548
40829
40971
40591
40383
40695
40863
40829
40620
40799
40676
40470
40703
41312
40671
40670
40654
41057
40842
40647
40980
41263
40741
40783
41340
41283
40634
41138
40990
41192
41130
41117
41497
41354
41064
41175
41452
41145
40946
41591
41384
40993
41142
41386
41414
40283
41304
41288
41295
40851
41486
41127
41032
40830
41349
41407
40650
41023
41386
41336
40861
40924
41147
41523
40554
41203
41335
40882
40627
41159
40974
40697
41029
41226
40998
40636
40985
40881
41177
40896
40924
41163
40923
40709
40903
41275
40766
40926
41008
41229
40592
40866
41245
41109
40509
40849
41281
40806
40386
40807
41276
40809
40795
40916
41122
40463
40852
40921
41025
40551
40713
40904
41209
40685
40763
41295
40448
40434
40959
40947
40500
40462
40864
40593
40459
40666
40640
41075
40343
40641
40575
40774
40385
41114
41021
40659
40550
41308
41098
40953
41136
41464
41344
40965
41194
41421
41146
41028
41453
41372
41183
40954
41287
41455
40933
41412
41218
41321
41357
41174
41334
41254
40835
41232
41246
41070
40705
41096
41293
40851
41046
41333
41083
41044
41108
41474
41264
40729
41117
40944
41530
40630
41232
41356
40688
41251
41140
40681
40557
40672
40843
41146
40749
40720
40726
41075
40641
40805
41070
40785
40874
41084
41035
40783
40957
40685
40955
40694
40520
41087
40649
40137
40924
41110
40887
40363
40922
40911
40330
40678
40549
41098
40407
40647
40305
40915
40079
40471
40712
40673
40621
40472
40945
40406
40517
40837
40809
40405
40464
40538
40800
40280
40359
40445
40705
40337
40697
40631
40372
40837
41191
41047
40547
40783
41426
41273
40633
40900
41265
40967
40531
41167
41372
40889
40660
40993
41292
40862
40837
41174
41039
40766
40738
41494
41260
40708
40942
41593
41094
40779
41209
41203
40763
40900
41050
41175
40306
40778
40768
40871
40316
40797
41369
41251
40524
40991
40926
40617
40652
41246
41128
40406
40744
40841
40839
40577
40853
40996
40981
40671
40910
41072
40614
40594
40988
40933
40675
40885
40620
41139
40495
40795
41268
40654
40832
41082
40972
40538
40618
40979
40858
40486
40697
40859
40712
40286
40324
40510
40778
40285
40674
40716
40783
40358
40531
40726
40580
40528
40832
40751
40276
40390
40585
40720
40652
40624
40683
40816
40221
40606
41267
40483
40607
41216
41077
40641
41237
41269
41054
40853
41244
41255
41370
40638
41039
41205
40969
40908
40964
41299
41234
41004
40987
41414
41240
41110
41532
41264
40962
41115
41411
41287
40733
41343
41327
40754
41068
41355
41332
40780
41076
40838
41305
40819
41108
41136
41048
40358
41012
41068
40899
40743
40957
41408
40841
40883
40958
41944
40964
40195
41137
40884
40985
41040
41101
40829
40821
40885
40919
40573
40716
40679
40810
40615
40872
41313
41192
40254
40493
41619
40857
40774
40827
41024
40730
40495
40901
40869
40630
40891
40394
40830
41242
40917
39896
40865
40379
40801
41263
40448
40401
40774
40802
40493
40634
41212
40844
40279
40616
40810
41016
40770
40709
41013
40651
40762
41018
41056
40751
40969
40988
41269
40851
40842
41222
41297
40843
41195
41286
41116
41009
41564
41474
41302
41191
41300
41355
41154
41331
41612
41346
40978
41019
41051
41129
40819
41370
41378
41182
41048
41242
41496
41032
41086
41149
41245
40973
41002
41330
41061
40560
41340
41312
40929
40948
40946
41237
40721
40909
41194
41161
40971
40879
41087
41208
40619
41128
41085
40745
40948
40808
41498
40879
40815
41167
41093
40846
40889
40870
41171
40690
41195
41276
40930
40774
40763
41446
40752
40951
41120
41084
40703
40813
41297
41046
40911
40572
40988
40992
40254
41081
40859
40361
40815
40837
40927
40341
40725
41003
40811
40404
40881
40918
40912
40676
40820
41074
40853
41120
40757
41061
40831
41036
41778
41345
40878
41211
41411
41472
40943
41327
41669
41247
41357
41221
41494
41342
41583
41402
41435
41299
41175
41589
41487
40778
41234
41763
41450
40709
41550
41478
41030
41354
41537
41230
41248
41135
41387
41509
40960
41206
41304
41473
40720
41093
41076
41037
40904
41320
41557
41012
40986
41354
41338
40807
41318
41196
41253
41039
41091
41383
40852
40734
41130
41252
40818
41111
41290
41464
40830
41106
41089
41238
41035
41359
40907
40894
40727
41126
40992
40983
40809
41378
41199
41054
41037
41335
41189
41013
41119
41106
41297
40386
40954
41508
40733
40869
41005
41623
40850
40799
41082
41017
40939
40878
40948
40992
40505
41181
41332
41159
40879
41310
41450
40917
41244
41303
41503
41371
41342
41315
41546
41118
41486
41666
41670
40849
41487
41800
41230
41266
41371
41591
41524
41233
41425
41591
41144
41399
41274
41551
41150
41164
41584
41290
40886
41251
41394
41062
41482
41367
41126
41081
41206
41333
41405
41316
41147
41290
41412
41064
41143
41401
41050
41133
41674
41660
41073
41127
41271
41318
41039
41090
41484
41261
41067
41164
41363
40772
40926
41157
41538
40701
41244
41152
41069
40741
40797
41238
40941
40816
41012
41009
40794
41043
40719
41112
40795
40774
41051
41222
40762
40908
41311
40958
40972
40745
41262
40868
41022
41032
41005
40551
40458
40981
40883
40702
40691
40961
40886
40500
40915
41179
41130
40358
41125
41202
40604
41025
41083
41290
41190
41178
41452
41461
40964
41390
41442
41592
41056
41167
41583
41374
41589
41543
41816
41276
40876
41663
41575
41052
41369
41111
41351
41624
41469
41310
41172
41091
41221
41312
41107
41142
41152
41622
41059
41123
41345
41437
40825
41096
41371
40958
40900
40982
41311
41197
40762
41269
41439
40779
40968
41327
41349
41115
41069
41014
41397
40800
41051
40801
40846
40694
41079
41201
40808
40776
40989
41122
40505
41143
40963
40844
40529
40775
41047
40762
40936
40965
40974
40892
40920
40809
40838
40624
40698
40994
40848
40591
40938
40761
40758
40707
40683
40787
40718
40694
40827
40748
40668
40790
40999
40639
40304
40838
41115
40775
40218
40786
41049
40701
40795
40843
41358
40904
40620
41013
41361
40708
41217
41663
41279
41148
41295
41540
41298
41237
41451
41429
40916
41148
41608
41110
41157
40949
41317
41399
41135
41289
41414
40902
41161
41157
41558
41148
41239
41363
41386
40608
41136
41287
41256
41069
41114
41118
41307
41282
41047
40982
40896
40708
41278
41191
41041
41054
41097
40968
40956
40859
41358
41337
40709
41172
41402
41158
40897
41147
41284
40720
40942
40988
41300
40892
40998
41017
41251
40553
41294
41346
40922
40719
41040
40768
40860
40763
41498
41035
40525
40875
40873
41015
40559
40853
40934
40806
40524
40719
41021
40837
40552
40771
40861
40583
40545
40785
40946
40782
40677
41012
40950
40464
40924
41320
40767
40813
41034
41162
41014
40881
40948
40979
40768
41158
41312
41590
40761
41373
41310
41100
41316
41628
41609
41098
41278
41437
41425
41350
41384
41355
41388
40927
41151
41210
41500
41067
41312
41575
41271
40777
41480
41466
41015
41230
41249
41421
41153
41323
41642
41295
40518
41491
41481
41112
41392
41338
41308
40766
41009
41063
41294
40963
41145
41258
41157
41055
41065
41377
41157
40831
41302
41064
40841
40963
41072
41516
40911
40872
41421
41124
41081
40966
41260
40903
40575
40830
41122
40731
40967
41061
41162
40591
40976
41098
41149
40942
40806
41041
40737
40690
41158
41256
40781
40636
41086
41127
40633
40628
41400
40882
40338
40932
40959
41014
40524
40848
41087
40970
40780
41114
41067
41082
41112
41249
40965
40905
41038
41416
41311
40996
41361
41685
41235
41132
41729
41747
41319
41310
41635
41618
41670
41322
41946
41509
41323
41666
41598
41520
41149
41453
41688
41045
41224
41393
41835
41458
41375
41496
41365
40995
41287
41303
41557
41348
41331
41464
41477
41115
41251
41483
41234
41145
41411
41503
41203
41177
41253
41516
41104
41576
41526
41421
41276
41232
42150
40887
41116
41386
41433
40897
41289
41166
41451
40713
41134
41432
41329
41084
41241
41525
41295
41017
41216
41354
41103
41101
41191
41289
40632
41256
41298
41280
40816
41015
41242
41051
41005
40967
41196
40999
41012
41247
41212
41066
40954
41096
41213
40758
41154
41468
41067
40721
40903
41341
41001
41014
40969
41262
41339
41129
41501
41301
41139
41576
41438
41739
41475
41665
41856
41257
41371
41364
42093
41396
41628
41528
41696
41508
41562
41679
41515
41455
41592
41536
41486
41421
41840
41775
41445
41462
41329
41825
41297
41456
41718
41567
41408
41501
41441
41646
41341
41392
41758
41025
41416
41814
41698
41409
41431
41198
41539
41248
41627
41715
41552
40831
41376
41572
41333
41006
41457
41531
41005
41085
41787
41548
40422
40878
41517
41451
41252
41334
41692
41003
41036
41191
41512
41047
41188
41225
41185
41007
41186
41217
41151
40801
41012
41199
41021
40849
41215
41321
40897
40945
41183
41391
40699
40862
41082
41259
40842
41168
41416
40876
40520
41153
40994
40631
40970
41169
41563
40878
41446
41600
41381
41029
41234
41511
41443
40865
41645
41614
41103
41118
41707
41758
41269
41313
41395
41687
41324
41196
41906
41540
41376
41438
41627
41101
41359
41637
41662
41330
41197
41462
41525
41078
41231
41516
41504
41380
41592
41549
41166
40939
41473
41536
41251
41372
41347
41486
40754
41106
41826
41136
40945
41194
41169
41246
40887
41424
41636
40889
41365
41160
41430
41119
41365
41286
41379
40694
41387
41297
41014
40794
41419
41253
40977
40969
41284
41458
40831
40988
40942
41462
40821
41271
40891
41263
40788
40942
41496
40895
40721
41229
41284
41115
40855
41171
41234
40977
40966
40841
40949
40876
40860
41275
40874
40676
40926
41400
40828
40778
41094
41141
40658
41061
41197
41240
41071
40991
41421
41270
40993
41034
41413
41258
41230
41560
41638
41125
41358
41541
41653
41268
41685
41658
41648
41040
41586
41639
41435
41245
41699
41790
41181
41302
41681
41500
41028
41191
41372
41468
40925
41260
41642
41088
41178
41144
41750
41462
41031
41495
41111
40889
41257
41244
41314
40860
41248
41390
41098
40554
41339
41625
41311
40795
41117
41277
40991
41256
41478
41276
40752
41037
41206
41207
40925
41295
41071
40998
41052
41001
41245
41006
41004
40875
41055
40778
40793
41048
41115
40916
40498
40593
41209
40692
41363
41254
40677
40686
41138
40861
40696
41012
41031
41262
40396
40841
40728
41172
40695
40940
41513
40879
40807
40979
41489
40930
40718
41035
40843
41054
41239
41294
41134
41016
41435
41141
41008
41035
41700
41578
41305
41369
41490
41705
41233
41591
41659
41724
41295
41606
41590
41389
41079
41889
41420
41528
41362
41585
41676
41345
41326
41486
41659
41481
41411
41644
41325
40953
41469
41854
41005
41060
41504
41131
40994
41378
41451
41270
41286
41419
41360
41151
41127
41507
41172
41056
41164
41473
41371
41143
41132
41425
41423
40618
41189
41407
41508
40360
41162
41454
41321
40804
41458
41964
40833
41247
41415
41347
40814
41187
40980
41467
41107
41414
41391
40907
40826
41123
41307
40773
40912
41308
40885
40290
40944
41192
41305
40763
40973
41360
41399
40501
40856
41211
40977
40754
41205
41187
40720
40849
41315
41216
40696
41103
41299
41300
40926
41416
41480
41066
41133
41474
41469
41042
41198
41565
41585
41317
41450
41324
41623
41191
41649
41566
41694
41257
41559
42027
41291
41403
41773
41661
41275
41362
41869
41622
41166
41513
41521
41487
41027
41626
41884
41397
41270
41562
41595
41307
41250
41776
41379
41326
41283
41583
41431
41155
41377
41537
40953
41032
41309
41540
41053
41179
41362
41578
41044
41574
41592
41382
41198
41416
41457
41290
41166
41600
41434
41292
41393
41387
41338
40784
41045
41541
41474
41086
41027
41199
41431
40775
41202
41293
41036
40945
41540
41398
40810
41051
41311
41078
40819
41168
41209
41341
40456
41350
41240
41051
40875
41078
41224
40947
41374
41172
41249
40744
41307
41024
41391
40915
41439
41640
41202
40968
41369
41875
41101
41167
41498
42060
41341
41799
41837
41634
41301
41577
41754
41706
41225
41636
41685
41608
41508
41414
41573
41438
41532
41332
41766
41129
41479
41476
41707
41453
41773
42082
41395
41403
41505
41699
41287
41577
41632
41749
41124
41696
41687
41545
41223
41599
41651
41278
41181
41602
41920
41167
41570
41762
41606
41774
41703
41544
41714
41303
41324
41313
41253
41145
41594
41539
41270
41603
41466
41497
41031
41495
41474
41460
41052
41182
42108
41204
41269
41306
41366
41262
41088
41457
41689
41227
41207
41401
41414
41995
41182
41592
41597
40872
41133
41404
41037
41011
41393
41417
41036
41490
41331
41281
40944
41227
41314
41577
40901
41395
41400
41485
41000
41594
41587
41557
41514
41402
42138
41563
41828
41772
41856
41222
41611
41933
41929
41273
41992
42021
41646
42054
41700
42044
41461
41577
42091
41723
41385
41512
41860
41593
41241
41644
41697
41567
41512
41622
42167
41602
41546
41808
41557
41595
41552
41600
41766
41434
41619
41375
41480
41131
41429
41963
41366
41638
41524
41553
41521
41320
41553
41375
41363
41460
41678
41772
41231
41513
42029
41329
41537
41483
41447
41529
41511
41577
41661
41238
41198
41677
41407
41207
41178
41591
41153
41485
41366
41491
41395
41305
41705
41290
41156
41103
41285
41498
40988
41478
41105
40933
40974
41335
41409
40917
40738
41399
41386
40565
41045
41020
41301
41067
41494
41522
41523
41103
41460
41700
41323
41292
41240
41844
41350
41694
41771
41772
41548
41587
41920
41537
41366
41823
41761
41736
41633
41923
41843
41257
41682
41515
41871
41341
41798
41820
41686
41597
41767
41922
41524
41382
41729
41786
41372
41463
41702
41743
41713
41690
41526
41663
41246
41445
41827
41753
41073
41827
41542
41571
41443
41760
41728
41475
41494
42010
41805
41308
41293
41880
41680
41446
41700
41582
41508
41239
41537
41892
41546
41383
41055
41423
41311
41476
41753
41441
41151
41187
41740
41156
41193
41339
41564
40922
41283
41006
41372
41008
41174
41108
41383
40811
41232
41696
41311
41136
41074
41356
41157
41295
41050
41366
40961
41193
41328
41511
41140
41277
41583
41663
41320
41522
41410
41058
41342
41792
41762
41497
41617
41895
41898
41744
41630
42020
42011
41592
41801
41846
41814
41609
41962
41997
41452
42040
41716
42065
41355
41841
41920
42245
41716
41710
41725
42036
41729
42032
41957
41599
41799
41804
41843
41782
41754
41794
42008
41725
41800
41949
41704
41137
41745
42181
41674
41405
41486
42048
41540
41545
41571
41940
41423
42059
41716
41593
41406
41521
41475
41364
41253
41596
41554
41602
41616
41541
41711
41415
41676
41907
41624
41416
41822
41778
41404
41410
41538
41321
41231
41684
41493
41660
41238
41605
41552
41525
41047
41268
41273
41133
41548
41347
41549
41414
41296
41223
41634
41006
41287
41374
41612
41068
41178
41708
41328
41185
41294
41890
41155
41198
41622
41669
41378
41679
41550
41730
41524
41839
41552
41758
41463
41995
41791
41824
41855
41853
42209
41706
41784
41929
42297
41689
41730
42049
41873
42711
41727
41368
41592
41801
42211
42031
41642
41683
42117
41785
41803
41635
41839
41917
41663
41633
41807
41628
42041
41957
41852
41590
41635
41972
41951
41662
41672
41763
41869
41252
41959
41729
41940
41165
41518
41708
41207
41394
41705
41937
41773
41918
41739
41766
41562
41800
42410
42013
41676
41933
42037
41539
41198
41737
41370
41499
41374
41399
41657
41346
41549
41407
41500
41130
41658
41632
41442
41013
41217
41625
41081
41131
41350
41396
41186
41171
41095
41332
40895
41248
41058
41339
41043
41439
41480
41263
41621
41750
41554
41444
41327
41543
41575
41155
41936
42171
41858
41608
42122
42169
42082
42021
42251
42158
41756
41888
42324
42382
41971
42307
41940
41971
41657
42124
42097
42023
41844
41953
42002
41877
41806
41774
42072
41568
41981
41918
42377
41852
41907
41911
41756
41258
41943
42048
41838
41713
42300
42097
41742
41870
42125
41879
41569
41865
41994
41404
41936
41646
42470
41383
41587
41678
41912
41604
41749
41754
41886
41346
41840
42055
41917
41381
41735
41873
41692
41583
41709
41774
41264
41431
41988
41581
41421
41434
41951
41800
41359
41634
41419
41742
41374
41530
41862
41476
41466
41731
41775
41442
41213
41705
41674
41138
41565
41499
41772
41308
41371
41593
41396
41357
41676
41696
41466
41610
41666
41763
41546
41807
42162
42096
41720
42250
42186
41823
41843
42166
42515
42280
42136
41930
42281
41641
41992
42140
42005
42273
42033
42240
41924
41662
41936
42365
42135
42063
42026
42369
41929
42014
41986
42362
41887
42054
42191
42020
41795
42085
42324
41673
41738
42130
42490
41461
41975
41839
42239
41711
41866
42014
42112
41691
41984
42138
41596
41305
42165
42113
41879
41912
41981
41870
41772
41779
42178
42751
41620
42060
42196
42074
41716
41907
42099
41886
41879
42157
42067
41913
41679
41905
41986
41278
41715
42050
41749
41499
41658
41905
41791
41707
41897
42093
41525
42243
41983
41601
41319
41949
41938
41775
41551
41546
41672
41692
41600
41916
41955
41538
41887
42052
42187
41890
41863
41982
42397
41637
42062
42586
42170
41888
42518
42979
41842
42258
42388
42526
41793
42173
42493
42388
42275
42230
42447
42396
42065
42514
42461
42116
42046
42408
42542
42016
42078
42298
42160
41927
42022
42370
42282
42228
42452
42337
42009
42123
41944
42366
41825
42518
41869
42284
41833
42252
42658
42303
41738
42096
42085
42031
41715
42096
42378
41971
42298
41850
42087
41726
42338
41876
42232
41905
41883
42168
42001
41497
42088
42226
41689
41720
42073
42132
41762
41600
42069
41952
41752
41939
41874
41963
41570
42016
41946
41642
41690
41738
42264
41280
41604
42143
41784
41114
41807
41705
41566
41155
41643
42020
41826
41563
41503
41777
41138
41555
41771
41858
41845
41640
41860
42150
41472
41823
42137
41869
41680
42183
42341
41880
42080
42024
42309
41981
42020
42189
42448
41786
42104
42213
42352
41729
41811
42037
41770
41660
42083
42422
41956
41982
42076
42097
41521
41869
42277
42149
41418
42165
42067
41676
41984
41944
42010
42057
42197
42144
42069
41801
41752
42013
41914
41866
41930
41920
41941
41459
41736
41919
41706
41629
41853
41723
41536
41713
42231
41819
41443
41602
42027
41803
41635
41706
41903
41625
41570
41720
41546
41297
41612
42068
41447
41198
41642
41463
41483
41295
41290
41681
41161
41510
41535
41055
41123
41260
41654
41610
40817
41466
41572
41475
41088
41456
41588
41118
41187
41563
41725
41389
41326
41472
41478
41783
41286
41682
41530
41130
41568
41962
41876
41343
42049
42211
41636
41771
41665
42327
41969
41882
41888
42002
41424
42155
41911
42015
41888
42040
42197
41660
41854
41871
42097
41819
41855
41900
42029
41579
41534
41971
42134
41560
41783
42046
41862
41685
42209
42053
41691
41765
41897
42190
41632
41832
42017
41879
41525
41741
42602
41755
41533
41878
41881
41632
41765
42007
41840
41557
41513
42101
41882
41607
41662
42130
41640
41511
41647
42156
41443
41565
41791
41799
41781
41611
41676
41725
41431
41666
41889
41630
41320
41900
41663
41236
41110
41542
41729
41285
41834
41520
41806
41083
41462
41462
41567
41055
41702
42032
41394
41031
41181
41677
41349
41326
41458
41879
41341
41785
41355
41551
41312
41836
41829
41807
41452
41769
41930
41690
41739
41759
42084
41638
41725
42142
42383
41829
41917
42059
42106
41585
41863
42169
41844
41836
41994
42019
41880
41719
41950
41984
41877
41829
41992
42185
41566
41945
42060
41663
41670
41971
41922
41624
41725
41995
41727
41920
41741
41686
41902
40990
41961
41831
41890
41436
41956
42143
41748
41638
41902
41939
41912
41673
41919
41761
41265
41727
42102
41702
41354
41894
42009
41682
41609
41492
41863
41714
41479
41900
41759
41547
40892
41788
41678
41243
41691
41665
41549
41096
41681
41809
41506
41598
41673
41606
41510
41331
41523
41400
41024
41130
41343
41744
41107
41487
41758
41455
41249
41460
41760
41123
41468
41440
41541
41092
41494
41588
41832
42016
41808
42174
41561
41773
42089
42303
41863
41899
41987
42252
42007
42051
42307
41977
41524
41949
41841
41918
41833
41939
42298
41845
41987
41907
42155
41648
41982
42214
42046
42054
41781
41898
41648
41875
42016
42219
41772
41821
42104
42173
41707
41794
41824
41809
41383
41829
42086
41730
41601
41895
41967
41579
41803
42069
42079
41772
41788
41631
42027
41628
41730
42416
42133
41494
41913
42117
41652
41626
41879
42372
42136
41806
42113
42184
41620
41680
41902
41816
41432
41905
42124
41385
41785
41909
42026
41627
41625
41771
41821
41458
41623
42020
41828
41676
41612
41774
41609
41644
41826
41736
41785
41573
41691
41921
41645
41710
41714
41939
41644
42072
41650
41683
41632
42229
42756
42347
42078
42406
42024
42230
42374
42771
42559
42399
42205
42710
42493
42110
42113
42134
42242
42047
42610
42561
42271
42428
42427
42450
42076
42340
42429
42555
41882
42394
42251
42267
42472
42303
42684
41827
42170
42468
42622
41411
42199
42293
43015
42454
42762
42000
42405
41711
42095
42648
42355
42100
41733
43236
42123
41830
42251
42248
41697
42082
41923
41946
41404
42051
42100
41850
41895
42078
42397
41768
41808
42187
42000
42055
41971
42207
42040
41272
41851
41355
41765
41863
41738
41935
41696
41685
41988
41724
41354
41853
41840
41896
41293
41520
41735
41984
41543
41604
41974
41862
41674
41691
41808
41543
41525
41542
41976
41477
41611
41990
41981
41746
42090
42288
41842
42035
42040
42081
41895
41976
42062
42218
42250
42051
42405
42169
41691
42026
42195
41809
42427
42365
42635
41626
42372
42040
42177
41769
41790
42179
42209
41287
42109
42072
41787
41884
42345
41895
42093
41697
42101
41926
41785
41863
42052
41947
41834
42099
42227
41970
41602
41690
42066
41569
41847
41813
41979
41513
41637
42292
41855
41618
41580
41693
41707
41460
41878
41870
41565
41782
42198
41819
41578
41835
41935
41896
41147
41497
41387
41734
41687
41518
41864
41546
41415
41612
41647
41547
41526
41839
41823
41619
41685
41578
41629
40962
41440
41516
41562
41123
41255
41552
41252
41338
41642
41520
40957
41599
41416
41575
41332
41398
41628
41785
41325
41559
41909
41687
41475
42000
41955
41667
41723
42301
42184
41711
41919
41899
41990
42053
42042
42078
41810
41754
42047
42154
41811
41898
41966
42089
41483
41880
42036
41932
41791
41840
42370
42060
41511
41848
41815
41533
41760
41797
42071
41381
41749
42052
41988
41526
41688
42035
41954
41550
41791
41869
41570
41297
41794
41787
41209
41701
41800
41945
41609
41609
41486
41584
41305
41413
41524
41503
41547
41757
41879
41367
41758
41852
41717
40993
41773
41766
41337
40716
41506
41851
41559
41298
41442
41732
41333
41367
41465
41544
41197
41519
41506
41513
41030
41542
41436
41377
40734
41440
41652
41140
41083
41524
41343
41314
41308
41297
41570
41073
41522
41601
41661
41092
41683
41445
41274
41304
42052
41794
41702
41704
42242
41997
41856
41872
41982
42070
41693
41844
42042
42156
41878
42066
42176
41717
41827
42119
41839
41451
41951
42133
41970
41495
42105
41750
41581
41604
42080
41939
41801
41665
41628
41976
41146
41744
41894
41886
41238
41759
41792
41782
41588
42120
41980
41608
41734
41846
42014
41360
41580
42148
41926
41573
41613
41630
41550
41388
41793
42003
41523
41245
41502
41904
41551
41805
41694
41912
41616
41605
41903
41768
41421
41821
41887
41508
41419
41603
41955
41425
41557
41677
41382
41017
41447
41639
41568
41051
41584
41385
41526
41158
41349
41664
41305
41330
41515
41514
41261
41523
41086
41531
40993
41313
41557
41672
41248
41584
41521
41546
41400
42065
42223
41756
41757
42165
42085
41617
42106
41837
42313
41709
41822
42446
41834
41811
42278
42232
41668
41778
41922
42036
41811
41767
42112
41860
41713
41917
42061
42147
41831
41848
41737
41902
41809
42034
42059
41701
41833
42014
42137
41512
41870
42081
41959
41517
42269
42327
41469
41622
41791
42041
41766
41987
41969
41922
41505
41784
42325
41832
41576
41615
41234
41672
41391
41615
41998
41538
41627
41716
41670
41637
41922
42047
41577
41401
41811
42256
41597
41314
41555
41985
41859
41699
42007
41985
41336
41828
41676
41851
41218
41715
41320
41801
41362
41963
41658
41348
41353
41902
41820
41521
41432
41796
41913
41346
41714
41765
41515
41214
41849
41734
41740
41711
42342
42136
42059
41988
42142
42227
42081
42405
42176
42284
41843
42068
42353
42157
41809
42343
42313
41587
42036
41923
42338
42071
41887
42289
42168
42110
42249
42281
42160
41803
42288
42959
42064
42095
41929
42185
41913
41930
42246
42220
41790
42159
42340
41886
42177
41968
42066
41965
42093
42081
42319
41872
42215
42113
42339
41792
41967
42186
41918
41954
42192
42031
41841
41893
42349
42045
41800
41849
41968
42257
41696
41985
42199
42073
41484
42047
42276
42169
41751
42219
42244
41648
41991
41915
42169
41602
41488
41981
41328
41418
41608
42121
41901
41568
41735
42361
41584
41465
41878
41961
41543
41722
41850
41963
41193
41830
41947
41764
41642
41722
41983
41639
42063
42191
42225
41969
42202
42209
42274
42178
42434
42413
42420
41978
42198
42215
42328
42175
42324
42607
42093
42089
42397
42403
41620
41931
42364
42174
41883
42285
42412
42186
41989
42254
42235
41961
41593
41865
42290
42011
41912
41814
42512
41847
41847
42108
42204
41927
41941
42737
41885
41878
42108
42062
41744
41869
41957
42085
41613
42132
41312
42042
41521
42071
41940
41797
41739
41927
41946
41707
41990
41901
41963
41756
41778
41733
42100
41601
41927
41948
42000
41823
41523
41725
41581
41779
41722
41913
41577
41700
41949
41732
41791
41815
42213
41681
40894
41578
41997
41121
41420
41392
41965
41479
41534
41756
41619
41526
41546
41415
41759
41382
41568
41702
41835
41501
42011
41868
41538
41916
42272
42488
41951
42187
42306
42264
41840
41884
42244
41956
41994
42160
42089
41973
41960
42070
42337
41698
42017
42072
42057
41613
41669
41755
41902
41580
42103
41940
41916
41723
41722
42082
41711
41853
41988
42067
41504
41839
42058
41651
41312
41726
42017
41832
41729
41932
42067
41675
41605
41854
41928
41650
41771
41904
41806
41328
41917
41797
41691
41580
41687
41848
41337
41654
41642
41689
41274
41883
41739
41971
41163
41946
41688
41540
41557
41899
41740
41431
41528
41457
41622
41242
41371
41292
41737
40846
41366
41679
41653
41243
41416
41682
41179
41374
41629
41572
41287
41636
41651
41579
41422
41498
41802
41410
41314
41675
41870
41472
41306
41674
41912
41652
41572
41937
42447
42069
41777
41986
42436
41675
42039
42244
42151
42041
41991
42247
41683
41906
42167
42328
41804
41837
42227
42281
41785
42009
42067
41951
41540
41931
42394
41592
41625
41650
42172
41467
41997
42130
41962
41710
41768
42353
41834
41550
41858
42293
41823
41651
41947
42035
41465
41655
42034
41639
41834
41577
41937
42039
41274
41787
42363
41621
41625
41759
41828
41396
41838
41562
41780
41747
41639
41880
41886
41472
41582
41737
41805
41275
41594
41971
41098
41085
41629
41748
41123
41350
41784
41779
41387
41610
41767
41389
41100
41723
41928
41541
41020
41392
41753
41376
41441
41401
41742
41132
41585
41461
41811
41493
41548
41668
41651
41640
42086
42065
41708
41645
42255
42114
41835
41890
41887
41376
41916
42217
42237
42008
41889
42096
42191
41832
42145
42195
42210
41878
41870
41831
41951
41954
41736
41959
42095
41735
42110
42292
41777
41884
42094
42294
41667
41773
41744
41791
41582
41840
42036
42326
41590
41880
42101
41912
41668
42189
42257
41674
41569
41757
41989
41785
41845
42379
41950
41603
41892
42112
41884
41589
42023
42666
41568
41354
41866
42110
41320
41783
42414
41903
41594
41681
42100
41773
41698
41488
41959
41647
41133
41862
41889
41596
41669
41413
41820
41559
41327
41824
41429
41062
41488
41624
41267
41705
41725
41569
41543
41433
41456
41709
41331
41688
41944
41876
41245
41661
41966
42037
41657
41733
42302
41620
41911
42078
42373
41865
42239
42227
42502
41909
42144
42421
42413
41799
42238
42449
41851
41774
42257
41993
42059
41893
42065
42313
41917
42162
41996
42309
41918
42262
42070
41854
41910
42117
42282
41998
41949
42064
42397
41992
41936
42015
42030
41935
41903
42175
42080
41897
42788
42306
41610
41759
42090
42158
41777
41818
42049
42084
41562
42180
42367
41933
41641
41854
42227
41692
42063
42148
42185
41935
41619
42004
42057
41928
41860
42309
41924
41831
41984
41920
41603
41829
41974
42190
41721
41577
41734
41983
41343
41992
41639
41752
41793
41853
41791
41341
41800
41657
41524
41691
41851
41702
41953
41423
41652
41977
41934
41280
41859
41911
42019
41638
42205
42378
41939
42166
42269
42598
41937
42356
42053
42178
42095
42283
42374
42347
41809
41983
42392
41945
41688
42485
42239
42286
42291
42281
42477
41826
42230
41984
42175
41650
42165
42235
42100
41784
42214
42313
42339
42128
42096
42250
41708
42102
42025
42069
42083
41971
42172
41792
42049
42038
42422
41903
42197
41989
42122
41906
41903
42009
42051
41821
41893
42101
42160
41682
42055
42473
41835
41696
42288
42294
41540
41908
42491
42147
41395
42182
42265
42020
41816
42263
42046
41562
41797
41849
42027
41465
41344
41745
41953
41647
41627
41894
42096
41726
41753
41802
41772
41697
41744
41938
41427
41603
41781
41522
41583
41793
41785
41811
41405
41485
41809
41850
42001
42266
42322
41984
42032
42332
42231
42157
41878
41931
42383
42080
42294
42479
42118
42139
42302
42851
42155
41897
42206
42379
41916
42142
42037
42516
41970
42161
42232
42181
41776
41936
42240
42012
41802
42320
42249
41918
41759
42066
42378
41606
42089
42298
42179
41733
42026
41893
41644
41568
42359
42337
41650
41948
42014
41865
41410
41620
42017
42108
41554
41782
42013
42191
41344
41791
41732
41651
41496
41845
41942
41667
41733
41744
41786
41633
41030
41836
41921
41533
41662
41668
41447
41360
41865
41618
41416
41657
41459
41690
41155
41484
41496
41371
41027
41546
41670
41438
41383
42168
41876
41386
41494
41819
41711
41478
41459
41343
41815
41268
41590
41973
42077
41522
41987
41858
41707
41757
41765
42090
42186
41855
42143
42299
41818
42116
41946
42298
42061
42142
42288
41820
42049
42156
42234
42259
41901
42059
42251
41733
41905
42434
41977
41826
42060
42087
42049
41947
42196
42155
41890
41847
41902
42108
41480
41893
41721
42285
41556
41802
42130
41792
41480
41780
42001
41514
41767
41972
42000
41029
41701
42114
41971
41414
41670
41861
41893
40898
41754
41949
41523
41538
41708
42048
41446
41899
42056
41902
41849
41971
41657
41611
41262
41872
41756
41325
41483
41801
41728
41397
41381
41656
41772
41599
41324
41569
41650
40862
41541
41462
41416
41254
41639
41684
41484
41339
41691
41608
41159
41541
41639
41650
41379
41401
41644
41670
41530
41653
42095
41711
41505
42079
41993
41783
41857
42036
42182
41845
41996
42193
41878
42056
42078
41902
41726
41761
41835
42097
41879
42029
41909
42121
41623
42011
42053
42017
41717
41923
41930
42096
41884
41937
41945
41698
41757
42115
42252
41495
41924
41802
41803
41557
42127
42510
42057
41493
41883
42195
41718
41847
41934
42025
41800
41667
41850
42076
41723
42048
42097
41779
41440
41753
42220
41480
41745
41870
41867
41825
41651
41966
42022
41742
41645
41861
41458
41392
41745
42505
41365
41516
41678
42095
41648
41872
41623
41970
41623
41710
41625
41619
41269
41619
41685
41814
41305
41632
41682
41462
41521
41746
41611
41093
41307
41639
41868
41293
41631
42197
41777
41567
41862
41997
41604
41737
42144
42314
42161
42092
42160
42308
41833
41887
42376
42265
42098
42180
42413
42201
41943
42247
42516
41992
42113
42346
42329
41807
41881
42358
42504
42131
42060
42293
42304
41745
42345
42512
41856
42473
42142
42265
42026
42113
42213
42577
42027
42263
41903
42012
41703
42328
42327
42009
41921
42281
42066
41608
42312
42234
42226
41762
42242
42320
42123
42053
42220
42225
41986
42153
42451
42387
42099
41986
42277
42354
41645
41988
42525
42143
41442
41915
42181
41781
41693
42468
42213
41850
41710
42114
42053
41699
41989
42056
42266
41224
41938
42053
41941
41898
42103
42097
41786
41863
42063
42292
41743
41721
41972
42000
41643
41775
42173
42119
41955
42107
42299
42090
42403
42362
42661
42516
42208
42712
42633
42037
42243
42503
42412
42381
42391
42722
42490
42190
42371
42647
42213
42253
42490
42591
42126
42489
42743
42718
42507
42588
42830
42293
42239
42244
42445
42356
42170
42585
42631
42502
41773
42402
42386
42042
42158
42407
42415
41928
42309
42681
41976
42216
42253
42339
42435
41898
42296
42466
41727
42558
42496
42277
41990
41930
42364
42115
42284
42241
42293
42092
42150
41990
42366
42031
42406
42051
42345
42000
42071
42274
41994
42114
42266
42257
41957
41936
42112
42155
41937
42102
41937
41917
41511
41974
42096
42131
42032
42030
41660
41507
41926
41902
42045
41637
41834
41923
41998
41518
41933
42068
41857
41995
42076
42514
41622
41952
42333
42413
41948
42338
42366
42527
42234
42025
42611
42058
42196
42560
42891
42418
42202
42400
42787
41922
42517
42253
42385
41974
42211
42174
42398
41899
42407
42641
42173
41927
42324
42516
41990
42150
42040
42534
42072
42382
42001
42336
41931
42136
42600
42320
41947
42386
42437
41820
41986
42146
42247
41364
42085
42205
42214
41840
41931
41996
42290
41922
41978
42388
41973
41772
42008
41929
42093
41671
42006
42075
41801
41795
41911
41895
41925
41763
42078
41892
41783
41775
42190
40895
41782
42320
42168
41744
41702
42117
41644
41344
41764
41700
41771
41380
41697
41748
41248
41370
41554
41884
41316
41578
41905
41737
41535
41592
41704
41641
41546
41546
41932
41683
41541
41602
41943
41824
42003
41903
42013
41980
42260
42607
42356
41735
42494
42164
42231
41892
42470
42267
41933
42196
42068
42322
41822
42069
42328
42257
41884
41982
42284
42205
41732
41862
42284
41885
41697
42172
42147
41950
42003
42358
42023
42194
42052
41917
42195
41844
42364
41997
42044
41828
41835
42162
41809
42078
41823
42159
41588
41827
42199
41994
41388
41902
41883
41682
41397
41857
42167
41877
41734
42169
42310
41753
41774
42151
41945
41942
41902
42087
41836
41818
41795
41835
41588
41636
41687
41809
41521
41578
42105
41865
41117
41826
41771
41508
41596
41617
41882
41695
41627
41670
42172
41496
41543
41559
41874
41693
41503
41594
41764
41523
41765
41967
41666
41438
41709
42109
41617
41753
41940
42403
41867
41943
42264
42423
41875
42127
42270
42295
42045
42376
42316
41940
41761
42100
42450
42140
42154
42356
42328
41774
42276
42303
42198
41803
42165
42098
41757
41885
42393
42101
41817
41955
42202
42139
41692
41929
42240
42096
41847
42016
42367
41734
41802
42091
42127
41607
41964
42115
42055
42057
41880
41978
42169
41610
41767
42033
41996
41913
42055
42214
42118
41747
42064
42104
41453
41922
41784
42093
41809
42140
42098
41883
41704
41927
42116
41443
41753
41876
41900
41384
41685
42261
42009
41698
41749
41885
42000
41456
41747
41929
41356
41484
41861
41902
41639
41531
41814
41931
41115
41049
41844
41745
41816
41989
41489
41577
41847
42373
42594
41164
42645
42360
42901
42105
41627
42546
41901
41916
42460
42596
41903
42335
42180
42564
42115
42426
42387
42484
42059
42098
42362
42335
42072
42205
42346
42464
41772
42179
42043
41704
42987
42771
42116
41903
42382
42199
43025
42010
42501
42728
41849
41886
42147
42417
42115
42104
42382
42465
41817
41877
42191
42447
41499
42039
42532
41508
41402
41935
42788
41777
41974
42233
42084
42013
42292
42358
42076
41821
42049
42277
42057
41544
41856
42140
42358
41792
41965
42061
41864
42040
41839
42045
41476
41998
41569
41950
40825
42130
42592
42111
41950
41792
42348
41450
41898
42233
42178
41431
41734
41686
41968
41822
41610
41795
42107
41886
42027
42008
41915
41732
42479
41671
42131
41841
42265
42376
42014
42099
42549
42406
42050
42426
42567
42381
42290
42490
42728
42454
42480
42481
43016
41821
42234
42628
42377
42270
42506
42779
42454
42380
42542
42718
42321
42056
42384
42821
42615
42815
42159
42631
42025
41792
42698
42198
41967
42137
42600
41928
41991
42219
42034
42206
42146
42084
42346
42165
42223
41740
42048
41111
42034
42584
42042
42366
41686
42291
41488
41418
42462
42304
41677
42155
42584
42405
41809
42143
42206
42003
41625
41983
42425
41998
41866
42348
42932
42039
42326
41772
42640
41787
42261
41220
41786
41974
42280
42068
41834
41662
41815
41970
41558
42051
42471
42284
42062
42174
41832
41941
41529
41961
41809
41936
41594
42072
41744
41736
42003
42006
42190
41727
42133
41871
42406
42061
42236
42344
42409
42160
42658
42843
42186
42065
42383
42626
42205
43073
42528
42583
42223
42317
42158
42225
42050
42959
42766
41809
42005
42276
42618
42219
42269
42733
42386
42170
42240
42354
42436
42019
42348
42554
42090
42003
42332
42121
42249
42208
42597
42473
41658
42654
42224
42099
41823
41909
42144
42065
41803
42238
42359
41958
41875
42400
42090
42100
42034
42323
42229
41718
41991
42073
42363
42225
42342
42079
41741
41657
42139
42017
41799
41962
41954
41830
41789
42015
42146
41929
41380
41964
41985
42006
41927
42108
42066
41729
42060
41921
42080
41270
42258
41600
41792
41375
41926
41859
41759
41366
41760
41844
41728
42030
41970
42395
41770
42066
42360
42356
41646
42200
42227
42474
42145
42576
42308
42242
42323
42470
42511
42113
42313
42127
42438
42051
42147
42501
42457
42170
42186
42182
42240
42014
42086
42587
41945
42268
42282
42325
42253
42346
41935
42116
41823
42181
42740
41959
41690
42038
42713
41918
42215
42377
42329
41925
42024
41965
42254
41611
42162
42542
41952
41811
42152
42243
41904
41905
42126
41823
41567
41710
42194
42157
41934
42023
42233
41871
41462
42119
42281
41731
41795
41843
41365
41633
41199
41927
42016
41328
41970
41778
41860
41121
41976
41834
41727
41664
41845
41942
41726
41662
41659
41886
41063
41608
41897
41736
41505
41792
41951
41718
41203
41857
41950
41657
42111
41816
41870
40746
41971
42225
42114
41675
42379
42383
42053
41985
42436
42604
42148
42071
42506
42071
41553
42348
42471
42294
41769
42302
42608
42295
41884
42427
42338
42069
41887
42224
42489
41942
41926
42252
42742
42142
42304
41864
42150
41690
42267
42323
42163
42038
41593
42216
42174
41807
42238
42325
41724
42121
42033
42057
42036
41319
42241
42173
41919
42132
42432
42014
41834
41923
41994
41608
41923
42386
42108
41630
41904
42084
42081
41731
42045
41967
41637
41683
42174
42285
41559
41887
41970
42001
41849
41869
42024
41991
41310
42012
41823
41545
41293
41776
42073
41336
41677
41589
42188
41486
42003
41693
42082
41953
41304
42625
41414
41343
42045
42130
41544
41439
41657
42269
41630
41885
42233
42351
41952
42169
42522
42422
42123
42400
42675
42406
42139
42413
42533
42040
42425
42267
42657
42022
42637
42416
42284
42102
42394
42136
42083
42019
42478
42378
42027
42451
42426
42432
41694
42276
42552
42389
41922
42183
42474
42335
42009
42390
42418
42037
41979
42375
42448
41803
42252
42084
42684
41868
42310
42567
42406
41788
42377
42731
41729
42134
42553
42424
41687
42116
42129
42321
41791
41994
42147
42230
42005
42238
42083
42132
41816
42337
42214
41823
41978
42062
42486
41796
42119
42166
42089
41786
42026
42041
41980
41699
42162
42242
42032
41950
42002
42127
41960
42219
41978
42126
41650
42175
41787
42061
41871
42176
42294
41931
41862
42056
42108
42368
42262
42503
42368
42132
42333
42606
42444
41847
42917
42510
42296
42527
42567
42656
42521
42576
42973
42828
42403
42618
42563
42493
42462
42519
43100
43059
42273
42723
42585
42176
42614
42724
42776
42482
42622
42980
42743
42300
42390
42902
42393
42181
42511
42364
42565
42199
42458
42561
41811
42334
42418
42687
41926
42254
42431
42323
42219
42495
42239
42317
42268
42579
42479
42278
41590
41692
42496
42581
42147
42595
42256
41765
42099
42443
41936
42262
42355
42411
42181
42209
42672
42437
41895
42365
42448
42251
41955
42160
42428
42044
41989
42190
42526
42160
41970
41937
42171
41893
42019
41841
42133
41646
41916
41880
42030
41458
42086
42174
41860
41915
42279
42146
42052
42105
41826
42224
41845
42103
42419
42407
42304
42071
42355
42406
42505
42581
42803
42170
42220
42943
42713
42227
42511
42826
42737
42428
42432
42835
42294
42355
42618
42620
42184
42698
42521
42698
42195
42121
42510
42378
42177
42503
42770
42443
42070
42489
42713
42346
41733
41927
42841
42021
42243
42233
41768
41721
42274
42722
42268
41743
42143
42136
42094
42308
42133
42430
42215
42075
42300
42599
42364
42286
42074
42080
41976
42137
42475
42244
41986
42151
42223
41891
41944
42235
42047
41742
42269
42057
41751
41713
42362
42412
41987
41833
42078
42198
41919
41960
42119
42252
41864
41666
41907
42079
41743
41873
41874
41806
41467
41976
42146
41711
41857
41981
42235
41878
41864
42193
42077
41570
41862
42827
42155
42311
42777
42233
42052
42138
42467
42543
41987
42336
42291
42942
42081
42396
42320
42327
41877
42256
42580
42790
42353
42611
42347
42261
42199
42208
42414
41702
42215
42113
42282
41850
42182
42318
42428
42462
42464
42663
42031
42138
42523
42023
41872
42092
42155
42325
41708
42131
42028
42305
41647
42048
42513
42082
41955
42039
42609
41681
42095
42086
42175
42059
42059
42221
42329
41677
42181
42079
41675
42194
42368
42397
42085
41953
42137
42222
42183
42082
42204
42070
41474
42160
42033
42222
41635
42075
42103
41816
41764
41997
42371
41717
41848
42018
42316
41530
41969
41622
41999
41350
42048
42165
41742
41683
42056
42215
41623
41696
42262
41953
41590
41973
42254
42388
41909
41926
42100
41992
41847
42108
42340
42248
41333
42178
42558
42062
42172
42910
42451
41987
42507
42641
42063
41913
42501
42316
42183
42500
42390
42248
41894
42282
42541
42529
42186
42481
42322
42274
42181
42126
42426
42156
41907
42230
42292
41865
42086
42418
42359
41781
41991
42286
42262
41968
42193
42265
42146
42053
42452
42169
42015
42057
41925
42194
42073
41995
42015
42273
41975
42260
42253
41918
41893
41994
42254
41664
41892
42158
42208
41663
41949
41914
41881
41229
42101
41901
41563
42022
42042
42369
41599
41924
42059
42000
41578
41902
42359
41919
41606
42024
41577
41924
41521
42159
42325
41646
41743
41870
41676
41540
41777
41910
41958
41450
41909
41955
41939
41544
41873
42125
41873
42111
42086
42260
41743
42138
42449
42235
42102
42032
42529
42399
42444
42319
42639
42574
41824
42343
42649
42724
42351
42334
42909
42024
42890
42142
42541
42464
42466
42411
42136
41612
42356
42419
41988
41891
42125
42251
41792
42298
42430
42459
42704
41730
42587
41672
41825
42796
42546
42164
42150
42225
42264
42067
42621
42590
42373
41820
41961
42559
42241
42106
42335
42503
42134
41887
42100
42134
41879
41976
42575
42359
42184
41980
42115
42223
41752
42318
42267
42390
41812
42165
42288
41997
41556
42039
42123
41968
41917
42131
42399
41839
41861
42031
42003
41508
41854
42117
41981
41817
42108
42574
41556
41882
42124
41982
41574
42039
41964
41891
41208
42026
42163
42051
42062
41905
42097
41878
42359
42347
42413
41968
42413
42585
42688
42250
42238
42812
42487
42472
42497
42678
42680
42330
42975
42839
42264
42477
42787
42780
42001
42624
42494
42549
42389
42498
42410
42371
41898
42739
42710
42264
42594
42783
42520
42248
42482
42494
42610
42214
42373
42657
42323
42471
42539
42814
42470
42491
42481
42388
43030
42487
42639
42471
42524
42246
42726
42570
41989
42552
42545
42145
42357
42447
42486
42142
42465
42469
42677
42588
41702
41737
42435
42203
42263
42335
41981
42237
42237
42809
42361
42301
42743
42502
42126
42374
42482
42308
41830
42373
42424
42166
42191
42306
42552
42059
42070
42447
42459
42088
42030
42332
42213
41950
42422
42495
41912
42080
42490
42543
42247
42468
42534
42490
42740
42767
42722
42644
42308
43030
42925
42643
42587
42755
43295
42700
42545
42925
43077
42836
42941
43011
42977
42577
42892
43278
42709
42678
42790
43315
42645
42423
42733
42633
42101
42577
42861
42930
42696
42773
43029
42867
42046
42585
42803
42550
42411
42798
42759
42735
42486
42638
42640
42397
42160
42760
42738
42185
42599
42426
42556
42091
42673
42753
42512
42081
42646
42415
42374
42309
42641
42798
42211
42271
42961
42726
42060
42547
42273
42095
42446
42668
42605
42032
42042
42602
42675
42417
42286
42391
42637
41965
42375
42553
42264
42204
42383
42471
42005
42020
42309
42341
41685
42224
42259
42255
42047
41903
42554
42126
42054
42237
42244
41943
42103
42329
42347
42252
42198
42509
42593
42470
42451
42607
42466
42533
42391
42998
42654
42245
42554
43024
42527
42749
42951
42746
42471
42529
42727
42646
42127
42746
42841
42316
42695
42731
42734
42216
42294
42715
42916
42359
42375
42452
42791
42081
42322
42619
42534
42359
42412
42304
42209
42344
42578
42625
42178
42343
42674
42635
42362
42520
42719
42526
42195
42552
42488
42392
42324
42490
42890
42049
42356
42288
42433
41847
42157
42650
42335
41994
41938
41926
41692
42358
42440
42750
41786
42303
42619
42293
42274
42449
42362
42089
41839
42013
41839
42082
42055
42080
42309
41692
42212
41766
42083
41580
41625
42388
42157
41839
42080
42492
41959
41617
42335
42219
41889
41855
42070
42201
41688
42182
41942
42202
41802
41906
42337
42119
42288
42445
42700
42356
42293
42534
42656
42453
42382
42918
42449
42491
42496
42854
42651
42258
42471
42716
42340
42249
42412
42691
42375
42225
42624
42444
42554
42225
42429
42483
42317
42608
42648
42443
42102
42270
42429
42330
42602
42445
42591
42120
42281
42417
42475
41880
42370
42394
42465
42075
42459
42231
42199
42201
41957
42471
42061
42017
42114
42160
41961
42169
42628
42217
41885
42180
42350
42154
42014
42440
42321
41957
41881
41991
42628
42074
41973
41812
42215
42275
42157
42350
42097
41810
42189
42321
41412
41840
41868
42098
41800
42136
42094
42018
41731
41894
42054
41975
41594
41989
42256
41745
41854
42068
42020
41729
42002
42140
41974
41931
42110
42017
42131
41992
42228
42381
41983
42106
42521
42727
42147
42448
42679
42722
42363
42586
42764
42531
42351
42753
43009
42594
42297
42665
42668
42664
42307
42525
42434
42508
42489
42228
42035
41862
42484
42491
42186
42342
42321
42558
42267
42398
42692
42538
42036
42239
42665
42498
41953
42922
42033
43034
42212
41997
42379
41469
42714
42365
42172
41631
43114
42579
42310
41501
41823
41756
41646
41369
41856
43649
42376
41777
42096
42263
42105
42314
42290
42295
42321
42339
42407
42343
41789
42190
42762
42123
41447
42751
41757
41776
42702
42366
42308
41788
42237
41692
41301
41596
42454
42074
42600
41795
42294
41507
41227
41788
42376
41912
41511
42561
42360
42983
42476
42245
41944
42292
41621
41701
43209
42427
42580
42473
42453
42053
42504
43058
42701
42428
42515
42834
42691
41917
42420
42766
42618
42502
42761
42905
42794
42221
42338
42428
42401
42572
42258
42525
42718
42778
42962
42571
42335
41803
41827
41836
41154
41826
42705
42440
42968
42570
43031
42491
42836
42353
42199
41745
42451
41925
41782
42809
42609
41642
41367
41732
41824
42824
41427
42243
42530
42376
41480
42151
42468
42019
41816
42306
42431
41850
42086
42306
42304
41657
42014
42404
41978
41910
42014
42401
41923
41626
42671
41315
41280
41910
42214
41543
41878
42021
42236
42212
41591
42109
42157
42108
41952
41636
41577
41607
41816
41947
42234
41519
42057
42343
42111
41804
41892
42221
42078
41902
42452
42452
42287
41882
42403
42553
42209
42102
42595
42736
42400
42564
42820
42741
42448
42598
42851
42222
42686
42773
42118
42411
42439
42829
42675
42386
42608
42681
42549
42579
42196
42582
42109
42310
42609
42580
41783
42509
42566
42709
41895
42409
42244
42564
41909
42459
42675
42406
42048
42299
42142
42417
42364
42323
42650
42192
42477
42558
42385
42075
42382
42506
42253
42037
42302
42314
42373
42046
42399
42589
42281
42429
42283
42962
42486
42309
42441
42484
42052
42697
42911
42141
42263
42333
42734
42407
42258
42379
42319
42102
42358
42173
42556
41715
42152
42484
42302
41813
42215
42608
42031
41866
42220
42787
41927
42423
42443
42296
41604
42246
42449
42377
41979
42682
42020
42326
42107
42612
42960
42471
42768
42734
42907
42355
42593
42863
42799
42386
42546
42638
42733
42361
42569
42596
43132
42733
42828
42727
42556
42419
42624
42797
42188
42801
42456
42329
42159
42414
42786
42632
42299
42703
42635
42129
42312
42434
42660
41995
42457
42434
42238
42101
42371
42563
41584
42141
42312
42714
41975
42432
42201
42286
42158
42223
42133
42186
42851
42515
41829
41985
41846
42073
42385
41967
42316
42214
42437
41751
42141
42271
42344
42028
42317
42009
42203
41685
42172
42204
41935
41860
42272
42334
42081
41776
42278
42219
41634
42052
42108
42178
41733
42097
42057
41873
41763
42035
42220
41781
42239
42063
41819
42074
41737
42020
42031
41828
42113
42141
42221
42274
42262
42167
42177
41990
42056
42576
42175
42480
42444
42179
42469
42278
42646
42482
42419
42683
42575
42279
42296
42303
42933
42082
42524
42554
42609
42463
42236
42393
42421
42314
42455
42311
42184
42149
42395
42276
42220
42640
42552
42466
42048
42040
42761
42476
41898
42165
42719
42173
41980
42168
42103
41768
42151
42427
42170
41630
41833
42399
42153
42074
42030
42647
42064
41771
42170
42227
41932
41742
42410
42163
42122
41907
41825
42257
41732
41932
42142
42045
41862
41836
41979
41696
41810
42005
41917
41556
41841
41779
41874
41553
41826
42065
41803
41661
41851
41976
41534
41560
42061
42008
41245
41653
41715
42123
41305
41823
41795
41730
41361
41768
42158
41625
41417
41924
41961
41373
41975
42168
42240
42123
42124
42582
42295
42050
42300
42252
42066
42372
42470
42649
41850
41906
42548
42479
42126
42365
42758
42597
42068
42362
42509
42069
41785
42397
42112
42222
42402
42282
42511
42029
42463
42490
42372
42102
42312
42558
42239
41667
42105
42399
41895
41799
42244
42216
41946
42267
42516
42658
41776
41964
42271
42046
41759
42086
42258
41787
41689
42395
42261
41648
42135
41732
42249
41852
41995
42095
41755
41711
41950
42100
41855
41899
41979
42283
41655
41926
41910
42121
41756
41787
42298
42039
41612
41805
41922
41981
41652
42009
42205
41530
41912
42175
42078
41418
41723
41921
41888
41372
41659
41680
41743
41261
41727
42217
41577
41839
41985
41958
41930
41785
41939
42224
41299
42222
41887
42066
41811
42445
42424
42013
41964
42298
42517
41798
42113
42508
42547
42122
42131
42206
42557
41895
42296
42583
42386
42104
42372
43274
42179
42304
42366
43350
42008
42158
42202
42295
42294
42328
41882
42473
41362
42180
42415
42022
41608
42489
42272
41948
42048
42382
42162
41644
41774
42425
42068
41974
42230
42339
41711
41834
41815
42153
42000
41756
42184
42258
41675
41758
42119
41655
41580
42228
42075
41798
41721
42081
42271
41624
41694
42041
41366
41982
41704
42105
42130
41901
42068
42035
42172
41684
42081
42187
41619
41855
41899
42070
41943
41813
42020
42124
41618
41606
41840
41870
41242
41703
41697
41558
41340
41874
41851
41574
41689
41804
41983
41778
41798
42062
41744
41300
42053
41926
41943
41811
42423
42249
42628
42178
42198
42563
41910
42196
42660
42562
42203
42494
42643
42435
41901
42108
42240
42149
42451
42352
42558
42241
42096
42412
42467
42204
41983
42232
42157
41967
42346
42350
41813
42235
42460
42321
41659
42092
42442
42363
41765
42174
42239
41820
42018
42125
42358
41866
41842
42168
42227
41904
42032
42465
42469
41823
42029
42228
42312
41812
42112
42132
42237
41777
42129
42577
41636
42205
42344
41939
41872
42135
42100
42147
41723
42158
42242
41935
41689
42019
42155
42097
41937
41989
42067
41832
42259
41836
42082
41674
41900
41943
41854
41863
41808
42088
41566
41911
41822
42069
42058
41868
42200
42261
41846
42022
42097
42163
41672
42136
42537
42177
42246
42371
42536
42164
42390
42519
42676
42142
42625
42674
42302
42154
42532
42839
42693
42175
42282
42881
42440
42171
42591
42329
41981
42083
42409
42354
41930
42631
42575
42260
41991
42551
42684
41956
41952
42588
42415
41916
42199
42425
42662
41775
42384
42759
42338
42236
42370
42287
42228
41869
42343
42743
42219
42282
42036
42072
41768
42900
42593
42315
41800
42219
42542
42411
41786
42519
42381
42211
42206
42289
42369
42312
42243
42401
42371
42092
42199
42211
42361
41925
42064
42562
42067
41965
42038
42033
42213
41853
42573
42289
42096
42088
42176
42002
41757
42104
42438
41751
42045
42144
42179
42038
41980
41998
42339
41990
41640
42170
42279
42013
42094
42315
42340
42021
42215
42305
42300
42517
42566
42559
42012
42312
42547
42623
42307
42473
42540
42675
42435
42681
42837
42314
42415
42630
42612
42391
42429
42591
42766
42036
42658
42609
42574
41963
42278
42874
42414
42318
42431
42587
42406
42328
42513
42261
42121
42107
42690
42356
42011
42319
42390
42253
42032
42478
42676
42186
42052
42447
42422
41659
42278
42267
42661
42040
42345
42681
42168
41948
42314
42382
42054
42005
42101
42387
41741
42177
42216
42297
41683
42197
42388
42171
42282
42139
42234
42147
41776
42154
42268
42366
41872
42078
42327
41929
42129
41876
42136
41967
41578
42560
41762
41606
42182
42004
41768
41979
41626
42058
41552
41941
42291
42106
41255
42122
42162
41955
41768
42263
42429
41866
41847
42426
42275
42084
42043
42411
42330
41819
42277
42755
42625
42191
42406
42457
42489
42383
42185
42381
42258
42419
42575
42432
42107
42370
42342
42286
41991
42323
42457
42217
42127
42569
42442
41739
42219
42254
42278
41906
42045
42364
42474
42196
41957
42575
41772
41848
42295
42299
41836
42049
42396
42379
42139
41926
42070
42310
42034
41923
42005
41852
41964
42058
42188
41920
41972
42140
41863
41750
42141
42232
42110
41471
41956
42219
41995
41601
41956
42117
41894
41782
41990
42073
41806
42197
41977
42047
41278
41714
41893
41716
41276
41655
42231
41652
41236
41723
42046
41748
41766
42022
41977
41776
41422
41812
42073
41311
41762
41720
42026
41655
41937
41962
41672
41591
41908
41945
41889
41781
41966
42038
41629
41729
41738
42127
41771
42512
42235
41323
42257
42213
42290
42175
42015
42326
42341
42019
42331
42500
42194
41768
42147
42307
42000
42006
42140
41963
42087
42192
42234
42136
41843
41995
42276
42173
41729
42112
42236
42034
41765
41940
42372
41872
41927
42457
42330
41542
42244
42011
42312
41544
41549
42326
41927
41566
42161
42153
41785
41812
41884
41987
41799
42321
41918
41892
41242
42119
42281
42076
41439
42193
42051
41370
41681
42271
42105
41503
41795
41762
42126
41400
41659
41803
41853
41930
41741
41919
41661
41405
41948
41767
41602
41884
41475
41797
41310
41860
42077
41633
41498
41636
42093
41310
41519
41434
42040
41549
42059
41970
41924
41753
41690
41602
41675
41722
41705
42061
41953
41586
41976
42308
42084
41837
42216
42327
41740
42208
42196
42779
42083
42289
42687
42441
41869
42296
42407
42140
41990
42559
42546
41837
41839
42482
42093
41889
42302
42439
42395
41886
42104
42169
42186
41772
42354
42281
42098
42009
42073
42413
41608
41935
42275
42106
41917
41699
41914
42030
41595
42046
42109
41916
41924
41905
42463
41503
41649
41990
42107
41758
42024
41755
41967
41503
41999
42291
41735
42147
41930
41945
41579
41728
42026
41809
41620
41902
41986
41559
41724
41780
41812
41311
41598
41976
41838
41631
41753
42209
42222
41445
41658
41837
41860
41752
42060
41813
41744
41460
41960
42230
41544
41599
41714
41465
41390
41826
41445
42081
41620
41703
41911
41837
41810
41750
42099
41784
41478
41798
42291
41633
41794
42020
42139
41475
41994
42450
42170
42076
42189
42239
41999
41747
42217
42575
42282
41384
42033
42400
41927
42069
42175
42260
41914
42188
43194
41942
42286
42230
42421
41960
42304
42194
42254
41534
42377
41958
42312
41978
41917
42301
42299
41627
41879
42171
41931
42137
42106
42256
41786
41919
42169
42361
41571
41945
42210
42439
42071
41912
41968
42043
41734
42102
42170
41861
41950
42425
42115
41420
42128
42194
42111
41715
41906
42284
41984
41850
42360
42140
42020
41981
41853
41868
41630
42029
41831
42099
41881
41987
42127
42102
41851
41991
41920
41577
41918
41620
42037
41803
41823
41770
41842
41757
41836
42153
42062
41887
42067
42255
41870
41868
42329
42616
41980
42045
42231
42215
41756
42633
42650
42257
41907
42226
42773
42379
41904
42418
42947
42226
42364
42537
42729
41913
42419
42639
42254
42036
42469
42896
42284
42186
42375
42583
42163
42301
42358
42680
42217
42084
42692
42378
42625
42254
42206
42421
42471
42835
42572
42180
42290
42338
42499
42265
42088
42356
42342
42369
42299
42509
42515
42099
42304
42467
42296
41921
42321
42531
42092
42084
42481
42560
42275
42042
42360
42167
41899
42131
42662
41695
41989
42318
42336
41967
42021
42345
42548
42043
42014
42408
42068
41897
42450
41313
42194
41968
42253
42392
41578
41806
41986
42324
41870
42471
42132
42207
41930
42065
42036
41971
42178
42496
42314
41915
41814
41977
42232
41911
42021
42350
42558
41773
42338
42667
42343
42041
42435
42978
42330
42506
42612
42607
42285
42512
42725
42808
41497
42591
42837
42625
42225
42564
42985
42453
42317
42513
42802
42420
42397
42707
42663
41948
42442
42688
42481
42112
42332
42646
42509
42330
42382
42744
42065
42196
42535
42504
42149
42510
42502
42092
43043
42345
42650
42305
41761
42719
42804
42255
42004
42431
42525
42254
42238
42487
42751
42081
41945
42230
42263
41902
42138
42687
42131
42150
41907
42073
41844
42084
41903
42168
41602
41975
42403
42214
41747
42076
42469
42347
41507
42097
42168
42070
42115
42277
42225
42250
41968
42218
42185
41949
42054
42098
42101
41531
41834
42271
41754
41873
41897
42270
42606
41689
42299
42305
41640
41944
42144
42128
41640
42334
42634
41908
42583
42601
42447
42183
42210
42552
42657
42025
42507
42772
42764
42091
42563
42719
42574
42266
42787
42833
42230
42436
42662
42834
42374
42201
42483
42747
42335
42464
42322
42540
42225
42277
42541
42034
42099
42358
42517
42197
42082
42513
42351
42184
42227
42400
42475
42019
42331
42126
42275
42240
42612
42589
42215
42076
42255
42343
42003
42574
42309
42446
41593
42020
42433
42157
41897
42520
42261
42120
41981
42444
42370
41984
42141
42300
42366
41523
42157
42351
42284
41934
42299
42099
42044
42258
41826
42426
41669
42004
42213
42320
41943
42215
41998
42127
41721
42053
42117
41634
41834
41904
42473
41969
41967
42160
41999
41907
41789
41963
42128
41938
42005
42209
41789
42071
42095
42465
42041
42085
42409
42477
42215
42230
42773
42721
42168
42381
42631
42424
42714
42664
42542
42313
42509
42421
42873
42375
42523
42725
42753
42241
42638
42742
42584
42576
42448
42802
42413
42392
42834
42620
42158
42072
42593
42701
42087
42496
42436
42528
42619
42385
42801
42257
42288
42476
42717
42241
42437
42566
42644
42077
42291
42472
42370
42188
42357
42563
42364
42186
42558
42293
42346
42041
42295
42245
41989
42342
42603
42582
41747
42308
42680
42411
42266
42664
42521
42373
42228
42637
42627
42364
42115
42175
42330
41857
42513
42433
42397
42371
42583
42909
42111
42043
42106
42354
42230
41654
42336
42325
41856
42056
42011
42207
41848
42626
42191
41927
41751
42432
42845
41945
42112
42717
42504
42150
42458
42319
42383
42056
42467
42547
42705
42382
42635
43064
42509
42553
43010
43245
42892
42702
43079
42724
42415
42831
42460
42626
41986
42829
42945
42443
42631
42820
42605
42184
42810
42667
42534
42500
42413
42546
42504
42065
42699
42990
42441
42437
42531
42647
42579
42403
42475
42764
42473
42390
42721
42737
42064
42601
42678
42512
42239
42372
42628
42367
42207
42834
42717
42562
42470
42417
42718
42078
42507
42682
42647
42071
42453
42569
42063
42396
42390
42703
41739
42267
42823
42551
42160
42268
42627
42568
42076
42515
42829
42399
42180
42344
42535
42053
42292
42368
42329
42393
42204
42297
42300
42070
42358
42286
42177
42088
42320
42527
42132
42085
42397
42488
42019
42345
42467
42830
41899
42872
42785
42546
42238
42546
42957
42596
42384
43052
42629
42563
42801
43063
42926
43575
42965
42852
42664
42629
42834
42998
42692
42532
42883
43015
42668
42558
42786
42916
42626
42756
43174
42905
42817
42794
42473
42947
42733
42817
43028
42423
42954
42962
42949
42541
42446
42738
42960
42122
42624
43249
42947
42548
43120
42803
42697
42624
42752
42898
42472
42642
42690
42858
42668
42499
42788
42681
42429
42978
42912
42342
42834
42717
42929
42440
42628
42779
42597
42496
42577
42538
42642
42316
42535
42848
42429
42322
42693
42698
42182
42463
42548
42505
42276
42388
42713
42609
42252
42481
42753
42407
42049
42587
42342
42053
42282
42357
42510
42318
42292
42767
42646
41976
42563
42403
42721
42274
42660
42972
42504
42731
43048
42995
42716
43006
43192
43198
43032
42987
43195
43004
42909
43028
42938
42971
42679
43222
43177
42806
42887
43055
43048
42413
42897
43144
43304
42599
42825
43371
42836
42879
42799
42982
42627
42595
42753
43126
42694
42900
42992
42933
42776
42546
43049
43106
42695
42640
43327
42692
42782
43076
43040
42922
42985
43237
43075
42654
42644
43122
42668
42678
42915
42959
42718
42373
42842
42957
42872
42688
42637
43080
42600
42983
42883
42754
42582
42983
42951
42637
42455
42884
43821
42658
42866
42956
43429
43060
42627
42891
42646
42178
42690
43006
42585
42526
42965
43017
42474
42475
42745
42864
42351
42684
42877
43221
42207
42751
42865
42815
42429
42696
42894
42947
43515
42600
42496
42379
42879
43083
43285
42977
43169
43385
43221
42818
42953
43081
43380
42861
43201
43212
42837
43134
43257
43542
43044
42895
43152
43025
42625
43264
43170
43272
42908
43148
43260
42973
42497
43122
43301
42782
43095
43104
43183
42791
43022
42827
43210
42676
43174
43421
42807
42992
43141
43074
42992
43015
43173
43176
42850
42801
43108
43078
42865
42914
43239
42875
42764
43187
43061
42900
42888
42714
42937
43013
42877
42935
43144
42699
42787
43334
43173
42502
43103
42900
42709
42475
42898
42982
42445
42816
42991
43136
42427
42527
42951
42982
42941
42810
42759
42616
42672
42971
42892
42603
42533
42838
42790
42518
42715
42852
42901
42516
42439
42807
42617
42500
42971
43213
42892
42710
42929
43450
42767
42866
43204
43087
42923
43244
43401
43175
43084
43209
43577
43278
43680
43260
43250
43182
43178
43417
43346
43211
43078
43320
43159
43054
43442
43635
42932
42900
43318
43411
42685
42989
43323
43217
42792
43063
43419
43213
43359
43066
43522
42893
42837
43574
43345
42801
42799
43006
42927
42798
42939
42931
43087
42897
43141
43396
42877
42734
43073
43324
42714
42959
43361
43218
42646
42854
43081
43193
42296
43075
43027
42923
42951
42965
43547
42637
42939
42961
43109
42743
42788
42833
42904
42602
42960
43825
43041
42543
43000
43369
42733
42574
42652
43087
42460
42755
42916
43137
42272
42618
42926
42871
42373
43164
42812
42633
42605
43044
43262
42670
42988
43151
42852
43061
43200
43650
43594
42947
43547
43707
43453
43116
43772
43521
43461
43270
43645
43550
43316
43407
43539
43760
43312
43509
43458
43522
42966
43391
43653
43320
43064
43514
43495
43246
43392
43516
43467
43247
43636
43612
43517
43264
43591
43594
43170
43203
43423
43655
43053
43019
43190
43274
43127
43168
43219
43584
43124
43274
43511
43423
42997
43624
43041
43190
42960
43285
43540
42730
42895
43435
43392
42868
43139
43403
42901
43063
43093
42827
43030
42931
43010
43237
43151
43042
43170
43251
43062
43114
43298
43358
42812
43204
43561
42990
42644
43098
43157
42672
42741
43137
43275
42673
42912
43320
43037
42526
42834
43422
43020
42696
43017
42565
42872
42725
42949
43183
42889
42940
42991
43381
42429
43130
43394
43247
42794
43403
43719
43078
43309
43378
43546
43458
43421
43509
43613
43359
43417
43852
43668
43107
43482
43693
43615
43059
43454
43798
43233
42949
43190
43495
43224
43287
43622
43247
42901
43163
43518
43590
43284
43212
43577
43168
43056
43302
43597
43389
43257
43251
43290
43220
43541
43239
43373
42644
43121
43290
43091
43115
43452
43360
43274
43182
43714
43366
43103
43211
43360
43362
42912
43263
43382
43143
43095
43346
43356
42896
43150
43305
43162
42751
43267
43153
43357
43066
42985
43149
43235
42794
43400
43173
42905
42553
42891
43077
42676
43031
43102
42948
42429
43017
43047
43017
42637
43131
42920
42702
42785
42998
43148
43214
42992
43363
43255
42980
43444
43417
43274
42793
43267
43840
43101
43407
43789
43644
43492
43307
43541
43715
43043
43309
43890
43679
42939
43731
43671
43217
43156
43501
43632
43140
43418
43651
43648
43164
43420
43833
43855
42868
43543
43591
43274
42995
43484
43649
43316
43229
43335
43653
43447
43297
43588
43542
43082
43138
43417
43528
42857
43383
43516
43179
43260
43343
43556
43044
43100
43525
43559
43088
43328
43408
43261
43056
43473
43866
43681
43914
43212
43686
43193
43318
43381
43468
43300
43369
43621
43442
43503
43418
43587
43239
42711
43111
43627
42837
43067
43499
43361
42738
43160
43375
43223
42648
43403
43623
43185
42866
43289
43096
43203
43225
43324
43482
43052
43197
43345
43428
43274
43303
43389
43516
43219
43235
43464
43350
42984
43601
43942
43415
43757
43587
44039
43503
43751
44137
43941
43714
43809
44342
43735
43444
43491
44007
43600
43479
43882
44094
43910
43739
43991
43870
43432
43868
44127
44004
43625
43886
43959
43926
43793
43560
44067
43224
43516
43599
43999
43406
43726
44081
43850
42909
43829
43984
43733
43430
43895
43895
43560
43267
43812
43834
43498
43326
43795
43593
43330
43577
44125
43607
43443
43463
43811
43532
43382
43768
44076
43032
43268
43820
43693
43278
43454
43822
43719
43010
43393
43469
43308
43140
43566
43672
43221
43195
43506
43543
43265
43517
43479
43349
42935
43243
43165
43048
42669
43485
43739
43299
42911
43569
43470
43252
43451
43176
43394
42780
43316
43564
43678
43095
43452
43526
43647
43287
43818
43820
43735
44017
43991
43994
43908
43764
44013
43919
43515
43929
43681
43962
43733
44005
43850
43527
43567
43754
44044
43407
43645
43765
43698
42740
43774
43908
43707
43249
43718
43757
43783
43634
43842
43829
43541
43513
43745
43777
43387
43479
43548
43594
43075
43475
44045
43304
43326
43634
43649
43448
43391
43264
43559
43276
43426
43566
43523
43351
43472
43255
43545
43088
43369
43330
43026
43382
43647
43642
43207
43224
43424
43382
42878
43331
43438
43240
43068
43093
43635
42989
42998
43422
43371
42900
43098
43240
43311
42664
42892
43100
43338
42739
42811
43082
42885
42838
43191
43210
42857
42917
43209
43169
43079
42924
43326
43187
42719
43155
43533
43315
42798
43339
43411
43106
42689
43423
43413
42872
43512
43869
43834
43641
43962
43823
43543
43483
43912
43738
43599
43467
43706
43753
43322
43630
43744
43823
43406
43432
43371
43407
43153
43680
43391
43539
43297
43823
43966
43274
43405
43636
43702
43463
43278
43742
43594
43140
43218
43777
43454
43057
43538
43435
43317
43134
43574
43519
43330
43433
43317
43461
42983
43442
43704
43479
42976
43460
43737
43010
43609
43353
43410
43271
43355
43383
43612
43312
43044
43278
43567
42872
43389
43251
43139
42984
43317
43262
43098
43096
43112
43311
43127
43188
43353
43322
43051
43084
43129
42961
42813
42946
43570
43125
43158
43453
43570
42948
43318
43190
43366
43214
43356
43320
43448
43342
43599
43836
43213
43209
43412
43721
43573
43468
43800
44014
43404
43606
44163
43961
43544
43918
44092
44042
43445
44050
43868
43715
43314
43904
43714
43480
43741
43513
43598
43366
43529
44179
43640
43215
44074
44015
43596
43497
43674
43832
43470
43612
43716
43613
43396
43679
43513
43837
43402
43724
43683
43603
43340
43488
43726
43366
43396
43332
43796
43414
43792
43449
43851
43342
43849
43874
43649
43294
43574
43865
43218
43510
43078
43722
43484
43515
43471
43641
43613
43575
43537
43515
43288
43512
43695
43332
43186
43351
43356
43121
43335
43418
43387
42965
43579
43491
43566
43300
43376
43512
43322
43113
43316
43434
43341
43275
43574
43537
43095
43250
43790
43714
43411
43741
44131
43637
43614
43589
43765
43717
43803
43878
44167
43596
43913
44300
44110
43992
43861
43836
44160
43875
43847
43908
43758
43671
44151
44334
43628
44073
44097
44223
43409
43551
44051
44182
43868
43807
44137
43809
43800
44039
43907
43866
43758
43942
44063
43921
43827
43936
43946
43099
43962
43713
43942
43591
43698
44319
43657
43871
43726
44146
43682
43839
43754
43648
43528
43652
43849
43963
43469
43810
44042
43553
43621
43715
43931
43750
43541
43808
43925
43574
43498
43927
44065
43367
43549
43537
43784
43539
43699
43699
43288
43420
43625
43733
43313
43421
43808
43690
43233
43409
43620
43519
43317
43698
43871
43425
43475
43656
43627
43523
43667
44068
43969
43656
43579
43864
44032
43568
44194
44075
44081
43929
44156
44422
44075
43848
44685
44278
43847
44415
44154
44251
43924
44241
44444
44212
43907
44342
44247
43781
44098
44201
44195
43901
44061
44157
44212
43642
44036
44764
44670
43744
44167
44498
44052
43349
44274
44245
44236
43916
44183
44386
43872
44072
44044
44015
43686
44290
44021
44079
43775
44353
44118
44242
43919
43994
44172
43976
43795
44233
44319
43869
44131
44181
44151
43755
44359
44386
43816
43854
44231
44150
44071
43892
43948
44099
43548
44086
44348
43846
43484
43859
44167
43791
43823
43991
44223
43526
43825
43782
43650
43615
43855
43962
43914
43668
43528
43954
43615
43921
43728
43997
43551
43436
44121
43919
43426
43813
43979
44298
43801
44296
44419
44128
43940
44426
44516
44087
44138
44513
44436
43958
44151
44287
44571
44012
43968
44604
44317
43740
44401
44470
43931
43623
44190
44461
43956
44242
44263
44254
43844
44253
43977
44414
43709
44388
44461
44214
43928
44044
44414
43901
44051
44273
44347
43665
44113
44169
44054
43904
44147
44299
44015
43730
44096
44200
43677
43773
44149
44267
43598
43803
43880
44234
43700
43898
44002
43855
43807
44133
44244
43479
43600
43889
43993
43653
43691
43871
44128
43800
43697
43926
43799
43549
43934
43754
43839
43287
43415
43844
43484
43372
43977
43612
43474
43562
43630
43724
43604
43486
43460
43440
43253
43902
43947
43459
43360
43655
43826
43651
43583
43691
43790
42964
43737
43756
44036
43903
43901
44254
44160
43918
44334
44233
43979
43935
44185
44257
43817
44059
44253
44225
43791
43860
43883
44251
44049
43981
44358
44052
43830
44108
44041
43737
43807
44022
44106
43558
44103
44217
44032
43575
43752
44282
43981
43557
43951
44310
43768
43670
43802
43752
43632
43695
43917
43933
43502
43624
43751
43483
43528
43938
43819
43589
43668
43851
43919
43517
43823
43475
43899
43249
43777
43647
43730
43577
43819
43727
43351
43690
43676
43910
43575
43695
43758
43850
43028
43392
43692
43859
43251
43433
43622
43175
43166
43459
43604
42586
43296
43319
43657
43079
43354
43922
43542
42890
43255
43800
43277
43277
43510
43400
43168
43120
43292
43522
43044
43614
43721
43897
43476
43618
43958
43761
43896
43780
44271
43714
44047
44035
44188
43713
43806
44093
44416
43501
43875
44148
44004
43318
43857
44000
43558
43646
44143
44345
43361
43640
43798
44001
43490
44036
43794
43916
43261
43930
43989
43718
43724
43728
43734
43673
43426
43723
43704
43614
43652
43630
43859
43266
43658
43552
43890
43229
43584
43757
43575
43595
43687
43777
43637
43431
43902
43772
43312
43407
43601
43676
43311
43333
43447
43376
43109
43527
43848
43121
43374
43536
43731
42850
43390
43260
43786
43317
43484
43655
43529
43352
43659
43670
43461
43371
43542
43728
42874
43309
43086
43530
43288
43236
43432
43137
42902
43432
43261
43079
43157
43534
43509
43355
43774
43486
43673
43466
43409
44094
43977
43379
43957
44034
43797
43707
44068
43992
43867
43999
44111
43881
43578
43921
43942
43869
43805
44050
44205
44091
43482
44163
43913
43737
43723
43915
44041
43774
43761
44031
43830
43593
43915
44110
43883
43205
43996
44134
43537
43480
44066
43952
43544
43635
44042
43919
43462
43514
44099
43837
43756
43998
43931
43553
43750
43522
43687
43837
43469
43721
43887
43489
43560
43869
43768
43356
43669
43643
43833
43149
43910
43891
43588
43095
43634
43674
43485
43429
43484
43717
43208
43504
43729
43725
43130
43417
43706
43460
43248
43570
43504
43589
43454
43473
43682
43254
43236
43751
43470
43167
43661
43586
43723
43366
43769
43490
43270
43414
43575
43785
43595
43784
43664
44077
43545
43763
44082
43958
43755
44064
44271
44161
43670
44162
44194
43863
44189
44068
44154
44153
43868
44062
44231
43321
44040
44132
44174
43739
44041
44055
43726
43895
44271
44036
43572
43577
44140
44195
43752
44072
44328
