28769
28549
28850
28971
28658
28827
28723
28858
28664
28783
28939
28948
28683
28770
28981
28851
28670
28862
29015
28978
28795
29161
28720
28819
28608
29032
29115
28747
28799
29257
28892
28615
29076
29065
28726
28829
29162
28824
28956
28666
29162
28790
28973
28809
29184
28882
28870
29046
28928
28889
28969
29043
29114
29091
29035
29268
28890
29057
28704
28962
29151
28771
28813
28966
28943
28853
28922
28953
28957
28947
29217
29155
28853
28923
29239
29008
29060
29005
29087
29063
28898
29058
29136
28985
28731
29103
29251
29072
28850
29165
29014
28941
28966
29192
29133
28839
28997
29044
29034
28856
29076
29294
29267
28962
28897
29314
28970
28724
29100
28883
28694
29023
28926
28890
28500
28962
29026
28831
28771
28866
28998
28612
28635
28655
28660
28483
28755
28772
28785
28593
28789
28573
28607
28641
28861
28767
28567
28315
28541
28723
28576
28744
28682
28757
28565
28581
28614
28552
28423
28885
28639
28599
28421
28705
28812
28660
28640
28833
28775
28750
28727
28999
28784
28673
28730
28784
28667
28656
28839
28886
28611
28630
28952
28869
28638
28946
28758
28771
28775
28971
28817
28957
28473
28945
29004
28898
28757
29147
28778
28926
28573
28869
28834
28748
28909
28980
28864
28667
28943
28948
29029
28996
29207
28871
28975
28865
28996
28914
28621
28998
28887
28916
28782
28969
29178
28962
28765
29155
29225
28793
28951
29224
28926
28819
29111
28956
28968
28840
29217
29031
28874
28877
29326
29147
28841
29095
29001
29042
29073
28971
29172
29276
29022
29017
29093
29206
28986
28968
29060
28975
29238
29069
29094
29015
29012
29324
29112
29006
29075
29107
29131
29021
29119
29263
28961
29023
29086
29348
29169
28870
29210
29112
28761
29070
29086
28965
28673
28915
28897
28939
28592
28946
28840
28800
28719
28847
28960
28774
28662
28845
28813
28462
28592
28767
28558
28566
28549
28634
28770
28597
28587
28894
28524
28669
28797
28831
28387
28647
28734
28520
28468
28777
28659
28781
28459
28821
28678
28513
28611
28598
28703
28434
28821
29002
28870
28666
28865
28904
28641
28957
29052
28989
28690
28600
29058
28804
28837
28954
29031
28794
28741
28836
28755
28646
28687
29068
28889
28639
28995
29051
29056
28652
28757
29106
29125
28658
28963
29020
28965
28750
28880
29077
28818
28788
29345
28845
28854
28936
29044
29083
28989
29001
29023
29033
28866
29113
29242
29153
28736
29099
29049
28942
28982
29424
29312
29102
29196
29203
29140
28865
29058
29194
28988
29048
29154
29089
29239
28892
29041
29185
29052
29037
29246
29050
28934
29186
29243
29003
29000
29050
29130
29056
28954
29216
29177
29061
29040
29211
29190
29127
29218
29388
29154
28944
29126
29297
29036
29087
29325
29420
29287
29058
29162
29406
28983
29278
29368
29053
28843
29251
29133
29102
28899
29164
28833
29079
28793
29173
29030
28779
28585
29187
29001
28657
28806
28829
28970
28685
28953
29105
28776
28710
28993
28995
28886
28941
29074
29010
28918
29027
28940
29077
28872
28990
28872
29082
28731
28950
28943
28958
28782
29320
28789
28743
29006
29119
29054
28987
29177
28978
28997
28883
29137
29280
28892
28851
29230
29070
28819
29015
29294
29076
28828
29042
28900
28986
28742
29042
29387
28961
28899
29020
29042
28848
29301
29020
29128
28821
29234
29268
29035
28786
29174
29245
29157
28680
29310
29166
28966
28974
29103
29202
28853
29282
29112
29079
29047
29416
29369
29175
29244
29169
29447
29177
29029
29232
29278
29087
29201
29329
29287
29052
29349
29266
28988
29165
29071
29169
29311
29240
29392
29389
29203
29108
29291
29264
29054
29289
29266
29208
29067
29402
29302
29358
29040
29303
29137
29076
29140
29559
29451
28921
29178
29129
29376
29194
29104
29380
29170
28975
29185
29424
29340
29123
29167
29387
28952
29001
29306
29040
28977
28942
29142
28795
28922
29067
28944
28836
28580
29125
28742
28592
28924
28777
28739
28745
28714
28811
28952
28638
28715
29002
28646
28763
28776
28944
28762
28734
29087
28824
28757
28992
28922
28735
28807
29016
29064
28926
28635
29189
28799
28920
28719
28931
28902
28886
28900
29093
28899
28717
28834
29037
29177
28887
28975
29248
29058
28723
29077
28870
28995
28794
29144
29105
28845
29207
28950
29009
28744
28964
29021
28812
28826
29071
29125
28781
28900
29387
29009
28706
29009
29034
29022
28990
28944
29262
28841
29086
29149
29172
28899
29063
29290
29223
28989
29130
29145
29021
28915
29101
29141
29083
28963
29059
29076
28920
29108
29149
29092
29132
29133
29018
28963
28744
29002
29240
28993
29054
29186
29116
29284
28993
29160
29372
29041
28900
29021
29203
29010
29016
29008
28991
28985
29195
29302
29266
28972
29432
29089
29078
29215
29451
29221
28985
29259
29489
29193
29174
29054
29361
28973
28822
28931
28948
29070
28897
28937
29064
28820
28874
28878
28729
28654
28973
28784
28962
28566
28927
28739
28850
28539
28887
28862
28736
28606
28902
28815
28516
28775
28792
28710
28466
28942
28828
28616
28706
28940
28809
28748
28540
28786
29085
28597
28792
28987
28758
28753
28930
29002
29022
29048
29169
28994
28694
28720
29126
28976
28802
28862
28901
28949
28903
29021
29168
28961
28844
29072
28993
28909
28780
28992
29011
29008
28999
28979
28846
28658
28912
29249
28928
28840
28814
29214
28799
28863
28897
29045
28809
28776
29131
29033
28976
29164
29249
28921
28929
29066
28901
28940
28854
29172
29046
28856
28768
28939
29086
29046
28984
29025
29302
28926
29239
29198
28926
28945
29228
29254
28846
29012
29005
29024
28807
29053
29415
29228
28817
29252
29187
29204
28766
29372
29196
29112
29231
29337
29259
29152
29020
29065
29200
28921
29027
29127
28958
29038
29337
29244
29235
28794
29103
29231
28961
29288
29042
29098
29101
29260
29286
29027
29105
29106
29258
29182
28924
29358
29193
29099
29319
29153
29065
29129
28970
29112
29049
28622
29020
28924
29048
28653
28939
28786
28869
28757
28982
28938
28777
28960
28811
28758
28463
28823
28954
28742
28759
28946
28964
28925
28548
28846
28780
28561
28812
28801
29043
28796
28776
28893
28989
28543
29019
29028
28815
28795
29161
28989
28963
28662
29012
28963
28709
28918
29196
28874
28885
29135
28785
28821
28696
28908
28880
28939
28687
29178
29266
28722
28875
28904
28991
28912
29187
29036
28940
29009
29272
29247
28870
28928
29310
29380
28981
29193
29342
29183
29046
28958
29152
29210
28776
29063
29292
28999
28995
29099
29146
29009
29090
29126
29297
29153
29174
29297
29310
29010
29135
29200
29032
29039
29419
29041
29299
29325
29155
29191
29075
29275
29428
29285
28999
29310
29449
29328
29172
29408
29188
29039
29154
29521
29362
29014
29091
29235
29215
28970
29279
29461
29204
29003
29244
29166
29070
29326
29203
29463
29123
29196
29247
29424
28950
29266
29210
29220
29222
29279
29239
29120
29156
29260
29263
29295
29091
29474
29206
29292
29082
29345
29257
29087
29175
29337
29289
28886
29051
29058
29138
28782
29265
29176
28855
28854
29013
28967
28840
28981
28944
28901
28810
28849
28984
28779
28800
28991
28822
28907
28792
29112
28895
28721
28953
29009
29057
28803
28767
29135
28716
28969
29191
29105
29053
28861
29184
29039
28690
28914
28951
29004
28847
28980
28956
28863
28789
29071
28987
28832
28721
29116
29025
29203
28896
29272
29222
29076
29278
29116
29005
28906
29127
29081
28939
29032
29091
29273
28896
28935
29094
29308
28980
28990
29169
29299
29129
29166
29127
29010
28835
29400
29224
28932
28921
29173
29300
28959
29323
29284
29319
29479
29361
29262
29416
29202
29453
29318
29093
29129
29303
29187
28960
29177
29294
29309
28939
29299
29357
29231
28927
29472
29455
29279
29019
29473
29428
29277
29278
29155
29350
29117
29259
29324
29196
29130
29124
29140
29071
28982
29523
29097
29228
28988
29144
29214
28940
29164
29192
29295
29056
29412
29419
29140
29221
29139
29308
29021
29351
29522
29262
29248
28972
29097
29202
29109
29144
29262
29252
29009
28979
29318
29182
28669
29284
29244
28929
28656
28954
28982
28720
28881
28816
28737
28767
28885
28963
28828
28896
28953
28870
28701
28672
29071
28897
28603
28865
28853
29041
28734
28821
29098
28721
28615
28830
28807
28867
28838
29012
28971
28990
28830
29217
28949
28879
28920
29006
29102
28801
29020
29196
28963
28868
29138
29078
28928
28838
29003
29088
28814
28973
29167
29019
28837
29035
29023
28957
28851
29085
29113
28909
29054
29341
29100
29032
29210
29349
29158
28849
28961
29195
29177
29118
28991
29046
29126
29097
29461
29312
29023
29135
29345
29095
29066
29189
29321
29098
28755
29167
29114
29221
29226
29362
29136
29001
29206
29309
29174
29167
29363
29328
29085
28870
29106
29065
28958
29112
29061
29293
28977
29148
29222
29241
28956
29176
29341
29238
28985
29327
29338
29131
29074
29355
29444
28980
29169
29125
29440
29199
29275
29303
29290
29205
29385
29080
29361
28960
29528
29172
29190
29090
29479
29247
29004
29039
29207
29119
28907
29155
29364
29292
29129
28970
29124
28950
28936
29255
28860
28778
29073
29174
29104
28659
29078
29030
29038
28636
28769
29006
29013
28705
28894
28807
28603
28763
29176
28823
28494
28675
28850
28778
28515
28803
28939
28721
28498
28909
28773
28587
28477
29071
28900
28727
28640
28929
28787
28668
28971
28811
28860
28619
28749
28821
28894
28661
28816
28860
28561
28704
28889
28922
28804
28741
29081
28809
28837
28991
28994
29018
28961
29006
29109
28782
29179
29194
29003
28998
29218
28947
29145
28778
29231
29237
29189
28851
29234
29126
28915
29056
29291
29120
29099
29097
29347
29276
29070
29083
29186
29268
28866
29302
29457
29250
28937
29251
29420
29021
29280
29498
29273
29165
29210
29293
29455
29298
29515
29235
29423
29384
29613
29466
29360
29250
29285
29406
29167
29365
29309
29535
29344
29496
29370
29223
28993
29631
29386
29223
29286
29385
29458
28995
29427
29451
29408
29257
29539
29360
29346
29212
29224
29268
29160
29355
29594
29433
29033
29343
29441
29418
29297
29474
29601
29151
29211
29185
29362
29295
29085
29269
29121
29238
29266
29193
29291
28983
29059
29092
29040
28808
29212
29117
28954
29116
29019
29041
28833
28728
28832
28984
28840
28827
29047
28903
28756
29086
28796
28667
28611
28901
29010
28814
28885
28900
28756
28834
29126
29095
28847
28798
29134
28992
28754
28767
29133
29169
28881
28859
29216
29024
28737
28926
29030
29045
29011
29209
29211
29192
28998
29146
29186
29057
28854
29335
29004
28994
28841
28982
29096
28760
29141
29257
29209
29159
29181
29148
29052
28882
29288
29210
29230
29250
29562
29164
29086
29158
29451
29228
29053
29244
29380
29389
29170
29453
29267
29171
29120
29378
29399
29128
29419
29344
29396
29134
29337
29230
29176
29154
29535
29583
29136
29114
29368
29443
29168
29209
29495
29295
29003
29340
29194
29274
29132
29305
29213
29186
29167
29484
29118
29190
29050
29248
29195
28956
29350
29260
29293
29149
29247
29455
29208
29141
29576
29374
29166
29136
29579
29147
28987
29040
29394
29366
29077
29409
29372
29454
29195
29332
29213
29332
28978
29222
29407
29205
29107
29315
29127
28884
29177
28962
29115
28850
29200
29009
28918
28838
29016
28940
28782
28738
28906
29014
28646
29092
28870
29033
28683
29048
29109
29016
28743
29121
29165
28861
28986
28968
28893
28622
28854
29066
28890
28905
29200
28916
29120
28662
29217
29047
28888
29031
28965
29136
28848
28922
28966
29101
28799
29165
29215
29147
28805
29189
29266
29181
28866
29402
29137
28930
28877
29297
29161
28827
29056
29255
29074
29057
29055
29169
29254
28891
29333
29241
29116
28859
29397
29059
29107
29069
29218
28938
28782
29024
28993
29081
29101
29372
29311
29017
28862
29045
29098
28888
28908
29302
29250
28827
29292
29333
29145
29084
29206
29146
29277
28937
29496
29003
28873
29028
29465
29199
29044
29235
29318
29229
29076
29134
29280
29037
29082
29269
29216
29062
28966
29356
29093
29009
29176
29250
29271
28986
29254
29319
29228
28980
29279
29215
29019
29057
29379
29156
28992
29164
29401
29319
28967
29188
29339
29422
28982
29214
29140
29142
28916
29190
29288
28946
29147
29173
29163
28748
29232
29265
28999
28961
29306
29062
28802
28709
29150
28951
28955
28897
28818
28855
28633
28875
28810
28784
28579
28752
28783
29034
28883
29049
28910
28589
28773
29008
28885
28581
28889
28944
28907
28622
28855
28825
28933
28803
29001
29044
28826
28749
28969
29002
28780
28728
28921
28876
28583
28918
28886
28921
28896
28976
28814
28784
28942
29109
29003
28707
28765
28922
29043
28738
28902
28911
28783
28687
29081
28897
28974
28764
28920
28972
28826
28800
28884
28933
28985
28985
29116
28885
28726
29034
29086
28974
28811
29101
29124
28849
28912
29126
29242
29003
29090
29198
29021
28889
28902
28997
28952
28837
29216
29271
29077
29108
29154
29016
28783
29043
29077
29179
28979
29095
29161
29140
29034
29098
29240
28847
29071
29116
29346
28951
28863
29286
29113
29119
29138
29005
29048
28768
29187
29043
29078
28933
29071
29117
28919
28772
29266
29090
28963
29132
29261
29067
29071
29311
29104
28831
29054
29330
28944
29104
28826
29004
28985
29029
28986
29118
29135
28791
29125
28895
28886
28729
29059
29231
28845
28994
29200
28903
28834
28644
29177
28660
28636
28598
28808
28914
28462
28918
28911
28689
28686
28982
28795
28751
28598
28679
28610
28616
28805
28943
28885
28618
28619
28860
28532
28698
29039
28651
28560
28917
28814
28490
28697
28659
29008
28756
28755
28884
28800
28969
28619
28837
29155
28627
28747
29045
28716
28707
28892
29078
28783
28722
29060
29063
28853
28761
28855
29003
29009
28743
28926
29080
28863
28826
28984
29056
28723
28928
29070
29039
28732
29080
29110
28944
28790
29056
29342
29072
28897
29250
28930
28710
29159
29216
29121
28723
29130
29145
28904
28994
29250
29000
28941
28824
29053
29300
28819
28953
29253
29139
28807
29122
29106
29301
28797
29084
29089
28908
28908
29303
29010
28898
29210
29148
29017
29018
28979
29319
29252
29128
29167
29192
28912
29133
29208
29224
29095
29086
29153
29105
29102
29131
29000
29078
28908
29313
29140
29274
28819
29175
29433
29193
29042
29379
29196
29016
29029
29340
29113
28988
29253
29212
29243
28810
29151
29220
29094
28965
29053
29253
28888
28786
29129
29045
28680
28947
28887
29071
28710
28910
28865
28651
28846
28759
28887
28636
28625
28851
28905
28544
29021
28776
28759
28449
28896
28751
28850
28747
29002
28983
28639
28707
29089
28974
28754
28810
28934
28790
28674
28817
28873
28772
28697
28816
29015
28881
28889
28960
29048
29033
28877
29199
28981
28926
29037
29111
28845
28917
29097
29053
28917
28959
28957
29278
28976
28853
29070
29074
28927
29036
29176
29027
28842
29050
29187
29042
28841
29158
29241
29010
28996
29230
29135
28845
29092
29310
29023
29005
29123
29120
29136
28999
29165
29135
29004
28958
29324
29154
29213
29202
29039
29043
29006
29083
29226
29094
29018
29018
29207
29206
28890
29247
29183
28921
28919
29302
29105
28952
29264
29148
29058
28975
29313
29152
29177
28971
29038
29326
29143
29102
29206
29182
29036
29090
29086
29141
28869
29197
29182
29067
29137
29089
29378
29149
28910
29198
29258
28947
29209
29252
29170
28932
29427
29415
29067
28876
29116
29264
29308
29144
29226
29336
29063
29163
29333
29213
28887
29120
29133
29197
28707
29118
29065
28777
28892
28935
28802
28769
28575
29026
28967
28656
28898
29022
28617
28820
29033
28764
28958
28694
29114
28766
28637
28795
29035
28931
28672
28913
29026
28951
28837
29077
28834
28790
28815
29089
29054
28612
28711
29108
28921
28629
29100
29058
28964
28800
29185
29003
28995
28903
29094
29331
29101
28984
29261
28813
28710
29011
28960
29011
28843
29055
29251
29000
28841
29169
29045
29172
28968
29009
29159
29076
29019
29149
28987
28902
29044
29239
29027
28954
29078
29287
29248
28951
29261
29144
29042
29204
29265
29212
28977
29206
29352
29008
28902
29302
29246
29091
29004
29102
29210
29153
28943
29204
29157
29152
29231
29305
29230
28873
29260
29285
29170
29033
29424
29075
29143
29085
29143
29257
29199
29105
29500
29370
29208
29319
29348
29261
29034
29488
29225
28986
29002
29308
28980
29182
29125
29270
29379
29170
29289
29434
29230
29150
29150
29335
29302
29155
29460
29515
28989
29109
29352
29304
28961
29213
29240
29181
29078
29193
29007
29153
28988
29026
28985
29052
28750
28888
28990
28836
28717
29059
28848
28650
28923
28789
28944
28818
28958
29011
28939
28521
28927
28965
28840
28846
28880
29150
28793
28708
28794
28702
28818
28992
28754
28681
28664
28811
28832
28613
28856
29053
28840
28776
28836
29086
28886
28847
29025
29027
29004
28939
28845
29093
28774
28820
29052
29032
28877
28893
29078
29033
28846
29011
29134
28997
28823
29124
29001
28998
28872
29226
29200
28968
29001
28946
29229
28954
28977
29091
29027
28850
29063
29157
29178
29149
29166
28990
29071
29055
29124
29259
28945
29149
29234
29261
28819
29164
29353
29316
28977
29174
29352
29274
29213
29447
29279
29184
29157
29309
29230
29065
29200
29530
29230
29117
29504
29275
29025
28998
29278
29234
29072
29092
29509
29470
29049
29281
29310
29235
29191
29501
29313
29512
29045
29227
29135
29065
28961
29329
29092
29087
29260
29556
29144
29213
29281
29384
29193
29065
29219
29241
29125
29322
29400
29322
29199
29258
29566
29308
29010
29249
29373
29233
29122
29151
29424
29174
28848
29285
29245
28894
29083
29106
29160
28791
29203
29118
29111
28752
28826
29036
28915
28891
28888
29047
28797
29078
29157
29040
28952
28983
29229
29020
28758
29134
28836
28935
29077
28930
29030
28997
28775
29128
28942
28969
29133
29219
29126
28918
29186
29108
28873
28844
28955
29198
28988
29070
29366
28983
28899
29067
29033
29051
29065
29083
29157
29148
28753
29282
28956
28966
28894
29230
29155
28861
29053
29315
29245
29156
29052
29230
29169
28835
28960
29035
28904
28880
29225
29269
28961
29114
29157
29252
29058
29119
29377
29113
28933
29357
29378
29350
28733
29219
29299
29056
29278
29316
29541
29154
29079
29265
29149
29042
29346
29280
29259
28946
29481
29150
29032
29047
29186
29184
29110
29082
29412
29276
29013
29253
29413
29270
29137
29269
29478
29006
28942
29176
29293
29079
29191
29330
29298
29156
29440
29284
29388
28968
29464
29314
29267
29193
29326
29094
29250
29110
29415
29518
29097
29359
29379
29118
29095
29083
29232
29160
28819
29130
29184
29067
28906
29205
29063
28874
28886
29067
28954
28787
29039
29210
28956
28736
28991
28799
28866
28834
29206
28969
28824
28889
29205
28986
28687
28983
29017
29060
28968
28839
28817
29097
28918
29281
29182
28817
28675
29069
29133
28758
28929
28951
28847
28977
28978
29219
29049
28696
29093
28969
28949
28781
28970
28892
28933
28950
29272
28937
28990
29037
29091
28837
28748
29042
29052
29173
28899
29323
29020
28861
28842
29299
29088
29126
29048
29357
29113
29034
29280
29061
29284
28904
29442
29120
29145
29097
29468
29162
29090
29102
29059
29259
28943
29005
29262
29243
29168
29065
29324
29058
28991
29503
29169
29209
29171
29375
29135
28887
29326
29280
29256
29200
29307
28975
29156
29098
29166
29333
28988
29031
29198
29202
29047
29247
29260
29038
28941
29080
29323
29208
29327
29479
29057
29106
29124
29393
29393
29015
29338
29378
29424
28978
29293
29186
29157
29027
29079
29318
29238
29053
29466
29361
28904
29184
29079
29158
28845
29184
29090
29084
28748
29223
29123
29167
28880
28940
28986
28835
28868
29230
28842
28811
28997
28824
28770
28672
29104
28690
28916
28767
29009
29179
28732
28842
28860
28892
28661
28828
28918
28706
28561
28793
28923
28894
28654
29061
28878
28845
28970
29147
29008
28659
28877
28862
28948
28804
29018
28935
28929
28817
29018
29118
28942
28820
29036
28965
28995
28874
29095
29158
28953
28869
29084
29031
28938
28976
29144
29193
28837
29007
29146
28980
29045
29111
28909
29015
28948
29090
28957
28817
29000
29135
28847
28940
29339
29108
28902
28848
29060
29164
28765
29110
29405
29142
28844
29218
29140
29007
29000
29279
29149
29065
29061
29129
29253
29148
29115
29374
29193
28844
29347
29176
29254
29055
29152
29218
28998
28976
29166
29329
29077
29142
29276
29120
28994
29173
29223
29234
28981
29404
29057
29167
28872
29355
29184
29136
29059
29443
29274
28951
29229
29405
29157
29192
29283
29471
29192
28896
29152
29293
29221
29192
29300
29274
29102
29074
29279
29198
28971
29034
29249
29325
28866
29224
29218
28887
29031
29217
28998
28748
29125
29215
28935
28555
29115
28837
28873
28618
29030
29043
28842
28576
29078
28837
28689
28739
28787
28813
28570
28665
28983
28695
28472
29040
28878
28664
28758
28735
28781
28781
28659
29144
28829
28642
29002
29044
28826
28557
28850
28888
28705
28668
28904
28929
28839
28881
28939
28945
28765
28956
28914
28975
28586
29083
29097
29133
28719
29151
29156
29018
28923
29291
28843
28868
29091
29022
29144
28742
29096
29056
29140
28750
29005
29131
29184
28890
29313
28941
28881
29143
29051
29227
29080
29143
29041
29048
28807
29265
29072
28878
28969
29302
29269
29056
28837
29269
29135
28901
29134
29146
29020
29066
29152
28997
29057
29001
29264
29029
29158
29135
29093
29290
28862
28971
29248
29009
29012
29168
29019
28898
28780
29322
29165
28790
28887
29115
29053
28852
28938
29337
29204
28780
29168
29211
29138
28820
29175
29109
29246
29054
29357
29047
29124
28727
29008
29199
28870
28991
28983
28982
28933
29177
29217
28953
28507
28957
28893
28905
28678
29077
28957
28723
28896
28961
28853
28674
28949
28846
28804
28421
28655
28628
28898
28822
28717
28962
28540
28492
28811
28670
28429
28822
28872
28869
28816
28968
28639
28759
28560
28747
28817
28657
28762
29049
28900
28670
28857
29031
28890
28649
28730
28994
28926
28650
28784
28963
28720
28690
28936
29109
28521
28982
29092
28806
28714
29105
29059
28854
28930
29109
28863
29020
28905
29202
29150
28793
28919
28809
29026
28872
29166
29104
28883
28761
28872
29048
28969
28799
29080
28987
28798
28944
29112
29056
28871
29015
29038
28811
28788
29282
29016
28812
28698
29291
28968
28974
28919
29030
29063
28950
28962
29283
29060
28855
29097
29172
28987
28951
29065
29089
28855
28780
29249
29049
29085
29014
29356
29049
28745
29078
29258
29192
28931
28953
29167
29228
28913
28976
29078
29063
28784
29136
29123
28752
29283
29087
28909
29047
28978
29342
28983
28964
29035
28912
28779
28858
29116
28954
28724
28818
28963
28803
28827
28717
28780
29024
28571
28878
28633
28576
28784
28855
29051
28515
28667
28797
28777
28462
28677
28719
28618
28464
28720
28742
28821
28451
28898
28781
28524
28571
28758
28841
28293
28725
28665
28763
28625
28946
28699
28705
28783
28973
28836
28715
28828
28848
29018
28651
28896
28920
28761
28676
28649
28994
28671
28570
29142
28643
28904
28784
28794
28895
28661
28728
28827
28895
28657
28815
28991
28901
28781
28748
28914
28701
28700
29075
29052
28812
29062
29214
28963
28572
29051
29018
28948
28880
28913
29071
28722
28802
28967
29013
28846
28611
28972
28974
28879
28765
29115
28826
28790
29065
29139
28895
28711
28907
28953
28730
28844
29203
29144
28979
28827
29102
29053
28855
29079
28972
29054
28712
29265
28843
28770
28933
29076
28959
28668
28798
28997
28873
28691
28924
29011
29025
28721
29269
28922
28997
28874
29266
29054
28853
29025
29132
28979
28957
29053
29030
29068
28756
29195
29144
28962
28828
29145
29135
29065
28863
28957
28990
28674
29017
28843
28998
28815
28744
28983
28981
28576
28696
28861
28669
28687
28813
28717
28523
28546
28735
28724
28547
28909
28672
28627
28759
28860
28631
28527
28732
29026
28752
28468
28570
28758
28840
28717
28725
28946
28764
28586
28703
28740
28752
28633
28871
28844
28766
28940
29140
28849
28825
28865
29130
28890
28554
28974
28950
28831
28697
29129
29008
28773
28875
29017
28870
28659
29007
29088
28847
28822
28815
29005
28726
28844
28854
29116
29038
28834
29029
29098
28886
28957
29308
29006
28735
28996
28992
28892
28954
29132
28898
29002
29047
28973
29154
29036
28859
29265
29216
28924
28951
29153
29192
28824
29189
29144
28990
28907
29120
28923
28878
28901
29074
28976
29070
29034
29369
29075
28660
29251
28939
29170
29127
29186
29257
28814
28953
29201
29222
28760
29131
29291
29164
28847
29096
29262
28941
29136
29065
29324
28862
29026
29036
29231
28808
29097
28951
29111
28953
29140
28997
29052
28917
29020
29024
29230
28648
28888
29254
28749
28679
28865
28924
28634
28820
29123
28912
28641
28810
28891
28958
28742
28868
28939
28487
28479
29157
28666
28677
28826
28711
28865
28614
28769
28884
28787
28458
28622
28615
28883
28850
28964
28986
28519
28866
29048
28648
28779
28735
28916
28661
28487
29021
28813
28660
28852
28823
29070
28861
28562
29102
28945
28657
28722
28895
28893
28602
28976
28937
28653
28521
28880
28830
28641
28593
28863
29139
28663
28837
28846
29034
28877
28914
29163
29005
28653
29013
29030
28726
28856
29222
28903
28890
29113
29205
29043
28672
29096
29066
28856
28774
29083
28959
28958
28843
29164
29140
28860
29147
28982
29025
28744
29045
29248
29026
28853
29031
29127
28996
28897
29099
29155
29009
28955
29190
29080
28922
29068
29048
29074
28933
29223
29016
28889
28785
28991
29173
29038
28864
29249
29219
28970
29151
29159
29036
28957
28977
29033
28864
28925
29013
29053
29192
28996
29042
29279
28726
28796
29169
29015
28869
28855
29113
28789
28758
29011
28921
28955
28750
28865
28852
28777
28679
29034
28781
28289
28676
28664
28627
28279
28749
28814
28688
28344
28849
28697
28704
28676
28873
28916
28362
28864
28925
28587
28469
28599
28821
28662
28613
28906
28768
28763
28788
28828
28830
28602
28708
28916
28736
28588
28732
28736
28787
28623
28821
28963
28790
28577
29018
28840
28771
28616
28742
28953
28638
28940
28986
28923
28669
29164
29125
28790
28781
29183
28928
28804
28664
28879
28924
28563
28736
28995
28873
28841
28884
29177
29066
28794
28971
28882
29073
28783
29068
28938
28992
28843
29155
29084
28825
28967
29059
29081
28786
29226
28967
28837
28876
28970
28973
28831
28941
29111
29333
28912
29067
29158
28968
28831
29144
29117
28982
28856
29017
29292
28781
28781
29017
29039
28702
28974
29056
29026
29089
29103
29288
29062
28960
29184
29155
29035
28915
29200
29283
28905
29105
29097
29030
29003
29093
29058
29248
29069
29396
29339
29058
29189
29073
29095
28879
28941
29120
28939
28871
28966
28938
29191
28891
29194
28879
28705
28592
29080
29099
28751
28827
28592
28832
28781
28716
28670
28738
28409
28582
28786
28505
28549
28670
28663
28466
28548
28561
28585
28402
28404
28639
28508
28277
28482
28472
28764
28466
28623
28606
28795
28532
28812
28843
28694
28819
28869
28605
28485
28901
28775
28588
28542
28997
28720
28751
28667
28819
28792
28664
28603
28776
28883
28811
28778
29010
28761
28506
29019
28963
28842
28617
28742
28648
28564
28887
28862
28935
28805
28715
28879
28832
28776
28748
28975
28958
28795
28821
28881
28642
28808
28971
28931
28832
28791
29106
28858
28841
28952
28866
29049
28563
29178
29044
28776
28940
29332
28945
28849
28755
29072
28970
28757
29028
29068
29142
28971
28815
29003
29029
29011
29068
29281
28835
28629
29072
29175
29101
28991
29243
29018
29133
29203
28595
28858
28354
28948
29341
28856
29019
29115
29062
28679
28910
29310
29152
28743
28979
29335
29150
28902
29003
29083
29080
28898
28974
28915
28860
28708
29285
28812
28623
28707
29040
28986
28582
28949
29195
28781
28765
29053
28958
28572
28565
29058
28868
28463
28661
28723
28601
28397
28654
28466
28723
28555
28905
28451
28764
28585
28948
28667
28298
28762
28696
28700
28357
28689
28887
28878
28474
28794
29146
28477
28220
28729
28606
28453
28766
29238
28816
28612
28796
28771
28767
28573
29068
28745
28901
28559
28995
28733
28788
28631
29082
28721
28624
28742
28922
28647
28560
29034
28845
28960
28557
28988
28754
28899
28639
28975
28823
28728
28921
29042
28795
28845
28897
29118
28904
28674
28801
28924
28753
28772
28953
29207
28799
28876
29246
28850
28681
28951
29071
28809
28721
29048
28882
28757
28718
29141
28992
28831
28755
29299
29054
28825
28869
29012
29087
29032
29342
29217
28979
29097
29060
28971
29301
29386
29249
29160
28728
29178
29360
29169
28882
29293
29259
29169
28854
29337
29115
29007
28978
29355
29265
29142
28949
29307
29323
28853
29292
29222
28914
29065
29338
29248
29044
28790
28977
29292
28617
28800
29135
29001
28714
28758
28938
28893
28700
28896
29063
28587
28850
28903
28771
28575
28756
28745
28807
28603
28696
28989
28666
28462
28886
28667
28726
28543
28915
28878
28729
28594
28795
28839
28475
28750
28903
28750
28707
28930
28967
28739
28726
28696
29103
28837
28511
29065
28725
28737
28885
28908
28904
28546
29034
28819
29031
28727
28924
28786
28855
28815
28965
28699
28825
28797
29075
28973
28608
28943
28935
28765
28687
29016
29015
29025
28781
29194
28942
28805
28916
29301
28925
28800
28883
29009
28892
28832
29056
29086
28839
28849
29109
29090
28929
28622
29105
28981
28926
29099
29137
28868
28685
28929
29096
29006
28994
28912
29151
28907
28848
29046
29079
28993
29021
29141
29209
28768
29032
29047
29100
29014
29256
29038
29200
29091
29169
29086
28833
29118
29113
29111
28815
29055
29066
29077
28932
28934
29021
29254
28899
29178
29159
28907
28862
29395
29118
28884
28948
29326
29164
28800
29150
28953
29143
29028
28912
28944
28765
28838
28967
29027
28551
28718
28780
28881
28543
28718
28711
28865
28614
28764
28774
28692
28712
28696
28708
28387
28690
28791
28765
28547
28628
28583
28506
28396
28503
28548
28640
28261
28862
28712
28447
28450
28920
28485
28384
28499
28792
28767
28309
28518
28604
28721
28508
28757
28821
28596
28555
28860
28745
28536
28667
28741
28539
28493
28663
28931
28751
28693
28834
28659
28705
28590
28914
28906
28673
28711
28955
28784
28556
28756
28857
28733
28535
28835
28978
28704
28615
29004
28901
28517
28588
28960
28685
28664
28853
28845
28904
28708
28913
28933
28862
28749
29014
28846
28768
28647
29045
28998
28662
28731
29084
28872
28665
28872
28954
28834
28654
29011
28979
28930
28850
28948
28928
28802
28852
29048
28925
28832
29022
29143
28997
28741
28928
28847
29064
28893
29067
28990
28725
28991
29135
28864
28826
29031
29034
29025
28892
28991
29059
29118
28693
28906
29027
28911
28684
28934
28971
28760
28911
29000
29107
28794
29033
29098
29050
28783
29202
28814
29011
28773
29152
28724
28770
28742
28798
28721
28319
28697
28900
28543
28499
28607
28765
28473
28389
28654
28617
28486
28410
28849
28557
28404
28806
28778
28562
28305
28738
28799
28669
28606
28891
28782
28470
28537
28496
28585
28520
28640
28689
28680
28417
28646
28728
28672
28458
28595
28950
28543
28501
28724
28661
28772
28867
28899
28799
28318
28835
28820
28780
28598
28863
28763
28957
28662
28663
28989
28539
28965
28958
28826
28679
28751
28898
28751
28807
28807
28916
28949
28805
28819
29059
28669
28866
29262
29028
28589
28949
29077
28797
28721
28847
29096
28725
28628
29211
29050
28658
29037
29130
29123
28695
28971
29071
28898
28948
28929
29002
28810
28938
29171
29158
28888
28880
28885
29393
28806
28799
28867
29264
28766
29170
29358
28849
28734
29342
29224
29167
28820
29218
29023
28912
29018
28823
29094
29087
29029
29030
29138
28823
29275
29102
29045
28960
29470
29132
29042
28842
29123
29093
28791
29244
29284
29140
28837
29275
29154
28874
28834
28971
28901
28799
28710
29232
28936
28537
28686
29127
28811
28439
28839
28764
28744
28597
28733
28779
28556
28542
28823
28813
28664
28660
28706
28774
28501
28731
28752
28707
28478
28895
28753
28800
28679
29110
29015
28618
28615
28989
28868
28711
28958
28912
28989
28621
28969
29063
28912
28861
28833
28893
28913
28668
29186
28776
28888
28989
28939
29000
28647
28958
28911
28931
28928
29121
29154
28953
28892
29217
29056
28834
28870
29253
29171
28581
29167
29258
29070
28895
29155
28902
29137
29085
29325
28828
28808
28806
29029
29262
28785
29087
28998
29046
28943
29199
29124
29029
28916
29109
29135
29038
28931
29140
29210
28799
29166
29036
28994
28700
29173
29199
28989
28783
29053
29275
28924
28986
29132
29148
28744
28918
29107
29127
28799
29123
28984
28969
28755
29159
29325
28894
28845
29248
29078
28941
29080
29126
29216
28817
29114
29154
29066
28893
29130
29208
29210
28974
28945
29355
28982
28763
28869
28981
28543
28936
28838
28894
28688
28794
29074
28750
28625
28790
28741
28496
28500
28741
28569
28627
28573
28878
28641
28552
28621
28882
28486
28326
28941
28673
28600
28561
28694
28834
28387
28281
28593
28815
28356
28791
28647
28558
28515
28562
28650
28470
28285
28649
28718
28623
28666
28989
28920
28559
28656
28887
28884
28618
28786
28900
28670
28482
29117
28746
28909
28729
29048
28775
28543
28906
29207
28853
28771
28879
28855
28682
28783
29111
28756
28697
28940
28866
28917
28836
28875
29004
28937
28669
29086
29082
28781
28617
29135
28859
28750
28744
28835
28859
28952
28732
29302
28921
28842
29051
29015
29123
28771
28994
29147
29051
28937
29051
29142
28994
28911
29247
29152
28678
28910
29111
29291
28704
28852
29449
28885
29125
29130
29019
28942
28908
29136
28988
28934
29038
29408
29169
28949
29233
29121
29008
29022
29093
29315
28831
29160
29160
28918
28998
28981
29269
29286
28787
29052
29247
29197
28921
29146
29113
28978
29045
29232
29038
29183
28960
29134
29259
29116
28996
29155
29107
28832
29225
29079
28876
28763
29124
28958
28915
28674
29079
28891
28570
28794
28985
28856
28479
28613
28660
28594
28365
28543
28813
28482
28555
28574
28852
28509
28446
28986
28660
28616
28710
28980
28766
28596
28857
29187
28873
28723
28708
28864
28790
28523
29122
28766
28495
28862
28992
28916
28868
28977
28913
29021
28560
28840
28979
28677
29018
28955
28956
28940
28826
29110
28943
28844
28857
29015
28770
28668
29221
28982
29110
28723
28899
29084
28905
28879
29293
29174
28873
28914
29302
29137
28951
28934
29110
29229
28731
29062
29060
29010
28921
29382
29112
29092
29102
29139
29104
29087
29266
29083
29251
29190
29419
28999
29220
28813
29172
29045
28881
29178
29215
29125
28803
29132
29135
28916
28715
29393
29202
28930
28900
29345
29071
29076
28900
29446
29187
29019
29171
29166
29269
29087
29379
29452
28960
29102
29418
28972
29037
28975
29186
29240
28966
29229
29367
29193
28841
29187
29422
29047
29088
29249
29499
29195
28966
29348
29265
29058
29153
29223
29205
28983
28997
29277
28899
28931
29174
29153
28952
28866
29068
28931
28813
28755
28985
28912
28497
28778
28875
28767
28591
28808
28769
28770
28574
29035
28939
28514
28819
28742
28841
28690
28600
28684
28586
28549
28812
28761
28822
28657
29031
28739
28516
28615
28989
28962
28720
28879
29008
28818
28581
28870
28903
28844
28721
28948
29065
28835
28709
28960
28849
28726
28777
28999
28970
28747
28926
28991
28890
28758
28934
28998
28832
28727
29153
29005
28820
29034
29105
28953
28778
29062
28952
28927
28718
28920
29005
29087
28872
29102
29076
28839
29023
29350
28948
28965
29036
29340
29007
28974
29004
29239
29068
28949
29018
28951
29084
28892
29294
29034
28823
29018
29094
29046
28747
29092
29066
29013
28861
29117
29218
28781
29103
29088
29083
28950
29053
29037
28897
28972
29298
29202
29070
28916
29349
29178
29180
28938
29314
29190
28975
28890
29251
29053
28934
29196
29096
29173
28960
29025
29244
28925
28728
29055
29112
28986
28808
29174
28962
28748
28829
28899
28938
28642
28910
28756
28763
28660
28827
28860
28579
28639
28978
28816
28649
28480
28964
28691
28626
28826
28640
28594
28568
28547
28861
28859
28506
28868
28767
28498
28624
28683
28768
28647
28877
28785
28693
28679
28989
28712
28901
28695
28936
28769
28551
28689
29011
28781
28631
28576
28959
28964
28619
28980
28752
28757
28707
28715
28645
28800
28633
28853
29098
28687
28715
29000
28888
28752
28892
28874
28852
28702
29005
28986
28950
28581
28916
29182
28647
28756
29062
28722
28663
29011
29012
28970
28741
28927
29032
28931
28805
28799
29022
28667
28848
29116
29041
28914
28906
29234
29059
28668
29011
29105
28708
28643
29096
29219
28892
28817
29307
28892
29015
28898
28837
29011
28704
29003
28965
28892
28730
29082
29207
28747
28775
28919
29214
28935
28778
29294
28951
28959
28926
29074
29082
28836
28920
29219
28845
28749
29120
29047
29139
28723
29157
29080
28853
29066
29157
28968
28826
29146
29226
28824
28737
29134
29021
28935
28896
29314
29147
28767
29170
29279
29066
28717
28840
29207
28911
28782
28910
29010
28731
28540
28830
28755
28603
28520
28771
28505
28633
28873
28514
28804
28474
28486
28771
28797
28469
28527
28774
28340
28632
28564
28677
28502
28566
28771
28597
28446
28576
28516
28583
28183
28633
28441
28774
28461
28680
28595
28529
28641
28838
28810
28564
28615
28843
28617
28399
28587
28926
28476
28798
28759
28918
28672
28907
28845
28944
28686
28766
28898
28840
28636
28760
29027
28650
28602
28832
28791
28810
28678
28839
28893
28648
28969
28929
28921
28546
29034
28872
29112
28723
29022
29028
29086
28850
29042
29078
28873
29057
28979
29200
28884
28874
29153
28849
28767
29217
29125
29062
29036
29234
29113
28943
28966
28932
29074
29164
29153
29033
28855
28842
29112
29267
28950
29012
29381
29282
29108
29079
29289
29111
29046
29196
29277
29163
29073
28983
29197
29244
29021
29307
29146
29168
29054
29426
29007
28831
29167
29258
29263
28749
29157
29357
29061
29046
29133
29234
29101
28780
29457
29207
28943
29288
29237
28995
28906
29112
29333
29109
29008
29262
29180
28925
29068
29245
29300
29044
28865
29034
29098
28699
28959
29191
28826
28621
29086
28808
28959
28667
28779
29078
28824
28896
28868
28722
28655
28815
29006
28918
28735
28874
28853
28788
28747
28983
28772
28604
28720
29088
28842
28802
28684
28958
28858
28695
28942
29087
28859
28830
28837
28766
28932
28775
29074
29053
28918
29002
28895
29093
28645
28951
29132
29113
28727
29114
29030
28825
28802
29218
28961
29089
28770
29194
28998
28860
29018
29183
29010
28857
28876
29132
28939
28746
28959
28967
28846
28940
29209
29060
28752
29096
28970
29099
28799
29187
28998
29169
28754
28904
29134
28991
28919
29170
29196
28921
28845
29335
29190
28842
29000
29190
28914
28843
28946
29203
29150
28810
28919
29256
28993
28940
29087
29127
28857
28923
28999
29053
28907
29224
29245
28927
29074
29134
29429
28861
29042
29100
28998
28862
28942
29226
28989
28887
29162
29258
29080
28772
29190
29244
29281
28823
28980
29065
28859
28899
29346
29061
28797
29041
29238
29131
28880
29353
29375
28972
29145
29346
29397
29175
28851
29412
29006
28862
29189
29174
29106
28720
28965
29242
29100
28673
28915
28969
28790
28622
29140
28938
28627
28473
28811
28713
28559
28812
28796
28913
28470
28844
28803
28552
28516
29020
28896
28607
28355
28756
28510
28372
28721
28963
28824
28680
28757
28679
28801
28478
28878
28903
28798
28590
29064
28717
28772
28708
28943
28843
28775
28875
28776
28811
28783
28784
29114
28949
28717
28978
28977
28832
28576
29003
28808
28515
28974
28966
29047
28810
28890
28796
28699
28647
29169
29050
28772
28778
29107
29151
28715
29096
29056
28846
28769
28894
29098
28942
28978
29231
29051
28752
28896
29063
29090
28741
28866
28920
28991
28702
29024
29119
28925
28803
29012
29002
29095
28710
29054
29028
28797
28923
29097
29020
28820
29009
29023
29104
28761
29223
28961
28842
28888
29391
28996
28939
28930
29098
28990
28800
29163
29250
29149
28734
28961
29191
29002
28815
29109
29150
28906
28988
29094
29185
28940
29001
29246
29094
28982
29118
29100
29062
28947
29038
29089
28949
29078
28974
28916
28687
28864
28894
28972
28536
29041
29118
28813
28681
28770
28681
28907
28760
28822
28722
28695
28731
28838
28783
28491
28947
28896
28897
28517
28551
28841
28676
28603
28912
28743
28731
28666
28731
28715
28538
28722
28846
28732
28709
28855
28841
28767
28649
28901
28743
28710
28575
28980
28733
28689
28777
29003
28848
28624
28885
28958
28874
28535
28891
28893
28781
28757
28940
28892
28688
28718
28988
28880
28521
28929
29089
28944
28648
28857
28946
29022
28510
29279
29127
28893
28494
29055
29007
28722
28810
29074
28816
28730
28883
28976
28734
28738
29156
28953
28901
29055
29111
28797
28927
28584
29160
29044
28702
29072
29080
29027
28819
29043
29213
28730
29077
29242
29095
28901
28966
29053
29067
28884
28978
28889
28946
28717
29104
29269
29033
28785
29069
29221
29085
28878
29023
29137
28948
28914
29270
29008
28830
29211
29243
28897
28676
29227
29159
29107
28891
29083
29145
29053
29181
29110
29022
28922
29276
29219
29023
28861
29075
29239
29136
29042
29025
28982
29059
29056
29395
29267
29118
29126
29076
29169
28670
29152
29220
28802
28921
29164
28859
28968
28724
28908
28808
29051
28811
28903
28958
28691
28814
28719
28720
28486
28832
28741
28648
28598
28906
28713
28585
28576
28648
28816
28448
28694
28556
28556
28574
28705
28605
28741
28171
28718
28792
28558
28574
28868
28826
28573
28787
28847
28785
28540
28858
28806
28810
28682
28946
28840
28883
28719
28987
29001
28673
28838
28972
28899
28631
28887
28911
28896
28517
28943
29050
28871
28751
29110
29064
28793
28764
29137
29024
28626
29087
29054
28918
28813
28954
29195
28947
28945
29302
29140
28855
28744
29124
29163
28869
29093
29063
29040
28764
29118
29029
29005
29044
29072
29282
28893
28906
28923
28948
28881
28917
29078
29191
28851
28993
29166
29076
28848
29351
28789
29137
28832
29321
29027
28829
29117
29234
29186
28904
29089
29028
29140
28743
29022
29097
28872
28930
29053
29146
28804
28814
29239
29304
28796
28957
29196
28923
28796
29318
29232
29074
28999
29243
29168
29043
28954
29243
29299
28877
29111
29271
29104
28898
29088
29109
28872
28725
28928
29243
29020
28941
29412
29206
28700
29194
28919
29009
28410
28962
28800
28870
28612
29007
28841
28663
28672
28999
28924
28614
28680
28832
28874
28675
28841
28908
28800
28621
28854
28857
28758
28629
28916
28847
28627
28772
28691
28806
28455
28764
28814
28985
28673
29107
29059
29037
28702
29058
29005
28754
28710
29047
28985
28731
29012
29033
28894
28786
28745
29086
29101
28707
28952
28848
28796
28992
29015
28883
28791
28648
29320
29022
28723
28909
29085
29045
28880
29126
29003
29060
28772
28901
29006
28943
28722
29270
29024
28740
28880
29154
28816
28925
28825
29085
29105
28854
29337
28831
28999
28813
29066
28808
28919
29126
29125
29169
28923
28872
29130
28827
28689
28958
29292
28795
28790
28937
29178
28888
28850
29221
29046
28996
29030
29042
29051
28912
29046
28893
28946
28725
28943
29146
28699
28919
29251
28827
28880
28943
29047
29254
28844
29257
29009
29151
28675
29382
29239
29121
28923
29284
29066
28913
29005
29278
29015
28804
29035
29126
28976
28910
28986
29065
28956
28759
28936
29108
28804
28824
29053
28942
28562
28594
28886
28645
28493
28695
28647
28875
28519
28942
28777
28561
28672
29011
28673
28680
28806
28887
28663
28656
28788
28996
28542
28493
28676
28904
28613
28525
28866
28705
28515
28527
28911
28756
28671
29020
28919
28996
28586
29161
29123
28721
28778
29144
28817
28768
28726
29172
28926
28533
28928
28942
28887
28822
28927
28936
28979
28636
29174
28981
28796
28860
29248
28976
28716
28932
28931
29023
28727
29002
29252
29203
28925
28911
29182
28859
28761
29322
28871
28895
28930
29115
29094
28778
28895
29066
29164
28783
29260
29218
28813
28894
29094
29139
28846
29143
28995
29123
29021
29099
29009
29042
28724
29212
29140
29069
28807
29149
29198
29042
28904
29233
29039
28930
29067
29201
29168
28868
29191
29195
29040
28972
29381
28987
29069
29075
29294
29218
28870
28924
29250
29158
28924
29194
29233
29214
28980
29249
29423
29151
28972
29410
29212
29093
29292
29319
29385
29044
29161
29215
29248
29031
29209
29120
29042
28812
29124
29130
28941
28834
29296
29040
28560
28763
29028
28901
28623
28951
28840
28613
28818
29013
28997
28780
28800
28909
28687
28402
28586
28780
28799
28672
28675
28753
28618
28756
28950
28837
28606
28722
28966
28854
28674
28964
29268
28935
28595
28874
29091
28901
28690
28993
28921
28930
28885
29090
29041
28923
28940
28940
29048
28802
28986
29115
28910
28812
29083
29107
28796
28910
29338
28977
29108
28923
29186
29419
28736
28932
29190
29051
28756
29096
29236
29165
28619
29021
29446
29050
28656
29085
28933
28923
28902
29226
29086
28803
29318
29364
29218
29017
29254
29310
29213
29106
29233
29196
29071
29071
29268
29501
28735
29105
29384
29309
28830
29431
29191
29116
29109
29464
29463
29161
29015
29066
29102
29121
29205
29417
29263
29078
29314
29375
29133
28946
29323
29380
29073
29134
29613
29183
29272
29273
29180
29362
29142
29195
29354
29289
29046
29204
29442
29184
28879
29453
29418
28900
29001
29115
29225
28957
29137
29235
29294
28832
29135
29112
29146
28904
29025
29123
28993
28989
29224
28943
28969
29010
29138
29169
28875
29177
29040
29078
28771
28922
28998
28989
28784
29029
28872
28693
28880
29234
28955
28582
28963
29258
29139
28843
29260
29084
28790
29087
29291
29044
29001
28918
29136
29209
28722
29241
29093
28936
28890
29057
29203
28936
28894
29232
29013
29000
28950
29107
29131
29057
29093
29068
29085
28771
29249
29260
29244
29089
29284
28976
29295
28998
29285
29111
28908
29299
28970
29114
28806
29278
29248
29216
28840
29385
29003
29246
28893
29131
29191
28892
29085
29421
29238
28973
29063
29221
29131
29005
29391
29255
29257
29025
29468
29094
29302
28900
29468
29262
28996
29415
29214
29164
29178
29291
29175
29314
29101
29370
29285
29170
28977
29469
29373
29185
29222
29232
29308
29272
29200
29608
29363
28885
29253
29543
29247
29286
29545
29277
29233
29156
29406
29435
29157
29231
29490
29319
29139
29472
29372
29148
29211
29504
29399
29195
29224
29244
28894
29145
28959
29398
28986
28788
29204
29024
29121
28930
29037
29032
28831
28807
29365
29081
29038
28855
29439
29037
28887
29109
29260
29141
28725
29245
29065
28983
28805
28972
29128
28860
28927
29201
29311
29007
28915
29079
29195
28965
29225
29218
29343
28815
29349
29227
28956
29059
29289
29450
28774
29269
29189
29109
28904
29102
29090
29239
28888
29221
29134
29188
28953
29624
29217
29175
29370
29465
29181
28994
29373
29424
29152
28998
29170
29346
29251
29187
29510
29227
29194
29203
29314
29367
28863
29194
29388
29345
29005
29362
29298
29314
29008
29361
29294
29173
29109
29617
29446
29269
29260
29504
29218
29026
29416
29455
29329
29145
29386
29355
29309
29176
29481
29356
29314
29120
29486
29510
29132
29247
29408
29283
29196
29394
29390
29265
29217
29421
29223
29334
29311
29489
29550
29285
29448
29660
29288
29223
29539
29388
29242
29252
29627
29482
29283
29295
29570
29589
29142
29371
29549
29426
29090
29370
29435
29340
29084
29457
29366
29165
29032
29343
29101
29208
29257
29044
29323
28787
29044
29305
29019
28982
28943
29106
29188
28622
28958
29075
28941
28943
29311
28972
28723
28968
29016
29021
28852
29206
28890
29117
28691
29232
29088
28971
28778
29189
29069
28766
29030
29133
29120
28670
29126
29166
28923
28642
28917
29076
28740
28751
29112
29258
29039
28985
29100
29135
28870
29045
29033
29137
28887
29024
28992
29222
28872
29374
29162
28921
28916
29253
29098
28846
29058
29213
29141
28883
29136
29132
29111
28919
29235
29195
28897
29066
29362
29180
28970
29076
29267
29184
28953
29197
29225
29150
29038
29296
29240
29155
28989
29255
29265
29180
29025
29151
29327
28996
29289
29391
29339
29020
29350
29364
29193
29161
29408
29229
29119
29058
29478
29341
29048
29295
29384
29437
28994
29271
29219
29293
29077
29384
29267
29205
29231
29435
29392
29049
29282
29475
29406
29077
29500
29507
29257
29070
29481
29304
29267
29200
29497
29223
29118
29095
29332
29054
29012
29068
29344
28991
28807
29247
29006
29076
28854
29250
29011
28857
28737
29366
29068
28471
29120
29206
28992
28723
29011
29054
28890
28766
28910
29106
28819
28739
29164
29007
28805
28969
29102
29011
28736
29012
29184
28918
28692
29096
29159
28964
28985
29139
29126
28981
28947
29153
29181
28895
29105
29169
29190
29007
28987
29227
29165
29110
29229
29168
29004
29046
29314
29266
29000
29152
29267
29141
28928
29290
29266
29036
28763
29264
29330
29220
28981
29305
29397
29089
29117
29308
29296
29027
29366
29307
29202
29106
29288
29279
29163
29229
29385
29350
29164
29356
29147
29361
29034
29116
29298
29197
29094
29331
29281
29207
29081
29347
29267
29094
29318
29298
29231
29058
29394
29462
29408
29135
29397
29158
29258
29125
29349
29292
29216
29057
29337
29359
29175
29132
29295
29233
28953
29203
29338
29198
28994
29304
29320
29187
29162
29330
29314
29184
29109
29374
29383
29064
29264
29331
29158
28992
29251
29347
29107
28859
29224
29152
29025
28819
29272
29039
28831
28852
29030
28827
28779
28844
29207
28796
28891
28938
28966
28755
28822
29100
28767
28669
28843
29042
28872
28573
28979
29066
28941
28867
29143
29121
28830
28776
29032
28959
28735
28734
29179
29073
28714
29072
29152
29001
28925
29103
29227
29023
29124
28956
28931
29007
29106
29043
29231
28756
29107
29114
29009
28808
29115
29107
29051
28908
29187
29136
28979
29021
29325
29111
29043
29199
29207
29120
28833
29046
29064
29099
29016
29364
29364
28983
28962
29093
29048
28861
29267
29280
29175
28928
29019
29085
29195
28868
29190
29340
29107
29016
29255
29087
29037
29080
29259
29127
28937
29061
29038
29035
28847
29336
29153
29140
28991
29211
29236
29071
28982
29191
29219
28881
28999
29190
29105
28912
29326
29309
28965
28880
28999
29064
28959
28998
29172
29183
28924
29259
29172
29194
28839
29196
29454
29280
28826
29189
29324
29181
28894
29390
29154
29119
29114
29226
29113
28952
28985
29201
29007
28635
29098
29097
28773
28834
28992
29055
28938
28870
28973
28792
28720
28815
28916
28834
28576
28851
28816
28790
28654
29112
28605
28771
28688
28961
28838
28634
28735
28878
28772
28662
28794
28949
28762
28584
28893
28999
28760
28707
29006
28881
28727
28734
29209
29079
28856
28937
29171
28828
28585
28875
28933
28895
28746
28870
28846
28893
28882
29005
28941
28725
28904
29076
28992
28731
29009
29101
28765
28871
29049
28993
28833
28789
29103
29112
28840
28993
29036
28978
28872
29028
29252
29050
28908
29044
29025
28929
28752
29078
29069
28777
28743
29130
28985
28818
28963
29061
29049
29025
29057
29064
29037
28938
29189
29159
28938
28823
29061
29206
29125
29098
29209
29130
28879
29130
29221
29052
28926
29158
29183
29012
28879
29064
29028
28896
29044
29365
29138
28875
29111
29192
29075
28920
29137
29272
29105
28991
29235
29345
28878
28748
29100
29396
29034
29180
29181
29032
28729
29262
29217
29030
28793
29079
28996
29012
29023
29204
29153
28803
29031
29179
28950
28872
29015
29078
29008
28766
28968
28997
28857
28641
28695
28908
28656
28753
28742
28770
28500
28923
28826
28575
28560
28836
28868
28755
28818
28897
28773
28763
28651
29042
28790
28682
28785
28926
28864
28500
28861
29017
28849
28651
28978
28851
28829
28601
29084
29023
28827
28846
29035
28964
28837
28920
28841
28999
28821
28895
29097
28970
28824
29079
29297
28858
28732
29167
29237
28678
28985
29285
28978
28914
29142
29209
29135
28831
29166
28923
29023
28987
29239
28982
28888
28989
28993
28969
28921
29071
28922
29002
28730
29216
29007
28840
28698
29053
29230
29123
28979
28998
29132
28995
29185
29131
29068
28910
29070
29089
29197
28899
29310
29017
28958
28905
29404
29166
29006
29024
29025
29056
29085
29196
29138
29073
28862
29276
29364
29027
29147
29446
29115
28808
29214
29159
29084
28855
29207
29247
29076
28960
29270
29274
29182
29034
29283
29313
29016
29101
29302
29216
28951
29198
29356
29177
28839
29255
29305
28918
28796
29253
29214
28942
29160
29012
29084
28809
29130
29076
29090
28743
29167
29056
28864
28635
28904
28906
28774
28689
28923
29020
28709
28800
28856
28831
28603
28884
28856
28825
28670
28921
28704
28807
28805
28848
28880
28691
28710
29002
28841
28710
28959
28941
28836
28644
28965
29009
28808
28768
29011
28996
28726
28661
29004
29018
28780
28858
29126
28936
28725
28862
28797
28848
28740
29030
29002
28717
28790
29195
28902
28763
28710
29124
28973
28702
29021
28789
28970
28789
29198
28862
28718
28694
28882
29185
29005
28994
29214
28958
28815
29214
29231
29005
28954
28944
28940
29140
28715
28882
29037
28836
28626
29106
28946
29029
29133
28953
28891
28842
29161
28924
29083
28713
29177
28975
28890
28741
28933
29050
28674
28984
29048
28985
28836
29082
29013
28935
28918
29233
29142
28800
28739
29106
28938
28821
29123
28973
29035
28902
28978
29413
28862
28835
29144
28965
29123
28893
28869
29024
28942
28985
29036
28849
28763
28989
28893
28795
28606
28894
28852
28650
28721
28808
28755
28607
28607
28659
28649
28419
28528
28768
28580
28280
28570
28502
28541
28234
28573
28573
28322
28325
28706
28531
28440
28574
28532
28594
28140
28500
28494
28403
28487
28490
28739
28423
28373
28521
28544
28519
28399
28827
28670
28378
28651
28817
28680
28649
28696
28885
28702
28634
28895
28730
28515
28650
28794
28901
28570
28534
28738
28834
28500
28777
28964
28594
28649
28715
28810
28716
28641
28767
28769
28628
28696
28774
28802
28580
28811
28736
28721
28615
28846
28818
28731
28616
28898
28896
28751
28729
28991
28852
28531
28889
28872
28798
28761
28965
28962
28865
28715
28980
28980
28886
28842
28960
28916
28789
28939
29085
28989
28655
28979
29016
28964
28798
28938
28929
28957
28941
29059
28998
28857
28928
29065
29006
28730
28972
29152
28987
28832
29086
28935
28999
28824
29082
29117
28902
28977
29233
28929
28792
29024
29160
29036
28784
28910
29064
28873
28795
29191
29215
28779
28938
29067
28911
28803
28857
29118
28976
28597
28845
28766
28893
28589
28756
28674
28878
28668
28956
28756
28589
28543
28726
28658
28578
28625
28665
28571
28276
28626
28605
28675
28687
28529
28377
28466
28398
28528
28639
28476
28555
28619
28518
28278
28690
28529
28395
28558
28470
28487
28310
28351
28780
28795
28532
28496
28532
28680
28716
28638
28597
28483
28470
28664
28727
28461
28675
28810
28624
28463
28636
28724
28657
28538
28769
28783
28709
28493
28780
28777
28666
28566
28711
28725
28628
28514
28707
28903
28638
28799
28888
28710
28631
28852
28848
28705
28691
28810
28888
28691
28653
28959
28838
28652
28778
28862
28760
28656
28880
28889
28834
28781
29082
28718
28717
28762
29064
28855
28684
28779
29095
28896
28834
28902
29020
28897
28756
28974
28937
28823
28664
28844
28846
28868
28722
29067
29004
28849
29026
28955
28800
28761
28841
28902
28910
28900
28811
28758
28831
28901
29059
28981
28857
28880
28984
28945
28737
29068
28982
29079
28739
29021
28973
28801
28797
29079
29050
28918
28791
29095
28898
28778
28936
29081
28913
28656
28874
28952
28763
28468
28893
28661
28770
28574
28955
28469
28649
28551
28836
28649
28467
28804
28675
28558
28375
28857
28529
28574
28460
28702
28749
28295
28614
28494
28619
28206
28534
28546
28542
28542
28625
28534
28613
28617
28754
28756
28595
28585
28562
28723
28414
28808
28784
28752
29063
28791
28860
28696
28660
28782
28709
28647
28663
28814
28778
28521
28790
28873
28917
28607
28854
28914
28711
28548
28867
28785
28775
28651
28894
28859
28688
28881
28933
28938
28642
28836
29040
28754
28718
28874
29078
28680
28638
28946
28824
28668
28688
28816
28855
28645
28875
28931
28770
28668
28895
28823
28789
28663
28919
28942
28742
28704
29009
28756
28695
28908
29032
28861
28772
28873
28948
28913
28682
29030
28876
28602
28885
28793
29059
28743
29092
29048
28909
28708
29012
28993
28913
28736
28894
28903
28972
28964
28904
29083
28979
29057
28702
28941
28617
28983
28912
28967
28735
29001
28954
28937
28716
28948
28917
28662
28696
29118
28763
28494
28792
28622
28777
28376
28595
28912
28500
28305
28555
28751
28443
28725
28789
28532
28406
28516
28452
28447
28341
28615
28470
28521
28383
28648
28724
28268
28176
28433
28715
28327
28608
28767
28455
28471
28702
28720
28479
28576
28754
28334
28509
28272
28694
28711
28737
28430
28805
28626
28312
28791
28576
28706
28591
28728
28662
28497
28494
28926
28842
28624
28605
28573
28568
28526
28608
28558
28701
28646
28720
28940
28709
28518
28758
28816
28658
28694
28702
28812
28577
28539
28899
28768
28401
28698
28858
28533
28739
28669
28715
28822
28625
28882
28640
28569
28793
28889
28798
28527
28718
29033
28771
28416
28859
28740
28885
28442
28666
28781
28812
28553
28940
28605
28529
28716
28885
28929
28470
28936
28686
28744
28767
29001
28869
28890
28415
28681
28691
28733
28719
28688
28775
28476
28849
28761
28746
28574
28900
28974
28790
28573
29008
28762
28557
28597
28817
29011
28568
28820
28938
28813
28574
28992
28833
28824
28805
28915
28738
28568
28669
28776
28757
28457
28601
28735
28640
28626
28689
28659
28641
28329
28689
28608
28392
28497
28728
28482
28255
28386
28480
28414
28030
28326
28325
28369
28153
28540
28374
28491
28100
28356
28354
28131
28197
28341
28354
28136
28270
28387
28394
28175
28339
28470
28265
28142
28508
28476
28283
28297
28512
28418
28511
28342
28457
28356
28326
28445
28675
28329
28174
28408
28736
28584
28456
28600
28606
28478
28342
28668
28591
28480
28433
28703
28636
28395
28736
28610
28427
28102
28451
28415
28487
28431
28422
28536
28126
28438
29182
28442
28574
28512
28483
28383
28244
28499
28737
28346
28540
28881
28810
28608
28538
28715
28762
28381
28681
28741
28488
28228
28683
28720
28412
28472
28781
28606
28570
28571
28836
28678
28483
28566
28778
28625
28426
28781
28931
28403
28490
28604
28573
28713
28739
28762
28980
28588
28650
28786
28751
28488
28831
28871
28635
28763
28826
28868
28899
28753
28825
28723
28794
28622
28794
28769
28520
28650
28849
28800
28687
28874
28855
28646
28453
28901
28950
28445
28506
28638
28791
28502
28680
28528
28587
28426
28470
28424
28518
28123
28522
28425
28343
28359
28515
28544
28049
28297
28540
28330
28128
28213
28552
28277
28089
28396
28294
28322
28070
28463
28373
28085
28160
28276
28234
27949
28403
28299
28523
28206
28539
28451
28441
28243
28514
28497
28345
28502
28549
28599
28345
28392
28716
28536
28283
28652
28548
28448
28255
28636
28633
28475
28328
28693
28709
28405
28596
28624
28598
28326
28680
28692
28544
28438
28772
28679
28698
28281
28862
28480
28347
28781
28568
28520
28348
28564
28695
28519
28523
28633
28722
28753
28371
28805
28782
28486
28494
28644
28596
28336
28617
28808
28499
28483
28793
28704
28512
28598
28790
28752
28632
28531
28733
28649
28572
28550
28912
28576
28523
28734
28766
28599
28374
28772
28811
28690
28497
28780
28659
28387
28575
28968
28836
28310
28630
28582
28513
28537
28665
28681
28563
28542
28893
28764
28491
28725
28712
28537
28415
28520
28662
28629
28633
28535
28627
28634
28670
28589
28579
28405
28440
28498
28585
28237
28356
28470
28451
28303
28427
28463
28282
28086
28420
28372
28121
28204
28256
28450
28128
28282
28524
28167
28137
28291
28493
28330
27929
28491
28608
28403
28008
28143
28296
28194
28126
28220
28278
27947
28318
28301
28450
28045
28435
28449
28585
28382
28584
28636
28509
28240
28621
28551
28193
28316
28543
28610
28278
28685
28533
28294
28429
28740
28619
28464
28255
28524
28737
28503
28436
28553
28566
28342
28583
28813
28494
28416
28677
28680
28376
28292
28619
28556
28373
28379
28880
28573
28231
28554
28849
28561
28291
28732
28773
28744
28333
28464
28873
28447
28481
28819
28346
28339
28687
28543
28508
28488
28735
28778
28740
28535
28560
28364
28416
28389
28766
28733
28586
28443
28494
28529
28254
28548
28730
28556
28514
28813
28852
28738
28617
28608
28687
28495
28719
28995
28591
28325
28541
28694
28575
28558
28865
28725
28626
28622
28899
28809
28600
28659
28647
28546
28572
28782
28779
28685
28466
28493
28670
28590
28386
28784
28836
28540
28346
28392
28348
28158
28215
28511
28390
28229
28506
28267
28304
27898
28361
28253
28433
28004
28229
28157
28143
27852
28107
28026
28057
28154
28222
28159
27862
28339
28344
27989
27923
28548
28278
28228
28298
28485
28360
28280
28171
28382
28322
28178
28216
28266
28196
28210
28198
28373
28344
28011
28389
28371
28369
28258
28587
28512
28002
28349
28641
28409
27936
28343
28503
28221
28168
28697
28420
28338
28124
28209
28311
28044
28360
28413
28606
28268
28334
28579
28236
28396
28510
28640
28194
28548
28590
28615
28519
28670
28560
28374
28228
28510
28755
28562
28429
28376
28423
28546
28193
28728
28455
28187
28547
28578
28546
28339
28506
28384
28406
28502
28412
28531
28543
28376
28490
28455
28519
28311
28784
28499
28157
28624
28547
28679
28367
28637
28595
28559
28543
28786
28617
28540
28563
28560
28865
28279
28606
28671
28716
28439
28671
28557
28664
28310
28639
28782
28384
28363
28910
28669
28549
28456
28872
28626
28339
28604
28811
28646
28317
28562
28544
28611
28566
28544
28566
28523
28192
28172
28400
27816
28178
28360
28119
28068
28281
28268
27948
27805
28268
28201
28217
27986
28187
28260
28191
27912
28175
28255
27863
28121
28266
28165
28097
28078
28132
28331
28124
28480
28348
28040
28372
28376
28198
28016
28228
28357
28296
28066
28368
28304
28338
28112
28493
28443
28139
28328
28470
28360
28153
28452
28675
28461
28245
28539
28471
28411
28345
28537
28465
28352
28366
28532
28598
28339
28509
28501
28435
28332
28558
28528
28417
28348
28582
28618
28456
28434
28678
28480
28429
28453
28308
28495
28352
28568
28599
28625
28395
28669
28700
28514
28384
28644
28681
28522
28450
28805
28595
28385
28491
28619
28613
28391
28579
28831
28516
28561
28660
28650
28563
28371
28870
28746
28397
28645
28731
28677
28386
28635
28632
28669
28537
28797
28548
28800
28390
28786
28543
28540
28565
28660
28703
28402
28685
28637
28697
28362
28860
28750
28824
28446
28947
28821
28605
28740
28805
28673
28533
28684
28718
28692
28508
28707
28683
28576
28463
28695
28479
28460
28456
28549
28635
28193
28173
28447
28343
28109
28404
28377
28265
28017
28399
28424
28278
28229
28320
28269
28102
28187
28371
28161
27963
28279
28190
28173
27957
28537
28311
27993
28033
28343
28341
28192
28226
28367
28236
28094
28266
28449
28241
28145
28371
28443
28294
28065
28367
28527
28218
28319
28567
28358
28034
28516
28600
28356
28109
28439
28595
28181
28247
28597
28481
28505
28066
28420
28208
28323
28438
28316
28322
28124
28273
28587
28531
28155
28673
28495
28461
28250
28388
28374
28118
28124
28508
28236
28094
28346
28388
28555
28082
28618
28589
28284
28148
28633
28638
28148
28210
28628
28312
28358
28475
28375
28524
28351
28442
28611
28444
28466
28662
28520
28327
28402
28792
28596
28243
28406
28367
28409
28154
28502
28712
28410
28449
28771
28706
28560
28519
28790
28599
28398
28384
28465
28597
28140
28476
28679
28698
28400
28606
28579
28562
28293
28806
28641
28584
28417
28763
28804
28426
28321
28440
28310
28035
28508
28428
28413
28180
28232
28332
27911
27792
28273
28008
28119
27917
28342
28150
27983
28125
28012
28097
27863
28142
28065
28038
27894
28279
28158
27895
27889
28200
28131
27924
27961
28035
28069
27936
28241
28164
27900
27928
28051
28074
28079
27908
28213
27948
27953
28246
28261
28264
28010
28120
28163
28273
28073
28054
28125
28316
27983
28421
28247
28119
27952
28207
28227
27853
28296
28272
28267
27952
28236
28183
28197
28236
28479
28487
28012
28003
28275
28215
28252
28328
28244
28346
27994
28431
28296
28137
28254
28543
28220
28140
28149
28476
28201
28169
28143
28521
28375
28218
28288
28423
28155
27956
28445
28659
28357
28314
28734
28287
28126
28365
28275
28331
28010
28431
28490
28405
28214
28387
28380
28424
28266
28782
28515
28463
28315
28408
28474
28150
28474
28565
28349
28222
28331
28615
28583
28097
28636
28372
28532
28157
28637
28673
28203
28301
28357
28489
28222
28402
28543
28556
28158
28449
28492
28566
28395
28628
28465
28260
28435
28667
28330
28141
28326
28253
28198
27919
28020
28169
28254
28219
28262
28250
27869
27849
28258
27793
27756
27878
28045
27718
27705
27799
27755
27890
27590
28117
28167
27845
27693
28261
27976
27915
27875
27904
28010
27701
28050
28028
28058
27895
28044
28166
27972
27936
28234
28023
28082
28058
28265
28131
27904
28146
28251
28098
27928
28265
28231
28133
28091
28232
28186
28017
28117
28350
28213
27977
28203
28442
28213
27983
28151
28344
28243
28150
28365
28365
28110
28262
28498
28439
28224
28269
28400
28452
28023
28371
28344
28457
28057
28542
28496
28391
28227
28707
28310
28195
28356
28326
28443
28204
28448
28522
28463
28266
28593
28589
28432
28285
28622
28560
28302
28392
28519
28638
28381
28558
28429
28509
28402
28521
28729
28754
28277
28440
28565
28279
28328
28669
28436
28321
28343
28603
28393
28198
28748
28722
28316
28372
28756
28741
28624
28464
28627
28527
28320
28370
28958
28626
28140
28734
28593
28543
28222
28559
28762
28337
28507
28465
28365
28182
28424
28515
28284
28334
28334
28476
28126
28076
28076
28384
28148
28094
28361
28230
27893
28015
28121
27986
27919
28089
28055
28184
28038
28191
27945
28139
28107
28181
28202
27886
27811
28536
28247
28033
28293
28206
28155
28079
28047
28453
28141
27987
28270
28468
28328
28299
28283
28240
28136
28196
28363
28319
28156
28392
28444
28382
28087
28430
28425
28270
28162
28487
28379
28157
28143
28306
28366
28245
28274
28473
28425
28109
28517
28513
28539
28194
28482
28500
28305
28338
28593
28518
28228
28343
28565
28582
28276
28549
28512
28562
28248
28477
28655
28561
28295
28739
28575
28276
28233
28463
28475
28181
28465
28599
28471
28298
28403
28439
28393
28131
28447
28624
28503
28293
28824
28523
28303
28203
28616
28372
28386
28696
28459
28444
28282
28476
28267
28619
28230
28797
28489
28206
28615
28454
28483
28326
28453
28618
28587
28406
28483
28563
28550
28258
28792
28688
28354
28336
28625
28495
28475
28560
28700
28393
28309
28460
28558
28237
28163
28509
28471
28453
28350
28269
28367
28023
28324
28517
28241
28214
28251
28196
28116
28005
28138
28221
27952
27958
28125
28134
27810
27918
27932
27966
27686
28017
28132
28027
27608
28199
28195
27839
27936
27976
27894
27959
28032
28312
28065
27733
28022
27975
28190
27842
28096
27979
28248
28130
28387
27996
28202
28033
28461
28305
27887
28135
28283
28148
27906
28085
28398
28050
27846
28185
28281
28131
27881
28358
28269
28053
28177
28468
28326
28014
28332
28099
28080
28047
28450
28127
28281
27854
28525
28277
27971
28201
28040
28321
27894
28262
28169
28307
28037
28285
28400
28268
28119
28447
28344
27985
27953
28421
28274
28264
28395
28266
28238
27900
28401
28268
28326
28200
28293
28505
28265
28076
28441
28244
28140
28175
28546
28237
28066
28390
28614
28249
28146
28574
28387
28344
28296
28206
28579
28348
28186
28405
28355
28323
28371
28525
28252
28168
28614
28362
28421
28280
28555
28422
28426
28093
28509
28057
28073
28331
28443
28199
28069
28082
28123
28144
27779
28142
27942
27922
27792
28220
27945
27846
28001
28178
27941
27545
27858
28025
27714
27620
27977
28166
27833
27893
27817
27801
27706
27610
28091
27942
27723
27933
28265
27760
27640
27813
27888
28053
27812
27899
27961
27753
27734
28039
28088
27888
27985
28343
27937
27585
28055
28065
27925
27833
28114
28139
27956
27822
28081
28107
27874
27954
28213
28027
27908
28101
28181
28041
28057
28207
28290
28192
28064
28247
27863
27893
27900
28124
28088
28085
28077
28330
28346
28025
28252
28279
28264
27859
28312
28098
28039
28017
28224
28226
28158
28184
28273
28256
28083
28369
28301
28241
28016
28342
28174
28369
28193
28399
28212
28266
28278
28455
28353
28107
28500
28322
28269
28156
28346
28388
28468
28162
28482
28430
28398
28264
28192
28542
28100
28310
28605
28458
28070
28594
28607
28432
28218
28657
28443
28379
28255
28650
28597
28239
28606
28753
28476
28211
28696
28559
28402
28252
28757
28681
28337
28506
28848
28472
28253
28316
28313
28428
28259
28487
28397
28214
27917
28445
28396
28226
28077
28292
28200
27823
27874
28427
28069
28109
28109
28433
28060
27420
28036
28012
27955
27590
28085
28039
27802
27689
28055
27962
27837
27936
27843
28070
27777
27888
28251
27961
27849
28096
28094
27993
27761
28225
27911
27977
28219
28216
28096
27666
28222
28097
27975
28013
28107
28038
28211
27920
28169
28385
27932
27916
28404
28351
27904
28227
28416
28116
28063
28273
28322
28128
27970
28309
28298
28233
28247
28403
28387
28166
28271
28311
28247
28035
28591
28482
28377
28138
28466
28285
28485
28409
28292
28386
28261
28363
28654
28471
28169
28330
28544
28360
28244
28328
28431
28597
28340
28387
28668
28268
28273
28451
28540
28359
28387
28720
28423
28240
28384
28424
28302
28331
28525
28552
28339
28355
28530
28708
28455
28501
28692
28579
28012
28513
28769
28542
28202
28625
28591
28369
28243
28631
28528
28225
28430
28670
28533
28186
28534
28533
28560
28356
28514
28344
28152
28314
28297
28530
28181
28435
28349
28438
27927
28314
28171
28241
28005
28226
28206
27858
27959
28189
28224
27956
27982
27995
27898
27658
28030
28224
27998
27606
28100
28122
27801
27778
28115
28108
28001
27837
28067
28017
27833
28169
28195
28110
27835
28167
28089
28266
28075
28310
28065
28134
27919
28495
28259
27979
27878
28260
28324
28091
28309
28222
28078
27907
28317
28418
28192
28136
28524
28332
28153
28033
28479
28386
28051
28379
28619
28233
28126
28410
28360
28416
28059
28397
28404
28301
28212
28468
28418
28173
28270
28590
28380
28028
28400
28259
28388
28121
28475
28431
28273
28181
28524
28546
28200
28448
28468
28368
28069
28415
28255
28420
28058
28490
28494
28202
28089
28300
28425
28319
28353
28604
28435
28341
28373
28509
28453
28205
28504
28513
28613
28284
28508
28593
28572
28477
28537
28569
28346
28243
28514
28482
28305
28525
28579
28326
28131
28489
28819
28238
28190
28646
28653
28423
28296
28254
28468
28071
28434
28387
28238
28063
28472
28320
28153
28132
28241
28263
28012
27922
28195
28051
27962
28082
28227
27919
28022
27987
28003
27889
27861
28108
28022
27911
27788
28055
27941
27826
27805
28099
27907
27744
27950
28145
27926
27698
28013
28248
27957
27742
28108
27919
27811
27971
28078
28127
27967
28108
28209
27952
27947
28276
28267
28073
28052
28481
28351
28149
27932
28469
28336
27863
28040
28446
28163
28146
28335
28342
28172
28097
28244
28281
28221
28050
28343
28554
28141
28242
28371
28208
27881
28421
28227
28103
27896
28357
28298
28218
28193
28378
28460
28216
28322
28295
28130
27955
28220
28449
28210
28186
28427
28406
28140
28161
28338
28571
28119
28103
28218
28365
28096
28345
28408
28299
28138
28428
28343
28363
28192
28493
28365
28284
28269
28609
28334
28177
28363
28550
28414
28369
28336
28601
28349
28177
28700
28740
28461
28265
28667
28430
28240
28154
28643
28419
28142
28436
28626
28251
28278
28423
28538
28444
28441
28443
28489
28421
28523
28609
28469
28296
28305
28547
28331
28197
28267
28419
28241
28137
28254
28149
28126
28105
28135
28209
27794
28081
28163
27971
27889
28125
28090
28042
27835
28051
28195
27975
27956
28147
27934
27962
28021
28393
28011
27726
27943
28178
28169
28016
28094
28118
27949
27850
28008
28271
28063
28069
28255
28156
28046
28140
28269
28181
28047
28329
28376
28247
28102
28340
28357
28249
28191
28250
28279
28165
28178
28375
28282
28098
28315
28526
28493
28044
28602
28374
28311
28217
28333
28379
28238
28123
28696
28365
28106
28424
28339
28207
28114
28475
28265
28340
28322
28504
28449
28198
28207
28579
28420
28355
28414
28589
28417
28255
28541
28672
28492
28290
28343
28468
28344
28390
28827
28368
28465
28663
28754
28388
28391
28468
28584
28334
28199
28392
28611
28658
28306
28518
28508
28373
28411
28663
28669
28501
28579
28647
28600
28500
28754
28658
28592
28573
28742
28658
28390
28663
28741
28640
28322
28721
28689
28654
28494
28709
28746
28592
28210
28745
28832
28588
28444
28782
28619
28239
28600
28705
28600
28320
28584
28397
28482
28297
28455
28375
28251
28222
28535
28350
27904
28151
28337
28428
27886
28276
28477
28206
27980
28237
28151
28010
28204
28326
28214
28151
28306
28485
28242
28030
28169
28395
28157
28034
28283
28337
28213
28109
28600
28137
28218
28134
28414
28309
28184
28322
28428
28330
28060
28336
28425
28265
28161
28316
28458
28233
28077
28681
28158
28331
28255
28664
28407
28297
28539
28376
28477
28142
28551
28444
28213
28252
28454
28438
28305
28325
28576
28438
28339
28556
28458
28426
28532
28732
28474
28622
28370
28688
28583
28488
28389
28780
28465
28250
28388
28433
28672
28410
28753
28765
28544
28260
28681
28481
28539
28486
28654
28547
28418
28503
28838
28586
28546
28619
28690
28628
28332
28560
28597
28395
28599
28853
28702
28563
28606
28850
28728
28499
28750
28721
28713
28436
28789
28691
28598
28625
29004
28812
28663
28568
28823
28730
28261
28540
28722
28635
28446
28761
28569
28619
28536
28710
28733
28523
28368
28653
28531
28321
28583
28486
28325
28220
28203
28568
28318
27902
28496
28061
28188
28054
28449
28228
28238
28155
28480
28146
28115
28218
28177
28121
27970
28193
28074
27868
27873
28111
28267
28054
28217
28467
28282
28007
28193
28380
28164
27992
28355
28442
28295
28298
28453
28464
28357
28236
28592
28441
28401
28389
28589
28428
28223
28465
28524
28417
28329
28535
28472
28292
28187
28677
28599
28313
28278
28810
28546
28215
28426
28523
28545
28250
28546
28771
28474
28375
28649
28607
28340
28549
28729
28649
28229
28609
28688
28587
28375
28700
28647
28668
28454
28703
28774
28563
28425
28776
28562
28331
28597
28732
28648
28428
28717
28476
28744
28209
28695
28902
28778
28618
28584
28565
28427
28715
28919
28693
28533
28750
28906
28726
28396
28893
28789
28473
28574
28711
28801
28580
28493
28783
28788
28601
28701
28709
28778
28515
28751
28826
28647
28435
28837
28748
28657
28615
28721
28856
28639
28721
28793
28696
28501
28816
28647
28731
28312
28835
28728
28559
28524
28761
28406
28293
28313
28340
28362
28105
28332
28418
28282
27997
28447
28219
28240
28060
28389
28313
28157
28026
28399
28131
28092
28212
28127
28234
28147
28218
28312
28140
28278
28358
28197
28118
28278
28419
28321
28182
28249
28451
28314
28210
28376
28359
28344
28140
28516
28318
28211
28421
28417
28384
28304
28409
28730
28577
28202
28449
28389
28390
28085
28352
28462
28481
28363
28347
28552
28278
28162
28859
28544
28459
28639
28603
28533
28352
28675
28826
28504
28440
28593
28535
28495
28491
28822
28610
28519
28723
28586
28636
28400
28736
28612
28796
28459
28769
28743
28574
28507
28874
28658
28662
28774
28560
28694
28341
28790
28559
28823
28404
28722
28682
28559
28441
28930
28704
28569
28690
28809
28706
28314
28808
28925
28659
28479
28652
28701
28506
28625
28868
28884
28653
28493
28813
28724
28567
28635
28925
28803
28362
28705
28670
28794
28458
28590
28547
28799
28491
28765
28704
28685
28695
28840
28721
28580
28761
28899
28684
28551
28745
28496
28462
28582
28593
28612
28404
28557
28555
28468
28227
28487
28359
28366
28212
28503
28275
28388
28181
28375
28400
28237
28258
28454
28417
28075
28344
28299
28346
28282
28361
28569
28373
28129
28323
28358
28117
28220
28549
28518
28236
28472
28502
28285
28194
28448
28573
28549
28281
28788
28735
28650
28285
28530
28551
28408
28317
28826
28541
28323
28566
28436
28512
28370
28581
28598
28374
28329
28690
28701
28356
28385
28662
28703
28464
28620
28592
28519
28371
28494
28811
28376
28635
28570
28589
28511
28380
28795
28635
28493
28754
28834
28570
28333
28589
28596
28575
28433
28749
28676
28622
28462
28743
28580
28445
28531
28606
28673
28376
