50177
50154
50158
50194
50269
50394
50578
50822
51123
51480
51901
52384
52908
53447
53996
54554
55108
55646
56175
56704
57220
57690
58083
58408
58689
58927
59120
59270
59380
59448
59495
59544
59589
59616
59635
59635
59609
59575
59538
59504
59491
59494
59490
59472
59446
59434
59449
59475
59495
59513
59531
59530
59504
59447
59350
59212
59048
58876
58721
58588
58474
58384
58310
58246
58188
58143
58116
58105
58119
58157
58205
58237
58241
58231
58212
58197
58204
58219
58223
58220
58218
58227
58224
58186
58120
58045
57958
57845
57725
57614
57500
57362
57210
57069
56941
56811
56667
56523
56383
56238
56099
55981
55877
55773
55662
55537
55382
55207
55048
54903
54742
54574
54423
54279
54132
53999
53894
53803
53700
53577
53456
53350
53249
53153
53080
53027
52977
52927
52872
52798
52696
52578
52451
52322
52214
52128
52050
51975
51913
51868
51832
51794
51742
51677
51611
51549
51492
51440
51383
51314
51249
51187
51108
51019
50932
50852
50778
50695
50592
50487
50397
50318
50250
50203
50175
50175
50223
50328
50487
50692
50947
51265
51645
52073
52541
53043
53565
54093
54620
55141
55664
56197
56732
57245
57721
58147
58507
58810
59076
59302
59482
59626
59741
59817
59851
59859
59845
59813
59768
59714
59652
59601
59587
59606
59645
59700
59767
59824
59851
59854
59851
59843
59831
59826
59823
59818
59790
59733
59665
59581
59490
59402
59320
59245
59173
59090
58996
58900
58823
58789
58797
58812
58807
58782
58747
58713
58693
58696
58722
58769
58832
58915
59005
59089
59161
59220
59264
59286
59285
59260
59195
59088
58959
58821
58683
58541
58398
58270
58156
58047
57942
57843
57749
57639
57510
57389
57273
57136
56980
56807
56614
56423
56259
56129
56027
55930
55816
55698
55587
55476
55375
55295
55224
55147
55060
54953
54833
54729
54648
54568
54469
54352
54229
54113
54009
53909
53818
53733
53641
53560
53508
53480
53464
53455
53452
53446
53425
53383
53312
53198
53046
52879
52704
52520
52337
52169
52018
51875
51747
51645
51568
51510
51467
51450
51471
51534
51654
51834
52061
52338
52679
53075
53507
53962
54447
54971
55516
56073
56636
57185
57699
58171
58613
59018
59372
59682
59961
60196
60364
60461
60500
60500
60482
60458
60430
60392
60347
60309
60281
60256
60253
60272
60292
60315
60343
60375
60422
60470
60485
60457
60397
60320
60238
60155
60080
60011
59941
59865
59773
59658
59530
59402
59284
59172
59064
58976
58908
58854
58817
58806
58822
58858
58905
58968
59041
59110
59174
59233
59287
59331
59364
59384
59393
59381
59344
59293
59230
59147
59048
58948
58838
58709
58576
58450
58322
58183
58037
57890
57743
57594
57447
57321
57222
57136
57053
56961
56851
56733
56621
56512
56393
56263
56136
56008
55875
55745
55620
55502
55394
55303
55231
55176
55126
55074
55021
54961
54893
54829
54779
54734
54679
54618
54563
54511
54447
54366
54280
54188
54083
53980
53893
53812
53726
53644
53575
53508
53438
53377
53342
53331
53332
53348
53396
53489
53629
53829
54095
54399
54739
55136
55593
56090
56602
57111
57619
58124
58623
59100
59523
59887
60222
60544
60826
61050
61234
61395
61507
61553
61547
61506
61446
61370
61292
61236
61199
61170
61139
61100
61050
60989
60937
60903
60860
60800
60746
60705
60654
60578
60478
60366
60253
60143
60042
59940
59827
59719
59614
59485
59334
59203
59095
58981
58854
58733
58633
58564
58539
58548
58566
58594
58636
58689
58746
58786
58797
58798
58793
58771
58738
58698
58651
58608
58566
58517
58449
58336
58177
58002
57837
57685
57549
57431
57320
57198
57060
56929
56802
56664
56528
56387
56237
56085
55926
55774
55639
55513
55396
55284
55159
55029
54913
54807
54695
54576
54464
54369
54290
54216
54147
54084
54023
53963
53902
53840
53784
53732
53697
53690
53700
53700
53675
53619
53538
53449
53374
53322
53285
53248
53218
53192
53154
53099
53034
52959
52873
52783
52691
52601
52514
52444
52410
52417
52463
52560
52720
52950
53256
53623
54026
54449
54889
55348
55824
56305
56788
57271
57733
58142
58500
58834
59142
59418
59649
59825
59965
60084
60181
60253
60295
60311
60305
60273
60213
60135
60054
59991
59950
59916
59888
59870
59838
59787
59740
59700
59648
59582
59491
59365
59212
59047
58894
58762
58638
58518
58420
58339
58258
58179
58100
58004
57897
57790
57700
57643
57614
57596
57590
57599
57620
57664
57720
57772
57816
57854
57886
57902
57897
57877
57843
57789
57712
57612
57505
57398
57281
57156
57024
56882
56727
56567
56420
56299
56197
56116
56045
55953
55828
55691
55559
55430
55316
55213
55093
54952
54820
54707
54608
54525
54444
54344
54234
54124
54023
53949
53897
53846
53787
53718
53630
53524
53409
53294
53182
53068
52948
52831
52724
52626
52547
52487
52436
52385
52340
52304
52265
52214
52157
52100
52044
51995
51954
51906
51857
51824
51826
51864
51931
52042
52212
52438
52714
53033
53399
53811
54244
54679
55123
55576
56028
56465
56872
57242
57570
57847
58083
58292
58467
58606
58714
58797
58873
58942
58983
59007
59029
59042
59041
59013
58951
58885
58833
58782
58733
58699
58677
58658
58628
58580
58532
58498
58480
58468
58436
58360
58258
58171
58107
58046
57970
57899
57836
57772
57719
57683
57658
57636
57610
57590
57578
57571
57566
57567
57571
57580
57598
57628
57671
57718
57759
57788
57792
57763
57713
57645
57561
57474
57389
57293
57177
57055
56944
56851
56769
56685
56595
56493
56371
56243
56116
55988
55858
55724
55608
55502
55374
55235
55118
55008
54887
54782
54702
54629
54541
54419
54275
54127
53980
53849
53740
53647
53567
53492
53408
53314
53219
53126
53030
52917
52794
52680
52571
52460
52352
52255
52166
52076
51976
51882
51815
51766
51722
51683
51647
51601
51536
51473
51410
51331
51233
51116
50983
50844
50716
50607
50509
50421
50338
50256
50180
50098
49998
49897
49816
49752
49693
49652
49651
49703
49811
49977
50207
50503
50858
51255
51671
52110
52596
53119
53653
54171
54656
55106
55521
55901
56249
56565
56837
57070
57285
57490
57673
57822
57959
58074
58144
58185
58197
58170
58123
58088
58071
58062
58068
58098
58136
58166
58194
58226
58270
58315
58347
58360
58352
58325
58279
58215
58126
58017
57915
57842
57785
57727
57671
57610
57522
57410
57301
57212
57131
57069
57036
57029
57043
57074
57114
57156
57197
57227
57248
57274
57303
57320
57317
57296
57257
57207
57168
57133
57086
57020
56942
56856
56768
56685
56618
56553
56460
56343
56235
56143
56042
55924
55798
55671
55544
55420
55307
55204
55095
54970
54835
54699
54559
54418
54290
54185
54106
54035
53963
53903
53849
53793
53736
53665
53570
53463
53358
53242
53122
53030
52970
52904
52805
52685
52565
52453
52349
52271
52212
52137
52044
51952
51868
51784
51692
51597
51496
51388
51291
51210
51142
51069
50981
50883
50775
50659
50550
50444
50315
50173
50058
49975
49886
49776
49669
49582
49503
49420
49331
49234
49127
49040
48985
48957
48971
49031
49153
49352
49610
49903
50230
50592
50984
51401
51845
52314
52779
53237
53695
54127
54519
54887
55218
55502
55748
55967
56169
56355
56512
56634
56721
56773
56794
56791
56777
56761
56759
56771
56777
56767
56748
56735
56736
56733
56715
56691
56665
56629
56572
56491
56388
56266
56137
56018
55906
55791
55688
55611
55554
55511
55476
55430
55387
55356
55321
55277
55235
55212
55208
55194
55163
55134
55124
55124
55119
55113
55113
55107
55080
55035
54988
54948
54899
54839
54791
54754
54700
54640
54593
54536
54430
54285
54132
53973
53810
53650
53496
53345
53193
53044
52907
52777
52644
52519
52417
52327
52227
52111
51990
51867
51742
51616
51486
51352
51228
51119
51014
50905
50799
50705
50627
50556
50479
50384
50281
50186
50102
50037
49986
49918
49836
49765
49699
49628
49557
49485
49407
49319
49229
49161
49118
49074
49020
48958
48882
48789
48691
48597
48513
48437
48355
48254
48143
48041
47954
47880
47821
47773
47733
47708
47689
47659
47607
47537
47475
47435
47418
47433
47502
47632
47816
48040
48301
48613
48979
49383
49796
50202
50616
51056
51505
51946
52382
52807
53204
53562
53878
54147
54363
54539
54690
54795
54846
54863
54869
54865
54849
54819
54781
54737
54687
54636
54604
54598
54601
54621
54656
54676
54688
54711
54731
54723
54691
54652
54605
54549
54500
54466
54431
54388
54351
54338
54340
54328
54298
54263
54236
54213
54180
54145
54122
54109
54105
54107
54114
54128
54162
54220
54284
54332
54364
54378
54360
54313
54261
54213
54167
54122
54084
54042
53989
53928
53855
53773
53686
53583
53470
53352
53220
53079
52952
52835
52717
52590
52461
52341
52231
52119
52008
51899
51793
51696
51615
51535
51452
51370
51286
51190
51081
50969
50857
50746
50642
50549
50473
50410
50350
50285
50213
50138
50064
49995
49929
49854
49771
49685
49593
49495
49409
49341
49270
49183
49081
48974
48870
48770
48673
48582
48489
48377
48258
48151
48053
47962
47880
47814
47743
47652
47562
47480
47399
47329
47277
47246
47238
47257
47304
47371
47460
47579
47749
47979
48264
48606
48999
49416
49837
50257
50690
51133
51565
51982
52385
52754
53064
53310
53523
53723
53899
54044
54166
54272
54362
54438
54501
54541
54548
54521
54465
54392
54320
54276
54258
54246
54228
54212
54199
54177
54153
54144
54144
54128
54087
54031
53967
53892
53806
53716
53632
53546
53460
53376
53298
53238
53193
53167
53162
53166
53169
53172
53178
53193
53212
53229
53240
53244
53246
53249
53248
53244
53241
53236
53219
53188
53152
53110
53061
53001
52941
52888
52835
52779
52723
52674
52624
52558
52477
52400
52318
52222
52124
52034
51951
51883
51833
51776
51696
51603
51507
51397
51281
51173
51075
50986
50903
50818
50730
50644
50555
50468
50387
50311
50235
50166
50107
50051
49998
49954
49919
49889
49854
49810
49756
49684
49599
49519
49443
49363
49284
49220
49164
49109
49055
48999
48938
48868
48811
48774
48733
48675
48613
48555
48499
48445
48397
48358
48318
48258
48184
48113
48040
47949
47844
47741
47641
47541
47446
47356
47262
47174
47105
47051
47013
47011
47058
47160
47319
47530
47796
48120
48484
48870
49277
49707
50150
50596
51053
51517
51968
52388
52786
53175
53546
53900
54225
54503
54730
54923
55099
55242
55332
55386
55434
55461
55463
55468
55479
55466
55425
55393
55386
55391
55407
55440
55471
55490
55499
55513
55547
55586
55617
55636
55630
55585
55502
55398
55288
55186
55098
55020
54936
54841
54755
54702
54674
54659
54661
54687
54724
54749
54753
54753
54750
54731
54696
54659
54623
54606
54615
54630
54636
54626
54594
54543
54477
54400
54325
54251
54167
54071
53971
53878
53791
53699
53601
53502
53401
53297
53193
53089
52977
52855
52729
52593
52455
52325
52197
52073
51951
51834
51719
51601
51476
51338
51190
51043
50909
50790
50691
50600
50509
50432
50377
50332
50276
50214
50143
50062
49987
49924
49854
49760
49650
49543
49452
49371
49295
49220
49135
49035
48934
48841
48757
48673
48581
48490
48406
48321
48230
48121
47996
47877
47774
47672
47564
47462
47367
47288
47220
47137
47038
46946
46870
46802
46743
46689
46615
46528
46471
46469
46516
46619
46780
46993
47260
47583
47970
48393
48827
49270
49712
50152
50602
51052
51485
51893
52249
52550
52815
53042
53241
53432
53606
53742
53839
53903
53944
53962
53963
53980
54009
54024
54024
54018
54012
54001
53993
54001
54009
54014
54026
54047
54060
54036
53977
53909
53855
53808
53759
53716
53675
53621
53558
53502
53455
53390
53313
53251
53198
53145
53106
53082
53074
53078
53085
53093
53104
53118
53137
53154
53166
53167
53161
53157
53151
53133
53101
53058
53002
52941
52891
52857
52825
52784
52736
52675
52590
52482
52367
52250
52124
51996
51878
51765
51646
51507
51357
51214
51086
50971
50861
50755
50645
50522
50389
50251
50104
49969
49864
49765
49653
49549
49469
49402
49332
49264
49214
49165
49098
49033
48980
48940
48896
48827
48746
48678
48611
48521
48417
48329
48261
48207
48155
48080
47975
47866
47773
47681
47581
47489
47419
47361
47298
47239
47183
47105
47014
46937
46868
46789
46715
46657
46605
46574
46579
46620
46694
46804
46981
47224
47493
47791
48156
48582
49041
49510
49980
50448
50892
51307
51705
52081
52429
52750
53051
53330
53575
53784
53967
54123
54227
54284
54328
54366
54384
54405
54447
54480
54476
54454
54447
54448
54429
54381
54325
54285
54262
54236
54195
54151
54102
54038
53972
53921
53880
53838
53774
53692
53621
53571
53524
53456
53366
53285
53238
53220
53218
53228
53249
53280
53316
53345
53364
53374
53384
53413
53457
53501
53531
53541
53534
53499
53440
53382
53334
53290
53241
53193
53136
53058
52980
52901
52800
52685
52568
52452
52343
52242
52148
52051
51955
51875
51809
51739
51647
51546
51446
51335
51202
51067
50954
50855
50760
50668
50586
50498
50385
50265
50145
50031
49942
49883
49844
49811
49778
49742
49692
49619
49531
49434
49333
49222
49096
48972
48865
48767
48677
48609
48561
48511
48450
48380
48295
48189
48077
47980
47889
47783
47677
47596
47530
47457
47376
47310
47277
47277
47321
47407
47504
47617
47777
47989
48247
48553
48921
49352
49828
50330
50848
51371
51876
52343
52779
53176
53527
53853
54169
54459
54709
54932
55139
55323
55476
55594
55681
55752
55796
55806
55798
55763
55705
55649
55615
55608
55617
55647
55691
55722
55727
55725
55725
55719
55703
55668
55598
55502
55405
55305
55194
55078
54972
54899
54856
54819
54787
54760
54736
54717
54699
54681
54658
54642
54657
54698
54751
54808
54858
54899
54925
54942
54957
54960
54940
54912
54885
54860
54847
54833
54801
54759
54700
54615
54523
54436
54346
54243
54128
54010
53896
53800
53726
53653
53552
53431
53326
53235
53142
53049
52964
52887
52811
52736
52664
52588
52509
52435
52364
52283
52194
52111
52040
51986
51942
51900
51857
51821
51792
51766
51740
51711
51683
51664
51650
51620
51558
51476
51388
51290
51180
51067
50950
50809
50645
50477
50321
50180
50050
49936
49841
49757
49673
49586
49501
49417
49334
49259
49194
49131
49071
49028
49003
48987
48996
49051
49149
49288
49480
49733
50048
50418
50831
51279
51755
52246
52744
53247
53740
54211
54662
55093
55492
55848
56168
56453
56694
56894
57061
57195
57288
57347
57384
57405
57417
57426
57427
57413
57391
57380
57389
57416
57450
57485
57517
57533
57522
57496
57471
57444
57400
57343
57276
57192
57090
56984
56889
56799
56707
56617
56539
56469
56410
56369
56345
56325
56309
56311
56341
56391
56462
56550
56648
56745
56833
56916
56998
57066
57115
57157
57192
57213
57217
57210
57190
57155
57113
57070
57028
56977
56919
56868
56825
56768
56685
56588
56483
56367
56234
56094
55961
55831
55705
55585
55459
55318
55183
55061
54936
54800
54664
54530
54386
54240
54113
54009
53902
53786
53675
53585
53510
53440
53378
53318
53252
53179
53106
53034
52953
52870
52801
52742
52676
52604
52529
52448
52365
52293
52229
52167
52096
52020
51951
51876
51772
51651
51538
51439
51341
51241
51140
51034
50926
50828
50735
50635
50534
50441
50354
50270
50190
50134
50115
50132
50184
50277
50415
50600
50833
51117
51450
51827
52240
52676
53124
53577
54038
54510
54972
55412
55829
56219
56570
56873
57123
57331
57507
57652
57768
57856
57912
57942
57955
57955
57942
57919
57894
57869
57839
57803
57776
57767
57766
57760
57747
57720
57671
57617
57578
57540
57477
57390
57294
57179
57036
56884
56741
56603
56471
56362
56279
56199
56123
56071
56043
56021
56008
56011
56027
56044
56053
56065
56092
56121
56152
56186
56214
56233
56241
56253
56272
56286
56289
56264
56206
56126
56022
55902
55783
55667
55550
55443
55360
55296
55246
55203
55150
55076
54989
54889
54781
54673
54566
54459
54343
54205
54066
53948
53846
53764
53702
53653
53609
53554
53492
53434
53377
53311
53238
53164
53088
53016
52947
52874
52796
52707
52605
52511
52435
52371
52321
52277
52230
52183
52131
52049
51942
51830
51716
51603
51486
51376
51288
51214
51134
51053
50984
50924
50861
50788
50709
50626
50544
50480
50453
50468
50531
50647
50819
51042
51312
51629
51980
52351
52746
53174
53627
54089
54558
55034
55502
55948
56367
56756
57105
57407
57667
57892
58075
58207
58296
58354
58376
58365
58337
58298
58252
58204
58162
58129
58110
58105
58106
58112
58118
58108
58078
58030
57959
57869
57772
57668
57548
57408
57258
57114
56969
56819
56678
56546
56420
56310
56231
56179
56135
56097
56075
56061
56041
56020
56011
56016
56035
56069
56117
56182
56255
56330
56397
56435
56441
56429
56405
56364
56316
56267
56206
56125
56023
55905
55781
55648
55505
55360
55205
55033
54860
54697
54544
54395
54242
54086
53942
53818
53710
53608
53499
53377
53250
53123
52995
52862
52725
52584
52432
52268
52104
51963
51843
51733
51636
51556
51481
51397
51305
51212
51123
51032
50949
50885
50834
50785
50738
50700
50663
50628
50600
50571
50535
50501
50477
50452
50416
50371
50315
50244
50159
50067
49974
49878
49771
49661
49555
49451
49338
49226
49127
49063
49039
49052
49121
49252
49439
49690
50003
50365
50764
51196
51657
52150
52679
53236
53802
54356
54890
55403
55881
56310
56695
57047
57358
57617
57829
58016
58186
58328
58438
58522
58581
58613
58628
58631
58624
58616
58620
58635
58649
58661
58676
58697
58710
58706
58688
58670
58660
58649
58626
58578
58503
58420
58337
58246
58139
58007
57856
57711
57579
57452
57330
57217
57125
57072
57055
57054
57051
57058
57095
57152
57204
57237
57250
57242
57217
57187
57166
57146
57112
57064
57016
56966
56909
56848
56786
56709
56609
56496
56377
56248
56106
55965
55831
55696
55545
55388
55248
55125
55013
54901
54778
54653
54530
54396
54257
54131
54016
53904
53804
53713
53612
53493
53373
53262
53157
53049
52928
52789
52650
52533
52423
52308
52201
52117
52049
51982
51914
51848
51783
51724
51667
51601
51526
51445
51350
51240
51125
51005
50876
50749
50646
50564
50498
50438
50376
50312
50253
50191
50113
50022
49928
49831
49719
49591
49468
49358
49253
49151
49056
48958
48865
48804
48786
48807
48871
48991
49170
49411
49702
50036
50416
50824
51253
51709
52196
52711
53251
53805
54365
54915
55433
55921
56373
56768
57099
57376
57605
57796
57960
58094
58193
58254
58277
58266
58231
58182
58137
58106
58089
58079
58076
58089
58121
58162
58202
58230
58226
58192
58141
58083
58015
57937
57857
57778
57697
57610
57525
57442
57358
57263
57162
57064
56974
56917
56902
56911
56916
56910
56919
56944
56960
56975
57015
57079
57156
57243
57332
57410
57461
57485
57490
57493
57490
57466
57414
57337
57255
57165
57052
56926
56806
56695
56594
56500
56408
56318
56225
56116
55984
55834
55678
55516
55350
55192
55032
54849
54664
54501
54342
54179
54032
53895
53759
53625
53492
53370
53280
53228
53197
53163
53131
53111
53096
53075
53042
53002
52955
52905
52865
52827
52771
52709
52657
52603
52527
52439
52360
52284
52201
52124
52051
51977
51904
51838
51792
51748
51681
51598
51520
51436
51336
51239
51163
51110
51079
51081
51114
51177
51271
51411
51606
51860
52180
52559
52975
53416
53879
54353
54830
55315
55810
56300
56775
57241
57690
58116
58505
58841
59121
59334
59489
59613
59721
59805
59853
59861
59827
59772
59724
59686
59638
59585
59530
59480
59436
59388
59349
59333
59331
59331
59317
59263
59169
59047
58901
58751
58614
58477
58321
58154
57990
57828
57679
57567
57502
57468
57457
57472
57498
57524
57546
57571
57611
57659
57690
57711
57733
57751
57764
57777
57791
57814
57834
57834
57809
57757
57686
57609
57537
57472
57402
57317
57226
57130
57023
56905
56783
56658
56539
56419
56293
56160
56015
55864
55719
55584
55455
55324
55190
55060
54939
54828
54722
54620
54524
54420
54303
54187
54079
53968
53856
53766
53705
53655
53604
53559
53502
53412
53314
53233
53162
53077
52984
52897
52812
52730
52656
52589
52534
52482
52426
52360
52280
52190
52096
51996
51894
51792
51687
51586
51489
51409
51348
51295
51239
51180
51112
51036
50963
50916
50911
50926
50954
51023
51157
51354
51594
51876
52224
52632
53075
53558
54091
54660
55253
55863
56475
57066
57628
58181
58712
59180
59571
59907
60204
60468
60692
60873
61031
61168
61258
61304
61330
61351
61372
61393
61408
61401
61377
61368
61380
61400
61414
61416
61421
61436
61456
61472
61474
61440
61360
61257
61153
61035
60897
60754
60609
60451
60275
60094
59925
59765
59601
59435
59292
59185
59100
59037
59005
58999
59012
59022
59015
59005
59017
59045
59076
59104
59119
59104
59062
59014
58972
58930
58874
58808
58731
58631
58507
58360
58205
58066
57949
57849
57767
57694
57614
57521
57413
57276
57114
56943
56786
56654
56544
56438
56318
56185
56057
55943
55838
55731
55614
55494
55391
55302
55215
55146
55093
55033
54969
54893
54801
54708
54641
54612
54594
54550
54477
54401
54342
54290
54231
54170
54116
54062
54006
53955
53899
53832
53749
53652
53537
53402
53262
53135
53018
52908
52822
52762
52691
52604
52531
52473
52412
52348
52296
52264
52234
52182
52128
52110
52140
52228
52381
52604
52893
53229
53604
54032
54509
55014
55532
56057
56599
57162
57734
58284
58787
59243
59662
60053
60410
60715
60969
61197
61409
61595
61752
61877
61975
62055
62108
62116
62080
62034
62014
62022
62049
62090
62128
62134
62114
62107
62111
62098
62068
62019
61951
61859
61740
61611
61490
61390
61312
61243
61156
61045
60935
60847
60768
60690
60634
60602
60555
60495
60450
60425
60419
60427
60446
60473
60498
60518
60528
60536
60553
60562
60556
60545
60532
60521
60505
60476
60419
60347
60282
60212
60121
60008
59887
59783
59678
59543
59393
59247
59092
58930
58778
58624
58465
58307
58146
57979
57818
57689
57588
57486
57366
57242
57128
57014
56889
56760
56640
56530
56410
56280
56157
56041
55941
55868
55815
55766
55701
55616
55535
55458
55376
55307
55255
55197
55131
55068
55011
54950
54864
54759
54647
54538
54448
54389
54343
54291
54233
54166
54096
54022
53934
53822
53685
53533
53385
53251
53125
52999
52886
52799
52714
52619
52526
52429
52317
52207
52132
52091
52060
52052
52107
52232
52406
52646
52975
53381
53843
54346
54881
55431
55970
56509
57075
57650
58197
58713
59196
59615
59969
60280
60548
60767
60941
61093
61233
61346
61430
61491
61538
61565
61563
61546
61528
61508
61484
61460
61431
61395
61356
61328
61313
61296
61267
61219
61151
61073
60989
60898
60799
60696
60588
60477
60377
60277
60166
60053
59953
59871
59794
59726
59688
59671
59657
59649
59654
59674
59712
59762
59814
59866
59911
59945
59965
59976
59989
60003
60011
59991
59944
59889
59835
59776
59715
59657
59590
59504
59395
59269
59127
58976
58841
58721
58595
58451
58305
58174
58045
57920
57818
57732
57642
57546
57455
57366
57266
57161
57063
56960
56848
56743
56647
56542
56426
56313
56206
56105
56015
55943
55886
55827
55756
55668
55564
55447
55324
55220
55132
55047
54957
54858
54748
54632
54518
54413
54334
54263
54182
54106
54020
53913
53818
53744
53672
53593
53499
53380
53237
53078
52920
52784
52666
52565
52509
52502
52520
52569
52663
52799
52988
53234
53521
53855
54254
54702
55170
55656
56169
56707
57257
57794
58292
58748
59170
59566
59940
60292
60618
60896
61109
61275
61407
61500
61561
61594
61599
61587
61562
61515
61445
61366
61285
61207
61151
61128
61125
61119
61105
61081
61033
60966
60892
60805
60719
60649
60585
60509
60419
60317
60198
60067
59947
59847
59759
59675
59605
59556
59526
59509
59505
59524
59569
59622
59672
59727
59781
59815
59828
59842
59852
59841
59819
59785
59734
59675
59621
59577
59525
59458
59392
59327
59236
59113
58975
58834
58699
58583
58486
58401
58307
58185
58047
57905
57740
57562
57403
57282
57184
57099
57021
56930
56816
56692
56576
56478
56398
56339
56300
56261
56214
56174
56137
56091
56033
55967
55895
55819
55741
55667
55589
55486
55367
55269
55189
55086
54957
54826
54713
54626
54558
54501
54451
54408
54369
54330
54289
54243
54198
54150
54090
54021
53975
53977
54021
54101
54221
54382
54586
54838
55154
55535
55965
56432
56937
57471
58012
58547
59073
59580
60051
60484
60886
61247
61556
61817
62035
62214
62363
62493
62611
62709
62781
62829
62859
62873
62863
62828
62785
62753
62735
62721
62697
62657
62609
62566
62520
62455
62370
62273
62160
62019
61860
61699
61547
61403
61264
61129
60994
60852
60719
60613
60524
60432
60342
60272
60225
60202
60201
60220
60258
60303
60340
60374
60409
60435
60450
60466
60475
60468
60448
60425
60396
60357
60311
60255
60177
60085
59994
59901
59793
59663
59516
59359
59196
59034
58881
58740
58600
58459
58328
58204
58081
57962
57849
57734
57615
57496
57375
57249
57122
56997
56875
56761
56659
56575
56504
56438
56373
56308
56246
56181
56111
56040
55967
55893
55821
55760
55712
55662
55604
55544
55486
55428
55372
55322
55278
55225
55155
55077
54994
54894
54776
54663
54562
54465
54372
54287
54200
54090
53970
53865
53792
53744
53718
53728
53795
53921
54104
54349
54651
54999
55396
55837
56307
56797
57310
57851
58408
58950
59473
59983
60467
60907
61291
61615
61880
62094
62268
62404
62504
62579
62649
62714
62759
62780
62794
62800
62786
62762
62756
62769
62786
62815
62862
62906
62941
62978
63018
63043
63030
62975
62889
62779
62645
62505
62380
62267
62158
62052
61951
61846
61734
61641
61584
61545
61521
61531
61571
61606
61634
61675
61733
61802
61876
61943
61982
61976
61933
61890
61866
61846
61828
61821
61810
61793
61769
61736
61694
61626
61534
61439
61340
61224
61096
60971
60840
60691
60535
60390
60245
60090
59931
59787
59672
59568
59450
59327
59221
59129
59033
58936
58836
58715
58572
58431
58296
58143
57980
57838
57721
57627
57562
57508
57451
57385
57298
57190
57076
56974
56885
56799
56701
56596
56501
56420
56333
56245
56183
56142
56089
56009
55926
55849
55767
55695
55630
55557
55489
55436
55393
55338
55252
55148
55029
54902
54799
54732
54704
54725
54799
54948
55175
55457
55800
56218
56698
57230
57802
58393
58971
59514
60033
60540
61022
61469
61886
62263
62582
62841
63040
63183
63287
63379
63473
63545
63576
63589
63615
63652
63675
63679
63679
63682
63679
63673
63658
63648
63649
63636
63613
63606
63597
63568
63535
63492
63422
63337
63241
63132
63012
62891
62765
62633
62500
62377
62274
62203
62161
62134
62117
62103
62081
62062
62072
62103
62134
62177
62236
62285
62316
62343
62359
62350
62307
62242
62162
62063
61959
61879
61823
61773
61712
61629
61525
61405
61261
61098
60937
60778
60615
60469
60336
60182
60006
59835
59684
59537
59366
59187
59027
58889
58769
58650
58519
58370
58232
58136
58061
57981
57911
57867
57828
57779
57738
57700
57642
57571
57500
57434
57366
57283
57199
57126
57054
56973
56880
56794
56725
56663
56601
56542
56487
56425
56351
56260
56152
56030
55892
55748
55610
55489
55384
55284
55182
55086
55018
54973
54936
54931
54972
55052
55152
55269
55415
55590
55786
56026
56332
56699
57108
57541
57991
58450
58916
59396
59904
60432
60952
61445
61892
62295
62668
63018
63339
63619
63856
64056
64216
64328
64391
64422
64419
64387
64344
64291
64223
64139
64051
63985
63956
63936
63903
63863
63827
63798
63773
63739
63682
63588
63477
63370
63266
63161
63061
62961
62851
62744
62635
62514
62395
62301
62247
62223
62214
62217
62236
62270
62313
62362
62417
62462
62497
62537
62597
62657
62693
62720
62744
62746
62721
62687
62657
62616
62546
62449
62341
62246
62163
62073
61971
61867
61768
61672
61570
61451
61323
61205
61083
60941
60785
60627
60487
60374
60268
60162
60058
59947
59824
59701
59583
59466
59364
59300
59261
59220
59178
59142
59099
59042
58979
58915
58851
58785
58725
58671
58610
58531
58445
58366
58286
58206
58134
58065
57993
57914
57830
57748
57668
57593
57514
57429
57330
57212
57087
56962
56841
56729
56647
56599
56565
56557
56602
56695
56829
57011
57246
57541
57906
58330
58793
59294
59821
60350
60870
61365
61835
62290
62720
63111
63450
63728
63958
64157
64320
64453
64565
64644
64681
64686
64684
64673
64637
64570
64492
64408
64317
64241
64207
64210
64233
64270
64303
64320
64321
64309
64288
64250
64184
64084
63954
63805
63647
63486
63320
63157
63018
62918
62842
62772
62726
62723
62758
62812
62872
62932
62983
63017
63043
63063
63068
63057
63036
63010
62986
62972
62972
62977
62968
62934
62893
62865
62843
62816
62784
62739
62675
62600
62513
62408
62283
62142
62003
61867
61713
61550
61401
61265
61130
61006
60895
60790
60689
60591
60489
60379
60256
60125
59998
59891
59799
59717
59657
59603
59531
59445
59352
59253
59157
59065
58980
58910
58859
58828
58807
58777
58737
58699
58662
58612
58546
58471
58395
58319
58237
58147
58053
57968
57892
57816
57736
57655
57594
57547
57487
57407
57314
57211
57098
56978
56865
56772
56701
56647
56618
56625
56680
56789
56969
57225
57529
57862
58244
58683
59160
59675
60236
60835
61454
62062
62626
63143
63624
64068
63152
58815
51313
42391
33296
24828
17430
11308
6504
2932
438
0
0
0
0
0
0
0
0
0
0
136
339
479
571
629
651
634
1901
5195
8208
9492
9565
10151
13617
19949
27606
35489
42886
49383
54769
59003
62156
64363
270
1121
1533
1641
1533
1281
973
666
364
88
65394
65192
64998
64827
64697
64601
64528
64466
64410
64348
64257
64137
64023
63926
63824
63701
63558
63406
63247
63082
62925
62780
62644
62514
62400
62289
62155
61998
61826
61645
61471
61318
61190
61084
60991
60905
60828
60762
60690
60609
60529
60446
60363
60283
60205
60141
60094
60058
60023
59974
59915
59865
59816
59743
59643
59541
59446
59348
59246
59142
59044
58962
58894
58833
58757
58658
58558
58485
58424
58342
58243
58150
58072
58000
57924
57839
57737
57624
57520
57421
57316
57227
57183
57195
57256
57370
57546
57785
58078
58424
58826
59272
59741
60226
60734
61256
61775
62285
62780
63244
63668
64052
63085
60028
57195
54732
50078
43082
35146
27242
19995
15064
14633
17120
19967
24122
30091
36749
43313
49284
53086
52574
49337
47232
47334
48844
51127
53716
56296
58662
60684
62311
63540
64400
64943
65221
65306
65270
65154
64976
64759
64530
64303
64095
63932
63827
63764
63731
63721
63736
63773
63820
63871
63919
63955
63985
64023
64066
64100
64116
64112
64079
64023
63969
63917
63856
63781
63697
63608
63514
63415
63317
63219
63117
63003
62874
62743
62626
62525
62431
62333
62217
62073
61911
61746
61590
61442
61304
61181
61056
60918
60786
60679
60598
60532
60471
60405
60332
60255
60183
60117
60054
59991
59927
59869
59814
59756
59706
59660
59607
59550
59497
59438
59367
59282
59196
59111
59009
58891
58787
58696
58598
58489
58384
58281
58175
58075
57985
57893
57792
57695
57620
57567
57522
57489
57485
57508
57547
57610
57724
57897
58123
58405
58750
59142
59568
60030
60524
61039
61568
62109
62652
63167
63631
62740
58448
51022
42194
33189
24797
17461
11387
6615
3069
596
0
0
0
0
0
0
0
0
0
0
239
444
583
667
711
724
709
662
587
1804
6368
14028
23047
32189
40669
48042
54108
58834
62312
64714
699
1527
1843
1807
1559
1204
811
415
29
65214
64924
64703
64549
64448
64387
64360
64347
64334
64318
64291
64228
64133
64023
63910
63806
63724
63660
63603
63541
63461
63351
63222
63093
62954
62797
62620
62436
62272
62128
61988
61855
61738
61643
61557
61465
61367
61266
61158
61053
60957
60860
60755
60651
60550
60456
60367
60288
60225
60174
60130
60094
60062
60018
59956
59890
59837
59788
59734
59685
59639
59586
59525
59458
59391
59335
59289
59253
59219
59169
59102
59035
58965
58886
58804
58710
58585
58430
58268
58123
58004
57901
57816
57760
57708
57638
57553
57464
57373
57281
57192
57117
57070
57049
57069
57145
57268
57440
57678
57985
58354
58790
59296
59858
60445
61033
61620
62206
62767
63286
63764
62886
58600
51166
42312
33261
24811
17429
11332
6558
3015
546
0
0
0
0
0
0
0
0
0
0
127
353
536
677
770
821
840
826
785
727
651
1871
6448
14119
23150
32319
40822
48199
54250
58955
62420
64813
792
1616
1929
1900
1662
1304
893
490
125
65340
65073
64867
64714
64597
64514
64462
64423
64368
64293
64211
64121
64023
63927
63835
63739
63639
63539
63437
63323
63193
63059
62932
62809
62683
62566
62458
62343
62215
62087
61965
61831
61670
61504
61362
61237
61118
61005
60896
60785
60661
60536
60422
60318
60217
60120
60029
59935
59837
59747
59666
59598
59539
59481
59416
59343
59272
59213
59155
59080
59001
58931
58853
58757
58652
58546
58435
58328
58234
58144
58052
57960
57872
57790
57703
57606
57506
57404
57289
57157
57024
56896
56771
56647
56527
56414
56312
56229
56160
56087
56002
55923
55867
55834
55833
55881
55995
56177
56424
56723
57069
57464
57902
58375
58879
59398
59921
60439
60941
61409
61843
62251
62636
62996
63332
63645
63914
64115
64263
64381
64467
64510
64520
64520
64512
64488
64447
64402
64357
64305
64249
64198
64155
64118
64087
64065
64041
64000
63956
63926
63888
63818
63726
63621
63491
63341
63191
63051
62909
62760
62627
62519
62419
62328
62259
62208
62168
62148
62151
62175
62216
62267
62312
62341
62354
62354
62352
62344
62318
62283
62262
62257
62248
62219
62179
62138
62090
62037
61993
61955
61904
61828
61726
61604
61470
61331
61190
61046
60895
60749
60615
60486
60361
60249
60149
60054
59966
59888
59816
59746
59678
59607
59528
59437
59340
59248
59166
59094
59025
58957
58889
58808
58723
58657
58602
58534
58450
58354
58256
58162
58075
57990
57911
57845
57784
57721
57648
57566
57496
57441
57381
57301
57221
57171
57140
57113
57087
57054
57001
56931
56865
56796
56705
56598
56494
56400
56311
56215
56130
56081
56065
56080
56139
56255
56421
56638
56915
57255
57663
58120
58589
59060
59540
60022
60491
60931
61346
61752
62135
62471
62763
63027
63258
63438
63574
63683
63768
63830
63872
63899
63905
63891
63876
63858
63829
63811
63811
63809
63792
63765
63747
63751
63761
63754
63729
63687
63617
63512
63389
63267
63140
63005
62878
62761
62643
62526
62426
62352
62294
62233
62179
62149
62122
62085
62050
62028
62023
62038
62069
62105
62130
62154
62191
62232
62267
62289
62296
62271
62216
62166
62124
62058
61959
61837
61705
61571
61444
61350
61274
61188
61105
61023
60927
60820
60704
60594
60492
60384
60274
60166
60052
59927
59815
59727
59656
59575
59466
59350
59243
59136
59018
58896
58782
58659
58524
58403
58298
58204
58135
58093
58050
57997
57952
57922
57897
57866
57823
57760
57679
57594
57506
57412
57310
57201
57104
57028
56939
56823
56702
56598
56509
56409
56302
56225
56161
56074
55968
55871
55789
55715
55644
55556
55443
55332
55240
55151
55054
54962
54886
54834
54807
54812
54874
55015
55226
55487
55792
56150
56557
57006
57487
57981
58473
58975
59493
60003
60487
60943
61363
61735
62047
62305
62523
62694
62801
62857
62891
62923
62947
62957
62964
62978
63002
63027
63049
63073
63099
63111
63103
63080
63054
63032
63024
63026
63029
63016
62982
62940
62896
62847
62785
62691
62569
62448
62334
62218
62112
62029
61954
61870
61788
61741
61730
61734
61733
61724
61713
61703
61718
61755
61781
61789
61790
61795
61806
61822
61843
61865
61873
61855
61801
61717
61626
61537
61434
61307
61170
61042
60919
60795
60677
60575
60491
60411
60329
60252
60184
60117
60040
59959
59891
59826
59749
59669
59602
59544
59489
59438
59394
59343
59271
59186
59093
58985
58864
58742
58627
58516
58400
58300
58219
58126
58021
57924
57845
57786
57738
57709
57689
57650
57588
57514
57425
57311
57189
57082
56992
56909
56834
56780
56730
56649
56546
56451
56369
56283
56177
56060
55959
55876
55800
55718
55619
55517
55413
55292
55157
55036
54941
54860
54786
54727
54705
54736
54812
54952
55176
55464
55796
56170
56594
57059
57531
58007
58492
58970
59421
59843
60234
60581
60879
61132
61345
61528
61695
61854
62007
62142
62241
62307
62336
62332
62309
62293
62308
62346
62383
62416
62444
62468
62494
62515
62516
62489
62439
62382
62311
62213
62101
61988
61873
61755
61625
61493
61363
61230
61088
60950
60829
60728
60659
60617
60579
60528
60466
60414
60365
60295
60208
60119
60035
59964
59909
59872
59840
59813
59815
59830
59812
59760
59710
59658
59587
59491
59379
59261
59134
59000
58876
58769
58677
58591
58506
58410
58302
58207
58132
58056
57965
57858
57741
57610
57458
57309
57179
57054
56916
56770
56633
56509
56398
56311
56240
56165
56099
56061
56034
55999
55966
55934
55891
55839
55779
55709
55632
55547
55439
55316
55199
55091
54994
54927
54878
54825
54781
54752
54721
54672
54610
54541
54456
54347
54224
54096
53959
53814
53687
53580
53468
53345
53221
53097
52970
52845
52726
52607
52472
52317
52172
52053
51947
51850
51787
51772
51784
51813
51888
52031
52238
52494
52783
53089
53410
53765
54170
54607
55043
55478
55933
56388
56816
57210
57554
57848
58096
58298
58469
58617
58735
58831
58901
58922
58906
58880
58855
58840
58830
58815
58804
58804
58817
58835
58837
58820
58787
58741
58688
58642
58612
58597
58587
58563
58522
58473
58412
58340
58267
58201
58133
58053
57974
57913
57848
57765
57694
57656
57633
57614
57599
57591
57603
57640
57702
57778
57849
57909
57970
58032
58067
58065
58055
58043
58017
57980
57942
57894
57826
57740
57638
57520
57391
57262
57139
57011
56875
56751
56639
56527
56424
56331
56235
56122
56000
55902
55818
55720
55613
55501
55381
55260
55151
55062
54968
54850
54722
54618
54552
54494
54420
54343
54268
54187
54117
54062
54013
53973
53940
53906
53864
53811
53743
53664
53597
53540
53485
53439
53386
53312
53241
53194
53170
53152
53122
53071
53001
52903
52785
52671
52565
52455
52363
52311
52278
52247
52226
52223
52245
52307
52423
52608
52850
53124
53437
53803
54203
54612
55042
55491
55935
56369
56795
57206
57584
57923
58231
58512
58756
58958
59123
59254
59352
59425
59485
59519
59506
59464
59439
59432
59424
59413
59400
59388
59383
59382
59383
59371
59348
59331
59314
59276
59213
59141
59075
59002
58905
58794
58687
58589
58496
58412
58333
58256
58182
58113
58047
57984
57931
57890
57854
57816
57783
57759
57737
57715
57691
57675
57665
57656
57649
57644
57635
57617
57593
57553
57491
57413
57327
57244
57162
57070
56965
56848
56720
56588
56470
56366
56256
56139
56023
55910
55796
55684
55571
55452
55328
55212
55126
55071
55018
54965
54925
54884
54824
54743
54644
54535
54424
54314
54211
54105
53995
53898
53817
53739
53663
53605
53576
53556
53523
53477
53427
53367
53286
53199
53121
53055
53003
52961
52911
52847
52784
52736
52694
52643
52581
52524
52474
52414
52332
52245
52162
52073
51976
51882
51795
51713
51651
51622
51622
51654
51734
51861
52023
52221
52469
52767
53095
53447
53835
54275
54753
55256
55768
56264
56732
57181
57599
57963
58272
58534
58742
58898
59003
59076
59146
59214
59264
59300
59340
59385
59412
59421
59442
59473
59495
59523
59575
59638
59694
59739
59768
59775
59751
59701
59636
59562
59475
59379
59283
59187
59091
59008
58936
58864
58794
58748
58725
58702
58669
58639
58622
58609
58600
58607
58626
58640
58648
58666
58694
58721
58748
58783
58815
58828
58822
58801
58765
58710
58637
58559
58479
58394
58319
58252
58173
58074
57963
57838
57697
57546
57400
57257
57109
56962
56836
56729
56625
56525
56431
56329
56215
56096
55989
55895
55802
55719
55652
55596
55535
55463
55388
55313
55232
55150
55075
55000
54918
54832
54751
54671
54586
54498
54417
54346
54285
54235
54183
54116
54041
53975
53919
53860
53793
53729
53673
53621
53560
53495
53439
53387
53323
53237
53138
53029
52906
52778
52656
52538
52429
52346
52280
52202
52113
52030
51959
51895
51833
51773
51720
51680
51658
51676
51748
51863
52020
52236
52511
52841
53230
53670
54141
54624
55117
55614
56092
56543
56972
57374
57745
58084
58400
58685
58915
59091
59248
59398
59515
59596
59663
59721
59765
59796
59826
59853
59873
59896
59931
59952
59948
59946
59953
59954
59939
59911
59878
59846
59815
59783
59752
59715
59667
59621
59577
59517
59429
59322
59207
59082
58949
58832
58741
58664
58600
58563
58550
58549
58557
58585
58632
58677
58710
58742
58774
58797
58807
58812
58800
58763
58705
58645
58593
58531
58462
58399
58320
58217
58114
58022
57925
57821
57721
57626
57533
57438
57344
57254
57157
57054
56949
56844
56749
56664
56578
56481
56372
56252
56128
56008
55889
55780
55687
55596
55496
55401
55328
55263
55187
55109
55039
54971
54907
54859
54826
54794
54749
54680
54593
54494
54391
54300
54222
54141
54044
53946
53869
53811
53762
53712
53657
53592
53517
53436
53352
53258
53152
53039
52923
52813
52711
52615
52520
52422
52334
52265
52203
52132
52048
51962
51873
51772
51660
51559
51471
51375
51272
51174
51069
50945
50815
50687
50553
50414
50284
50171
50074
49994
49949
49956
50007
50093
50230
50431
50686
50985
51332
51725
52153
52603
53068
53543
54018
54493
54962
55415
55843
56235
56587
56902
57175
57402
57590
57745
57869
57973
58060
58116
58142
58152
58145
58114
58065
58022
58006
58011
58026
58052
58091
58129
58172
58226
58283
58335
58379
58402
58392
58349
58275
58179
58075
57968
57864
57774
57689
57596
57500
57417
57351
57291
57238
57196
57169
57167
57189
57228
57282
57341
57391
57427
57448
57455
57457
57460
57457
57440
57416
57387
57349
57304
57261
57222
57174
57114
57052
56996
56938
56873
56800
56715
56609
56486
56362
56240
56112
55984
55866
55760
55654
55551
55460
55374
55279
55187
55121
55070
55009
54940
54887
54843
54787
54714
54629
54534
54438
54352
54275
54192
54095
54002
53918
53828
53725
53623
53531
53448
53368
53300
53251
53210
53175
53151
53118
53055
52973
52893
52817
52735
52652
52577
52508
52424
52328
52238
52159
52087
52019
51959
51901
51841
51776
51705
51629
51549
51473
51404
51324
51221
51104
50985
50865
50747
50635
50529
50424
50309
50190
50085
49986
49873
49750
49635
49531
49445
49385
49342
49308
49292
49294
49317
49360
49431
49551
49719
49932
50193
50500
50846
51226
51641
52097
52586
53086
53579
54053
54487
54880
55256
55617
55940
56216
56449
56638
56785
56904
57005
57093
57165
57222
57268
57297
57299
57288
57287
57299
57303
57294
57285
57279
57273
57267
57263
57250
57218
57166
57110
57058
57002
56947
56896
56834
56747
56644
56546
56451
56355
56274
56221
56175
56126
56080
56037
56004
55986
55998
56042
56091
56136
56190
56253
56309
56349
56385
56415
56428
56430
56424
56404
56365
56325
56302
56277
56220
56138
56046
55947
55841
55725
55610
55513
55424
55333
55240
55140
55033
54935
54848
54762
54665
54558
54449
54328
54198
54079
53973
53856
53724
53600
53498
53400
53297
53201
53119
53030
52929
52829
52736
52648
52564
52480
52390
52299
52215
52139
52066
51989
51909
51834
51760
51680
51599
51530
51470
51402
51324
51247
51175
51105
51044
50988
50924
50853
50781
50709
50635
50553
50468
50393
50325
50257
50197
50142
50078
50003
49930
49856
49762
49654
49556
49468
49378
49285
49197
49110
49017
48919
48824
48735
48660
48605
48574
48575
48608
48678
48800
48970
49176
49420
49718
50072
50471
50911
51388
51886
52388
52894
53398
53881
54341
54784
55209
55594
55932
56236
56501
56707
56867
56999
57109
57185
57224
57236
57225
57197
57169
57149
57130
57110
57099
57105
57121
57136
57150
57171
57192
57204
57213
57221
57202
57153
57095
57042
56989
56928
56869
56826
56788
56742
56690
56638
56578
56510
56444
56383
56314
56238
56177
56138
56111
56098
56111
56150
56199
56247
56293
56335
56363
56375
56381
56381
56370
56352
56320
56270
56208
56159
56127
56086
56022
55944
55862
55773
55672
55565
55456
55333
55191
55050
54924
54800
54680
54578
54494
54407
54314
54231
54156
54072
53972
53862
53749
53631
53510
53393
53287
53189
53096
53011
52933
52856
52786
52727
52661
52579
52489
52400
52316
52239
52171
52118
52058
51967
51856
51747
51651
51559
51474
51406
51344
51281
51211
51127
51022
50897
50781
50703
50643
50576
50505
50438
50371
50294
50213
50134
50054
49975
49903
49843
49789
49723
49640
49546
49444
49336
49227
49120
49014
48908
48810
48723
48634
48541
48457
48381
48315
48279
48286
48335
48426
48573
48777
49031
49344
49715
50137
50605
51113
51645
52183
52710
53221
53712
54179
54618
55025
55392
55708
55978
56217
56437
56628
56781
56904
56999
57064
57107
57134
57149
57146
57123
57098
57086
57080
57072
57068
57079
57104
57132
57157
57177
57191
57199
57202
57197
57181
57150
57116
57081
57028
56958
56884
56809
56733
56668
56609
56536
56441
56330
56223
56139
56083
56043
56014
56002
56007
56025
56059
56101
56143
56185
56233
56271
56279
56261
56232
56195
56143
56076
56005
55936
55855
55755
55652
55549
55435
55304
55150
54980
54809
54646
54486
54325
54173
54037
53903
53756
53604
53455
53308
53159
53010
52865
52725
52584
52438
52294
52157
52028
51908
51802
51710
51616
51523
51447
51377
51298
51209
51120
51040
50965
50880
50788
50696
50607
50528
50451
50354
50241
50147
50080
50013
49934
49858
49796
49742
49683
49624
49579
49533
49469
49389
49298
49191
49075
48962
48851
48741
48630
48521
48414
48306
48194
48072
47942
47808
47684
47581
47491
47410
47348
47304
47258
47206
47162
47141
47144
47166
47211
47294
47422
47595
47832
48148
48521
48934
49394
49896
50419
50954
51494
52018
52506
52960
53385
53772
54119
54433
54712
54949
55150
55318
55459
55577
55673
55749
55811
55859
55895
55927
55961
55993
56022
56052
56088
56119
56132
56133
56129
56122
56112
56097
56070
56023
55959
55895
55830
55750
55665
55581
55490
55400
55319
55247
55181
55122
55068
55016
54972
54944
54934
54941
54960
54984
55013
55046
55082
55132
55198
55262
55305
55318
55321
55340
55357
55351
55330
55300
55264
55215
55151
55086
55026
54962
54889
54808
54714
54613
54517
54434
54355
54274
54199
54126
54043
53953
53863
53767
53659
53547
53442
53339
53234
53141
53066
53011
52964
52916
52872
52836
52792
52734
52668
52602
52531
52453
52373
52299
52239
52196
52159
52118
52062
51993
51920
51844
51771
51709
51656
51605
51556
51519
51487
51451
51411
51366
51307
51228
51143
51061
50969
50858
50748
50659
50582
50498
50410
50341
50276
50188
50097
50023
49959
49888
49810
49729
49648
49572
49505
49456
49441
49484
49602
49785
50017
50291
50618
50992
51409
51875
52381
52902
53420
53937
54462
54980
55469
55917
56326
56693
57009
57277
57509
57705
57859
57986
58090
58163
58213
58254
58287
58312
58328
58341
58353
58365
58374
58384
58400
58420
58438
58461
58485
58497
58495
58484
58459
58414
58352
58284
58210
58130
58048
57963
57877
57782
57680
57578
57486
57405
57335
57272
57216
57168
57139
57140
57163
57210
57288
57391
57493
57578
57658
57739
57813
57877
57938
57992
58022
58022
58002
57961
57891
57796
57679
57541
57398
57262
57136
57015
56892
56772
56656
56531
56400
56280
56176
56080
55985
55899
55822
55742
55655
55566
55482
55399
55307
55212
55124
55041
54957
54873
54793
54720
54645
54562
54478
54394
54302
54206
54117
54030
53942
53864
53802
53740
53672
53612
53557
53496
53430
53366
53301
53232
53169
53115
53062
52998
52922
52849
52777
52699
52620
52550
52480
52403
52321
52235
52152
52070
51989
51913
51836
51752
51668
51585
51496
51393
51287
51185
51079
50971
50870
50780
50696
50606
50515
50440
50387
50357
50360
50404
50493
50633
50832
51089
51400
51769
52201
52685
53194
53716
54267
54843
55409
55961
56523
57082
57599
58062
58477
58832
59123
59364
59564
59723
59837
59908
59947
59970
59983
59994
60007
60019
60031
60051
60081
60113
60141
60166
60192
60219
60248
60281
60322
60365
60404
60438
60458
60461
60458
60451
60421
60354
60260
60154
60035
59902
59780
59692
59626
59572
59530
59504
59485
59463
59441
59425
59409
59390
59379
59375
59365
59350
59349
59363
59376
59373
59352
59315
59260
59187
59097
58989
58864
58736
58626
58528
58429
58326
58224
58123
58015
57887
57749
57616
57484
57348
57214
57078
56934
56796
56676
56562
56447
56340
56238
56132
56017
55901
55792
55679
55554
55437
55331
55221
55109
55013
54935
54857
54776
54698
54615
54524
54432
54345
54259
54161
54058
53974
53912
53855
53803
53764
53732
53692
53643
53598
53551
53487
53406
53321
53241
53159
53072
52989
52912
52822
52718
52614
52512
52406
52306
52229
52159
52075
51977
51873
51767
51663
51564
51469
51368
51258
51141
51017
50888
50762
50653
50560
50483
50435
50424
50448
50509
50616
50778
50991
51252
51571
51954
52380
52829
53298
53796
54316
54849
55390
55924
56436
56914
57357
57758
58111
58415
58679
58905
59087
59223
59314
59358
59355
59322
59278
59228
59167
59093
59019
58957
58899
58844
58802
58769
58739
58711
58688
58663
58632
58592
58548
58501
58447
58387
58325
58258
58181
58093
58001
57907
57810
57720
57643
57575
57514
57475
57467
57476
57489
57503
57510
57503
57497
57512
57541
57568
57594
57629
57664
57686
57694
57688
57653
57584
57488
57373
57235
57070
56884
56692
56495
56291
56086
55889
55711
55538
55358
55189
55035
54883
54737
54608
54496
54383
54260
54132
54010
53892
53783
53685
53576
53456
53351
53258
53164
53071
52989
52923
52856
52777
52696
52629
52572
52524
52489
52458
52423
52393
52367
52336
52299
52266
52236
52196
52145
52097
52068
52044
52013
51972
51918
51839
51746
51666
51616
51584
51544
51497
51444
51370
51273
51171
51074
50974
50869
50769
50681
50599
50522
50449
50379
50316
50270
50258
50295
50385
50528
50719
50960
51252
51588
51972
52410
52892
53402
53928
54444
54939
55432
55928
56411
56855
57249
57599
57905
58165
58401
58620
58807
58953
59059
59127
59170
59195
59205
59212
59220
59224
59232
59248
59261
59265
59281
59307
59315
59303
59288
59275
59252
59214
59166
59106
59027
58936
58845
58757
58671
58596
58535
58478
58408
58325
58241
58162
58088
58024
57976
57949
57946
57960
57985
58015
58046
58085
58129
58167
58191
58205
58215
58225
58239
58253
58260
58257
58236
58201
58155
58088
58005
57920
57824
57710
57586
57447
57305
57185
57084
56983
56883
56790
56700
56610
56514
56408
56297
56183
56060
55924
55779
55639
55501
55356
55219
55102
54999
54902
54820
54760
54705
54647
54594
54547
54493
54426
54362
54304
54244
54183
54124
54066
54003
53944
53891
53841
53789
53735
53675
53602
53514
53419
53332
53255
53177
53103
53037
52973
52905
52839
52782
52725
52662
52599
52534
52453
52352
52247
52149
52050
51943
51832
51734
51660
51618
51610
51631
51682
51785
51957
52192
52485
52848
53290
53795
54331
54885
55450
56009
56544
57061
57570
58057
58507
58922
59307
59647
59933
60177
60396
60583
60725
60835
60925
61001
61065
61129
61194
61241
61258
61259
61262
61264
61263
61274
61300
61327
61357
61396
61430
61447
61451
61443
61406
61338
61254
61168
61079
60983
60889
60808
60733
60647
60553
60464
60374
60280
60200
60148
60109
60070
60044
60036
60031
60031
60046
60080
60121
60154
60186
60221
60247
60255
60252
60241
60215
60171
60116
60053
59972
59874
59772
59670
59561
59451
59345
59234
59119
59003
58886
58760
58624
58488
58359
58228
58088
57950
57827
57707
57578
57458
57357
57255
57141
57025
56925
56828
56724
56631
56560
56488
56405
56330
56268
56206
56142
56084
56026
55952
55868
55803
55761
55716
55652
55572
55485
55384
55284
55207
55136
55053
54967
54891
54828
54762
54692
54630
54567
54491
54409
54329
54239
54136
54035
53946
53863
53780
53695
53606
53501
53374
53242
53113
52975
52819
52667
52534
52407
52279
52164
52066
51978
51910
51876
51885
51947
52067
52250
52492
52781
53117
53510
53958
54445
54969
55523
56093
56660
57215
57758
58270
58733
59161
59564
59917
60209
60453
60655
60803
60895
60953
60999
61025
61031
61029
61012
60974
60921
60870
60836
60819
60813
60819
60839
60866
60897
60936
60976
61000
61008
61007
60988
60940
60865
60774
60670
60550
60423
60297
60173
60046
59925
59823
59736
59657
59592
59550
59528
59516
59519
59538
59562
59585
59614
59656
59711
59771
59829
59880
59919
59945
59964
59975
59963
59933
59904
59877
59835
59773
59699
59615
59520
59416
59306
59189
59067
58940
58819
58715
58625
58535
58445
58347
58235
58116
58007
57907
57801
57693
57591
57490
57382
57270
57157
57036
56905
56776
56659
56540
56419
56306
56203
56104
56004
55920
55861
55807
55750
55702
55655
55603
55559
55518
55458
55378
55287
55189
55084
54969
54841
54710
54582
54456
54331
54215
54120
54041
53966
53892
53811
53720
53630
53540
53443
53334
53214
53088
52958
52826
52702
52595
52507
52441
52407
52415
52466
52561
52708
52912
53168
53476
53840
54252
54704
55205
55752
56316
56867
57403
57929
58425
58874
59283
59660
59997
60269
60490
60681
60837
60950
61032
61083
61107
61120
61137
61150
61135
61099
61065
61052
61055
61055
61054
61066
61082
61080
61071
61071
61063
61044
61022
60991
60940
60865
60774
60669
60555
60445
60344
60246
60153
60076
60018
59981
59944
59890
59833
59788
59754
59733
59734
59762
59807
59854
59899
59936
59957
59971
59990
60013
60029
60038
60036
60015
59977
59929
59868
59786
59689
59587
59476
59345
59205
59071
58946
58824
58709
58608
58508
58400
58284
58162
58031
57889
57747
57621
57508
57410
57336
57285
57227
57149
57070
57000
56930
56849
56766
56698
56634
56552
56457
56359
56256
56144
56029
55921
55815
55715
55633
55549
55442
55321
55207
55106
55004
54905
54823
54756
54687
54598
54497
54394
54284
54170
54059
53947
53825
53699
53576
53449
53314
53186
53078
52978
52881
52800
52736
52681
52648
52665
52738
52868
53063
53323
53640
54009
54429
54906
55449
56033
56614
57181
57734
58258
58750
59228
59691
60115
60486
60806
61064
61257
61402
61512
61587
61634
61666
61693
61705
61691
61660
61630
61597
61550
61500
61467
61462
61473
61491
61505
61490
61439
61375
61315
61250
61166
61066
60952
60816
60656
60496
60345
60198
60054
59919
59795
59691
59614
59565
59543
59531
59523
59523
59522
59524
59530
59541
59562
59589
59613
59639
59660
59669
59674
59673
59661
59643
59621
59591
59544
59480
59421
59373
59311
59229
59133
59025
58905
58777
58643
58503
58355
58199
58050
57920
57799
57684
57582
57500
57429
57362
57301
57233
57135
57016
56901
56790
56677
56571
56474
56382
56286
56191
56108
56020
55919
55812
55718
55638
55554
55468
55386
55299
55221
55169
55127
55079
55026
54983
54943
54890
54819
54742
54662
54577
54492
54409
54326
54239
54149
54065
53994
53929
53867
53801
53718
53619
53520
53434
53347
53241
53130
53032
52940
52840
52749
52676
52603
52518
52438
52381
52337
52299
52284
52305
52356
52426
52532
52709
52964
53291
53693
54161
54668
55203
55787
56414
57052
57681
58303
58909
59475
59989
60453
60860
61206
61502
61753
61953
62103
62219
62311
62380
62433
62475
62506
62520
62517
62509
62500
62484
62464
62449
62446
62450
62463
62491
62530
62555
62563
62563
62550
62512
62446
62368
62280
62177
62056
61925
61791
61656
61533
61425
61325
61228
61129
61039
60967
60913
60876
60854
60847
60857
60880
60908
60928
60934
60930
60927
60930
60935
60944
60953
60950
60933
60906
60868
60808
60724
60630
60536
60433
60321
60211
60101
59981
59854
59725
59597
59472
59355
59245
59132
59009
58884
58761
58636
58506
58380
58262
58138
57997
57857
57738
57629
57516
57410
57321
57238
57154
57074
57006
56944
56881
56810
56731
56647
56561
56485
56423
56354
56274
56199
56139
56084
56028
55980
55941
55905
55870
55833
55780
55709
55631
55556
55482
55399
55311
55224
55126
55019
54919
54832
54748
54656
54560
54472
54377
54258
54123
53996
53884
53778
53677
53582
53489
53400
53327
53279
53261
53288
53369
53510
53705
53954
54266
54633
55034
55473
55966
56502
57055
57609
58159
58702
59229
59732
60207
60650
61051
61414
61752
62054
62305
62514
62690
62814
62883
62916
62921
62897
62846
62791
62741
62690
62642
62605
62580
62562
62550
62550
62558
62561
62560
62567
62571
62557
62523
62473
62408
62320
62211
62098
61986
61871
61760
61660
61561
61462
61377
61323
61293
61275
61278
61307
61352
61395
61428
61462
61497
61523
61544
61569
61588
61592
61581
61560
61524
61465
61387
61301
61210
61119
61047
60994
60934
60861
60794
60722
60617
60482
60349
60232
60127
60026
59927
59819
59697
59574
59451
59316
59174
59040
58915
58799
58696
58603
58506
58387
58256
58136
58023
57896
57752
57607
57477
57365
57274
57214
57179
57143
57097
57048
57001
56944
56873
56801
56739
56675
56607
56544
56496
56450
56404
56361
56311
56247
56174
56089
55988
55872
55755
55647
55540
55427
55313
55196
55064
54924
54795
54689
54602
54540
54518
54544
54618
54738
54907
55147
55449
55796
56190
56630
57100
57596
58120
58664
59204
59731
60250
60751
61218
61647
62042
62402
62713
62972
63195
63380
63516
63609
63671
63703
63708
63705
63705
63698
63677
63659
63652
63645
63631
63616
63607
63607
63616
63633
63651
63653
63627
63581
63525
63455
63360
63247
63134
63027
62926
62843
62773
62693
62597
62503
62429
62377
62338
62310
62295
62288
62286
62299
62322
62345
62378
62424
62471
62507
62535
62556
62559
62537
62503
62471
62434
62385
62333
62281
62220
62150
62076
61997
61904
61806
61714
61616
61496
61357
61207
61061
60924
60785
60645
60506
60355
60198
60052
59923
59806
59699
59600
59511
59433
59359
59281
59200
59117
59036
58966
58906
58834
58754
58675
58585
58481
58382
58303
58234
58161
58098
58056
58018
57972
57922
57874
57820
57744
57662
57590
57525
57459
57390
57316
57241
57164
57087
57024
56963
56874
56777
56705
56652
56591
56525
56467
56410
56346
56269
56173
56058
55942
55850
55779
55715
55665
55650
55671
55733
55856
56034
56254
56533
56888
57321
57804
58317
58869
59463
60091
60735
61380
62005
62577
63088
63547
63958
64324
63335
58954
51454
42555
33464
24981
17572
11451
6650
3084
591
0
0
0
0
0
0
0
0
0
0
163
404
582
708
787
812
777
699
1904
6447
14075
23067
32192
40637
47950
53961
58664
62141
64545
531
1358
1664
1607
1324
926
493
73
65235
64923
64677
64491
64366
64297
64252
64205
64156
64107
64046
63977
63915
63851
63773
63694
63626
63543
63427
63302
63189
63077
62955
62828
62702
62577
62450
62321
62206
62109
62016
61928
61845
61745
61623
61496
61358
61202
61030
60862
60718
60578
60426
60272
60121
59965
59813
59686
59579
59482
59393
59316
59248
59186
59130
59077
59023
58964
58913
58878
58838
58779
58708
58624
58509
58378
58257
58147
58041
57931
57821
57710
57595
57483
57388
57307
57225
57132
57031
56930
56823
56716
56618
56525
56426
56320
56213
56112
56005
55892
55786
55683
55576
55480
55407
55359
55346
55393
55510
55700
55958
56289
56702
57183
57699
58247
58824
59412
59996
60572
61128
61656
62151
62614
63020
63352
63623
63852
64042
64185
64287
64361
64403
64413
64411
64409
64402
64386
64374
64373
64383
64394
64413
64447
64493
64533
64563
64602
64636
64647
64634
64593
64513
64399
64267
64127
63978
63827
63687
63558
63434
63315
63203
63101
63009
62935
62887
62862
62843
62826
62815
62812
62813
62814
62818
62830
62842
62856
62879
62903
62918
62930
62954
62986
63006
63003
62983
62941
62874
62791
62704
62610
62502
62378
62245
62109
61979
61861
61749
61624
61486
61347
61207
61069
60948
60840
60730
60623
60522
60420
60309
60186
60061
59951
59850
59747
59661
59601
59549
59487
59425
59371
59319
59261
59205
59156
59095
59019
58955
58917
58888
58841
58779
58706
58620
58543
58478
58407
58323
58227
58126
58017
57900
57785
57673
57564
57453
57341
57253
57183
57111
57034
56962
56895
56829
56763
56701
56642
56595
56584
56612
56674
56780
56942
57169
57452
57779
58147
58569
59043
59547
60074
60620
61163
61680
62166
62630
63075
63491
63873
64215
64504
64735
64918
65060
65158
65218
65257
65285
65288
65264
65233
65203
65175
65169
65179
65187
65187
65180
65183
65199
65218
65229
65219
65178
65103
65011
64919
64825
64716
64605
64507
64415
64318
64223
64130
64033
63941
63865
63800
63736
63680
63642
63616
63603
63603
63612
63642
63693
63752
63816
63878
63920
63938
63944
63933
63902
63863
63816
63755
63690
63624
63543
63441
63323
63194
63067
62941
62803
62654
62514
62379
62236
62100
61983
61874
61761
61640
61529
61437
61354
61271
61177
61056
60916
60779
60654
60532
60416
60317
60229
60140
60052
59981
59925
59864
59789
59702
59599
59478
59366
59285
59224
59177
59150
59142
59137
59107
59037
58948
58860
58766
58679
58611
58541
58452
58346
58238
58142
58057
57975
57890
57804
57722
57652
57593
57531
57465
57394
57323
57252
57187
57138
57110
57107
57142
57226
57366
57557
57810
58147
58561
59030
59545
60094
60655
61211
61768
62330
62877
63388
62552
58330
50976
42208
33243
24869
17553
11524
6822
3339
900
0
0
0
0
0
0
0
0
0
207
504
738
913
1036
1102
1125
1113
1078
1025
937
819
698
1889
6433
14064
23054
32186
40661
48020
54075
58808
62310
64753
789
1664
2018
2020
1802
1467
1087
701
340
20
65286
65068
64902
64775
64684
64631
64613
64612
64616
64634
64665
64678
64657
64617
64568
64498
64410
64327
64251
64151
64017
63872
63732
63593
63458
63340
63232
63127
63031
62942
62848
62745
62640
62530
62411
62293
62184
62074
61961
61858
61769
61693
61620
61543
61469
61405
61353
61307
61259
61210
61149
61071
60992
60910
60815
60724
60641
60546
60440
60336
60249
60177
60102
60020
59944
59874
59809
59746
59677
59599
59523
59450
59374
59278
59151
59009
58867
58726
58595
58484
58391
58298
58198
58103
58025
57960
57891
57812
57727
57642
57578
57557
57583
57645
57760
57952
58213
58525
58892
59324
59809
60329
60873
61443
62033
62623
61882
59059
56448
54191
49743
42957
35234
27536
20477
14405
9454
5614
2800
876
0
0
0
0
0
0
0
56
370
633
856
1036
1165
1251
1308
1338
1340
1320
1281
1215
1115
993
866
2049
6588
14224
23227
32372
40850
48208
54255
58969
62442
64841
828
1668
1993
1957
1695
1307
862
415
65534
65157
64832
64576
64391
64256
64148
64068
64016
63980
63948
63912
63858
63781
63685
63571
63445
63309
63165
63018
62865
62694
62511
62328
62144
61949
61749
61560
61390
61232
61077
60927
60775
60619
60482
60371
60262
60144
60020
59904
59786
59665
59557
59460
59354
59234
59119
59015
58911
58804
58705
58627
58555
58472
58384
58296
58207
58114
58021
57946
57886
57832
57775
57703
57614
57517
57409
57284
57152
57034
56929
56822
56718
56622
56530
56432
56324
56226
56138
56043
55947
55858
55756
55622
55467
55315
55171
55028
54882
54745
54618
54492
54379
54299
54261
54268
54329
54452
54641
54897
55214
55586
56005
56449
56900
57361
57834
58306
58779
59252
59714
60140
60524
60874
61181
61426
61620
61781
61902
61979
62025
62054
62070
62067
62048
62011
61958
61897
61840
61787
61727
61655
61589
61532
61465
61404
61376
61367
61345
61306
61251
61169
61057
60937
60830
60729
60610
60473
60329
60174
60005
59840
59697
59570
59454
59366
59308
59265
59222
59184
59163
59161
59159
59154
59149
59132
59108
59104
59122
59129
59114
59093
59071
59040
59002
58950
58879
58789
58677
58549
58417
58278
58130
57993
57872
57751
57624
57498
57374
57246
57115
56979
56838
56695
56564
56449
56342
56236
56126
56013
55899
55781
55664
55559
55463
55368
55281
55195
55096
54992
54901
54828
54759
54681
54602
54527
54447
54365
54289
54210
54122
54032
53938
53839
53730
53621
53533
53466
53404
53348
53300
53252
53192
53124
53060
52989
52895
52791
52693
52601
52518
52441
52353
52238
52099
51956
51836
51744
51682
51673
51738
51869
52047
52269
52540
52845
53178
53547
53946
54351
54755
55163
55567
55959
56342
56707
57033
57309
57555
57792
58017
58208
58355
58473
58567
58635
58678
58706
58721
58713
58685
58647
58597
58535
58476
58432
58397
58370
58357
58350
58334
58319
58317
58311
58276
58206
58121
58026
57928
57848
57792
57742
57676
57601
57531
57455
57363
57278
57230
57211
57199
57194
57205
57221
57223
57213
57208
57217
57243
57283
57334
57386
57422
57439
57447
57447
57436
57425
57417
57394
57353
57291
57200
57089
56980
56874
56759
56632
56509
56409
56324
56232
56131
56026
55908
55768
55623
55496
55382
55268
55157
55059
54977
54895
54810
54736
54660
54571
54480
54399
54319
54223
54120
54025
53936
53846
53761
53684
53610
53535
53466
53403
53344
53290
53240
53186
53113
53013
52903
52797
52692
52598
52522
52448
52356
52261
52184
52124
52064
52002
51946
51885
51811
51730
51655
51596
51540
51475
51416
51372
51345
51351
51399
51483
51601
51764
51980
52245
52562
52932
53342
53768
54191
54619
55051
55466
55856
56234
56598
56925
57212
57474
57705
57884
58017
58123
58206
58268
58317
58358
58393
58424
58453
58484
58511
58524
58529
58538
58550
58560
58565
58574
58587
58594
58593
58581
58558
58526
58495
58473
58445
58400
58336
58257
58164
58065
57981
57913
57841
57758
57675
57601
57528
57453
57396
57361
57329
57301
57293
57298
57298
57288
57282
57288
57296
57302
57307
57301
57270
57230
57186
57122
57035
56942
56855
56771
56679
56588
56505
56422
56339
56264
56191
56108
56012
55912
55812
55708
55601
55505
55426
55344
55240
55125
55012
54907
54820
54740
54638
54502
54358
54241
54152
54067
53987
53924
53870
53823
53791
53766
53732
53684
53626
53565
53499
53425
53361
53307
53246
53182
53131
53089
53045
52985
52918
52858
52796
52720
52635
52545
52448
52344
52244
52150
52058
51972
51896
51825
51748
51662
51573
51476
51368
51255
51143
51031
50917
50810
50720
50652
50609
50608
50664
50777
50934
51140
51394
51693
52029
52403
52813
53248
53701
54164
54621
55052
55464
55868
56252
56601
56916
57195
57431
57617
57759
57865
57945
58000
58031
58053
58070
58074
58072
58082
58104
58114
58112
58115
58129
58149
58168
58178
58176
58166
58157
58153
58141
58117
58084
58038
57966
57868
57768
57683
57606
57515
57398
57257
57110
56969
56850
56754
56668
56593
56545
56521
56499
56474
56451
56438
56434
56439
56455
56465
56456
56429
56395
56348
56279
56203
56143
56089
56013
55923
55835
55748
55654
55552
55449
55339
55225
55127
55042
54942
54815
54678
54547
54434
54337
54255
54170
54061
53931
53801
53685
53570
53450
53337
53226
53106
52982
52869
52768
52678
52606
52557
52521
52485
52444
52403
52354
52284
52192
52092
51987
51876
51766
51667
51573
51482
51400
51324
51244
51164
51098
51047
50985
50910
50852
50814
50765
50700
50635
50572
50500
50420
50354
50301
50237
50159
50078
49989
49877
49757
49650
49552
49443
49316
49185
49065
48951
48845
48758
48689
48632
48595
48585
48599
48642
48732
48875
49065
49297
49572
49893
50245
50622
51029
51464
51914
52359
52803
53247
53665
54046
54397
54709
54972
55194
55386
55547
55668
55752
55819
55878
55920
55943
55953
55950
55935
55905
55864
55824
55791
55774
55779
55800
55821
55834
55843
55843
55827
55802
55774
55735
55678
55613
55552
55494
55432
55373
55320
55264
55196
55126
55062
55002
54957
54940
54940
54928
54907
54891
54877
54868
54869
54886
54907
54920
54937
54972
55012
55041
55055
55058
55042
54999
54936
54873
54806
54725
54641
54563
54485
54401
54316
54237
54151
54047
53947
53860
53783
53721
53671
53613
53535
53449
53367
53289
53204
53115
53032
52949
52854
52749
52649
52556
52465
52382
52312
52247
52173
52101
52041
51978
51901
51827
51778
51747
51716
51685
51651
51608
51561
51524
51496
51458
51404
51343
51279
51213
51142
51072
51006
50934
50856
50779
50703
50619
50539
50477
50415
50336
50253
50179
50108
50026
49932
49843
49763
49684
49608
49536
49457
49373
49307
49279
49296
49353
49447
49587
49773
49999
50281
50619
50982
51351
51733
52134
52549
52975
53407
53840
54258
54654
55030
55364
55631
55835
55994
56124
56239
56344
56433
56499
56542
56570
56592
56611
56621
56629
56640
56641
56632
56631
56643
56647
56635
56631
56653
56676
56681
56685
56696
56696
56668
56615
56541
56445
56332
56227
56146
56079
56008
55937
55878
55812
55729
55645
55575
55515
55462
55423
55402
55383
55362
55362
55391
55429
55472
55526
55586
55633
55664
55682
55682
55664
55634
55601
55560
55503
55432
55357
55277
55192
55107
55021
54922
54804
54679
54569
54479
54397
54318
54238
54149
54058
53971
53878
53775
53671
53575
53490
53405
53313
53226
53142
53053
52969
52902
52842
52773
52693
52616
52551
52483
52408
52335
52266
52195
52125
52058
51991
51914
51828
51744
51666
51592
51530
51479
51431
51380
51335
51303
51265
51208
51142
51070
50996
50922
50849
50782
50718
50643
50557
50461
50358
50260
50178
50107
50036
49963
49895
49826
49748
49666
49586
49504
49414
49328
49262
49210
49161
49126
49121
49144
49195
49287
49433
49623
49858
50155
50518
50919
51339
51780
52252
52750
53255
53752
54233
54683
55102
55494
55854
56178
56470
56736
56972
57169
57329
57465
57581
57671
57737
57782
57813
57830
57841
57858
57881
57900
57914
57927
57930
57927
57945
57988
58043
58109
58180
58240
58274
58277
58258
58227
58169
58076
57967
57860
57758
57666
57594
57540
57488
57430
57372
57325
57295
57280
57281
57286
57277
57268
57270
57271
57266
57264
57271
57284
57299
57319
57352
57390
57419
57435
57437
57418
57371
57305
57231
57149
57052
56933
56806
56682
56556
56441
56342
56249
56148
56036
55921
55793
55661
55544
55432
55311
55189
55082
54996
54922
54852
54780
54693
54591
54493
54401
54302
54192
54081
53977
53876
53772
53670
53572
53473
53372
53276
53198
53127
53052
52978
52906
52821
52711
52591
52480
52374
52260
52149
52054
51968
51886
51819
51760
51684
51600
51522
51442
51351
51254
51158
51065
50976
50891
50807
50716
50606
50479
50351
50223
50095
49985
49894
49800
49696
49580
49459
49344
49232
49117
49001
48887
48777
48683
48614
48560
48518
48509
48548
48635
48768
48960
49219
49535
49902
50321
50772
51235
51714
52212
52707
53192
53677
54156
54609
55025
55404
55746
56038
56275
56475
56657
56814
56931
57008
57059
57090
57098
57093
57085
57070
57042
57019
57010
56999
56980
56959
56932
56893
56847
56818
56811
56815
56828
56851
56873
56876
56850
56803
56740
56655
56549
56440
56331
56214
56103
56021
55962
55910
55866
55836
55809
55783
55770
55782
55819
55865
55910
55945
55968
55983
55996
56003
55988
55948
55904
55864
55823
55780
55741
55704
55652
55575
55485
55391
55288
55183
55090
55004
54910
54807
54707
54605
54488
54360
54233
54105
53969
53834
53723
53629
53532
53436
53350
53263
53173
53086
53002
52914
52816
52718
52631
52549
52463
52375
52296
52219
52132
52047
51972
51897
51822
51762
51713
51651
51580
51515
51454
51386
51311
51245
51191
51137
51080
51028
50974
50906
50833
50767
50708
50644
50581
50532
50489
50439
50380
50321
50256
50187
50126
50063
49978
49866
49750
49645
49553
49477
49423
49398
49403
49440
49517
49636
49793
49982
50215
50507
50856
51258
51694
52152
52634
53132
53636
54128
54598
55052
55499
55919
56285
56585
56840
57065
57246
57384
57500
57600
57676
57743
57810
57859
57878
57886
57894
57894
57870
57830
57797
57779
57768
57762
57746
57713
57670
57628
57598
57564
57516
57475
57437
57382
57306
57213
57112
57011
56921
56854
56810
56768
56715
56662
56617
56578
56559
56573
56600
56622
56646
56686
56732
56766
56791
56819
56849
56866
56865
56856
56847
56827
56801
56771
56720
56660
56614
56573
56510
56424
56337
56250
56143
56020
55912
55814
55699
55567
55441
55328
55214
55097
54978
54858
54731
54604
54493
54392
54290
54192
54101
54013
53916
53816
53732
53662
53587
53508
53435
53360
53279
53205
53141
53076
53008
52940
52873
52808
52752
52710
52672
52629
52586
52553
52535
52510
52465
52406
52324
52208
52078
51971
51890
51802
51709
51632
51569
51514
51464
51415
51362
51293
51211
51122
51015
50892
50772
50678
50615
50577
50589
50675
50828
51043
51328
51677
52075
52509
52984
53492
54017
54547
55079
55607
56116
56599
57060
57484
57847
58157
58438
58684
58883
59039
59164
59264
59332
59372
59399
59416
59423
59432
59446
59459
59455
59441
59437
59436
59433
59442
59458
59460
59441
59412
59381
59341
59293
59247
59208
59159
59096
59031
58968
58897
58818
58739
58665
58587
58510
58445
58386
58324
58269
58239
58229
58225
58224
58238
58268
58303
58340
58384
58424
58451
58476
58501
58517
58517
58507
58491
58455
58392
58315
58234
58143
58040
57946
57864
57773
57675
57595
57529
57444
57334
57215
57092
56952
56799
56651
56511
56372
56238
56115
55994
55870
55751
55646
55547
55437
55321
55208
55098
54991
54886
54780
54677
54588
54519
54458
54387
54306
54225
54151
54077
53990
53905
53830
53753
53667
53583
53504
53416
53316
53222
53132
53035
52931
52839
52759
52677
52595
52526
52455
52366
52270
52175
52068
51948
51829
51718
51611
51505
51400
51299
51200
51101
51019
50975
50966
50988
51061
51201
51403
51654
51950
52298
52693
53120
53577
54062
54567
55083
55606
56121
56615
57088
57545
57975
58354
58672
58948
59199
59411
59578
59706
59798
59844
59853
59847
59830
59799
59756
59706
59663
59625
59594
59576
59566
59557
59561
59580
59599
59606
59612
59614
59590
59537
59475
59411
59332
59238
59138
59041
58942
58845
58755
58672
58600
58547
58510
58479
58450
58440
58463
58501
58530
58557
58595
58633
58660
58681
58701
58719
58732
58738
58743
58756
58776
58800
58823
58827
58801
58760
58722
58673
58616
58568
58529
58473
58390
58294
58195
58095
57988
57876
57769
57667
57575
57492
57395
57281
57180
57103
57033
56951
56859
56766
56661
56527
56378
56237
56100
55960
55827
55718
55624
55532
55438
55346
55252
55160
55081
55027
54995
54970
54941
54901
54842
54768
54683
54594
54495
54391
54294
54203
54110
54020
53938
53860
53771
53678
53593
53504
53402
53296
53211
53164
53145
53150
53186
53245
53334
53468
53648
53866
54132
54466
54871
55324
55810
56329
56871
57415
57948
58476
58989
59461
59882
60258
60593
60870
61082
61247
61376
61467
61532
61581
61609
61607
61588
61568
61547
61522
61501
61489
61478
61463
61456
61460
61455
61427
61373
61306
61242
61178
61102
61010
60903
60780
60654
60540
60432
60317
60200
60097
60012
59931
59847
59773
59712
59660
59632
59624
59613
59604
59613
59638
59665
59692
59733
59785
59835
59870
59904
59945
59966
59953
59920
59876
59818
59747
59672
59586
59481
59364
59255
59163
59075
58980
58880
58770
58644
58511
58383
58266
58160
58070
57988
57890
57769
57631
57491
57356
57226
57095
56954
56806
56662
56536
56420
56299
56186
56102
56042
55993
55949
55898
55840
55782
55720
55658
55605
55555
55504
55455
55393
55305
55207
55113
55019
54921
54824
54738
54666
54599
54539
54477
54400
54314
54243
54194
54161
54137
54127
54133
54147
54173
54227
54321
54459
54648
54910
55254
55657
56104
56599
57142
57713
58286
58849
59394
59910
60394
60846
61255
61611
61922
62201
62440
62623
62753
62844
62899
62914
62906
62886
62838
62767
62693
62625
62558
62488
62424
62373
62320
62263
62217
62182
62147
62105
62060
62000
61913
61802
61679
61547
61408
61270
61139
61012
60883
60764
60666
60595
60538
60486
60442
60415
60410
60430
60464
60503
60544
60581
60608
60625
60641
60656
60674
60682
60675
60668
60667
60665
60659
60639
60591
60514
60420
60322
60227
60129
60031
59937
59841
59728
59610
59507
59410
59312
59216
59124
59020
58889
58741
58596
58455
58296
58121
57961
57829
57718
57620
57536
57459
57379
57298
57222
57146
57067
56992
56924
56853
56774
56693
56609
56508
56390
56272
56161
56061
55976
55908
55851
55797
55737
55673
55612
55544
55471
55417
55375
55319
55253
55187
55113
55022
54920
54831
54754
54664
54566
54472
54369
54246
54123
54019
53938
53887
53881
53929
54028
54175
54389
54685
55051
55458
55891
56350
56830
57315
57820
58360
58919
59477
60024
60541
61012
61432
61806
62141
62431
62667
62852
62990
63083
63139
63169
63180
