34775
34993
35247
35080
34650
35175
35304
35095
34674
35362
35248
35259
34698
35558
35443
35144
35159
35580
35623
35114
35439
35439
35419
34892
35547
35319
35255
35054
35623
35395
35217
34855
35443
35434
34851
35406
35888
35418
35068
35612
35229
35636
35042
35572
35554
35426
35265
35711
35754
35251
35590
35860
35640
35373
35336
35751
35598
35039
35745
35801
35374
34981
35368
35191
34911
34956
35316
35003
34440
34963
35302
34924
34622
35133
35065
34820
34524
35085
35074
34581
34600
35051
34739
34091
34965
34926
34917
34184
34700
34857
34874
34367
34849
34951
34650
34638
34869
34941
34621
34548
35058
34645
34304
35085
35381
34600
34278
34836
34967
34905
34485
35262
35333
34632
34622
35080
35285
34532
35112
35076
34799
34788
35311
35320
34967
34624
35091
35160
34998
34949
35315
35427
34378
35175
34975
35212
34824
35501
35318
35611
35126
35511
35238
35053
34975
35762
35519
35113
35352
35511
35449
35022
35590
35559
35685
34928
35457
35900
35258
34979
36031
35609
35375
35295
36110
35839
35155
36000
35948
35731
35161
35860
35808
35376
35244
36328
35798
35361
35082
35782
35648
34979
35594
35582
35531
35003
35650
35723
35334
34831
35707
35682
35058
34653
35446
35149
34667
34564
34946
34858
34413
35515
35179
35211
34685
34714
34740
34848
34168
34678
34873
34571
34474
35026
35016
34202
34939
35154
35043
34604
35091
35029
34716
34495
35146
35313
34783
34897
35415
35137
34508
35111
35172
35167
34686
35175
35153
34992
35032
35480
35436
35031
34932
35350
35403
35049
35464
35716
35475
34971
35567
35577
35555
34817
35688
35413
35438
35446
35751
35803
35375
35714
35860
35834
35172
35695
35718
35800
35120
35823
35368
35968
35251
36219
35643
35558
35257
35935
35630
35220
36155
35948
36117
35319
36202
36108
35800
35552
36177
36252
35752
35729
36353
36127
35200
35992
36060
35995
35547
35993
36183
36055
35255
35989
35923
35629
35518
35761
35675
34625
35635
35685
35343
35019
35362
35432
35305
34524
35101
35210
34886
34597
35323
35399
34712
34747
35204
34831
34599
35388
34916
34979
34502
35185
35166
35099
34414
35235
35125
34686
34880
35526
35230
34843
35079
35294
35225
34842
35594
35381
35199
34755
35558
35747
35228
35292
35823
35247
34805
35464
35606
35561
34988
35622
35643
35402
35074
35481
35571
35639
34994
35681
35852
35221
35588
35985
36005
35143
35799
35988
35431
35179
35719
35761
35740
35211
35927
35459
35285
35628
35863
35589
35234
35529
35944
35886
35099
35920
35872
35649
35300
35944
36247
35577
35304
35687
36252
35364
36185
36143
35839
35375
35988
35893
35986
35681
36170
35950
35437
35348
35934
35783
35103
35787
35708
35336
35221
35241
35546
35403
35183
35286
35562
34953
34801
35915
34983
35091
34858
35042
34844
34899
35124
35239
35573
34421
35413
35379
34937
34731
34746
34992
34486
34870
34953
35230
34973
35073
35329
35162
34687
35495
35313
35046
34811
35557
35257
35150
34714
35563
34909
34892
35267
35225
35174
34695
35382
35274
35214
34479
35296
35319
35239
34988
35331
35196
34456
35299
35914
35756
34646
35540
35664
35468
35185
35584
35457
35892
35050
35893
35538
35291
35697
35799
35748
35130
35536
35864
35447
35098
35349
35520
35815
35074
35585
36173
35613
35410
35744
35734
35107
35689
35838
35741
35107
35921
36265
36009
35140
35686
35873
36055
35579
35905
35871
35454
35453
35996
35691
35269
35933
35808
36067
35278
35675
35630
35704
34745
35589
35488
35087
35131
35588
35347
34391
35308
35104
35370
34813
35262
35408
35051
34682
35291
35023
34288
35136
35481
34913
34726
35157
34946
35118
34682
35118
35199
35098
34249
35234
35228
35003
34790
35519
35288
35155
35234
35282
35412
34576
35460
35859
35162
35247
35640
35959
35162
34913
35646
35413
35356
35435
35788
35497
35134
35319
35550
35463
34930
35474
35727
35397
35148
35721
35738
35354
35333
35789
35703
35089
35610
36080
35712
35333
35797
36168
35752
35640
36063
36155
35661
35387
35955
35896
35408
36090
36233
36195
35605
35948
35972
36080
35565
36595
36234
36109
35699
36334
36487
35783
35976
36335
36112
35683
35987
36331
36329
35588
36015
36290
35851
35671
36117
35960
35234
35998
36037
35897
34834
35815
35561
35663
34880
35683
36095
35723
35044
35747
35393
35064
34805
35511
35524
35207
35384
35457
35564
35182
35411
35704
35843
35015
35810
35708
35303
34969
35818
35604
35220
35659
35861
35511
35168
35664
35807
35839
35213
36106
35983
35991
35545
36373
35895
35099
35837
36262
36048
35420
36119
36146
36139
35453
36106
36073
35895
35658
36122
36100
36080
36072
36345
36401
35590
36048
36343
36260
35731
36520
36515
36250
35980
36697
36411
36234
36350
36525
36813
35889
36162
36455
36556
35867
36476
36302
36453
36025
36551
36510
36305
36120
37216
36706
36452
36546
36995
36602
36110
36983
36762
36851
36233
37043
36740
36989
36065
36603
36873
36404
36121
36421
36164
35495
36067
36292
36466
35385
36250
35932
36047
35306
35880
35909
35659
36016
36218
35613
35272
35610
36013
35880
35240
35845
36089
35709
35154
35800
36258
35445
35513
36041
35823
35118
35671
35845
35982
35462
35949
36428
36014
35943
36052
35864
35698
35284
35710
36325
35245
35942
35775
36161
35332
36008
36286
35749
35546
36409
36083
35516
35647
36130
35745
36038
35638
36376
36149
35563
36096
36495
36534
35655
36547
36557
36164
36095
36504
36595
36174
36162
36461
36449
35375
36404
36388
36151
35581
36260
36730
36401
35482
36755
36962
36193
36201
36699
36210
36016
36329
36437
36543
36026
36925
36495
36596
35577
37103
36877
35906
35990
36646
36757
35994
35887
36379
36584
35639
36073
36832
36126
35753
35905
36016
35844
35599
35926
36139
35480
35195
35993
35563
35031
35491
35965
35738
35133
35767
35866
35789
35334
35561
35925
35481
35435
35872
35785
35092
35977
35878
35794
35082
35464
35905
35866
35353
36170
35847
35796
35355
35953
36126
35518
35918
35784
36273
35218
35825
36148
35788
35719
36106
36551
35794
35650
36091
35867
35777
36177
36602
36544
35488
35994
36296
36242
35448
36475
36392
36299
35636
36604
36178
35945
36082
36650
36634
35662
36243
37012
36407
36170
36681
36535
36721
36146
36865
36784
36656
36426
36993
36638
36412
36360
36911
36662
36139
36964
37325
36627
36453
36700
36669
37127
36073
36790
37155
36636
36565
37131
37195
36128
36966
37091
36833
36481
37072
36506
36310
36396
36589
36740
36132
35836
36491
36378
35876
36091
36548
36103
34964
36219
36522
35905
35539
36487
36144
36028
35842
36353
36199
35376
35986
36338
36041
35264
36278
36365
36147
35775
36075
36039
36043
35770
36258
36338
35817
35777
36541
36299
35875
36498
36887
36487
35684
36398
36564
36054
35881
36497
36610
36032
36119
36681
37019
36424
36504
36356
36559
35731
36517
36606
36324
36292
37078
36807
36709
36054
36725
36746
35822
36501
36790
36812
35872
36675
36895
36485
36051
36785
36892
36345
36482
36915
36785
36388
36400
36688
36571
35920
36338
36844
36803
36057
36754
36678
36526
36441
36891
36794
36322
36391
36736
36688
36309
36622
36708
36441
36121
36574
36792
36734
36211
36782
36612
35808
35670
36276
36329
35288
36001
36098
35758
35291
35945
35806
36016
35322
35824
36044
35649
35497
35780
35857
35321
35227
36109
35567
35483
35449
36007
35810
35137
35877
35802
35539
35760
36005
35887
35292
35637
36042
35494
35265
35804
35784
35850
35253
36106
35933
35641
35656
35732
35872
35369
35494
35652
35787
35009
35601
36068
35709
35200
36074
35847
35659
35148
35672
36048
35645
35400
36008
35973
35458
35790
36250
36166
35523
36025
36253
35595
35292
36190
36193
35678
36219
36539
36180
35690
36016
36613
36250
35828
36452
36579
36583
35925
36384
36551
36090
35953
36549
36443
36079
36328
36925
36632
35611
36641
36338
36121
36231
36620
36564
36325
36419
36338
36249
36153
36180
36631
36396
35970
36518
36355
36378
35844
36291
36691
35914
36007
36664
36200
36211
36536
36580
36414
36176
36394
36465
36454
36222
36663
36687
36295
36278
36762
36698
36727
36268
36805
36879
36174
36263
36780
36611
35913
36738
36867
36504
36113
36757
36692
36764
36364
36829
36816
36549
36418
36931
36872
36300
36931
36965
36802
36199
36623
36960
36938
36290
37240
36902
36625
36622
37179
36853
36139
36886
36726
36866
36322
36898
36888
36789
36561
37026
36938
36817
36387
36924
37083
36501
36468
36235
36745
36170
36641
36712
36343
35958
36285
36165
35807
35725
36241
36248
35645
35628
35998
36002
35384
35934
36000
36150
35252
35562
35783
35489
35454
35682
35741
35289
35444
35740
35427
35158
35544
35830
35581
35104
35485
35527
35743
35059
35745
35444
35515
35224
35902
36000
35132
35370
35602
35637
35282
35683
35790
35634
35055
36171
36194
35954
35317
35606
35751
35400
35966
36435
36111
35210
35757
35834
36007
35314
36073
36233
35796
35646
36526
36153
35888
35826
36371
36409
35752
36111
36398
36370
36392
36680
36944
36091
36036
36715
36670
36546
36100
36789
36641
36025
36213
36643
36333
35977
36447
36659
36949
36046
36439
36466
36131
36196
37044
36684
36573
36781
37021
36910
36320
36814
36810
36467
36374
36396
36677
36670
36098
36651
36600
36374
36016
36583
36533
35742
36265
36348
36290
35612
36135
36152
36032
35839
36353
36098
35866
35658
36171
36261
35686
35845
36048
35762
35489
35682
36021
35879
35418
36182
36466
35976
35449
36236
35864
35712
35812
35833
36257
35321
36001
36481
35949
35802
36423
36041
36116
35602
36335
36761
35886
35680
36610
36379
35536
36109
37115
36243
35680
36507
36109
36193
35937
36400
36240
35898
35953
36562
36802
35620
36050
36156
36395
36053
36528
36491
36174
35806
36668
35984
36179
35642
36700
36239
35839
36084
36404
36326
35696
36358
36277
36288
35680
36620
37109
36513
35744
36188
36635
35964
35799
36696
36407
35220
36004
36310
36684
36238
36096
36352
36072
35525
36398
36303
35766
35635
36098
36156
35889
35984
35623
35885
35518
35637
35610
35796
35630
36126
35836
35606
35347
35731
35819
35733
35942
36049
35967
35731
36074
36144
35877
35743
36034
36222
35847
35675
36550
36087
36006
35689
36986
36276
35645
36180
36203
36089
35540
36080
36190
36322
35691
36258
35909
35556
35536
36216
36391
35332
35953
36201
35890
35336
36165
35920
35722
35303
36020
36372
35486
36002
35841
36131
35819
35981
35769
36053
35465
35990
36265
35817
35897
36359
36084
35841
35785
36167
36581
35623
36020
36867
36271
35165
36113
36556
36298
35817
36386
36406
36356
35798
36227
36562
35939
36172
36550
36525
35812
36387
36610
36287
35449
36453
36353
36360
35883
36375
36248
35920
35556
36208
36000
35404
35959
36194
35946
35326
35960
35818
35719
35247
35974
36081
35444
35599
35427
35354
35144
35626
35844
35942
35256
35693
35853
35786
35062
35826
35913
35686
35208
35826
35793
35679
35431
35374
35742
34625
35680
35704
35697
34581
36100
35545
35571
35163
35903
35913
34968
35351
35864
35587
34849
35477
35995
35807
34947
35894
36118
35652
34932
35814
35138
35403
35331
35924
35562
34961
35784
35819
35649
35017
35659
35824
35665
35272
35881
36143
35583
35222
35737
35333
35800
35662
35772
35846
35083
35357
35899
36052
35553
35967
35964
35715
35346
36479
36179
35660
35769
35754
36305
35721
36233
36570
36064
35560
36549
36455
36232
35761
36532
36395
35728
35993
36354
36087
35570
35926
36209
35866
35237
35696
35698
35914
35044
35806
35576
35175
35403
35713
35558
34373
35134
35721
35339
34719
35312
35865
35310
34609
35448
35641
34817
35003
35701
35530
34104
35092
35076
35518
35080
35394
35673
35432
34899
35380
35855
35504
35202
35594
35412
34694
35291
35344
35544
35184
35343
35722
35539
34549
35482
35565
35256
34954
35539
35673
34924
34882
35296
35632
34664
35595
35608
35738
34555
35487
35290
35134
35119
35853
35220
35512
35234
35825
35677
34811
35228
35850
35850
35275
35831
35725
35610
35016
35803
35774
35814
35299
35859
35767
35643
35605
35936
36076
35625
36115
35878
35963
35329
36210
35736
35957
35275
36089
36265
35532
35530
36044
35503
35161
35528
36007
35277
35598
35446
35698
35197
35035
35781
34987
35170
35174
35668
35318
34726
35184
35098
35170
34193
35174
35444
35235
34820
35391
34777
34834
34417
35331
35098
34294
34624
35115
35238
34261
35170
35429
35146
34830
35655
35287
35076
34705
35199
35548
34465
35081
35520
35165
34276
35227
35179
35063
34597
35369
35615
34622
33912
35723
34974
35073
34624
35445
35731
34882
35154
35098
35397
34699
35200
35341
34925
34593
35364
35507
35067
34918
35513
35817
34937
35330
35560
35608
34692
35253
35711
35230
34705
35443
35604
35279
34877
35658
35339
34851
35322
35619
35459
35041
35598
35917
35848
35077
35750
35639
35702
35183
35836
35673
35082
35229
35909
35499
34758
35471
35753
35239
34615
35237
35272
35024
34271
35004
35362
34150
34906
35222
34991
34214
34482
34905
34647
33910
34449
34817
34547
33892
34314
34557
34394
34195
34477
34540
33453
34326
34466
34573
33495
34456
34193
34307
34018
34429
34775
34298
34217
34750
34437
34296
34449
35246
34797
34139
34801
35144
34703
33993
35124
35112
34605
34003
34958
34891
34660
34301
34922
35076
34288
34819
34792
35051
34217
35143
34940
34589
34143
34767
34947
34448
34516
35079
34710
34627
34931
34944
35118
34412
34927
35217
35010
34424
35219
35002
34538
34307
35081
35369
34253
34621
35033
34912
34398
35202
35227
35333
34766
34993
35824
34883
34611
35238
35008
34677
34689
35236
35048
34307
35194
34988
35110
34440
34693
35025
34842
34229
34794
35097
34353
34282
34889
34615
34139
34533
34755
34570
33963
34500
34526
34504
33942
34574
34525
33978
33690
34371
34150
33798
34269
34428
34551
33394
34337
34486
33820
33849
34542
34592
34187
34064
34358
34303
33876
34306
34586
34310
33706
34507
34625
34248
34179
34622
34854
34480
33857
34375
34754
33814
34044
34433
34766
34207
34288
34842
34446
33638
34603
34831
34727
33865
34442
34819
34830
34063
34721
34838
34244
34645
34836
34963
34020
35181
34994
34581
34194
34937
34695
34828
34493
35022
35171
34608
34943
34864
35020
34729
35095
35304
34833
34802
35220
35022
35280
34481
35023
35439
34510
34833
35157
35539
34096
35037
35147
34890
34414
34743
34988
34803
34186
34697
34588
33945
33971
34960
34605
33749
34077
34539
34234
33323
34072
34295
33934
33073
33948
34485
33636
33816
34379
33775
33015
33545
34078
33713
33212
34050
33906
33886
33413
33819
34091
33928
33544
34313
34339
33654
33772
34141
34302
33423
34365
34253
33859
33245
34192
34250
34379
33642
34662
34266
33606
34150
34512
34255
33262
34320
34479
34120
33373
34258
34360
34104
34028
34448
34296
34035
33724
34736
34261
33654
34668
34524
34727
34286
34813
34679
34222
34189
34732
34896
34446
33946
35008
34517
33825
34245
34569
34649
33786
34620
34680
34447
34198
34650
34828
34431
34037
34673
34431
34448
34290
34977
34834
34191
34778
35006
34718
34134
35011
34592
35122
34217
35062
34956
33990
34775
34628
34600
33859
34278
34391
34207
33828
33913
34329
34025
33596
34131
33840
33724
33341
33869
33700
33273
33835
34113
33938
33122
33761
33946
33984
33321
34031
34041
33835
33661
33884
34118
33454
33763
34043
33859
33618
34212
34357
33972
33544
34521
34299
34268
33351
34644
34255
33446
33573
34027
34350
33472
34240
34487
34328
33531
34373
34441
34118
33826
34719
34692
33876
33841
34656
34593
34063
34201
34539
34777
33904
34615
34249
34505
34373
34618
34669
34402
34310
34980
34595
34174
34589
34771
34744
34135
34863
34867
34620
34247
35051
34959
34764
34153
35191
34783
34500
34621
35080
34730
34792
34896
35142
34935
34360
35036
34776
35108
34656
35484
35196
35004
34838
35225
35257
35006
34851
35074
34854
34660
34579
35409
34950
33978
34782
34802
34269
34250
34699
34460
33968
34451
34499
34536
33783
34399
34728
33924
33919
34216
34586
33818
33759
34311
33811
33896
33609
34283
33933
33920
34101
33303
34109
33412
34241
34400
33992
33293
34301
34197
33756
33773
34239
34130
33656
34348
34423
34228
33613
34468
34243
34195
33638
34517
34308
34032
34024
34324
34212
33369
34313
34172
34290
33874
34794
34700
34393
34011
34902
34673
34353
33613
34658
34235
34496
34492
34933
34683
33694
34952
34627
34394
33822
35261
34768
34944
34069
34612
34406
34149
34189
35005
34669
34060
34700
34834
34356
33884
34768
35090
34821
34320
35127
34767
34515
34527
35051
35060
34449
34943
34932
34831
34561
35102
34965
34723
34271
34816
34490
34127
34082
34443
34488
33399
34224
34604
34211
33245
34208
34384
33703
33764
34182
33887
33768
33392
33804
33958
33278
33801
34406
33923
33198
33804
33403
34116
33519
33914
33420
33778
33213
34311
33794
33283
33482
34329
33938
33746
34155
33912
33798
33592
34491
34198
34157
33670
34274
34168
33549
33714
34437
34232
33433
33975
34261
33941
33143
34260
34260
33911
33368
34171
34761
33981
33671
34681
34450
33359
34050
34345
34339
33679
34508
34579
34407
33663
34543
34542
34343
34082
34772
34427
34105
34445
34383
34657
33515
34576
35015
34574
33861
34848
34938
34314
34281
34659
34767
34394
34263
34643
34581
34797
34716
35136
34642
33748
34761
34798
34480
34196
34901
34707
34450
34137
35006
34904
34372
34837
34876
34836
34182
34867
34911
34469
33933
34538
34820
34433
33727
34444
34107
33687
33803
33976
34102
33069
34431
34115
34014
32973
34083
34006
33554
33316
34076
33873
33253
33440
34038
33777
33263
33740
33876
33925
33137
33960
33909
33804
33457
33649
33550
33620
33451
33967
33859
33301
33748
34171
33954
33186
33868
34140
34264
33936
34389
33868
33741
33508
34653
34439
33296
34070
34635
34094
33493
34034
34212
34170
33490
34452
33996
34056
33795
34503
34639
34061
34190
34444
34347
33944
34517
34462
34551
33916
34787
34375
34417
34338
34919
35216
34230
34246
34869
34764
33890
34454
35160
34686
34313
34682
34674
34824
33907
34932
34902
34823
34566
35226
34842
34160
34804
34915
35275
34300
34929
35099
35295
34729
34910
35030
34761
34300
35130
34789
34073
34684
34978
34810
34100
34642
34757
34390
33712
34656
34629
34171
33957
34652
34332
33875
34048
34451
34300
33475
34152
34329
34138
33427
34216
34563
33778
32992
34406
34477
33627
33718
34473
34214
33613
34354
34607
34370
33351
34311
34556
34628
33582
34145
34191
33911
33906
34663
33989
33603
33979
34668
34216
33746
34452
34528
34509
33969
34557
34896
34105
34269
35088
34572
34696
34249
34429
34579
33731
34875
34791
34715
34520
34860
35296
34785
34481
35056
35040
34574
34512
35544
34787
34514
34916
35368
34824
34337
34767
35004
34645
34330
35157
35248
34555
34167
35237
35021
34221
35045
35309
35329
34277
35342
35150
35455
34446
35506
34935
35222
34896
35512
35862
35144
35110
35597
35103
34637
35349
35303
35257
34561
35400
34708
34767
34719
34816
34907
34660
34466
35143
34722
33701
34394
34421
34728
33676
34814
34380
34373
33660
34505
34209
33866
33575
34487
34809
33767
34306
34776
34475
33997
34556
34379
34450
34210
34539
34624
33980
33911
34789
34459
33872
34380
34909
34873
34313
34912
34454
34886
34080
34719
34816
34858
34249
34794
34921
34287
34543
34945
34923
34654
34606
34998
34875
34747
35181
35028
34923
34382
35258
35238
34436
34889
35260
34961
34204
35337
35086
34873
34290
35472
35214
35107
34887
35636
35709
34746
34595
35576
35441
34240
35318
35391
35383
34728
35325
35070
35188
35089
35505
35631
35345
34672
35490
35523
34790
35223
35448
35450
34428
35248
35853
35657
34775
35247
34896
35569
35330
35293
35616
34911
35123
35480
34947
34583
35002
35328
34889
34566
35055
35406
34830
34539
34969
34830
34742
34425
34641
34805
33987
34719
34513
34599
33943
34554
35011
34206
33766
34948
34481
34343
33930
34727
34888
33970
34323
34889
34315
33937
34596
34823
34428
34159
34724
34701
34600
34249
34922
34920
34211
34547
35043
35061
34177
34859
35146
34875
34383
35044
34952
34782
34639
35126
35122
34409
34747
34936
35135
34081
35214
35013
35114
34967
35307
35375
35134
34810
35348
35337
34942
34990
35472
35472
35022
35496
35494
35474
34888
35636
35709
35495
35135
35462
35689
35176
35285
35816
35656
35108
35138
35533
35724
34728
35675
35615
35482
35246
35806
35500
35769
35262
35990
35846
35464
35378
36186
35807
34950
35672
35391
35670
34653
35731
35694
35332
35096
35582
35323
34918
34860
35502
35160
34517
35115
35456
35004
34462
35418
35115
34955
34332
34984
35425
34727
34450
35132
34966
33990
34730
34768
34761
34130
34943
35067
35177
33986
35030
35520
34815
34549
35419
35315
34642
34832
35400
35229
34387
35192
35378
35028
34126
35612
35223
35079
34620
35361
35238
34772
34821
35455
35299
34477
35284
35347
35251
34812
35515
35456
35337
34709
35606
35499
34920
35296
35774
35459
34981
35520
35874
35784
34651
35664
35561
35659
35505
35924
35840
35356
35462
35838
35384
35334
35497
36125
35885
34948
35690
35834
35816
35156
35775
35421
35526
35246
35822
35766
35172
35579
36080
35835
35301
35438
35953
35991
35025
35955
36057
35647
35102
35933
35960
35325
34938
35789
35527
34853
35380
35464
35187
34744
35360
35253
35190
34348
35349
35025
35011
34635
35257
35234
34411
35036
35281
35087
34415
35211
35427
35025
34861
35471
35569
34746
34577
35524
35018
34775
35023
35482
35282
34578
35270
35070
35057
34493
35057
35143
34838
34410
35574
35297
34591
34622
35306
35382
34680
35471
35676
35146
34980
35211
35447
35519
34878
35600
35330
34893
34884
35449
35331
34677
35133
35338
35258
34633
35360
35259
35253
34869
35342
35642
35358
35169
35773
35838
34831
35094
35698
35495
34835
35446
35485
35544
34735
35551
35471
35371
34889
35603
35543
35142
35017
35592
35305
35007
35722
35646
35717
34738
35687
35708
35472
35029
35795
35709
35107
35313
35712
35729
34882
35587
35708
35473
34834
35598
35465
35265
34831
35308
35147
34916
34524
35048
34833
34470
34712
35115
35209
34319
34877
35153
35009
34326
35262
35038
34760
34403
35415
34900
34552
34631
34794
34896
34050
34787
35454
34861
34337
35240
35461
35085
34529
35191
35194
34792
34929
35731
35252
34594
35332
35158
35173
34972
35484
35465
35157
34720
35548
35228
34657
34705
35879
35061
34570
35645
35561
35451
35269
35523
35566
35201
35495
35591
35237
35386
35598
35833
35752
35157
35689
35730
35635
35404
35940
35850
35724
35659
36040
35919
35718
35815
36164
36041
35325
36183
36302
35805
35588
36062
36299
35614
35773
36228
36124
35846
36064
36222
35725
35987
36314
36242
36353
35862
36341
36127
35747
35905
36037
35694
35931
35958
35965
35597
35430
35779
35796
35608
35246
35679
35713
35373
35243
35601
35478
35219
35368
35672
35527
35230
35461
35826
35235
35106
35596
35245
35301
34943
35615
35169
35229
35104
35386
35711
35511
35102
35749
35601
35076
35326
35651
35599
34879
35542
35681
35310
34910
35965
35864
35249
34625
35495
35709
35223
35032
35732
35486
34908
35447
35649
35518
34992
35576
35591
35396
34918
35727
35700
35240
34991
35898
35640
35027
35354
35945
35642
34703
35453
35799
35525
34952
36005
35419
35658
35267
35926
35950
35371
35272
35926
35884
35238
35768
35812
35958
35344
35803
35821
35544
35447
36291
36095
35199
35514
35951
35983
35182
35897
35983
35825
35313
35912
35945
35698
35265
35893
35854
35111
35013
35896
35541
34797
35304
35666
35447
34660
35397
35455
35235
34629
35425
35511
35116
34878
35481
35309
34716
34840
35254
35201
34454
35235
35360
35472
34299
35507
35436
35019
34668
35367
35821
34965
34848
35230
35403
34400
35287
35718
35187
34705
35606
35395
35496
35060
35437
35515
34980
34869
35697
35358
34769
35219
35478
35440
34736
35488
35609
35404
34977
35708
35522
35208
34931
35692
35657
35075
35149
35392
35383
34731
35739
36005
35587
35073
35572
35602
35510
35193
35732
35735
35118
35281
35820
35596
35098
35788
35653
35617
34870
35965
35463
35635
34993
35761
35973
35343
35346
36052
35691
34933
35674
35898
35816
35236
35901
36166
35813
35291
36033
35852
35489
35207
35972
35731
35315
35829
35467
35408
34771
35721
35456
35448
34809
35369
35200
35028
34706
35405
35364
34739
35010
35607
35284
34604
35330
35478
35144
34677
35503
35584
35314
34820
35597
35663
34977
34933
35451
35444
34593
35412
35606
35595
34588
35668
35923
35655
34873
35724
35887
35281
35150
35888
35800
34957
35639
35939
35751
34662
35671
36052
35651
35782
36034
35890
35502
35306
36179
36178
35410
35608
36080
36055
35322
36073
36106
36079
35363
36203
36006
35669
35353
36352
36175
35483
35822
36444
35949
35594
35882
36190
35941
35316
36135
36037
35864
35414
36108
36350
35591
35722
36406
36127
35460
36054
36359
36276
35417
35983
36551
35896
35764
36067
36102
35975
35558
36353
36157
35582
35842
36040
35824
35240
35815
35968
36017
34980
35555
35936
35803
35230
35845
35750
35025
35328
35665
35733
35046
35728
35779
35592
35234
35696
35550
35730
34920
35534
35996
35080
35126
35688
35873
35192
35828
36084
35633
35254
35900
36153
35794
35196
36011
35845
35962
35799
36440
36355
35465
36099
36449
36472
35666
36479
36539
36506
35791
36107
36449
35922
35800
36490
36418
35823
36566
36743
36425
35430
36940
36537
36828
35691
36669
36608
36214
36414
36718
36885
36040
36231
36887
36685
35990
36672
36671
36733
36181
36638
37091
36591
36405
36947
36916
36430
36028
36835
36590
35867
36383
36766
36585
35860
36700
36674
36605
36065
36702
36604
36268
35891
36497
36293
35697
36151
36419
36292
35174
36239
36316
36015
35207
36069
36067
35758
35302
36072
35848
35257
35364
36098
35896
35024
35761
36364
35915
34969
36192
36058
35995
35199
35954
35945
35305
35461
36021
36012
35293
35921
36139
35886
35412
36145
36309
35997
35448
36348
36194
35767
35631
36583
36342
35469
36159
36433
36240
35594
36257
36427
36240
35694
36430
36409
36183
35739
36608
36565
35718
36054
36342
36197
35821
36447
36733
36619
35818
36643
36762
36080
35941
36592
36361
36055
35997
37024
36563
35767
36505
36405
36380
35721
36426
36822
36231
35592
36994
36329
36081
35808
36863
36552
35762
36427
36717
36616
35864
36653
36807
36481
35944
36659
36457
36190
35787
36732
36662
35704
36337
36504
36166
35410
36103
36211
35848
35167
36036
36040
35664
35158
36145
35773
35072
35457
35853
35768
35016
35684
35742
35654
34897
35909
35988
35887
34945
35668
35614
35229
35142
35595
36094
35084
35501
35612
35752
35017
35832
35844
35652
35314
35906
35898
35347
35134
36132
35637
34925
35631
36125
35768
35036
35808
36008
35728
34643
35877
35776
35575
35341
36032
35971
35058
35582
35933
35588
34863
35797
36028
35637
35022
35961
35839
35972
35647
36020
36115
35202
35553
36302
35938
35147
35951
36565
36037
35251
36208
36256
36041
35509
36439
36200
35857
35769
36606
36439
35428
36177
36344
36188
35750
36820
36606
36352
35797
36369
36630
36039
35967
36628
36500
35376
36142
35929
36027
35357
35761
35659
35952
35233
35769
35620
35580
34921
35576
35653
34880
35186
35630
35387
34913
35363
35864
35337
34829
35753
35259
35302
34747
35786
35146
34710
35061
35577
35293
34345
35563
35605
35620
35023
35547
35899
35335
34818
35797
35646
35237
35246
35875
35635
34970
35392
35734
35551
34939
35657
35418
35512
34942
36215
35534
35798
35247
35899
36044
35092
35645
36250
35922
35217
35881
36032
36088
35365
36104
36100
35810
35459
36080
35966
35465
35748
36267
35920
35079
36041
36137
35990
35242
36114
35919
35838
35578
36468
36062
35582
35481
36158
36006
35187
35874
36254
35913
35154
35939
35937
35865
35230
36010
35571
35168
35044
35913
35815
34876
35370
35588
35426
34640
35434
35492
35177
34649
35354
35361
35046
34584
35264
35475
34442
34966
35528
35084
34499
35063
35165
35031
34457
35236
35065
34916
34493
35252
35111
34676
34621
35237
35195
34102
34978
35151
35043
34196
35261
35324
35068
34430
35392
35323
34819
34607
35391
35304
34599
35036
35361
35159
34428
35277
35404
35180
34524
35407
35571
34736
34838
35310
35385
34297
34891
35202
35214
34343
35239
35213
35095
34375
35607
35304
34927
34707
35393
35251
34504
34747
35091
35437
34646
34982
35238
35308
34465
35397
35053
34869
34863
35475
35011
34593
35019
35415
35540
34403
35424
35538
35419
34710
35386
35832
35255
35130
35725
35327
34919
34818
35382
35294
34464
34975
35335
35091
34169
34986
35473
34810
34289
34943
34826
34486
34217
34679
34976
33871
34448
34678
34964
33864
34897
34868
34449
34125
35163
34694
34598
34264
34972
34820
34208
34652
35014
34799
34180
34829
34981
34830
34247
35013
35030
34789
34376
35096
34865
34669
34280
35177
35130
34109
34733
35206
35200
34145
35194
35092
35349
34332
35359
35148
35107
34481
35410
35227
34830
34778
35215
35207
33899
35324
35264
35419
34560
35749
35237
35245
35204
35500
35245
34634
34935
35339
35330
34243
35356
35618
35074
34683
35239
35865
35434
34865
35688
35436
35139
34953
35422
35484
34528
35392
35806
35318
34628
35572
35672
35584
34625
35308
35859
35093
34817
35376
35363
34855
34879
35096
35052
34457
35034
34723
34895
34288
35180
34893
34590
34305
35062
34855
34047
34547
34955
34652
34033
34642
34675
34560
33901
34755
34647
34480
34096
34696
34615
34206
34192
35012
34570
34060
34490
34503
34514
34028
34524
34390
34329
34000
34633
34590
34313
34281
34694
34347
33860
34486
34720
34603
34175
34671
34741
34556
33719
34769
34656
34380
33918
34936
34441
34063
34354
35220
34738
34170
34851
35161
34750
34414
34960
35162
34739
34390
35076
35107
34255
34525
35109
34933
34148
34930
35438
35001
34351
35348
35044
34888
34614
35380
35184
34574
34572
35479
35311
34600
35176
35333
35104
34258
35545
35101
35080
34918
35406
35414
34828
34759
35236
34897
34514
34750
35521
35090
34265
34823
35247
34544
34250
34865
34358
34341
34506
34781
34668
34159
34264
34705
34477
33793
34495
34289
34338
33552
34615
34507
34318
34202
34657
34411
33848
33817
34546
34318
33672
34350
34244
34488
33532
34811
34646
34477
34232
34677
34819
34012
33883
34841
34523
33807
34455
34458
34575
33767
34570
34724
34293
33778
34742
34220
34249
34247
34859
34252
33855
34336
34668
34548
33733
34523
34706
34510
33791
34605
34703
34519
33762
34735
34651
33861
34145
34778
34529
33622
34627
34825
34516
33714
34575
34362
34497
34262
34710
34724
34169
34212
34701
34759
33828
34555
34645
34662
34221
34772
35148
34911
34010
34893
34716
34435
33993
34775
34700
33737
34608
34495
34509
33999
34357
34178
34163
33567
34302
34315
33909
33548
34198
34272
33411
33713
34161
33933
32887
33838
33845
33681
33032
33669
33945
33459
33129
33630
33625
33023
33152
33648
33482
32682
33565
33546
33521
33015
33437
33898
33379
33321
33542
33423
33237
33213
33890
33657
33187
33507
34184
33444
32637
33882
33650
33733
32981
33897
34184
33548
33170
33741
33874
32947
33500
34308
33802
33278
33892
33859
33685
33261
34153
34064
33650
33660
34313
33728
33418
33566
33971
33898
33199
33882
34129
34074
33563
34048
33917
33998
33472
34282
34035
33712
33620
34279
34200
33407
33897
34192
34463
33659
34408
34044
34242
33590
34453
34560
34091
33865
34757
34077
33342
34087
34222
34237
33024
34137
34499
33914
33339
34051
34004
33713
33230
33945
33843
33080
33351
33831
33745
32816
33529
33762
33158
32816
33569
33511
33131
32940
33384
33310
32887
32804
33463
33301
32792
33271
33546
33411
32696
33489
33316
33325
32790
33560
33426
33162
32983
33666
33391
32645
33378
33689
33449
32542
33708
33715
33458
32976
34039
33537
33492
32782
33704
33588
33174
33472
33690
33711
33081
33788
33583
33503
32985
33632
34012
33702
33222
34111
33808
33358
33491
34296
33919
33219
33923
34047
34032
33464
34113
34283
33978
33376
34276
34267
33732
33580
34288
34243
33457
33922
34292
34015
33484
34550
34295
34164
33703
34488
34528
34364
33857
34379
34239
33674
33964
34658
34134
33294
34587
34439
33998
33823
34277
33925
33717
33469
34249
34179
33311
33543
34461
34102
32929
33793
33777
33695
33328
33774
34238
33315
33060
33536
33644
33013
32787
33914
33812
32626
33635
33913
33650
33031
33771
33848
33572
32897
33835
33810
33449
33188
33872
33766
33000
33553
34299
33946
32977
34179
34022
33549
33235
33957
34010
33721
33255
34169
34014
33438
33846
34260
34116
33141
33929
34345
33878
33733
34533
34254
34051
33820
34374
34302
33776
33864
34586
34360
33544
34363
34432
34409
33857
34593
34449
34280
34020
34565
34640
34153
34071
34718
34601
33744
34414
34678
34559
33793
34738
34653
34549
34030
34801
34910
34318
33884
34861
34902
33921
34249
34667
34595
33559
34759
35165
34728
34198
34875
35012
34254
34234
34796
34909
34021
34403
34750
34494
33433
34126
34370
34050
33596
34396
34181
34061
33319
34360
34137
33677
33706
34583
34128
33534
34320
34142
34201
33418
34334
33913
33640
33364
34435
34327
33742
33468
34373
34014
33620
33897
34765
33930
33224
34272
34252
33864
33468
34536
34100
34265
33543
34470
34242
33620
33732
34423
34152
33376
34218
34499
34175
33460
34319
34308
34124
33642
34594
34213
33970
33732
34599
34418
33415
34402
34405
34293
33519
34795
34311
34180
33744
34532
34568
34183
33975
34914
34902
33770
34623
34501
34785
33879
34851
34578
34703
33990
34465
34394
34288
33877
34896
34409
33985
34574
34731
34722
33841
34697
34977
34626
34170
34785
34596
34562
34218
34916
34673
34074
34172
34711
34523
33318
34347
34078
34390
33720
34479
33977
33702
33721
34401
34126
33497
33641
34313
33966
33125
33542
34334
33877
33369
34132
33741
33949
32622
33654
33743
33735
33051
34108
33907
32932
33572
34217
33543
32717
33912
34039
33885
32894
33663
33944
33972
33008
33838
33647
33086
33289
33755
34044
33091
33943
34097
33723
33392
33878
33804
34005
33135
33974
33792
33266
33591
33964
34099
33053
33963
34457
33913
33400
33866
34331
34085
33293
34444
34328
34220
33330
34486
34035
33515
34081
34397
34369
33504
34232
34531
34216
33715
34412
34257
34173
33615
34502
34334
33737
34110
34366
34434
33675
34331
34411
34379
33971
34687
34272
34033
34197
34493
34761
34085
34082
34588
34502
33658
34288
34480
34305
33813
34321
34128
33865
33274
34344
34185
33709
33440
34109
33877
33118
33755
34160
33825
32996
33783
33686
33511
33029
33917
34037
33098
33126
33785
33605
33137
33224
33313
33689
33111
33544
33458
33723
32773
33975
33529
33394
32670
33734
33895
33206
33040
33887
33578
32969
33536
33692
33667
32960
33553
33778
33461
33251
33829
33787
33319
33281
33927
33827
33035
33568
33640
33740
32842
33736
34141
33815
33038
34079
34235
33692
33441
34159
33964
33415
33858
34046
34011
33486
33980
34237
34051
33243
34027
34356
33955
33414
34175
34138
33683
33503
34293
34287
33092
34294
34276
34242
33523
34409
34183
34184
33782
34580
34358
33997
34100
34659
34503
33860
34241
34716
34402
33722
34559
34521
34381
33925
34550
34504
33987
33758
34473
34307
33181
33871
33899
34043
33417
34040
34226
33861
33240
34048
34014
33670
33159
34093
34121
33195
33359
33856
33816
33143
33704
33832
33664
32946
34067
33724
33837
33458
33924
33546
33412
33528
33973
33968
32912
33743
34323
33960
33075
34144
33913
33693
33246
34213
34257
33734
33370
34184
34296
33099
33866
34083
34069
33156
33913
34070
34283
33093
33960
34235
33848
33623
34348
34372
33675
33977
34485
34326
33601
34462
34497
34347
33577
34563
34547
34110
33596
34693
34886
33911
34189
34892
34714
34019
34670
34419
34442
34131
34684
34966
34646
33726
34754
34739
34342
33795
34678
34792
34024
34661
34675
34678
34102
34770
34677
35100
34147
34839
35083
34871
34195
35156
35000
34306
34525
34964
34608
33593
34547
34550
34261
33903
34449
34244
34326
33638
34523
34473
33868
33850
34552
34288
33393
34230
34423
34102
33435
34293
34324
34087
33536
34270
34322
33661
33584
34545
34222
33689
34068
34408
34319
33578
34375
34464
34418
33652
34281
34461
34047
33651
34339
34622
33740
34362
34218
34399
33925
34224
34371
34562
33800
34495
34435
34207
33947
34719
34620
33915
33966
34672
34487
33550
34417
34680
34289
33797
34406
34598
34356
33970
34554
34693
33996
33969
35047
34742
34070
34698
35104
34604
33797
34821
34806
34740
34198
34905
34880
34448
34242
35237
35003
34309
34640
35052
34885
34111
34899
35038
34902
34162
35004
35024
34569
34389
34946
35160
34099
34491
35110
34729
33782
34716
35128
34396
33590
34559
34342
34070
33375
34381
34347
34048
33823
34437
34093
33351
34261
34024
34258
33368
34131
33991
34202
33086
34467
34426
33463
33493
34386
33776
33132
34041
34395
33932
33127
34093
34112
34079
33384
34243
34116
33940
33870
34505
34015
33905
33721
34347
34203
33672
34276
34449
34294
33711
34394
34577
34034
33643
34598
34410
33813
33883
34342
34185
33655
34269
34035
34087
33231
34218
34971
34125
33344
34755
34565
34240
34155
34357
34568
33658
34442
34654
34271
33618
34757
34609
34084
33755
34808
34704
34018
33862
34589
34589
34036
34340
34826
34591
33846
34579
34497
34484
33933
34690
34553
34443
33820
34828
34689
34360
34431
35184
34702
33796
34979
34825
34668
33967
34972
34698
34390
34026
34684
34391
33841
33918
34616
34446
33673
33954
34170
33895
33196
33828
34073
33683
33116
34379
34173
33938
33196
33843
33874
33009
33543
33860
33707
33221
33849
34058
33735
32696
33837
34057
33621
33117
33983
33997
33271
33637
34101
33884
32897
34014
34134
33637
33268
34128
34058
33951
33488
34263
34207
33690
33587
34354
34367
33396
34167
34561
34212
33723
34436
34425
33969
33484
34574
34348
34282
34109
34706
34446
33828
34328
34828
34585
34028
34582
34959
34467
33914
34965
35038
34509
33927
35052
34731
33958
34101
34794
34969
33849
34688
34770
34561
34549
35089
35448
34564
34392
35043
35104
34686
34858
35022
35398
34593
34963
35582
35241
34462
35066
35359
34996
34756
35693
35167
35205
35029
35322
35496
34469
35191
35369
35330
34300
35370
35494
35339
34813
35443
35648
35206
34689
35510
35262
34766
34748
35739
35187
34568
35579
35655
35436
34651
35515
35531
35276
34785
35587
35529
34901
34895
35633
35423
34687
35355
35267
35326
34634
35521
35489
35306
34633
35701
35750
34974
34964
35703
35420
34299
35303
35296
35201
34503
35633
35310
35615
34258
35481
35131
35067
34840
35451
35732
34778
34710
35304
35295
34255
35379
35244
35209
34212
35472
35494
35289
34679
35339
35214
34851
34835
35428
35521
34452
35202
35325
35064
34518
35189
35357
35038
34278
35363
35205
34401
34011
34944
34797
33821
34472
34825
34490
33642
34585
34580
34450
33626
34654
34473
34349
34126
34575
34669
33801
33947
34529
34443
33789
34436
34481
34649
33658
34413
34488
34274
33806
34458
34653
34019
34059
34696
34664
33627
34511
34776
34328
33372
34421
34221
34255
33674
34504
34354
33739
33543
34369
34437
33168
34331
34674
34489
33437
34540
34392
34188
33812
34552
34573
34438
33840
34322
34529
33440
34123
34309
34487
33651
34233
34808
34420
33806
34732
34639
34075
33756
34600
34343
33668
34039
34851
34335
33813
34544
34303
34354
33738
34546
34817
34373
33710
34556
34572
34219
33960
34552
34513
33823
34530
35069
34575
33694
34723
34575
34696
34007
34825
34682
34496
34374
34663
34658
33958
34555
34782
34664
34012
34473
34556
34387
33565
34374
34343
34016
33565
34465
34164
33558
33681
34275
34119
33426
34096
34203
34110
33273
34198
34131
33991
33521
34243
34075
33542
33573
34286
34170
33236
33867
34289
34062
33007
34090
34276
34154
33456
34411
34375
34143
33727
34691
34290
33501
34011
34345
34315
33530
34440
34477
34532
33506
34221
34452
34201
34024
34614
34545
33846
34032
34683
34480
33625
34473
34753
34501
33863
34717
34894
34509
34170
34905
34803
34253
34207
35026
34927
33958
34975
34724
34799
33956
34946
34892
34784
34189
34980
35120
34519
34343
35084
34941
34266
34884
34890
34976
34072
35180
35173
34929
34339
35015
34974
34774
34344
35333
34950
34414
34519
35011
34849
34088
34715
34907
34575
33717
34667
34619
34293
33816
34402
34469
33984
33658
34601
34171
33578
33900
34069
33939
33103
33781
34096
34064
33602
34063
33980
33327
33427
33902
33995
31235
31556
31501
31155
31305
31635
31294
31182
31021
31552
31574
31376
31179
31735
31594
31319
31757
31779
31614
31113
31352
31568
31166
30908
31626
31615
31249
31596
31362
31389
31380
31198
31366
31281
31118
31438
31433
31251
31373
31619
31928
31348
31268
31641
31820
31535
31911
31665
31737
31512
31483
32068
31568
31359
31660
31703
31702
31746
31762
31958
31641
31829
31622
31517
31546
31746
32061
31350
31650
31901
32121
31874
31309
32078
31635
31709
31389
32010
31705
31682
32061
31886
31748
31789
31977
31484
31523
31230
31323
31506
31355
31370
31331
31545
31047
31435
31133
30809
31260
31067
31086
31135
31099
31218
31305
31136
30612
31330
31321
30741
30894
30875
30984
30925
30880
30847
30607
31016
30952
31204
30890
30822
31171
30826
30951
31048
31223
31307
30931
31381
31143
30891
31053
31178
31128
30927
31036
31415
31028
31077
31129
31203
30963
30891
31266
31405
31371
31257
30987
31201
31001
30999
31328
31281
31224
31034
31376
31470
31095
31388
31505
31222
31320
31490
31590
31305
31086
31528
31785
31516
31081
31446
31293
31283
31032
31551
31588
31213
31605
31539
31193
31082
31326
31814
31436
31196
31570
31356
31452
31230
31795
31551
31220
31258
31771
31227
31352
31263
31223
31551
30841
31416
31270
30919
30572
31120
31280
31108
30980
31026
31150
31199
31239
31235
30789
30773
31030
31120
30984
31054
31267
31060
31028
30827
31275
31084
30998
31088
31299
31286
30990
31298
31559
31231
31380
31428
31592
31435
31441
31655
31648
31647
31872
31932
31781
31399
31476
32003
31816
31665
31992
32049
31335
31461
31616
31551
31714
31559
31948
31634
31769
31533
31736
31228
31483
31722
31734
31570
31746
31946
31657
31655
31814
31987
32064
31658
31923
31925
31847
31504
31765
31900
31884
31608
31944
32009
31739
31879
32182
31972
31529
31689
31877
32138
31732
32110
32035
32152
31664
32374
32499
32040
32281
32346
32180
32230
32255
32471
32304
32311
32325
32364
31748
31898
32391
31961
31845
31470
32228
31703
31716
31910
31981
31806
31747
31999
31770
31807
31537
31787
31665
31663
31391
31843
31655
31636
31727
31900
31690
31748
31738
31817
31552
31469
31854
32000
31506
31388
31873
32212
31496
31585
32189
31729
31666
31925
32214
31567
31660
31932
31962
31865
31577
31884
31783
31958
31454
31862
31983
31944
31765
32299
31725
31987
32049
32210
32038
32025
32380
32554
32376
32147
32644
32551
32347
32486
32608
32520
32289
32465
32379
32375
32576
32383
32276
32204
32011
32730
32680
32257
32024
32277
32256
32210
32380
32392
32488
32130
32502
32237
32453
32349
32454
32842
32174
32483
32388
32495
32504
32307
32623
32716
32217
32405
32778
32495
32230
32978
32389
32188
32449
32345
32621
32176
32400
32530
31917
32047
32420
32410
32189
32145
31875
31970
31937
31766
32039
32244
31905
31719
31934
32275
31824
32014
31826
31580
31700
32040
32197
31616
31565
31895
32248
31941
31664
31806
32106
31701
31579
31838
31909
31982
32025
31755
31845
31570
31959
31792
31894
31785
31893
32108
31883
31819
32117
32055
31787
31822
32133
31850
31872
32200
32154
31862
32104
32176
31931
32127
32041
32352
32440
32013
32428
32268
32470
32126
32500
32642
32533
32151
32633
32185
32499
32118
32519
32535
32402
32423
32556
32605
32650
32720
32555
32183
32190
32902
32702
32398
32305
32755
32709
32539
32155
32742
32218
32521
32857
32711
32706
32330
32610
32727
32483
32154
32390
32585
32033
32242
32441
32207
31982
31701
31931
31957
31843
31769
31704
31954
31699
31720
31831
31839
31370
31713
32066
31692
31559
31983
31651
31349
31650
31812
31311
31739
31695
31695
31649
31357
31732
31842
31604
31695
31886
31627
31688
31963
31888
31867
31631
31919
32070
31818
31567
31944
31976
31736
31491
31933
31707
31706
31715
31930
31735
31677
31997
31855
31610
31493
32136
32161
31839
31479
32072
31834
32003
31684
32019
32085
32068
31955
32216
32382
32069
32352
32504
32259
31825
32376
32300
32057
31807
32333
32336
32211
31992
32002
32001
31937
31953
32413
31974
31595
32218
32400
31950
31756
32202
32451
31882
32094
32078
31759
32107
31964
32020
31830
31918
32138
32237
31888
31468
31834
31625
31724
31538
31634
31461
31673
31536
31763
31603
31276
31836
31950
31737
31454
31785
32078
31908
31530
32039
31968
31552
31710
32138
31907
31724
32001
31943
31583
31591
31906
31916
31669
31765
32009
31945
31887
31923
32043
31880
31770
31870
32119
31825
31547
31774
32153
31808
31657
32008
32103
31791
31918
31977
31869
31974
32007
31987
32125
31982
32206
31886
31664
31470
32221
32184
31923
31893
32342
32215
31831
32036
32488
32299
31938
32044
32384
32344
32207
32571
32192
32151
31885
32390
32071
32237
32226
32671
32012
32354
32512
32469
32349
31915
32464
32524
32253
32115
32561
32147
32360
31998
32649
32585
32398
32197
32352
32484
32165
32773
32156
32338
31807
32560
32327
32078
31873
32413
32161
32017
32219
31924
31597
31984
32244
32082
31805
31639
32111
31640
31789
31909
31919
32005
31717
31870
32037
31441
31669
31548
31985
31619
31200
31597
31886
31618
31420
31979
32081
31673
31794
32045
31714
31802
31969
32231
32095
31601
31887
31744
31853
31549
31948
31874
31864
31906
32332
31943
31895
31862
32194
31967
32000
31953
31945
31757
31893
32068
32083
31859
31605
32096
32234
31846
31711
32094
31617
31937
32314
32075
32086
31857
31894
32012
32158
32014
32440
32374
32172
32026
31994
32214
32030
32036
32473
31958
32132
32232
31992
31790
32148
32425
32544
31986
32309
32439
32002
32248
32215
32272
32068
32047
32346
32299
32181
32292
32357
32541
32190
31944
32459
32138
32158
32270
32248
32093
31962
32170
32196
31907
31585
31979
32066
31624
31716
31819
31561
31675
31662
31846
31877
31571
31576
31906
31346
31210
31333
31954
31263
31595
31734
31452
31832
31759
32054
31758
31524
32091
31827
31610
32011
31799
31749
31510
31680
32205
31671
31626
31536
31919
32226
31950
32171
31989
32111
31881
31729
31949
31698
31601
32492
31939
31877
31714
32053
31877
32042
32074
32117
32182
31798
31926
32069
31880
32026
32096
32557
32021
32119
32380
32168
32235
32077
32559
32620
32249
32403
32464
32373
32092
32160
32529
32132
31888
32621
32255
32280
32200
32372
32506
32276
32748
32454
31990
32370
32331
32402
32364
32232
32620
32729
32193
32316
32571
32733
32509
32279
32810
32129
32165
32324
32348
32338
31870
32339
32150
32288
31927
32012
32165
31862
31886
31957
32216
31932
31842
31745
31484
31670
31979
32234
31952
31568
32001
32001
31764
31472
31993
32079
31846
31999
31981
31955
31753
31808
32132
31677
31826
32131
32336
32048
31646
31837
31997
31971
31782
32277
31900
31713
31827
32056
31847
31924
32006
31794
31934
31575
32059
31701
31826
31896
31865
31953
31728
32121
32089
31808
31801
32387
31884
32138
31663
32343
32174
31981
32012
32285
32286
31982
32114
32029
32079
32015
32103
32331
32141
31600
32000
32192
31924
31833
32072
32075
31906
31856
32148
31847
31896
32376
32207
32102
31907
32078
32239
31852
31772
32319
31927
31933
31644
32224
32282
31870
32013
32045
31667
31546
31891
32182
31931
31543
31528
31323
31356
31158
31779
31296
31356
31318
31305
31295
30973
31614
31415
30971
31008
31408
31074
31184
31204
31214
31296
31221
31272
31478
31049
31114
31383
31576
31168
31551
31337
31589
31245
31270
31659
31545
31370
31458
31622
31841
31432
31563
31556
31501
31579
31793
31984
31714
31539
31835
32025
31323
31672
31757
31453
31438
31717
31970
31928
31574
31923
31712
31524
31437
32016
32100
31945
31572
32058
31961
31386
31485
31769
31920
31451
31063
31453
31521
31511
31481
31314
31346
31359
31591
31299
31362
31325
31616
31757
31423
31319
31826
31951
31636
31851
31728
31539
31767
32167
31953
31616
31527
32201
32281
31934
31959
32461
32064
31828
32186
32308
32462
32148
32184
32148
32134
31697
32467
32434
32129
32219
32365
32377
32088
32313
32396
31716
31910
32571
32276
32186
31683
32100
31845
32032
31628
32078
32473
31940
32185
32182
31796
32273
32496
32233
31948
31753
32288
32027
32003
31953
32383
31855
32067
32293
31988
32105
31751
32359
32349
32133
31616
31906
31920
31898
31471
32127
31703
31492
31486
31499
31324
31580
31466
31590
31564
31451
31534
31621
31535
31338
31665
31502
31563
31418
31894
31685
31660
31915
32072
31741
31855
32270
31674
31875
31575
31824
31920
31992
31814
32163
32050
31989
32167
32098
32499
32379
32554
32413
32469
32082
32474
32616
32282
32529
32852
32472
32535
32616
32789
32405
32614
32970
32665
32369
32489
32484
32673
32582
32306
32568
32520
32326
32141
32537
32459
32245
32399
32387
31901
31908
32209
32179
32011
31899
32248
32440
32015
32169
32061
31847
31809
32158
32160
31980
32139
31946
32450
31786
31921
32268
32224
32490
31897
32602
32284
32498
32424
32831
32599
32538
32384
32823
32441
32201
32263
32298
32541
32121
32611
32622
32337
32197
32731
32520
32307
32307
32755
32541
32339
32743
32907
32542
32256
32579
33134
32621
32672
32959
32954
32770
32867
32946
32944
32562
32807
32627
32461
32653
32652
32987
32289
32075
32491
32373
32362
32438
32387
32753
32207
32733
32789
32258
32322
32595
32837
32160
32324
32555
32715
32411
32255
32847
32656
32608
32579
32763
32686
32530
32938
32775
32502
32389
32661
32474
32353
32421
32259
32449
32395
32503
32476
32583
32590
32444
32301
32439
32839
32274
32518
32081
32098
32504
32162
32091
32682
32110
31860
31984
32380
31918
32157
31997
32384
31905
31821
32041
32242
31783
31592
31851
31798
31725
31657
32005
31835
31657
31967
31961
31877
31797
32002
31951
31876
31836
32056
32070
31906
31754
32185
32222
31783
31500
32279
31783
31948
31971
32193
32202
31756
32227
32049
31995
31858
32344
32153
32302
32226
32644
32361
32312
32210
32637
32401
32275
32188
32310
32420
31969
32763
32572
32532
31952
32437
32738
32572
32783
32592
32548
32462
32819
32797
32629
32283
32747
32767
32615
32489
32668
32950
32603
32561
32818
32486
32629
32695
32930
32393
32359
32752
32821
32672
32273
32875
32800
32429
32475
32948
32429
32460
32595
32548
32614
32770
32719
32829
32535
32473
32617
32591
32413
32463
32537
32572
32445
32499
32742
32429
32505
32126
32670
32050
32086
32191
32013
32014
31857
32235
31943
32073
32116
32219
32388
31869
32343
32206
32147
31980
32281
31941
32058
32044
32124
32435
32186
32111
32423
32222
32240
32156
32578
32592
32495
32478
32224
32162
32192
32209
32181
32163
32287
32434
32513
32441
32227
32438
32129
32188
32417
32395
32096
32081
32227
32391
32503
32033
32626
32506
32141
32232
32394
32470
32066
32550
32491
32007
32283
32303
32299
32608
32118
32899
32291
32278
32589
32671
32369
32244
32095
32364
32323
32044
32317
32497
32115
31820
32380
32246
31826
31948
32134
32069
31929
32329
32559
32431
32407
32643
32395
32402
32106
32427
32776
32266
32456
32505
32516
32313
32193
32546
32252
32283
32535
32348
32235
32295
32415
32299
32070
32105
32538
32119
32061
31901
32490
32202
32172
32157
32323
32197
32152
32072
32037
31842
32088
32198
32020
32130
31664
32260
32027
32013
32044
32338
32070
32123
32277
32058
32183
31855
32230
31860
31848
32059
32252
32014
31884
31776
32250
31827
32040
32206
32043
31943
31921
31788
31859
31965
31396
31954
31580
31513
31360
31661
31525
31611
31322
31670
31743
31393
31445
31756
31484
31461
32025
31969
31730
31686
32004
31677
31870
31575
32224
32147
31699
32059
31859
31689
31615
32276
32369
31606
31586
32246
31815
31901
31719
31845
31820
31541
31975
32070
31884
31470
31563
32269
32168
31799
31965
31708
31800
31805
31986
31998
31804
31956
32217
32166
31823
32308
32159
32128
31869
31844
32337
32086
32010
32345
31740
31904
31793
32109
31929
31915
32523
32090
32347
31932
32609
32497
32169
32140
32641
32246
32231
31974
32400
32482
32268
32158
32577
32739
32453
32582
32609
32424
32028
32300
32592
32069
31911
32531
32546
32360
32275
32636
32175
32464
32131
32499
32242
32506
32359
32426
32635
32183
32684
32538
32346
32352
32654
32410
32328
32499
32539
32391
32316
32541
32473
32510
32117
32735
32690
32501
32202
32593
32626
32389
32413
32628
32604
32397
32655
32766
32450
32304
32663
32725
32530
32365
32573
32509
32300
32452
32543
32288
32166
32233
32350
32257
31856
32255
32478
31863
31792
32213
32181
31836
31515
32045
32170
31776
32175
32064
32195
31685
32018
31999
31967
31724
32120
32030
31883
31891
32382
32330
31836
32111
32411
32007
31895
32424
32373
32372
31973
32448
32739
32383
32435
32471
32691
32397
32316
32360
32542
31948
32384
32587
32261
32327
32582
32408
32355
32136
32254
32559
32318
32441
32508
32292
32322
32483
32469
32431
32268
32478
32471
32378
32128
32432
32376
32254
32286
32599
32507
32403
32604
32608
32442
32380
32522
32716
32421
32246
32624
32517
32917
32741
32922
32992
32656
32665
33036
32779
32769
32825
33062
32823
32866
32548
32541
32479
32535
32985
32717
32364
32146
32626
32369
32214
32276
32312
32075
32458
32416
32145
32294
32165
32520
32384
31997
32061
32502
32212
32037
32286
32269
32052
31927
32427
32188
31757
31701
32178
32374
32150
32300
32393
32487
32184
31951
32525
32033
32253
32116
32494
32476
31860
32437
32652
31895
32043
32586
32437
32003
31896
32132
32086
32152
31941
32287
31968
31771
31858
32522
31925
32078
32390
32477
31889
32134
32614
32478
32077
32571
32508
32580
31989
32631
32259
32192
32102
32406
32524
32293
32022
32565
32476
32239
32062
32489
32108
32213
32103
32499
32396
32079
32521
32454
32272
32422
32422
32454
32182
32103
32430
32567
32076
32546
32181
32209
32255
31878
32498
32146
31791
32172
32173
32024
31630
31959
31933
31802
31742
31825
31844
31967
31996
31989
31806
31751
32166
32147
31916
31406
31933
31615
31922
31448
31872
31660
31671
31818
32122
31783
31719
31881
32008
31705
31741
31931
31782
31813
31670
32022
31732
31763
31756
32148
31927
31603
31939
31836
32072
31890
31832
32216
32079
31877
32003
32022
31871
31939
32192
32184
31864
31706
32230
31989
31776
31813
31975
31547
31838
31693
32088
31650
31863
31833
32018
31686
32072
31667
31765
31844
32125
32012
31676
31415
31612
31979
31678
31705
31910
31740
31660
31350
32005
31901
31658
31883
31519
31334
31480
31728
31961
31712
31426
32068
31717
31948
31882
31898
31786
31658
32151
31867
31645
31494
31865
31840
31786
31260
31976
31587
31397
31880
32008
31509
31309
31742
31541
31735
31262
31429
31616
31559
31572
31639
31685
31654
31564
31669
31861
31488
31471
31535
31623
31518
31701
31302
31122
30962
31603
31403
31443
30842
31239
30992
30978
31189
30971
30897
31069
30949
31259
31009
30646
30663
31349
31296
31032
31549
31232
31221
30593
30930
31073
31056
31240
31230
31399
30857
31261
31027
30938
30778
31214
31007
30869
30800
31054
31078
30778
30778
31034
31012
30776
31097
30857
30838
30961
30723
31239
30811
30757
31351
31020
30875
31111
31034
31256
30817
31407
31012
31646
31290
31089
31239
31260
31119
31271
30984
31133
30996
31138
30961
30618
30829
31042
30887
30641
30926
30697
30667
30526
30773
30737
30916
30782
31010
30707
30947
30744
30975
30757
30677
30980
31079
30657
30892
31114
31188
30937
30715
30964
31269
30938
30958
30968
30982
30576
31109
30810
30639
30869
30854
31217
31201
30998
31473
31045
30910
30830
30959
31109
30847
30780
31154
30992
30630
31351
30919
30670
30701
30823
31013
31010
30669
31150
30874
31081
31301
31214
31162
31016
31226
31077
31136
31027
30930
31118
31100
30810
31084
31207
30953
30721
31118
31405
30973
31117
31307
31234
30933
30990
31425
31329
31195
31641
31178
31331
31284
31701
31298
31192
31211
31792
31380
31595
31355
31413
31282
30942
31658
31667
31116
31017
31637
31292
30841
31117
31134
31282
30870
30794
31216
30723
30477
31017
31021
30974
30506
30837
30786
30580
30560
30889
30586
30464
30885
30607
30634
30461
30466
30843
30584
30554
30398
30587
30313
30190
30629
30768
30497
30549
30423
30513
30059
30645
30611
30235
30021
30395
30468
30020
30281
30767
30214
30243
30279
30905
30394
30152
30438
30531
30520
30336
30718
30533
30707
30617
30841
31087
30789
30708
30955
30662
30615
31017
30899
30769
30688
30944
30958
30827
30494
30975
30759
30638
30366
30788
30417
30548
30809
30646
30696
30274
30712
30532
30585
30372
30538
30882
30320
30326
30765
30294
30141
29927
30509
30444
30123
30423
30452
30596
30303
30183
30309
30507
30365
30493
30805
30260
30258
30606
30816
30310
30804
30542
30250
30485
30316
30642
30270
30122
30517
30821
30346
30389
30889
30241
30378
30017
30486
29992
30048
30418
30397
29911
30128
30343
29962
30281
29941
30133
29825
29945
30087
30176
29815
29970
30085
30226
29984
30105
30338
30182
30068
29791
30200
30091
30057
29939
30150
30084
29903
30391
30058
30258
30159
30219
29981
30241
30201
30485
29925
30394
30030
30513
30381
30316
30203
30503
30056
30211
30645
30746
30279
30564
30840
30390
30403
30375
30627
30629
30770
30617
30914
30666
30619
30904
30890
30857
30716
30909
30964
30953
30325
31052
31077
30589
30537
30944
30467
30657
30821
30843
30918
30645
30454
30786
30667
30419
30540
30895
30510
30378
30422
30564
30421
30406
30779
30539
30079
30554
30742
30238
30418
30406
30802
30369
30378
30733
30613
30930
30377
30688
30648
30578
30743
30660
30490
30509
30508
31026
30591
30502
30887
30718
30778
30496
30849
31044
30750
30511
30905
30777
30685
31032
30954
30458
30826
30758
31192
31094
30869
31030
30762
30970
30736
30993
31378
31269
31185
31236
31345
31013
30989
31406
30942
30992
31129
30947
31229
31101
31003
31472
31150
31058
31078
31314
31247
30867
30943
31139
30790
31351
31398
30837
30662
31070
31237
30833
31015
31175
30806
30924
31026
31105
30756
30672
30781
30987
30953
31076
31152
31437
31208
30748
31335
31277
30964
31042
31374
31033
31258
31406
31435
31528
30972
31122
31121
31366
31376
31620
31435
31388
31604
31397
31460
31349
31523
31757
31354
31564
31934
31662
31775
31091
31664
31691
31715
31403
31907
31804
31787
32085
32051
31884
31962
31988
32149
32028
31869
32237
32029
32295
32084
32470
32562
32284
32575
32588
32035
32002
32091
32479
32402
32166
32139
32535
32208
32155
32325
32516
32178
31840
32207
31856
32260
32084
32417
31802
32160
32223
32034
31573
31778
31951
31428
31422
31252
31297
30925
31219
31233
31072
30837
30873
30700
30847
30530
30612
30717
30397
30439
30339
30736
30474
30333
30506
30908
30263
30423
30364
30931
30456
30281
30678
30659
30539
30422
31271
31116
30938
30659
31311
31063
30929
31014
31025
30869
30841
31411
31503
31239
30856
31553
31492
31322
30964
31459
31174
31216
31177
31463
31302
31260
31361
31496
31251
31154
31599
31353
31390
31133
31749
31604
31183
31134
31694
31205
31078
31107
31632
31080
31026
31084
31106
31340
30888
31423
31199
31197
31092
31304
31276
30758
31296
30980
31239
30603
30877
31339
31111
30805
30931
31253
31047
30870
30990
30871
31027
31038
31373
31349
31052
31114
31220
30960
30825
31511
31485
31114
30945
31219
31248
30985
31084
31072
30747
30879
30849
30814
30675
30611
30515
30869
30461
30446
30748
30845
30375
30884
30670
30429
30386
30468
30897
30741
30864
30697
31058
31030
30817
31233
31081
30681
31073
31033
31343
31089
30799
31238
30812
30646
30759
31075
31100
30668
31056
31186
31093
30486
30803
31166
30709
31015
31087
30806
30570
31013
30915
30760
30929
31050
30775
30828
30856
31169
31230
30890
31013
31207
31291
30996
31086
31132
31183
30998
31470
31346
31062
31139
31549
31097
31335
31187
31504
31122
31241
31590
31289
31419
31330
31520
31299
31422
31262
31561
31759
31706
31147
31764
31526
31334
31671
31419
31650
31483
31598
31502
30971
31314
31183
31517
31164
30957
31166
31369
31053
30702
31044
31110
30666
30863
30821
30608
30595
30682
30591
30436
30279
30778
30450
30371
30577
30834
30361
30528
30643
30915
30499
30716
30950
30851
30508
30503
30572
30584
30985
30657
31075
31175
30855
30466
30960
30464
30598
31035
30765
30703
30943
31120
30831
30963
30939
31080
31046
30867
30621
31230
30900
30820
30751
31358
31277
31068
30994
31402
30727
30840
31144
31443
31345
30844
31145
31401
31098
31102
31532
31126
31247
31373
31354
31148
31285
31020
31650
30911
31105
31393
31530
31136
31002
31559
31491
31368
31860
31734
31868
31783
31908
31988
31883
31669
31878
32146
31907
31979
32108
32302
31788
31993
32140
32006
31719
31868
31907
31485
31491
31975
32006
32023
31632
31687
32004
31819
31323
32131
31848
31622
31444
31601
31462
31289
31889
31648
31352
31218
32056
31840
31431
31318
31651
31772
31630
31719
31712
31835
31525
31667
31683
31422
31602
31882
31922
31349
31498
31838
31475
31327
31494
31794
31324
31290
31448
31523
31318
31635
31851
31617
31318
31553
31810
31683
31643
31310
31634
31424
31650
31478
31715
31588
31271
31621
31390
31760
31180
31759
31350
31443
31451
31406
31557
31191
31560
31649
31583
31316
31602
31557
31324
31240
31847
31710
31666
31224
31714
31412
31442
31402
31685
31520
31582
31846
31820
31693
31699
31716
31412
31506
31302
31583
31447
31487
31460
31589
31693
31191
31263
31269
31076
30869
31269
31292
30934
31012
30980
31277
30731
30688
31008
30942
31063
31146
31274
30789
30982
30806
30820
30639
30631
31237
30700
31012
30850
31096
30879
30846
30914
30980
30707
30872
31162
30948
31193
31045
31243
31297
30899
30450
31118
31337
30840
30991
31033
30855
30894
30982
30969
30640
30758
30800
31082
30743
30619
30831
30666
30765
30904
30942
31125
30920
30971
31110
30935
30765
31192
31035
31252
31056
31315
31571
31046
30931
31158
30911
31149
31058
31032
30967
30915
31275
31456
31077
30976
31058
31452
30872
30573
31330
31188
31141
30824
31176
30863
30884
31092
30887
30901
30519
31123
31064
31056
30825
31158
30761
30898
30766
31147
30792
30939
30885
31232
31125
31053
30957
31357
31469
31174
31367
31595
31068
31161
31468
31299
31152
31287
31373
31236
31083
31526
31310
31501
30983
31490
31161
31138
31129
31639
31309
31464
31034
31509
31171
31243
31227
31271
31223
31347
31222
31460
31288
31248
31312
31560
31305
31296
31423
31300
31522
31372
31586
31930
31476
31677
31776
31635
31486
31643
31756
31858
31701
31938
31725
31678
31466
31908
31743
31732
32135
31832
32088
32091
32226
31951
31760
31775
31800
32013
31997
31945
32082
32090
31782
32246
31970
31731
31875
31501
31728
31381
31563
31629
31760
31189
31137
31575
31145
31217
31459
31620
31515
31421
31565
31429
31708
31524
31472
31353
31525
31283
31561
31264
31042
31159
31251
31146
31287
31223
31399
31409
31135
31379
31539
31122
31032
31226
31515
31123
31132
31534
31599
31273
30892
31282
31429
31254
31651
31531
31349
31167
31262
31510
31145
31004
31477
31364
31345
31246
31462
31326
31353
31823
31375
31550
31439
31446
31541
31387
31281
31401
31783
31485
31345
31804
31506
31643
31587
31865
31453
31473
31702
31671
31563
31377
31300
31700
31062
31335
31306
31247
31261
31100
31485
31479
31058
31326
31497
31526
31124
31640
31531
31454
31017
31561
31401
31169
31289
31380
31024
31051
31300
31532
31281
31286
31417
31396
31233
30713
31084
30756
31176
30923
31160
31219
30981
30741
31215
30960
30960
30705
31071
30526
30556
30706
30792
30884
30320
30723
31020
30665
30628
30789
31010
30419
30686
31049
30454
30387
30489
30618
30288
30404
30730
30715
30779
30521
30658
30808
30284
30546
30509
30396
30368
30520
30536
30356
30247
30484
30570
30510
30357
30574
30335
30476
30759
30536
30345
30258
30515
30847
30403
30708
30192
30378
30295
30052
30438
30777
30444
30296
30712
30487
30378
30477
30568
30528
30372
30946
30524
30676
30666
30612
30908
30672
30454
30715
30572
30617
30303
30819
30548
30426
30524
30452
30641
30395
30781
30642
30221
29998
30636
30544
30273
30571
30465
30518
30267
30564
30101
30294
29868
30257
29921
30022
29629
30016
30001
29975
30016
30222
29872
29793
29939
30076
30202
30159
30367
30326
30377
29811
30025
29917
30083
29790
30103
30392
30005
29922
30020
29818
29744
30091
30125
29987
29936
30065
29974
29823
30002
30134
29774
29746
29718
29971
30116
29814
29908
29717
29828
29599
29586
30226
29786
29669
30079
30096
29918
29525
29807
29716
29948
29880
30035
29714
29586
30280
30246
30039
29619
29862
30104
30136
29825
29993
30047
30169
29827
30379
30011
30031
29951
30143
30065
30065
30201
30352
30127
30008
30419
30494
30333
30268
30592
30260
30413
30638
30558
30568
30566
30617
30798
30398
30676
30922
30838
30453
30803
30994
30520
30691
30903
30752
30548
30274
30360
30772
30309
30178
30365
30715
30191
30131
30879
30773
30418
30673
30524
30278
30456
30354
30604
30601
30437
30354
30627
30524
30452
30563
30322
30541
30207
30672
30796
30410
30478
30482
30280
30245
30782
30828
30206
30467
30286
30625
30592
30214
30805
30496
30365
30438
30761
30690
30454
30469
30759
30408
30430
30400
30930
30681
30234
30917
30708
30453
30185
30569
30698
30496
30919
30684
30460
30393
30735
30783
30694
30617
31165
30649
30823
30496
30864
30984
30850
30779
30938
30907
30717
30753
30913
30417
30407
30648
30951
30518
30308
30698
30678
30584
30402
30572
30752
30514
31076
31070
30612
30695
31104
30820
30844
30688
31330
30793
30916
30929
30894
30554
30630
30480
30603
30402
30427
30552
30298
30512
30075
30429
30287
30304
30387
30421
30431
30184
30119
30353
29926
30029
30316
30304
30014
29831
29968
29962
29733
29938
30153
29976
29885
29854
29925
30018
29751
30217
30161
29926
29697
30407
30352
29926
29685
30374
30114
29927
29809
30414
30328
29933
30142
30247
30329
30143
30419
30388
30121
30006
30549
30418
30389
30098
30610
30083
30213
30577
30477
30022
30020
30197
30020
30123
29860
30226
29993
30283
30048
30402
30115
29937
29826
30420
30217
29808
29980
29950
30181
30143
30030
29863
29936
30081
30088
29850
29980
29734
29995
30305
29959
30317
30084
30460
30145
30201
30257
30374
30121
30509
30373
30481
30486
30508
30239
30336
30586
30627
30604
30205
30724
30742
30137
30244
30639
30326
30222
30530
30438
30370
30423
30277
30449
30338
30173
30384
30581
30350
30011
30554
30301
30064
30383
30260
30385
30669
30270
30635
30663
30542
30897
30602
30640
30349
30709
30865
30678
30284
30681
30485
30369
30155
30586
30766
30431
30607
30599
30303
30318
30720
30474
30568
30424
30724
30433
30683
30363
30812
30702
30329
30463
30471
30740
30367
30839
30914
30760
30483
30571
30862
30526
30720
31083
30959
30761
30399
30723
30851
30540
31004
30661
30784
30857
30946
30982
30614
30775
30728
30766
30483
30720
30843
30645
30613
30641
30827
30771
30765
30875
31085
30813
30669
31046
31101
30628
30750
30928
31083
30772
30656
30708
30798
30602
30464
30421
30330
30341
30195
30430
30309
30167
30613
30572
30130
29978
30313
30349
30230
30044
30198
30370
30347
30312
30222
30103
30243
30055
30642
30107
30204
30295
30538
30499
30544
30724
30635
30543
30192
30426
30431
30242
30923
30654
30594
30397
30805
30592
30303
30201
30790
30922
30374
30915
30798
30813
30344
30400
30348
30370
30253
30836
30375
30223
30600
30602
30472
30570
30656
30818
30451
30297
30834
30639
30577
30312
30757
30391
30652
30104
30836
30744
30651
30478
30723
30676
30461
30536
30566
30887
30705
30600
30462
30523
30607
31027
30898
30867
30531
31062
30713
30683
30651
31009
30571
30888
30751
31044
30909
30415
31066
30601
30837
30971
30911
30636
30639
30664
30797
30467
30510
30503
30622
30513
30226
30596
30410
30610
30214
30593
30670
30358
30374
30370
30221
30315
30247
30277
30515
30527
30735
30703
30123
30223
30457
30394
30506
30334
30284
30089
30290
30550
30212
30492
30000
30238
30371
30340
30029
30036
30534
30149
29996
29992
30405
30114
29827
30063
30273
30074
30391
30208
30216
30111
30124
30187
30280
30249
30505
30473
30373
30201
30532
30650
30510
30650
30611
30678
30363
30837
30694
30441
30431
30978
30792
30766
30304
30766
30896
30641
30896
30738
30886
30801
30747
30716
30711
30474
30637
30943
30821
30648
31130
30750
30575
30600
30793
30539
30746
30583
30846
30910
30597
30825
30788
30805
30517
30896
30676
30635
30676
30806
30488
30406
30767
30371
30486
30436
30529
30428
30111
30024
30228
30119
29996
29976
30106
30123
29806
29900
29830
30171
29760
30086
29929
29956
29695
29929
29877
29707
29651
29932
29858
29737
29665
29920
29805
29796
29957
30004
29807
29913
30055
30043
29885
29794
30111
30246
30087
29861
29989
29871
30008
30113
29909
30033
30197
30144
30268
30025
29863
29831
30299
29923
30056
30033
30263
29940
29970
30416
30330
30169
30588
30220
30220
30176
30359
30652
30206
30337
30464
30180
30453
30219
30491
30244
30199
30546
30411
30243
30196
30375
30252
30191
30341
30235
30333
30314
30436
30379
30470
30155
30520
30318
30021
30231
30278
30293
30591
30260
30637
30383
30374
30329
30525
30763
30366
30571
30548
30700
30256
30356
30381
30202
30419
30418
30497
30359
30573
30346
30447
30206
30095
30411
30448
30224
30548
30451
30406
30220
30459
30626
30092
30323
30196
30573
30001
30122
30482
30116
30018
30136
29940
29817
29834
29977
29867
30305
29736
30246
29892
29944
29786
30117
30011
29970
30131
30123
29982
30211
30013
30133
30264
29936
30115
30214
30182
30232
30295
30473
30421
30438
30607
30102
30141
30735
30580
30609
30387
31016
30602
30637
30531
31138
30750
30779
30332
30947
31163
30877
30723
31028
31040
30856
31272
31014
31255
31024
31286
31340
30795
30816
30935
31122
30766
30934
30764
30772
30899
31026
30916
30479
30589
30529
30852
30428
30308
30769
30749
30716
30262
30981
30712
30461
30828
30643
30463
30498
30808
30535
30583
30625
30592
30544
30507
30595
30600
30262
30474
30389
30591
30166
30448
30749
30304
30621
30178
30653
30488
30439
30282
30671
30330
30324
30353
30546
30095
30414
30503
30097
30046
29917
30019
30164
30156
29929
30285
30555
30192
30263
30338
30077
30119
30042
30323
30391
29972
30029
30118
30342
30226
30600
30371
30207
30023
30550
30086
30160
30047
30313
30387
30415
30237
30322
29990
30518
30452
30650
30663
30294
30696
30364
30565
30790
30732
30900
30719
30475
30619
30813
30784
30936
30511
30754
30555
30790
30504
30392
30353
30438
30732
30435
30313
30721
30198
30590
30322
30782
30730
30364
30641
30583
30542
30365
30741
30924
30630
30593
30868
31009
30627
30537
30747
30793
30685
30781
31124
30882
30439
30668
30849
30575
30428
30839
30616
30434
30726
30681
30524
30486
30768
30840
30762
30182
30810
30587
30308
30579
30682
30673
30542
30618
30505
30675
30274
30264
30513
30484
30290
30380
30730
30386
30394
30498
30479
30250
30063
30764
30733
30318
30335
30522
30494
30687
30466
30786
30569
30460
30664
30762
30505
30461
30691
30537
30541
30756
30789
30511
30625
30732
30606
30892
30546
30852
30965
30850
30450
30991
30641
30566
30444
30877
30515
30744
30415
30797
30546
30642
30429
30859
30390
30264
30579
30734
30450
30294
30688
30568
30467
30375
30602
30268
30390
30798
30749
30836
30447
30720
30954
30833
30763
30919
31045
30926
30693
30788
30983
30627
31058
30947
30728
30788
30684
30575
30545
30373
30467
30886
30634
30446
30685
30876
30465
30489
30790
30643
30335
30581
30630
30685
30474
30593
30391
30421
30310
30566
30475
30450
30569
30610
30162
30518
30342
30597
30594
30434
30456
30589
30579
30316
30716
30957
30624
30696
31128
30942
30439
31019
30687
30736
30592
30768
30679
30845
30573
30846
30657
30445
30734
30550
30817
30735
30711
30749
30848
30520
30850
30807
30600
30401
30697
30574
30589
30802
30788
30800
30673
30532
30960
30833
30746
30902
30656
30660
30808
30568
30579
30778
30296
30743
30973
30703
31017
30787
30862
30747
30991
30657
31042
30599
30751
30629
31024
30888
30897
30731
30663
30509
31002
31048
30731
30960
31063
31023
30609
30927
30995
30845
30519
30772
30570
30505
30383
30750
30294
30476
30769
30532
30656
30209
30666
30349
30128
30137
30565
30448
30268
30244
30486
30036
30121
30074
30253
30001
29903
29981
30293
30181
30259
29887
30554
30276
30114
30426
30153
30296
30286
30461
30232
30062
30214
30533
30288
30079
30524
30009
30033
30176
30346
30192
30239
30344
30296
30325
30205
29930
30378
30120
30229
29970
30131
30280
29961
30149
30419
30074
30332
30584
30061
30338
30371
30376
30282
30453
30356
30505
30395
30464
30229
30706
30163
30299
30398
30617
30435
30605
30512
30573
30281
30570
30646
30416
30547
30239
30502
30357
30140
30491
30419
30311
30684
30682
30732
30265
30575
30306
30721
30199
30701
30643
30584
30052
30288
30567
30181
30330
30485
30267
30258
30038
30398
29961
30077
30000
30363
29874
29904
30145
30295
29837
29783
30174
30244
30014
29898
30136
30294
30055
29991
29988
29921
30084
30122
29916
29901
29875
30082
29985
30176
29815
30069
30495
30238
30028
30391
30038
30012
30127
30177
30098
29899
30359
30475
30008
29891
30279
29983
30098
29739
30002
30311
29983
29974
30023
30520
30072
29866
30479
30112
29843
30164
30084
30121
29922
30344
30390
29899
30134
30019
30345
29988
30013
30021
30290
29957
30492
30420
30130
29788
30142
30356
30164
29991
30184
30253
30007
30345
30084
30010
30015
30191
30379
30123
30035
30177
30226
30108
30241
30213
29893
30146
30183
30418
30046
30177
30210
30187
30022
30099
30188
30211
29907
29737
30071
30073
29744
29820
29993
29868
30066
29597
30149
29744
29922
29937
29714
29628
29576
30013
29999
29652
30109
30069
29511
29558
29873
30046
29505
29665
29538
29941
29577
29767
30073
29970
29769
29936
30146
29852
29819
29938
29990
29956
29886
30097
29759
29618
29714
30110
29902
29821
29820
30108
29756
29892
29947
30073
29588
29698
30167
30226
30140
29876
29871
30081
29823
29770
30020
30099
30155
29782
30262
30150
30250
30142
30405
30035
29847
29979
30359
30096
30101
29969
29837
30064
30264
30138
30171
30006
29988
30317
30357
30294
29961
29907
30112
30095
29959
29971
29899
29889
30401
30074
30019
30026
30108
30232
30407
30586
30396
30387
30364
30494
30646
30453
30511
30456
30219
30132
30433
30278
29910
30118
29972
30228
29957
30041
30112
30027
29971
29827
29926
30015
29864
29699
29996
29745
29767
29944
29808
29653
29746
29644
29629
30075
29747
29620
29803
29661
29782
29836
29698
29963
29739
29965
30099
29755
30124
30123
30094
29855
30091
30087
29944
29771
30043
30238
29763
29942
30234
30114
29980
29975
30131
29925
29957
30212
30189
30169
29817
30347
30029
30192
29850
30226
30011
30165
29835
30194
30045
30057
30181
30509
30062
30366
30171
30503
30278
30091
30406
30276
30202
30565
30589
30212
30137
30251
30286
30293
30162
30625
30466
30299
30614
30793
30749
30700
30674
30739
30619
30665
30451
30882
30680
30735
30355
30520
30679
30172
30435
30172
30350
29929
30328
30040
29998
30204
30122
29925
30061
30113
29733
29810
29847
29801
29710
29698
29773
29765
30122
29986
29917
30262
30099
29947
29642
30092
30084
29772
29954
30333
30007
29843
30312
30285
30176
30260
30453
30468
30204
30160
30459
30600
30302
30199
30298
30473
30114
30175
30406
30114
30090
30281
30495
30418
30319
30441
30249
30223
30335
30572
30152
30400
30273
30621
30413
30084
30551
30385
30244
30153
30524
30411
30064
30314
30509
30206
30528
30227
30116
30035
30382
30538
30286
30260
30109
30346
30050
30144
30474
30492
30168
30446
30364
30341
30368
30278
30617
30492
30361
30246
