32332
32314
32171
32063
32004
31891
31832
31779
31691
31512
31600
31510
31564
31398
31443
31179
31273
31398
31194
31246
31237
31228
31246
31259
31234
31246
31240
31288
31116
31290
31232
31340
31208
31172
31226
31306
31368
31169
31396
31375
31448
31458
31573
31648
31601
31569
31733
31784
31768
31834
31900
31900
31920
31859
31869
31907
31920
32001
31873
32040
31902
31916
32091
31867
32054
32033
31993
32036
31989
32130
32009
31996
32005
32041
32013
31874
32046
31988
32077
32133
32170
32031
32091
32168
32262
32231
32094
32360
32209
32313
32400
32295
32295
32302
32467
32371
32494
32366
32457
32439
32547
32514
32605
32683
32545
32460
32648
32682
32732
32525
32744
32636
32497
32717
32846
32728
32732
32657
32614
32723
32541
32880
32719
32689
32807
32859
32790
32941
32829
33030
32851
32827
32858
32891
32963
33020
33019
32937
32897
32949
33163
32883
32998
33007
32969
33068
33178
33104
33127
33028
33043
33031
32898
32711
32763
32554
32659
32548
32394
32277
32179
32212
32104
31896
31979
31847
31911
31707
31738
31534
31818
31586
31753
31653
31815
31598
31493
31538
31711
31517
31585
31690
31584
31656
31593
31612
31486
31606
31574
31549
31608
31689
31622
31833
31688
31779
31830
31775
31866
31883
31940
31823
31902
31938
31895
32022
31912
31996
32009
31906
31852
32114
31877
32034
31891
32137
32009
32003
31974
31990
32133
31856
32085
31958
32013
32153
32172
32032
32201
31948
32277
32256
32277
32233
32213
32284
32217
32211
32182
32247
32330
32342
32524
32314
32403
32363
32423
32339
32547
32579
32435
32323
32539
32653
32636
32484
32522
32611
32573
32624
32761
32574
32572
32582
32875
32810
32579
32702
32709
32785
32672
32850
32765
32835
32674
32955
32752
32824
32935
32895
32914
32771
32910
33192
33038
33079
33066
33195
33154
33044
33158
33088
33103
33208
33085
33168
33153
33147
33074
33039
33057
32926
32787
32759
32522
32564
32477
32430
32304
32286
32278
32125
32086
32085
32040
31767
31939
31805
31813
31748
31868
31977
31912
31719
31802
31983
31873
31740
32023
31949
31868
31808
31776
32014
31750
32000
32167
31929
31915
31979
32249
32079
32112
32034
32268
32212
32261
32466
32215
32335
32410
32274
32332
32344
32408
32413
32312
32322
32502
32429
32173
32375
32500
32340
32222
32266
32324
32323
32376
32255
32249
32260
32227
32228
32316
32373
32305
32227
32302
32130
32357
32472
32251
32352
32275
32464
32294
32430
32367
32419
32508
32392
32411
32453
32454
32567
32435
32489
32466
32612
32581
32687
32747
32790
32732
32724
32704
32762
32823
32814
32842
32705
32787
32836
32847
32933
32848
32833
33082
32970
32977
32965
33001
32967
33028
33118
33234
32983
33015
33080
33270
33105
33286
33324
33331
33286
33276
33106
33221
33076
33267
33024
32959
33048
32904
32801
32653
32641
32719
32402
32261
32277
32174
32227
32046
32153
32074
32067
31963
32019
32121
31977
31949
32011
31967
31935
31914
32076
31932
31741
31938
31953
32004
32001
32026
31898
31884
32090
32044
31981
31950
32156
32113
32239
32055
32112
32126
32217
32217
32232
32277
32283
32442
32531
32629
32457
32331
32388
32396
32490
32458
32538
32544
32602
32541
32476
32637
32461
32481
32509
32510
32565
32734
32623
32733
32656
32744
32699
32807
32731
32659
32726
32837
32895
32723
32874
32696
32906
33073
32832
32939
32919
32953
33072
33073
33136
33107
33033
33164
33004
33036
33188
33253
33170
33117
33175
33410
33251
33023
33277
33244
33288
33300
33405
33386
33339
33396
33525
33512
33396
33435
33448
33474
33377
33580
33405
33656
33580
33638
33661
33612
33683
33662
33565
33686
33695
33705
33715
33652
33724
33839
33776
33636
33732
33663
33698
33725
33668
33619
33626
33469
33570
33353
33289
33128
33131
33016
32736
32954
32804
32692
32774
32741
32681
32554
32422
32622
32481
32236
32456
32655
32347
32319
32455
32552
32496
32287
32470
32448
32488
32456
32313
32381
32501
32382
32517
32470
32362
32560
32669
32588
32577
32709
32824
32560
32762
32710
32846
32816
32838
32859
32895
32722
32824
32886
32877
32874
32821
33023
32804
32787
33062
32930
32962
32911
33067
32942
32854
32923
33090
32964
32915
33027
32906
33002
33016
33126
32995
33123
33083
33079
33088
32951
33118
33168
33249
33179
33214
33234
33183
33182
33351
33348
33278
33263
33600
33436
33446
33428
33415
33461
33587
33485
33443
33480
33635
33637
33745
33718
33594
33748
33707
33538
33629
33778
33845
33571
33839
33985
33706
33913
33902
33968
33951
33914
34089
33930
33809
33941
34108
33868
34009
34072
33903
33903
33891
34116
34156
34140
33955
34271
34071
33920
34003
34160
33993
33812
33893
33911
33782
33691
33595
33546
33327
33392
33509
33316
33279
33195
33128
33012
32847
33028
33088
32849
33011
32855
32910
32760
32802
32827
32781
32811
32959
33023
32926
32766
32877
32936
32930
32720
32893
33006
32902
32931
33146
33034
33055
33082
33273
33069
33024
33234
33409
33207
33289
33366
33515
33378
33333
33503
33541
33507
33368
33614
33541
33566
33597
33640
33478
33463
33614
33552
33489
33465
33682
33566
33512
33522
33702
33567
33554
33587
33580
33700
33694
33659
33725
33731
33670
33842
33807
33585
33611
33794
33786
33779
33869
33844
33863
33720
33934
33791
33916
33877
34084
33978
33808
33930
33973
34037
33948
34042
33999
34049
33941
34091
34056
34021
34048
34082
34186
34209
34151
34288
34190
34271
34207
34213
34318
34261
34400
34510
34397
34284
34363
34505
34425
34365
34472
34431
34462
34496
34401
34415
34554
34512
34515
34454
34442
34599
34602
34587
34450
34500
34332
34224
34328
34142
34176
34236
34019
34118
33882
33860
33851
33715
33631
33545
33557
33601
33428
33473
33660
33473
33397
33415
33304
33307
33178
33435
33418
33315
33191
33265
33363
33406
33324
33318
33308
33183
33376
33585
33364
33418
33546
33411
33393
33380
33536
33577
33622
33565
33707
33517
33534
33626
33751
33580
33493
33785
33732
33787
33663
33761
33653
33785
33797
33739
33725
33732
33763
33674
33800
33827
33880
33943
33715
33864
33831
33932
33947
33950
33801
33911
33900
33937
34138
33967
33889
34006
34113
34057
33952
34204
34111
34040
34160
34150
34119
34000
34236
34132
34300
34212
34239
34433
34319
34416
34427
34459
34241
34301
34560
34445
34455
34437
34393
34524
34551
34597
34601
34443
34346
34574
34647
34386
34387
34421
34503
34574
34529
34564
34587
34494
34620
34577
34659
34514
34622
34594
34689
34466
34580
34614
34696
34708
34893
34742
34643
34789
34761
34773
34726
34796
34785
34699
34609
34619
34608
34341
34510
34405
34372
34128
34235
34351
34196
33995
34055
34091
33873
33808
33900
33764
33593
33684
33847
33622
33447
33581
33565
33486
33499
33460
33652
33536
33429
33533
33535
33329
33505
33554
33420
33402
33485
33618
33389
33519
33539
33561
33540
33575
33640
33681
33546
33676
33603
33710
33760
33826
33886
33808
33670
33798
33815
33831
33702
33943
33970
33724
33812
34025
33857
33683
33799
33782
33905
33785
33860
33846
33832
33890
34006
33920
33869
34037
34064
34166
34099
34138
34261
34152
34066
34101
34153
34025
34228
34064
34162
34177
34000
34161
34152
34178
34119
34224
34225
34138
34251
34200
34158
34210
34277
34249
34301
34229
34255
34358
34147
34301
34383
34327
34375
34387
34316
34329
34294
34396
34458
34364
34320
34462
34455
34217
34459
34500
34475
34351
34426
34583
34520
34353
34612
34546
34554
34346
34698
34551
34386
34576
34630
34540
34504
34652
34551
34519
34603
34438
34388
34462
34369
34254
34149
34259
34000
34045
34035
33880
33846
33731
33731
33564
33568
33470
33520
33582
33534
33497
33477
33306
33527
33395
33184
33375
33315
33322
33238
33223
33334
33105
33191
33337
33319
33224
33188
33244
33230
33095
33263
33451
33340
33406
33470
33467
33424
33520
33556
33598
33553
33548
33669
33536
33410
33692
33784
33623
33620
33629
33797
33612
33730
33700
33735
33570
33645
33849
33730
33607
33727
33628
33733
33599
33780
33778
33805
33829
33882
33942
33855
33754
33756
33996
33829
33963
33992
33854
33730
33958
33917
34068
33831
34084
34035
34027
34132
34226
34276
34028
34074
34156
34121
34089
34189
34116
34309
34352
34238
34376
34201
34143
34397
34320
34231
34327
34467
34426
34434
34463
34359
34422
34354
34543
34639
34507
34388
34566
34489
34357
34460
34665
34484
34535
34632
34581
34535
34481
34512
34698
34587
34713
34553
34520
34544
34671
34670
34666
34452
34632
34585
34624
34658
34615
34535
34512
34184
34284
34316
34218
34056
33951
33938
33697
33803
33758
33662
33442
33535
33471
33448
33305
33461
33375
33260
33305
33174
33217
33083
33143
33308
33124
33225
33217
33256
33108
32977
33167
33207
33096
33125
33015
33156
33191
33128
33248
33248
33246
33243
33109
33275
33227
33361
33291
33384
33318
33337
33412
33267
33362
33388
33382
33382
33413
33517
33394
33415
33445
33362
33288
33406
33458
33415
33289
33408
33531
33463
33404
33338
33286
33361
33437
33395
33489
33398
33346
33617
33538
33531
33457
33613
33597
33627
33660
33750
33560
33743
33720
33693
33741
33709
33796
33658
33776
33765
33933
33829
33832
33778
33793
33788
33700
33912
33850
33922
33855
33915
33892
33795
33912
34091
34060
34069
34087
34325
34141
34173
34118
34274
34204
34090
34292
34132
34147
34194
34175
34300
34073
34236
34403
34217
34194
34352
34351
34355
34342
34382
34575
34333
34426
34604
34532
34497
34559
34464
34510
34575
34500
34442
34414
34480
34341
34216
34268
34140
34071
34001
34048
33829
33940
33669
33492
33619
33481
33453
33241
33402
33236
33163
33156
33030
33071
33038
32940
32871
32915
32780
32858
32839
32805
32864
32870
32783
32767
32791
32640
32669
32734
32717
32722
32697
32763
32809
32776
32749
32619
32724
32836
32864
32929
32740
32996
32772
32844
32990
32838
32764
32862
32898
32973
32872
32923
32811
33045
32971
32923
32909
32972
32949
33078
33009
32965
32984
32974
33029
32950
33119
32977
33109
33122
33112
33004
33138
33004
33172
33179
33141
33218
33083
33223
33163
33324
33235
33339
33341
33410
33465
33198
33393
33560
33377
33439
33402
33562
33478
33548
33495
33526
33557
33432
33545
33636
33539
33514
33644
33651
33473
33637
33685
33696
33602
33705
33664
33733
33640
33651
33868
33702
33804
33624
33757
33758
33804
33737
33818
33629
33877
33758
33891
33844
33840
33756
33889
33739
34043
33989
33781
33817
33806
33853
33793
33827
33744
33849
33678
33829
33798
33616
33411
33613
33408
33188
33187
33013
33096
32906
32949
32859
32756
32713
32704
32562
32516
32503
32423
32569
32312
32358
32450
32436
32464
32366
32456
32413
32155
32214
32470
32368
32137
32346
32338
32368
32212
32350
32312
32193
32265
32539
32477
32451
32567
32357
32342
32470
32575
32588
32645
32548
32751
32673
32464
32714
32616
32671
32723
32723
32587
32588
32693
32631
32731
32680
32607
32823
32661
32556
32653
32528
32661
32668
32779
32853
32808
32652
32855
32889
32702
32668
32763
32804
32924
32768
32768
32936
32724
32895
32932
32903
32768
32991
32957
33036
32979
32983
32916
32934
33179
33211
33027
33054
33152
33216
33173
33121
33243
33257
33218
33106
33304
33232
33213
33289
33431
33348
33295
33428
33469
33371
33367
33421
33450
33429
33411
33464
33442
33510
33504
33524
33509
33519
33554
33500
33547
33666
33618
33654
33549
33688
33785
33633
33579
33801
33833
33746
33752
33722
33824
33856
33769
33884
33822
33773
33785
33789
33772
33628
33653
33577
33494
33211
33211
33176
32991
33062
32961
32928
32771
32645
32729
32611
32588
32537
32499
32460
32407
32450
32417
32375
32287
32395
32505
32393
32373
32354
32411
32190
32370
32273
32323
32411
32365
32453
32327
32359
32475
32504
32457
32502
32618
32592
32609
32601
32708
32706
32717
32733
32822
32722
32881
32926
32747
32775
32695
32853
32936
32738
32804
32904
32869
32774
32853
32879
32846
32801
32882
32834
32851
32738
32874
32807
32815
32808
32905
32878
32769
32855
33038
32857
32749
32856
32834
32913
32721
33012
32917
32800
32837
33067
33022
32814
33049
32974
33068
32866
33189
32980
33027
32893
33188
33146
33025
32989
33295
32987
32983
33160
33333
33220
33167
33175
33380
33275
33222
33327
33421
33166
33354
33368
33370
33363
33164
33362
33386
33266
33390
33506
33266
33274
33325
33344
33377
33355
33439
33585
33471
33454
33560
33460
33458
33478
33455
33481
33336
33526
33603
33477
33404
33516
33445
33228
33254
33140
33153
33130
32975
33054
32803
32816
32771
32507
32470
32318
32491
32422
32309
32148
32297
32209
32148
32153
32197
32084
32032
32117
31975
31990
32068
32118
32084
31974
31960
32042
32031
32073
32122
31995
32121
31954
32204
32290
32236
32043
32345
32373
32208
32138
32309
32252
32372
32441
32406
32462
32511
32502
32512
32487
32479
32516
32482
32529
32475
32493
32499
32475
32520
32512
32482
32460
32537
32547
32530
32503
32552
32528
32530
32553
32791
32708
32579
32747
32751
32584
32674
32701
32674
32654
32763
32791
32863
32728
32731
32840
32769
32780
32925
32874
32883
32865
33002
32920
32876
32890
32979
32867
33070
33042
33050
33071
32935
32994
33065
33101
33020
33084
33099
33142
33039
33178
33120
33116
33105
33209
33178
33205
33157
33282
33213
33145
33169
33240
33237
33165
33344
33439
33306
33354
33379
33341
33374
33434
33210
33436
33247
33330
33444
33432
33461
33375
33524
33407
33471
33540
33541
33453
33413
33610
33481
33493
33460
33523
33282
33025
33134
33024
32964
32767
32904
32719
32445
32478
32315
32224
32136
32201
32100
32101
32018
32072
32042
32023
31815
31822
31714
31850
31812
31756
31741
31662
31775
31709
31757
31626
31696
31816
31694
31573
31711
31789
31678
31730
31741
31764
31810
31826
31931
31903
31750
31980
32025
31999
31964
32011
31942
32042
31928
32104
32243
32065
32015
32220
32229
32167
32234
32236
32097
32144
32111
32164
32118
32177
32220
32137
32087
32131
32092
32219
32095
32207
32409
32234
32235
32353
32430
32323
32381
32335
32419
32426
32312
32525
32423
32509
32495
32379
32492
32399
32614
32594
32607
32464
32666
32719
32634
32666
32603
32728
32558
32695
32663
32855
32806
32890
32903
32818
32788
33010
32888
32914
32974
32859
32973
32822
33028
32984
33022
33061
33009
33102
33189
32924
33188
33025
33115
33252
33293
33324
33119
33114
33147
33136
33123
33280
33445
33370
33364
33292
33329
33376
33195
33467
33381
33285
33432
33460
33457
33477
33486
33574
33479
33472
33560
33557
33395
33384
33368
33342
33268
33108
33131
32925
32899
32791
32575
32495
32455
32465
32259
32171
32310
32295
32267
31965
32072
32122
32112
31944
32020
31956
31953
31812
31957
31818
31923
31715
31947
31720
31704
31730
31740
31943
31810
31765
31917
31746
31914
31831
31765
31879
31893
31963
31963
31902
32009
32111
32028
32073
32073
32116
32136
32034
32152
32234
32170
32168
32181
32286
32131
32067
32298
32265
32044
32137
32194
32106
32104
32107
32203
32278
32075
32350
32212
32268
32320
32215
32438
32154
32353
32404
32291
32184
32426
32303
32368
32401
32519
32375
32510
32417
32462
32548
32616
32542
32682
32635
32689
32701
32538
32718
32784
32673
32589
32810
32558
32886
32772
32860
32838
32939
32901
32797
32770
32788
32865
32704
32865
32837
32849
32923
32912
33075
32918
32944
32849
33013
33027
33081
33191
33102
33118
33104
32985
33049
33094
33212
33200
33040
33145
33084
33202
33131
33209
33080
33163
33139
33346
33428
33372
33337
33285
33376
33260
33422
33465
33288
33355
33240
33184
33288
33047
33181
32965
32991
32931
32790
32558
32529
32344
32575
32281
31998
32137
32207
32058
31986
32036
31841
31822
31834
31911
31764
31851
31698
31817
31772
31548
31733
31666
31714
31517
31763
31610
31671
31618
31817
31680
31644
31573
31777
31757
31719
31758
31906
31744
31702
31836
32039
32003
31936
31962
32020
31958
32064
32068
31991
32087
32208
32215
32061
32195
32240
32230
32255
32154
32177
32204
32118
32065
32252
32212
32143
32189
32262
32240
32173
32288
32206
32231
32291
32291
32393
32354
32257
32311
32475
32523
32450
32352
32537
32380
32466
32577
32649
32717
32523
32771
32621
32736
32631
32767
32736
32557
32645
32825
32731
32773
32806
32782
32646
32936
32941
32885
32697
32773
32914
32859
32896
32955
32906
32971
32869
32869
32936
32835
33057
32835
33057
33087
33000
33107
32993
32938
33219
33102
32953
33108
33118
33125
32956
33091
33112
33087
33130
33201
33231
33122
33124
33209
33250
33089
33243
33367
33228
33089
33236
33358
33240
33345
33432
33250
33260
33428
33476
33451
33269
33313
33478
33325
33095
33285
33012
32934
32805
32797
32830
32628
32477
32434
32422
32371
32217
32220
32187
31924
32120
31931
31915
31833
31796
31791
31849
31777
31751
31896
31797
31690
31920
31833
31704
31767
31804
31824
31750
31713
31682
31668
31800
31789
31818
31694
31839
31761
31906
31987
31933
32131
32054
31870
32090
32209
31999
31960
32321
32052
32226
32216
32198
32248
32182
32275
32426
32338
32142
32364
32419
32344
32418
32440
32441
32315
32239
32409
32397
32432
32398
32535
32487
32478
32508
32565
32359
32453
32485
32395
32584
32670
32559
32666
32485
32755
32672
32615
32825
32679
32595
32825
32642
32860
32779
32879
32839
32904
32911
32857
32925
32895
32932
32822
33055
32899
32920
33072
33018
33036
33011
33065
33172
33109
32974
33078
33094
33177
33041
33225
33227
33358
33137
33314
33389
33372
33309
33392
33437
33234
33341
33475
33450
33245
33482
33587
33341
33365
33432
33659
33407
33616
33519
33652
33401
33567
33736
33573
33416
33568
33775
33611
33767
33590
33844
33729
33691
33804
33737
33728
33726
33591
33686
33514
33597
33580
33345
33370
33301
33261
33078
32795
32841
32687
32485
32531
32398
32369
32184
32286
32381
32135
32004
32221
32028
32108
31935
32027
32150
32033
32034
32144
31895
32010
31998
31950
32012
31869
31962
31993
32004
31860
32018
32157
31933
31892
32209
32154
31973
32134
32092
32170
32245
32297
32355
32310
32253
32380
32374
32348
32377
32382
32405
32277
32410
32330
32418
32249
32398
32485
32497
32426
32495
32539
32485
32470
32354
32583
32530
32507
32378
32538
32311
32483
32534
32514
32397
32696
32772
32675
32672
32677
32727
32460
32624
32878
32770
32502
32679
32694
32861
32791
32916
32785
32776
32854
32840
32947
32722
32953
33156
32948
33004
32976
33101
32991
32929
33069
32948
33070
33071
33140
33095
33143
33120
33271
33162
33080
33182
33213
33218
33271
33211
33093
33234
33213
33260
33170
33350
33310
33226
33244
33309
33214
33342
33352
33213
33272
33491
33245
33308
33462
33458
33300
33359
33579
33446
33518
33511
33404
33494
33569
33489
33626
33479
33431
33608
33566
33465
33489
33491
33527
33268
33477
33416
33330
33151
33080
33045
33061
32692
32774
32697
32565
32459
32326
32343
32191
32093
32086
31992
32110
31976
32006
32020
31714
32026
31923
31799
31880
31718
31895
31616
31791
31694
31788
31717
31762
31778
31719
31793
31787
31790
31708
31668
31829
31736
31872
31901
31991
31810
31970
32024
31886
31955
32116
32027
32233
32183
32259
32153
32249
32039
32223
32219
32194
32170
32295
32134
32199
32064
32328
32260
32256
32212
32331
32310
32260
32248
32317
32324
32298
32319
32334
32336
32309
32436
32428
32445
32292
32358
32476
32300
32360
32638
32523
32427
32500
32599
32561
32486
32568
32498
32533
32700
32682
32791
32638
32661
32790
32791
32761
32695
32715
32733
32762
32873
32871
32758
32868
32904
32976
32856
32867
32996
33022
32822
32978
32883
33085
32825
32986
33082
33099
32965
33015
33110
33114
32990
33120
33103
33037
33120
33094
33165
33051
33206
33189
33185
33116
33262
33243
33277
33180
33321
33283
33292
33250
33232
33377
33422
33239
33397
33286
33336
33496
33553
33298
33464
33345
33344
33370
33466
33363
33278
33104
33309
33286
33176
32878
32850
32916
32634
32730
32587
32437
32210
32288
32403
32254
32185
32121
32169
32081
31981
31960
31879
32009
31757
32055
32052
31965
31941
32022
31972
31903
31957
31828
31928
31868
31884
31891
31987
31799
31981
32010
31829
31901
32067
32026
31943
32086
32077
32198
32270
32232
32328
32158
32253
32444
32281
32206
32469
32487
32454
32279
32364
32344
32515
32460
32503
32498
32442
32362
32503
32530
32365
32347
32358
32458
32344
32476
32634
32517
32425
32628
32655
32565
32424
32621
32644
32646
32620
32793
32744
32564
32689
32714
32734
32682
32833
32871
32808
32832
32932
32987
32741
32724
32865
32985
32788
33018
32899
32967
32900
33039
32884
33074
32965
33115
32906
32942
32891
33057
33113
33109
33096
33138
33078
33200
33178
33213
33042
33141
33070
33335
33119
33120
33221
33263
33174
33225
33256
33291
33034
33262
33171
33237
33196
33271
33390
33229
33219
33399
33313
33228
33334
33259
33452
33415
33405
33542
33464
33323
33481
33407
33405
33300
33359
33261
33206
33221
33235
33169
32970
32928
33005
32786
32587
32604
32486
32404
32242
32374
32176
32232
32091
32019
32090
31978
31981
31888
31988
32065
31998
31878
31913
32007
31890
31923
31871
31916
32106
31859
31863
31944
32029
32035
32037
31983
31949
31873
31912
31949
32132
32026
32158
32174
32279
32119
32204
32289
32272
32334
32372
32434
32369
32260
32406
32370
32406
32355
32478
32379
32383
32430
32313
32389
32340
32367
32446
32386
32396
32468
32390
32408
32375
32354
32352
32320
32475
32633
32519
32594
32483
32487
32592
32660
32550
32726
32535
32569
32640
32630
32550
32620
32759
32653
32723
32709
32685
32843
32922
32953
32716
32763
32908
32935
32899
32933
32921
33092
32913
32903
32948
32861
32957
32842
33062
33039
33033
32991
33050
33120
32974
33099
33036
33147
33159
33190
33170
33178
33162
33275
33276
33199
33230
33166
33182
33194
33170
33423
33297
33205
33221
33413
33216
33361
33288
33426
33463
33327
33404
33270
33343
33468
33491
33458
33443
33504
33358
33531
33521
33461
33530
33466
33338
33442
33328
33269
33080
33051
32941
32720
32730
32656
32589
32393
32369
32462
32161
32170
32221
32048
31995
31862
31876
31939
31902
31801
31929
31879
31871
31749
31730
31787
31719
31755
31900
31708
31714
31685
31667
31623
31690
31805
31783
31804
31729
31931
31735
31847
31846
31862
31891
31869
32109
31960
32005
32006
32036
32088
31893
32103
32162
32133
32057
32126
32065
32059
31977
32163
32160
32208
32071
32137
32098
31982
32235
32230
32112
32191
32079
32056
32108
32312
32169
32269
32100
32279
32283
32305
32379
32265
32343
32459
32217
32424
32298
32331
32392
32537
32506
32383
32412
32628
32521
32486
32546
32658
32479
32595
32574
32564
32617
32525
32590
32578
32681
32663
32713
32775
32680
32801
32782
32788
32662
32915
32926
32715
32919
32805
32742
32740
33002
32814
32898
32894
32883
33128
32924
32996
32923
32915
32992
33016
33099
33062
33073
32897
33220
33100
33043
33101
33027
33115
33206
33150
33081
33067
33188
33254
33161
33212
33271
33430
33260
33344
33280
33260
33229
33064
33164
33260
32950
32818
32906
32673
32687
32427
32676
32607
32332
32375
32350
32192
32202
32151
32146
31990
31823
31895
31762
31790
31940
31910
31791
31805
31796
32010
31804
31699
31791
31889
31848
31736
31886
31753
31762
31757
31837
31828
31678
31832
31911
31908
31962
31975
32061
31983
32036
32004
32106
32146
32000
32306
32124
32257
32196
32361
32275
32154
32213
32182
32306
32314
32188
32387
32335
32082
32165
32295
32066
32135
32137
32256
32047
32220
32306
32171
32083
32214
32428
32396
32374
32398
32264
32403
32434
32542
32428
32444
32384
32459
32436
32270
32453
32419
32476
32376
32575
32519
32524
32604
32674
32544
32406
32613
32661
32671
32662
32765
32712
32755
32728
32886
32963
32670
32896
32959
32890
32807
32890
32764
32956
32953
32998
32840
32901
32869
32904
32926
33071
33022
33016
33180
33119
33047
33034
33149
33170
33179
33014
33114
32974
33222
33257
33269
33215
33212
33355
33227
33255
33484
33333
33314
33395
33473
33321
33423
33269
33431
33331
33066
33307
32993
32899
32973
32976
32839
32806
32608
32547
32542
32422
32395
32435
32259
32317
32349
32268
32121
32201
32225
32183
31987
32103
31983
32007
32048
32043
32138
32100
32052
32005
32057
32031
31989
32193
32038
32066
32110
31968
32059
32083
32176
32057
32153
32228
32370
32213
32180
32326
32492
32415
32352
32363
32449
32508
32397
32522
32661
32595
32611
32623
32456
32457
32344
32479
32494
32470
32512
32582
32585
32505
32597
32473
32610
32438
32506
32637
32565
32466
32687
32674
32544
32673
32622
32686
32782
32775
32708
32768
32667
32785
32857
32828
32777
32855
32884
32833
32989
32927
32877
32995
32972
32912
33043
32850
33033
33095
33056
33172
33063
33157
33223
33150
33258
33146
33263
33151
33210
33307
33296
33332
33211
33370
33350
33447
33476
33185
33287
33494
33414
33375
33398
33409
33486
33446
33537
33444
33444
33441
33611
33548
33393
33549
33492
33592
33588
33629
33779
33722
33731
33815
33681
33814
33675
33737
33570
33684
33846
33897
33816
33666
33568
33520
33514
33446
33368
33382
33359
33103
33171
33044
32833
32934
33061
32854
32797
32834
32840
32736
32682
32662
32696
32548
32484
32582
32529
32445
32423
32643
32492
32473
32449
32539
32456
32382
32452
32514
32380
32391
32542
32564
32529
32429
32677
32618
32466
32681
32728
32572
32521
32703
32693
32776
32653
32765
32750
32923
32955
33050
32826
32937
32825
33005
32868
32909
33026
32919
32863
32723
33002
32822
32871
32857
33073
32900
32990
32934
33065
32993
33030
32974
33145
33107
32957
33083
33133
33047
33059
33143
33160
33116
33145
33237
33187
33179
33343
33423
33333
33119
33392
33382
33281
33274
33574
33532
33351
33451
33656
33570
33464
33574
33658
33594
33618
33529
33596
33469
33678
33599
33517
33588
33539
33812
33603
33472
33760
33778
33664
33585
33777
33845
33743
33626
33744
33785
33817
33758
33724
33798
33835
33895
33847
33867
33924
33965
34048
33967
33809
33940
33909
33919
33868
34143
34113
33960
34101
34108
34179
34033
34147
34232
34191
33959
34096
34265
33946
33978
34107
33893
33638
33790
33868
33615
33643
33599
33599
33360
33303
33403
33285
33085
33159
33246
33089
33106
33000
33126
32937
33002
32984
32798
32820
32883
32974
32944
32861
32895
32765
32915
32665
32779
32714
32759
32847
32931
32916
32855
32774
32831
32941
32922
32825
32951
32998
32937
33066
32974
33028
32871
33039
33278
33068
33059
33300
33157
33164
33174
33155
33286
33194
33184
33409
33151
33278
33262
33266
33256
33077
33255
33315
33241
33413
33355
33308
33366
33340
33448
33407
33391
33424
33438
33398
33269
33526
33599
33446
33561
33478
33400
33405
33460
33456
33551
33524
33541
33715
33584
33535
33714
33807
33570
33727
33638
33731
33723
33708
33686
33759
33856
33797
33801
33847
33819
33829
33796
33855
33791
33958
33948
33813
33889
33991
33960
33913
34007
33914
34016
34062
34010
34230
34068
34065
34244
34189
34220
34203
34129
34116
34115
34244
34384
34177
34213
34387
34284
34328
34187
34413
34492
34462
34474
34399
34430
34356
34417
34378
34401
34442
34466
34364
34333
34196
34365
34277
34269
34160
34005
33992
33948
33856
33718
33748
33517
33668
33636
33540
33480
33393
33507
33246
33198
33228
33095
33152
33132
33292
33130
33003
33044
33200
33086
32919
33052
32987
33076
33027
33088
33140
33039
33031
33205
33124
32911
33033
33108
33202
33125
33095
33086
33138
33309
33211
33194
33137
33298
33232
33339
33264
33325
33594
33477
33317
33338
33320
33428
33351
33528
33485
33482
33460
33399
33434
33509
33461
33601
33479
33410
33445
33368
33487
33449
33605
33685
33470
33547
33636
33595
33597
33655
33703
33729
33600
33660
33659
33669
33682
33821
33637
33778
33718
33923
33732
33655
33802
33946
33749
33719
33933
33932
33873
33884
33988
34096
33961
33970
33860
33903
33954
34041
34139
34015
33913
34042
34088
34136
33966
34120
34079
34173
34076
34208
34236
33974
34162
34345
34213
34076
34175
34229
34171
34056
34297
34379
34304
34386
34194
34210
34247
34304
34402
34303
34370
34435
34253
34397
34404
34400
34378
34299
34439
34437
34503
34287
34358
34511
34317
34261
34260
34109
34048
34092
34015
33839
33765
33763
33650
33620
33391
33570
33346
33372
33219
33337
33223
33247
33039
33186
33019
33149
33152
33219
32918
32842
33057
32976
33058
33027
33057
32998
32895
32905
32892
32907
33014
32941
33086
33033
33090
33015
33013
33045
33082
33113
33019
33102
33034
33220
33303
33203
33208
33214
33285
33188
33241
33374
33308
33176
33286
33332
33258
33190
33383
33267
33399
33218
33441
33458
33374
33186
33486
33287
33290
33380
33340
33329
33426
33410
33363
33342
33391
33428
33509
33428
33389
33453
33586
33580
33571
33602
33635
33553
33678
33536
33610
33564
33687
33730
33713
33715
33685
33759
33665
33824
33721
33839
33643
33851
33790
33883
33679
33971
33901
33942
34007
34010
34001
33915
33896
34028
34050
33892
33940
33988
34015
33996
33994
34184
33914
33981
34150
34222
33974
34030
34190
34129
34140
34209
34160
34195
34112
34198
34122
34260
34145
34382
34301
34252
34280
34217
34306
34291
34333
34320
34339
34186
34425
34308
34376
34305
34474
34316
34412
34382
34182
34309
34202
34057
34208
34082
33938
33850
33694
33644
33760
33727
33448
33376
33528
33382
33363
33252
33316
33371
33257
33099
33137
33182
33064
32998
33148
33030
32938
32999
33080
32983
32787
32976
33017
33053
32810
33012
33064
32897
32804
33137
33011
33089
33090
33102
33110
33164
33162
33261
33184
33200
33230
33197
33334
33399
33404
33446
33402
33270
33247
33405
33357
33358
33417
33416
33368
33326
33230
33283
33312
33422
33428
33364
33326
33395
33387
33190
33416
33368
33355
33398
33368
33293
33334
33297
33543
33557
33335
33552
33560
33540
33472
33487
33419
33533
33452
33657
33733
33541
33442
33703
33757
33649
33493
33618
33779
33756
33762
33912
33782
33560
33777
33774
33757
33741
33837
33766
33744
33814
34018
33772
33792
33885
33994
33853
33771
33945
34031
33949
33799
34037
33985
34075
34039
34023
34007
34103
34103
34255
34114
34150
34093
34047
34105
34163
34247
34361
34242
34082
34290
34385
34330
34340
34244
34379
34182
34335
34452
34384
34252
34405
34343
34313
34091
34192
34238
34159
34099
34074
33919
33659
33688
33833
33628
33478
33384
33438
33211
33220
33241
33044
33161
32892
33085
32949
32745
32879
33046
32874
32803
32842
32819
32815
32739
32764
32833
32658
32667
32695
32731
32656
32650
32795
32616
32526
32660
32908
32649
32736
32763
32884
32812
32909
32805
32994
32901
33036
33113
32900
32848
33081
32944
33116
32895
33041
33136
33007
32955
33118
33176
33113
33054
33119
33056
32967
33175
33171
33078
32960
33194
33208
33203
33186
33193
33178
33173
33206
33131
33249
33042
33282
33338
33304
33225
33271
33259
33202
33371
33311
33437
33323
33429
33335
33334
33514
33378
33544
33559
33325
33618
33689
33425
33620
33703
33710
33544
33497
33736
33728
33619
33673
33748
33760
33507
33779
33594
33691
33625
33826
33760
33656
33709
33867
33804
33778
33820
33783
33845
33770
33863
33907
33891
33836
33887
33927
33750
33855
34013
33976
33921
34051
34094
34040
33850
34092
34059
34149
34008
34024
33964
34069
33950
34035
34122
34118
34218
34030
34155
33953
34200
34094
33941
34036
33870
33687
33764
33614
33746
33433
33333
33263
33187
33258
33041
33091
32892
32892
32797
32901
32790
32676
32650
32779
32682
32468
32611
32645
32568
32547
32576
32588
32554
32442
32619
32512
32453
32452
32468
32618
32596
32475
32462
32663
32617
32615
32669
32527
32748
32741
32846
32636
32671
32792
32790
32810
32877
32836
32870
32831
32963
32887
32870
32790
32918
32990
32868
32926
32991
32949
32997
32964
32978
33021
32872
33058
32979
32958
32947
33082
33014
33020
32908
33060
33053
33167
33041
33199
33144
33112
33219
33262
33218
33224
33289
33364
33299
33359
33374
33269
33338
33399
33471
33409
33474
33496
33518
33432
33577
33651
33681
33585
33548
33613
33648
33719
33793
33804
33726
33570
33644
33711
33797
33753
33812
33804
33904
33682
33925
33858
33687
33798
33974
33874
33779
33908
33928
33941
33850
33964
33940
33966
33932
34022
34009
34016
33977
33965
34060
34082
33997
34224
34029
34083
34163
34065
34113
34159
34166
34321
34184
34198
34312
34138
34282
34180
34199
34091
34064
34077
34017
33900
33763
33716
33626
33503
33334
33522
33323
33027
33201
33139
33083
32883
32997
33021
32878
32866
32779
32709
32607
32631
32694
32807
32521
32588
32812
32618
32563
32716
32724
32525
32613
32771
32773
32657
32563
32619
32649
32682
32627
32567
32680
32603
32783
32770
32784
32804
32842
32908
32887
32870
33049
32936
32882
32934
33009
32999
32822
32998
32944
32944
33059
32974
33123
32911
32809
32978
33140
32862
33072
33116
32950
32916
33045
33217
33091
33043
33056
33185
33198
33097
33180
33105
33215
33139
33375
33197
33038
33254
33454
33311
33380
33381
33233
33311
33279
33474
33358
33224
33384
33370
33459
33381
33535
33648
33593
33491
33534
33545
33475
33566
33687
33543
33561
33604
33700
33638
33643
33684
33696
33730
33514
33652
33832
33662
33683
33835
33787
33758
33660
33898
33757
33809
33775
33726
33834
33702
33847
33867
33819
33800
34033
33955
33888
34036
34068
34037
33992
34013
34004
33971
33856
34050
34163
34027
33942
34085
34091
34009
34089
33934
33912
33849
33741
33616
33653
33503
33353
33490
33110
33055
32974
33088
32821
32913
32697
32696
32562
32691
32514
32474
32365
32494
32548
32545
32295
32381
32623
32459
32289
32493
32430
32212
32394
32366
32320
32326
32463
32552
32302
32322
32395
32305
32482
32397
32621
32529
32522
32584
32491
32628
32487
32702
32776
32615
32650
32774
32933
32692
32642
32795
32733
32774
32742
32920
32805
32642
32858
32744
32756
32817
32793
32861
32805
32656
32825
32918
32787
32844
32775
32840
32684
32949
32833
32841
32872
33064
33038
32895
33055
32978
33052
33071
33068
33012
33148
33000
33145
33187
33113
33207
33314
33133
33279
33141
33239
33156
33181
33159
33395
33279
33346
33420
33396
33381
33366
33499
33522
33316
33168
33439
33540
33412
33392
33480
33533
33413
33458
33661
33511
33552
33489
33617
33452
33397
33494
33546
33507
33542
33531
33593
33650
33591
33640
33635
33567
33696
33698
33565
33588
33671
33630
33611
33663
33885
33643
33606
33763
33819
33764
33818
33704
33657
33774
33665
33543
33486
33466
33416
33189
33168
33119
32972
32802
32799
32692
32658
32743
32514
32465
32521
32507
32447
32428
32250
32243
32255
32203
32244
32194
32051
32171
32145
32153
32065
32296
32197
32107
32136
32194
32163
32154
32150
32098
32204
32043
32235
32340
32268
32243
32310
32314
32385
32389
32534
32480
32347
32547
32643
32476
32576
32568
32722
32705
32651
32655
32683
32553
32642
32737
32515
32710
32740
32784
32653
32546
32748
32566
32757
32637
32813
32891
32684
32783
32867
32954
32819
32791
32742
32892
32735
32873
33043
32957
32893
33010
33082
33008
33041
33147
33090
33189
33108
33236
33111
33189
33192
33317
33200
33034
33241
33209
33283
33186
33250
33330
33186
33214
33364
33556
33430
33431
33512
33483
33413
33598
33679
33514
33492
33609
33504
33509
33491
33529
33724
33432
33722
33636
33675
33734
33725
33656
33691
33523
33680
33739
33760
33760
33899
33709
33672
33741
33829
33774
33682
33846
33779
33865
33941
33796
33806
33850
33862
33860
33968
33792
33898
34064
33854
33792
33874
33900
33605
33687
33650
33478
33389
33273
33294
32979
33013
32934
32765
32743
32488
32612
32769
32466
32454
32508
32364
32512
32524
32502
32454
32352
32403
32432
32414
32278
32365
32445
32296
32300
32300
32440
32357
32345
32485
32333
32393
32458
32312
32349
32425
32426
32593
32552
32483
32597
32531
32553
32557
32783
32753
32604
32650
32724
32600
32694
32748
32866
32568
32510
32705
32807
32596
32676
32812
32662
32592
32656
32621
32695
32484
32754
32665
32704
32760
32790
32887
32713
32789
32820
32887
32781
32845
32793
32913
32734
32881
33054
32982
33053
32985
33015
33111
33137
33134
33250
33142
33182
33086
33152
33023
33140
33178
33280
33106
33302
33168
33130
33254
33319
33148
33248
33411
33401
33361
33348
33386
33419
33352
33281
33394
33505
33331
33339
33494
33406
33362
33434
33368
33482
33312
33478
33423
33513
33323
33536
33654
33636
33395
33716
33762
33639
33590
33727
33726
33559
33732
33693
33753
33750
33692
33716
33705
33726
33687
33485
33421
33262
33280
33258
33153
32970
32966
32840
32824
32695
32689
32637
32248
32516
32311
32366
32194
32195
32211
32217
32173
32088
32107
32095
32110
32059
32049
31991
32065
32043
32020
31999
32028
32008
31915
32055
32204
32080
31977
32016
32023
32149
32140
32207
32013
32282
32282
32306
32399
32104
32357
32460
32459
32258
32336
32379
32533
32323
32482
32537
32412
32306
32448
32429
32491
32376
32466
32516
32318
32540
32395
32469
32581
32539
32627
32468
32489
32521
32592
32492
32557
32741
32641
32590
32659
32665
32659
32614
32776
32718
32729
32747
32866
32871
32634
32847
32736
32833
32898
32903
33051
32960
32810
33025
32967
32985
32738
32927
33119
32878
32867
33130
32963
32921
32962
33028
32990
33141
33200
33105
32999
33130
33132
33320
33146
33110
33128
33103
33089
33142
33347
33354
33148
33284
33168
33229
33378
33287
33209
33186
33213
33410
33471
33352
33441
33578
33442
33396
33434
33484
33466
33444
33549
33502
33464
33492
33637
33458
33291
33351
33435
33369
33267
33175
33157
32957
32874
32926
32573
32629
32514
32383
32328
32256
32243
32213
32261
32192
32138
32089
32114
32184
32044
32003
32006
32048
32076
32030
31848
32003
32082
32026
31873
32028
32004
31964
32019
32179
32088
31990
31968
32080
32165
32237
32271
32238
32309
32185
32383
32378
32348
32262
32430
32523
32509
32543
32570
32606
32531
32597
32564
32721
32537
32721
32799
32603
32467
32628
32711
32656
32572
32640
32683
32709
32638
32820
32710
32696
32703
32674
32725
32541
32715
32737
32700
32809
32840
32913
32787
32845
32974
32947
32836
32967
32795
32830
32703
33046
32829
32822
32779
32921
33117
32887
32984
33086
33077
32902
33036
33192
33136
32976
33141
33021
33176
33170
33162
33104
33014
33116
33076
33214
33114
33199
33101
33170
33199
33146
33265
33216
33142
33321
33182
33186
33251
33360
33319
33170
33289
33217
33317
33415
33422
33470
33269
33333
33402
33303
33487
33315
33571
33352
33452
33305
33300
33222
33257
33103
33069
32915
32833
32900
32909
32695
32498
32585
32370
32268
32310
32303
32209
32156
32191
32196
32094
32168
32126
32085
32036
32079
32146
32067
31863
32012
32214
32051
32088
32002
31973
31980
31995
32087
32034
31997
31944
32092
32297
32151
32127
32213
32306
32164
32388
32494
32432
32304
32362
32439
32420
32290
32450
32533
32534
32542
32684
32423
32319
32480
32635
32457
32317
32605
32605
32450
32617
32517
32601
32503
32575
32521
32535
32462
32663
32656
32684
32514
32732
32595
32671
32648
32646
32720
32656
32759
32900
32796
32708
32795
32854
32820
32870
32939
32981
32823
32964
32904
32971
32984
33063
33169
32970
33038
33030
33198
33014
33027
33098
33271
33048
33096
33289
33177
33010
33181
33159
33229
33194
33196
33427
33292
33328
33249
33400
33235
33377
33388
33404
33263
33398
33519
33411
33202
33455
33462
33430
33485
33377
33535
33389
33451
33449
33395
33481
33489
33694
33627
33623
33595
33658
33518
33367
33485
33401
33383
33273
33278
33220
32958
32759
32961
32753
32481
32626
32541
32502
32399
32380
32263
32224
32220
32295
32258
32083
32136
32264
32088
32148
32107
32190
32027
31985
32048
32113
31972
31890
32150
31939
31958
31920
32262
32011
32002
32154
32121
32166
32020
32211
32192
32334
32392
32343
32386
32482
32316
32663
32496
32439
32516
32526
32537
32462
32695
32776
32629
32585
32741
32676
32741
32613
32802
32714
32523
32691
32754
32749
32691
32733
32664
32806
32668
32895
32945
32825
32713
33026
32923
32962
32971
32914
32908
32784
33006
32966
33087
33089
33132
33055
33094
33006
33312
33255
33265
33122
33327
33343
33098
33230
33414
33254
33185
33454
33484
33425
33304
33529
33311
33478
33280
33582
33407
33296
33434
33492
33549
33542
33521
33698
33473
33482
33665
33646
33632
33610
33605
33619
33713
33633
33623
33677
33561
33704
33651
33655
33691
33801
33895
33680
33814
33888
33873
33839
33825
33761
33710
33657
33672
33517
33611
33262
33420
33487
33222
33085
33157
32937
33011
32864
32885
32789
32651
32732
32779
32715
32405
32571
32476
32415
32589
32705
32562
32360
32445
32415
32460
32252
32501
32467
32398
32460
32408
32460
32419
32433
32588
32491
32412
32535
32712
32603
32561
32716
32797
32687
32804
32720
32886
32831
32833
32782
32827
32750
32859
32893
33024
32785
33029
32942
32920
32760
32954
33103
32873
32837
32988
33020
33012
33036
33154
33068
32963
33071
33178
33058
32958
33125
33229
33074
33105
33314
33190
33078
33174
33382
33306
33146
33343
33281
33249
33277
33406
33511
33321
33480
33482
33396
33351
33434
33543
33483
33570
33546
33670
33685
33528
33637
33670
33607
33702
33757
33664
33669
33820
33746
33769
33819
33788
33974
33898
33697
33955
33896
33899
33740
34004
34098
33944
33833
34037
33971
33943
34073
34080
34044
33996
34060
34125
34078
34009
34158
34185
34018
34168
34100
34205
34168
34181
34093
34124
34016
34090
34075
33936
33831
33872
33813
33599
33609
33516
33538
33307
33411
33533
33238
33255
33151
33098
33059
33095
33163
33045
32994
32952
33050
33020
32767
32809
32889
32812
32794
32778
32745
32699
32809
32883
32725
32760
32733
32739
32797
32749
32844
32785
32850
32792
32940
32996
32980
32911
33049
33041
32972
33069
33147
33170
33178
33223
33107
33185
33284
33285
33367
33283
33170
33283
33389
33281
33206
33275
33227
33136
33245
33464
33342
33339
33394
33484
33423
33381
33415
33514
33472
33514
33564
33509
33440
33571
33739
33610
33431
33689
33827
33704
33757
33775
33772
33701
33698
33767
33793
33791
33773
33855
33980
33953
34029
33895
34009
34001
34118
33967
34145
33939
34034
34273
34097
34059
34193
34170
34183
34192
34297
34145
34060
34338
34157
34247
34315
34488
34342
34425
34322
34465
34405
34284
34471
34401
34471
34359
34475
34517
34570
34474
34577
34565
34523
34594
34689
34646
34579
34669
34749
34674
34474
34619
34540
34450
34419
34593
34574
34235
34440
34306
34277
34067
34160
34164
33919
33847
33863
33772
33917
33739
33736
33609
33698
33694
33679
33649
33537
33521
33455
33519
33513
33475
33647
33449
33401
33575
33412
33421
33417
33391
33344
33481
33408
33603
33436
33278
33479
33523
33481
33398
33524
33701
33652
33723
33706
33709
33652
33683
33748
33710
33690
33731
33721
33800
33809
33867
33724
33668
33636
33907
33790
33876
33801
33719
33837
33754
33848
33873
33852
33786
33942
33906
33873
33863
34052
33945
33861
34005
34132
34028
34051
34030
34151
33993
34019
34162
34143
34017
33961
34082
34115
34051
34219
34129
34324
34253
34354
34287
34375
34391
34278
34296
34266
34177
34536
34497
34170
34384
34400
34505
34437
34480
34421
34477
34554
34581
34642
34564
34597
34706
34665
34423
34563
34741
34549
34637
34598
34772
34705
34532
34657
34671
34683
34754
34886
34800
34774
34779
34754
34831
34750
34825
34737
34798
34623
34805
34792
34794
34674
34812
34726
34583
34608
34434
34432
34294
34389
34462
34210
34230
34111
34161
33942
33956
33979
33953
33788
33906
33943
33732
33669
33678
33882
33598
33591
33691
33664
33725
33517
33635
33721
33657
33583
33553
33596
33434
33577
33632
33538
33553
33725
33803
33756
33478
33670
33686
33809
33646
33723
33878
33806
33935
33968
33942
33837
33948
33862
33895
33825
34038
33946
34019
33917
33950
34002
33997
33924
33995
34066
33991
34087
34201
34100
34123
34037
34113
33945
34012
34010
33998
34096
34184
34318
34214
34271
34284
34127
34135
34118
34349
34281
34330
34299
34482
34332
34283
34357
34469
34395
34203
34409
34343
34502
34447
34551
34622
34442
34520
34586
34531
34521
34480
34590
34643
34649
34700
34792
34562
34637
34719
34618
34696
34548
34645
34683
34712
34715
34786
34730
34739
34804
34936
34810
34700
34920
34761
34771
34877
34987
34982
34951
34909
34983
34952
34755
34924
34943
35033
35031
34963
35139
35087
34962
35122
35153
34944
35013
34943
34935
34788
34717
34828
34740
34508
34636
34382
34403
34413
34364
34259
34318
34242
34182
34136
33884
34105
34196
33990
33798
33970
33993
33849
33799
33864
33866
33849
33752
33843
33745
33758
33766
33889
33773
33718
33776
33913
33794
33860
33862
33841
33681
33799
33723
33916
33818
33896
34016
34044
33984
33937
33995
33929
33894
34200
34008
34042
34103
34312
34152
34179
34138
34317
34162
34181
34203
34304
34184
34185
34235
34252
34175
34239
34215
34303
34130
34309
34221
34204
34296
34450
34357
34293
34447
34455
34448
34389
34533
34577
34479
34350
34600
34653
34633
34471
34625
34668
34708
34450
34572
34612
34674
34563
34820
34856
34669
34792
34842
34720
34616
34812
34812
34844
34673
34885
34845
34784
34825
34888
34922
34822
34946
34860
34996
34851
35042
35070
34927
34861
35126
35094
35061
35103
35120
35138
34940
35051
35220
35032
34975
35167
35258
35070
35227
35200
35212
35163
35256
35310
35340
35261
35223
35245
35134
35090
35236
35295
35104
35168
35219
35129
34974
34979
34954
34780
34717
34725
34549
34555
34611
34549
34604
34361
34124
34278
34243
34233
34090
34235
34145
33975
34083
34002
34011
34012
33984
34130
33939
33828
33971
33930
33790
33760
33854
33953
33759
33739
33983
33879
33770
33860
34011
33827
33765
33963
34021
33919
34007
34066
34164
33915
34020
34078
34139
34168
34190
34191
34188
34214
34205
34264
34124
34142
34322
34216
34223
34169
34286
34262
34056
34298
34305
34205
34356
34259
34431
34345
34139
34435
34401
34293
34428
34488
34405
34279
34497
34362
34500
34372
34567
34541
34471
34380
34578
34670
34437
34504
34595
34696
34627
34647
34592
34592
34529
34663
34739
34750
34630
34811
34760
34713
34784
34947
34818
34740
34808
34915
34843
34869
34888
34823
34922
34923
35029
34888
34937
34941
35107
34924
34872
34930
35014
35096
35013
35084
35000
35164
34992
35163
35064
35128
35201
35063
35227
35164
35064
35168
35230
35169
35311
35185
35306
35287
35347
35181
35207
35210
35330
35277
35028
35181
35255
35072
35004
35002
34864
34819
34787
34849
34802
34521
34603
34489
34592
34488
34412
34385
34293
34310
34201
34299
34127
33920
34231
34115
33984
34131
34103
33966
33816
33919
33960
34022
33866
33905
33885
33955
33891
33925
33906
33815
33746
33882
34033
34031
34008
34157
34053
33843
34111
33958
34081
34021
34124
34100
34203
34143
34255
34309
34286
34222
34381
34283
34232
34358
34208
34379
34128
34249
34346
34288
34329
34450
34223
34265
34403
34542
34452
34412
34427
34500
34383
34487
34601
34426
34557
34362
34652
34593
34481
34471
34650
34499
34596
34735
34650
34716
34592
34747
34743
34697
34617
34749
34692
34856
34790
34761
34850
34905
34880
35019
34934
34853
34971
35043
34982
34927
35058
35067
34974
35063
35095
35081
35009
35132
35273
35204
35052
35136
35348
35140
35253
35193
35241
35171
35210
35279
35370
35273
35232
35431
35421
35214
35381
35441
35356
35341
35487
35583
35379
35380
35511
35659
35351
35564
35674
35578
35484
35620
35720
35574
35503
35576
35586
35548
35482
35602
35533
35294
35401
35295
35316
35139
35251
35191
35139
35051
35113
34864
34962
34929
34922
34772
34704
34851
34778
34846
34575
34647
34748
34615
34497
34690
34680
34604
34663
34703
34580
34546
34458
34590
34532
34602
34534
34647
34560
34471
34634
34595
34530
34548
34662
34630
34555
34655
34797
34696
34752
34714
34646
34661
34782
34784
34919
34772
34683
34855
34894
34808
34793
34962
34877
34720
34845
34991
34739
34908
34896
35013
34861
34796
34938
34892
34968
34979
35120
35022
34826
35001
35072
34937
34928
35052
35099
34977
35098
35164
35174
35114
35052
35051
35153
34958
35135
35304
35189
35242
35194
35319
35203
35230
35320
35220
35180
35174
35460
35298
35209
35362
35414
35351
35208
35346
35372
35357
35353
35385
35386
35338
35325
35566
35418
35366
35410
35449
35588
35522
35558
35694
35579
35600
35702
35765
35640
35593
35775
35525
35468
35701
35622
35711
35587
35752
35711
35680
35593
35770
35776
35673
35718
35937
35800
35622
35825
35846
35799
35536
35762
35664
35704
35503
35597
35460
35478
35460
35483
35391
35231
35215
35263
35299
35190
35183
35118
35027
34941
35089
35097
35043
35011
34958
34951
34900
34831
34903
34759
34741
34775
34994
34728
34864
34815
34876
34815
34777
34913
34794
34684
34812
34963
34791
34674
34806
34819
34929
34834
35038
34980
34938
34817
35045
34927
34953
34936
35028
35094
34933
35064
34972
35069
35090
35136
35008
34981
35025
35144
35019
34896
35158
35256
35080
34951
35169
35069
35139
34967
35162
35096
35204
35175
35214
35328
35074
35215
35164
35249
35085
35275
35443
35292
35136
35353
35412
35350
35204
35384
35280
35383
35396
35383
35375
35455
35448
35353
35342
35294
35462
35538
35412
35457
35615
35672
35414
35544
35665
35515
35367
35522
35740
35605
35413
35582
35651
35695
35660
35647
35686
35537
35623
35643
35718
35614
35730
35786
35740
35629
35816
35663
35685
35632
35760
35787
35803
35763
35919
35799
35722
35911
35843
35892
35742
35846
36011
35823
35725
35896
35922
35810
35967
35853
35987
35671
35830
35684
35680
35682
35778
35719
35660
35631
35607
35579
35324
35410
35473
35346
35198
35245
35358
35101
35214
35148
35222
35067
34920
35061
34921
34998
34877
35078
34870
34717
34855
34784
34882
34848
34849
34870
34761
34837
34926
34941
34884
34869
34878
34872
34931
34922
34864
34963
34968
35043
35011
34919
34952
35051
35155
35085
34870
35128
35197
34964
35159
35057
35152
35026
35195
35046
35173
35157
35201
35050
35128
35075
35287
35205
35109
35168
35267
35234
35158
35257
35269
35188
35107
35340
35184
35367
35300
35285
35427
35288
35342
35430
35438
35446
35417
35563
35525
35350
35570
35533
35526
35561
35592
35520
35366
35657
35665
35663
35634
35719
35664
35538
35558
35740
35642
35759
35747
35842
35620
35576
35736
35911
35823
35625
35870
35848
35765
35882
35893
35866
35841
35871
35997
35856
35860
35858
35914
35935
35976
35942
35965
35952
35859
36015
35985
35945
35924
36098
36023
36081
36009
36166
36112
35994
36131
36141
36108
36167
36088
36127
36170
36122
36064
36040
35935
36055
36023
35955
35824
35831
35845
35813
35664
35797
35637
35648
35670
35672
35564
35326
35279
35296
35452
35272
35308
35304
35219
35278
35191
35302
35134
35189
35132
35104
35037
35010
35124
35046
34952
35013
35001
35031
34880
35007
34932
34979
34840
35029
35111
34870
34852
34978
34976
35038
35119
34987
35100
35092
35070
35113
35029
35200
35171
35219
35018
34990
35113
35071
35191
35234
35237
35180
35063
35092
35087
35193
35213
35118
35208
35071
35054
35128
35269
35269
35152
35404
35196
35155
35224
35340
35253
35123
35314
35443
35364
35233
35306
35332
35355
35376
35391
35401
35267
35468
35464
35394
35259
35551
35604
35352
35339
35508
35633
35436
35445
35667
35582
35460
35662
35738
35619
35484
35718
35637
35608
35557
35609
35641
35638
35775
35757
35795
35664
35788
35628
35656
35590
35836
35778
35689
35593
35764
35700
35832
35751
35951
35796
35893
35847
35851
35858
35685
35890
35941
35901
35826
35941
35885
35834
35865
36014
35894
35803
35886
36052
36038
35895
36046
36072
35878
35928
35923
35945
35693
35633
35558
35580
35457
35430
35516
35327
35224
35211
35319
35058
35099
35075
35035
34882
34909
34956
34877
34678
34870
34832
34766
34774
34806
34723
34754
34679
34719
34542
34472
34541
34511
34559
34414
34520
34768
34595
34615
34706
34519
34653
34693
34748
34615
34616
34550
34753
34633
34640
34789
34706
34744
34789
34736
34665
34818
34622
34894
34866
34860
34810
34814
34830
34706
34842
34903
34832
34749
34866
34930
34890
34734
34965
34986
34937
34811
34944
34887
34786
34919
35094
35012
34800
35018
34867
35022
34828
35089
34950
35106
34878
35169
35001
34941
35028
35070
35175
35081
35134
35246
35135
35018
35292
35218
35152
35121
35254
35239
35232
35277
35440
35309
35386
35366
35427
35372
35197
35407
35505
35329
35185
35350
35476
35326
35497
35526
35440
35307
35431
35535
35537
35512
35444
35704
35529
35385
35670
35594
35439
35525
35615
35643
35468
35554
35793
35580
35613
35610
35682
35595
35766
35677
35694
35652
35700
35729
35790
35747
35730
35718
35682
35495
35668
35558
35496
35426
35481
35353
35159
35265
35173
35192
35094
35120
34916
34888
34754
34958
34766
34875
34668
34747
34641
34578
34734
34551
34627
34381
34579
34461
34512
34341
34466
34436
34423
34415
34478
34488
34435
34308
34446
34468
34325
34494
34635
34544
34319
34507
34711
34505
34470
34604
34665
34608
34558
34824
34681
34733
34798
34666
34693
34743
34756
34855
34763
34681
34765
34746
34663
34713
34747
34820
34759
34662
34889
34782
34800
34820
34683
34686
34706
34807
34926
34847
34664
34753
34744
34671
34930
34911
34845
34940
34831
34782
34951
34863
34897
34857
34931
34888
35116
34942
35002
34944
35074
35007
34855
35046
35038
35070
35011
35162
35117
34973
35100
35273
35183
34965
35182
35219
35060
34988
35193
35083
35259
35283
35319
35213
35133
35095
35248
35263
35243
35243
35245
35343
35261
35280
35349
35312
35216
35270
35482
35408
35269
35410
35439
35451
35343
35370
35447
35314
35478
35500
35508
35353
35511
35558
35431
35409
35492
35452
35266
35362
35481
35292
35153
35226
35193
35139
34781
35027
34886
34675
34621
34723
34699
34528
34461
34486
34432
34417
34337
34338
34383
34362
34232
34183
34278
34125
34164
34100
34032
34067
34191
34077
34059
34144
34266
34068
34127
34201
34235
34217
34247
34292
34266
34072
34253
34366
34338
34190
34363
34245
34406
34329
34397
34434
34409
34374
34456
34463
34429
34447
34387
34492
34269
34483
34592
34501
34332
34621
34563
34516
34596
34668
34402
34439
34552
34661
34546
34590
34684
34480
34656
34503
34603
34764
34567
34480
34765
34601
34610
34753
34644
34683
34644
34778
34753
34753
34805
34843
34768
34760
34755
34818
34900
34879
34845
35053
34906
34741
34996
35115
35015
35021
34963
34886
34882
34991
35107
34918
34967
35050
35023
35096
35059
35045
35160
34993
34931
35190
35067
35039
35162
35190
35238
35026
35252
35336
35207
35031
35211
35373
35122
35146
35212
35407
35260
35093
35280
35359
35317
35250
35360
35301
35310
35295
35290
35377
35128
35236
35263
35171
35144
35153
35143
34952
34910
34927
34752
34633
34713
34626
34446
34328
34336
34439
34284
34196
34169
34219
34099
34068
34148
34004
33984
33957
34067
33947
33768
33924
34025
33855
33894
33866
33860
33832
33818
33793
33799
33861
33903
33896
33949
33942
33962
33873
33993
33826
34025
34086
33924
33894
34112
33981
33978
34187
34085
34187
34225
34152
34297
34231
34351
34217
34160
34276
34149
34381
34428
34238
34429
34304
34267
34174
34350
34288
34396
34214
34475
34486
34415
34455
34474
34464
34305
34483
34658
34511
34588
34575
34653
34529
34677
34654
34733
34619
34554
34663
34707
34672
34689
34830
34766
34808
34739
34778
34727
34617
34886
35011
34785
34741
35013
34831
34817
34831
35111
34955
34772
35051
35058
34990
34893
35052
34980
35125
35169
35144
35265
35068
35031
35136
35087
34986
35240
35314
35177
35155
35203
35102
35250
35076
35300
35187
35267
35206
35286
35188
35228
35275
35362
35297
35231
35431
35279
35340
35404
35391
35286
35266
35305
35441
35268
35057
35151
35049
35031
34966
34920
34892
34742
34574
34583
34575
34496
34311
34567
34241
34310
34228
34227
34176
34148
34201
34251
34150
34029
34106
34149
34013
33940
34164
34050
33953
33934
33827
33952
33735
33891
33817
33943
33844
33971
33922
33928
33911
34145
34144
33940
34057
34028
34157
33942
34129
34230
34158
34242
34274
34127
34260
34176
34173
34260
34124
34186
34350
34228
34156
34218
34138
34313
34342
34303
34408
34131
34180
34221
34343
34292
34273
34265
34394
34249
34333
34390
34457
34290
34403
34491
34457
34533
34600
34603
34352
34569
34484
34546
34526
34570
34516
34587
34446
34598
34701
34643
34631
34702
34695
34565
34691
34893
34756
34735
34810
34803
34748
34904
34886
34859
34858
34822
34944
34834
34859
34936
34942
34900
34851
35024
35076
34901
34896
35111
34968
35002
34823
34997
35050
35053
35047
35223
35088
34998
35105
35141
35116
35054
35151
35241
35161
35167
35231
35209
35185
35184
35390
35255
35250
35226
35294
35173
35073
35107
34923
34882
34949
34832
34868
34550
34426
34650
34505
34399
34436
34282
34325
34037
34193
34097
33922
33960
34097
33963
33942
33825
33888
33844
33630
33790
33694
33752
33664
33736
33739
33737
33573
33652
33696
33571
33590
33768
33660
33574
33705
33723
33725
33538
33746
33932
33840
33723
33792
33765
33884
33931
34039
33907
33905
33887
34057
34085
33957
34135
34030
34113
33824
34060
34088
33946
34077
33977
33997
33878
34060
33926
34065
33913
34064
34225
34103
33959
34102
34066
34119
34144
34128
34203
34125
34199
34142
34178
34258
34292
34413
34316
34159
34282
34277
34264
34272
34317
34431
34264
34369
34333
34443
34412
34591
34451
34577
34421
34580
34437
34526
34610
34607
34565
34457
34566
34725
34701
34614
34734
34691
34642
34574
34675
34729
34576
34673
34699
34797
34768
34801
34953
34802
34804
34823
34760
34827
34835
34880
34899
34856
34920
35008
34877
34917
34918
35135
34973
34859
35002
34936
35069
34967
35009
35198
35111
35138
35092
34864
34993
34857
34907
34821
34631
34798
34815
34465
34424
34543
34422
34239
34072
34128
34176
34087
33922
33976
33898
33795
33786
33822
33764
33614
33671
33732
33564
33559
33802
33694
33417
33530
33739
33501
33484
33586
33431
33594
33419
33684
33618
33460
33579
33537
33709
33449
33562
33635
33686
33658
33778
33739
33737
33792
33867
33979
33878
33910
34028
33960
33910
33922
34149
33958
33950
33983
34075
34005
33894
34122
34026
33951
33958
34148
34042
33940
34078
34224
34149
34141
34053
34244
34055
34198
34211
34182
34270
34273
34333
34379
34291
34336
34477
34314
34212
34328
34499
34496
34391
34547
34616
34547
34394
34444
34531
34478
34485
34472
34504
34498
34599
34679
34579
34585
34701
34725
34638
34482
34703
34757
34721
34737
34916
34727
34649
34779
34762
34786
34696
34836
34893
34887
34862
34890
34793
34740
34830
34850
34960
34877
34891
34829
34914
34847
34902
35002
34930
35053
34958
34978
34984
34868
35190
35161
34862
35095
34973
35064
35098
35127
35052
35008
34825
35087
35044
34947
34809
34892
34732
34706
34597
34658
34327
34353
34249
34345
34133
34032
34161
34011
33964
33964
33974
33952
33790
33820
33872
33809
33797
33722
33726
33706
33574
33735
33758
33664
33648
33732
33636
33483
33723
33613
33618
33572
33682
33843
33649
33664
33781
33794
33741
33708
34030
34064
33856
34009
34054
33905
33837
33967
34138
33948
34050
34064
34030
34064
34058
34066
34091
33926
34116
34190
34178
33902
34092
34068
34128
34150
34082
34180
34077
34223
34164
34285
34236
34262
34421
34308
34103
34282
34197
34310
34275
34448
34360
34363
34304
34383
34479
34276
34343
34361
34448
34374
34506
34451
34627
34388
34644
34516
34574
34453
34699
34596
34592
34710
34789
34751
34737
34795
34641
34727
34720
34820
34747
34735
34729
34946
34853
34776
34848
34964
34867
34833
34921
34942
34853
34714
34923
35057
34920
34931
35017
34898
34984
34940
35072
34925
34963
35075
35053
35076
34841
35057
35108
35094
34901
35071
35263
35037
35126
35080
35169
34873
35135
35173
34911
34909
34831
34926
34772
34608
34612
34379
34303
34413
34338
34174
34038
34091
33919
33922
33921
33884
33946
33725
33761
33730
33613
33588
33593
33570
33628
33409
33527
33547
33396
33499
33367
33479
33315
33451
33390
33311
33373
33292
33561
33410
33314
33511
33456
33584
33614
33521
33731
33606
33720
33797
33657
33711
33628
33883
33755
33687
33785
33793
33830
33681
33816
33791
33823
33759
33841
33888
33889
33856
33952
33891
33765
33971
33946
33882
33931
33854
33898
34034
33958
34012
34063
33955
34114
34191
34069
34038
34178
34055
34117
34157
34246
34085
34227
34312
34202
34444
34233
34362
34481
34266
34208
34422
34591
34431
34416
34532
34397
34479
34445
34611
34527
34611
34631
34646
34675
34645
34632
34657
34702
34625
34712
34894
34744
34687
34887
34857
34844
34836
34845
34840
34778
34862
35075
34920
34745
35018
34912
35040
34804
34945
34945
35054
34946
35077
35125
35039
35089
35126
35122
35061
35092
35103
35076
35149
35150
35310
35170
35091
35178
35068
34899
34978
34953
34844
34783
34680
34725
34559
34296
34432
34393
34297
34212
34237
34236
34095
33994
34182
34036
33990
33976
33904
33871
33680
33841
33929
33739
33681
33746
33878
33753
33796
33768
33657
33662
33774
33687
33779
33637
33827
33754
33648
33876
33914
33725
33885
33749
33805
33851
33839
33898
34048
33906
33769
34087
33923
33917
33899
34078
34072
33896
33994
34200
34035
34028
34054
34228
34129
33903
34047
34186
34011
33944
34127
34206
34040
34053
34027
34149
33971
34108
34366
34266
34032
34335
34400
34131
34332
34403
34446
34192
34241
34502
34410
34277
34471
34478
34497
34257
34530
34398
34465
34441
34626
34462
34608
34575
34722
34665
34514
34572
34719
34645
34663
34773
34567
34654
34496
34862
34854
34754
34820
34889
34848
34790
34720
34749
34875
34752
34874
34806
34812
34805
34992
35059
34972
34832
35009
34954
34760
35061
34981
34971
35003
35124
35058
35159
34956
35021
35123
34979
34985
35082
35012
34855
34960
34855
34945
34861
34756
34826
34662
34526
34547
34535
34314
34141
34398
34259
34138
34084
34180
34185
33818
33993
34112
33771
33804
33960
33784
33906
33729
33832
33799
33545
33724
33828
33699
33744
33649
33792
33834
33725
33773
33667
33699
33848
33724
33762
33887
33710
33925
33864
33787
33963
33827
33981
33933
34131
33902
34053
33907
33971
34051
33939
34074
34305
34082
34127
34025
33972
34113
33880
34203
34225
34017
34251
34285
34192
34088
34197
34390
34265
34170
34276
34182
34213
34244
34231
34372
34361
34251
34365
34329
34235
34320
34529
34418
34429
34421
34352
34368
34425
34528
34494
34532
34579
34609
34619
34565
34584
34661
34605
34466
34606
34556
34693
34452
34715
34588
34740
34660
34784
34805
34862
34909
34858
34768
34643
34856
34932
34775
34672
34809
34854
34933
34647
35087
34987
34840
34886
34974
34936
34921
34987
35033
35011
34943
35024
35014
35044
35137
35085
35043
35062
35103
35139
35154
34925
35152
35088
35175
35097
35168
35184
35121
35008
35066
35035
34839
34820
34881
34692
34624
34647
34583
34573
34279
34407
34436
34226
34310
34245
34228
34072
34067
34192
34001
33907
33983
34082
34024
33837
33928
33906
33776
33885
33774
33639
33749
33652
33816
33797
33741
33804
33885
33724
33783
33858
33934
33744
33835
33882
33898
33983
33950
34157
34059
33930
34039
34028
34130
33958
34222
34133
34200
34129
34130
34410
34081
34314
34209
34397
34140
34155
34241
34309
34162
34309
34288
34406
34254
34315
34245
34366
34254
34375
34283
34474
34322
34535
34381
34419
34457
34502
34457
34424
34576
34595
34580
34389
34547
34568
34462
34565
34557
34562
34609
34751
34742
34702
34642
34870
34685
34825
34852
34786
34864
34730
34870
34992
34863
34736
34903
34953
34885
34900
34924
34966
34920
34961
35021
35088
34930
35090
35019
35051
35039
35059
35119
35157
35110
35197
35125
35060
35031
35195
35208
35092
35245
35153
35108
35185
35289
35155
35276
35314
35204
35223
35203
35281
35317
35357
35045
35256
35389
35212
35036
35239
35007
35123
35027
34966
34869
34835
34752
34827
34747
34659
34459
34406
34517
34388
34352
34519
34335
34168
34308
34285
34025
34026
34174
34253
33940
33975
34208
34012
33821
33969
33902
34033
33891
33996
34180
34077
34027
34026
33991
33967
34060
34054
33975
34020
34129
34193
34103
34203
34130
34098
34252
34052
34332
34282
34212
34174
34264
34301
34273
34282
34441
34345
34333
34336
34486
34269
34057
34366
34257
34396
34205
34509
34362
34230
34304
34347
34470
34447
34388
34532
34321
34516
34618
34495
34437
34556
34613
34522
34450
34552
34769
34670
34628
34674
34808
34711
34553
34836
34654
34811
34615
34727
34907
34647
34831
34971
34892
34645
34975
34978
34780
34959
34795
34849
34863
34825
34841
34904
34880
35078
34999
34976
35080
35039
34967
34963
35155
35169
35086
34963
35086
35212
35076
34992
35120
35292
35144
35046
35219
35302
35232
35157
35255
35240
35158
35139
35348
35172
35261
35276
35366
35318
35357
35417
35391
35329
35236
35463
35278
35360
35392
35348
35294
35164
35263
35123
35119
34934
34888
34825
34713
34863
34646
34712
34540
34468
34560
34494
34274
34384
34255
34265
34118
34233
34209
34124
34099
34144
34100
33962
33981
34131
33995
33952
33966
34044
33959
33851
33925
33995
33843
33920
33932
33783
33857
33773
34019
33883
33963
34120
34002
34185
33947
34129
34044
34194
34101
34316
34263
34211
34212
34153
34274
34226
34235
34287
34202
34260
34260
34418
34143
34091
34270
34264
34271
34233
34319
34382
34260
34269
34506
34347
34381
34494
34526
34342
34553
34542
34355
34459
34503
34531
34600
34470
34543
34737
34522
34496
34555
34562
34613
34513
34628
34644
34595
34539
34664
34801
34813
34759
34684
34756
34658
34784
34804
34841
34858
34857
34928
34921
34701
35064
34861
34911
34920
34989
35003
34928
35068
35011
34917
34896
35073
35069
34954
34928
35119
35126
34931
35108
35148
35112
35168
35195
35143
35138
35084
35248
35233
35221
35069
35200
35337
35189
35282
35238
35347
35228
35255
35223
35351
35387
35418
35536
35333
35418
35303
35453
35304
35186
35081
35228
34981
35113
35054
34991
34773
34823
34646
34606
34542
34623
34458
34433
34359
34404
34404
34288
34320
34258
34238
34081
34224
34111
34125
33995
34126
34097
33868
34069
34137
33940
34020
34044
34115
33867
33928
33935
33915
33818
34051
34004
34058
34084
33978
33981
34062
33892
34086
34215
34179
34077
34263
34269
34279
34146
34337
34429
34294
34171
34235
34321
34280
34283
34249
34338
34271
34410
34404
34315
34247
34445
34368
34240
34378
34379
34373
34154
34450
34241
34457
34211
34326
34384
34479
34397
34423
34520
34443
34352
34497
34422
34374
34485
34617
34591
34302
34517
34583
34575
34649
34515
34679
34618
34628
34830
34739
34584
34647
34682
34712
34608
34707
34765
34665
34791
34785
34811
34795
34821
34996
34897
34913
34830
34934
34874
34769
34959
34780
34843
34860
34926
34997
34890
34939
35086
35056
34871
35012
34984
34979
34859
35131
34972
35058
35078
35200
35098
34972
35129
35024
35130
34921
35011
35136
34975
35015
35008
34925
34943
34780
34654
34510
34546
34477
34473
34474
34296
34237
34315
34069
33946
34050
33919
33882
33861
33900
33881
33809
33827
33873
33858
33705
33725
33788
33683
33533
33684
33553
33746
33600
33733
33823
33733
33628
33798
33855
33620
33684
33707
33758
33678
33854
33835
33947
33852
33957
34024
34005
34085
34109
34119
33887
34079
34022
33944
34070
34098
34030
34088
34071
34127
33960
33966
34099
34019
34049
33918
34004
34174
34136
33975
34159
34207
34209
34095
34235
34273
34116
34250
34295
34280
34134
34292
34271
34207
34197
34226
34364
34262
34454
34402
34294
34497
34324
34322
34380
34234
34394
34584
34482
34412
34467
34436
34570
34366
34547
34493
34610
34475
34697
34521
34553
34715
34576
34646
34622
34697
34636
34637
34722
34804
34593
34638
34552
34713
34736
34646
34793
34829
34812
34638
34779
34801
34780
34705
34857
34903
34850
34912
34967
34801
35022
35048
35054
35002
34817
35051
34951
35088
35142
35018
35057
34929
35063
34945
34880
34822
34719
34758
34649
34562
34655
34622
34350
34181
34287
34180
34249
34112
34051
34082
33919
34044
33983
33836
33868
33881
33906
33708
33792
33860
33748
33648
33839
33698
33784
33603
33662
33890
33726
33628
33667
33667
33682
33700
33736
33685
33692
33797
33823
33783
33836
33844
33923
34088
33965
34053
34013
34111
34067
34234
34311
34133
34188
34254
34070
34089
34239
34383
34227
34023
34296
34293
34193
34302
34370
34423
34352
34378
34352
34203
34368
34253
34416
34311
34350
34370
34446
34429
34357
34526
34438
34374
34594
34549
34584
34473
34518
34561
34617
34626
34701
34586
34736
34489
34732
34893
34704
34731
34817
34850
34777
34804
34844
34874
34810
34819
34967
34971
34853
34998
35075
34931
34883
35051
35044
35017
35009
34906
35032
35066
35060
35220
35181
35056
35178
35169
35189
34995
35188
35058
35229
35158
35207
35231
35179
35263
35354
35260
35256
35216
35314
35256
35325
35459
35436
35306
35273
35250
35232
35328
35305
35379
35264
35201
35213
35179
34910
34892
34985
34900
34840
34767
34761
34693
34766
34741
34557
34669
34555
34539
34715
34546
34478
34441
34429
34583
34330
34368
34489
34481
34462
34353
34500
34348
34391
34436
34325
34416
34539
34582
34411
34512
34468
34561
34407
34587
34660
34558
34600
34579
34728
34593
34716
34732
34806
34692
34730
34924
34862
34819
34991
34869
34891
34903
34972
34771
34886
34773
35127
35040
35000
34936
35077
35093
34908
35002
35154
35119
35122
35150
35159
35121
35196
35279
35237
35195
35191
35233
35277
35164
35219
35453
35312
35356
35300
35444
35362
35178
35428
35548
35459
35329
35540
35687
35557
35453
35542
35671
35483
35560
35623
35502
35511
35474
35686
35631
35583
35692
35742
35584
35693
35857
35768
35591
35794
35919
35744
35878
35828
35930
35732
35686
35977
35944
35984
35812
35988
35970
35973
35961
36133
35921
35911
36204
36119
35931
35983
36168
36059
35983
36087
36018
36256
36068
36083
36208
36025
35843
36072
36187
35832
35973
36048
35971
35728
35747
35904
35634
35720
35692
35566
35527
35629
35560
35518
35442
35385
35537
35429
35370
35357
35329
35459
35341
35394
35336
35287
35269
35490
35300
35250
35246
35190
35225
35273
35375
35219
35308
35158
35253
35440
35268
35422
35397
35545
35519
35286
35547
35500
35460
35440
35504
35595
35442
35464
35540
35623
35387
35730
35729
35664
35458
35559
35674
35452
35492
35862
35662
35653
35661
35731
35743
35456
35833
35922
35777
35626
35797
35648
35654
35736
35988
35773
35684
35896
35821
35931
35741
35933
36056
35838
35854
35986
35911
35973
35959
35972
35962
36044
36066
35982
36036
36114
36075
36083
36063
36150
36255
36197
36258
36197
36376
36233
36149
36258
36252
36233
36178
36245
36289
36366
36276
36361
36457
36416
36322
36540
36307
36288
36391
36358
36500
36313
36455
36358
36448
36437
36529
36587
36542
36492
36722
36573
36392
36658
36683
36610
36668
36696
36576
36733
36559
36751
36562
36628
36566
36502
36595
36609
36540
36586
36498
36467
36498
36520
36417
36221
36263
36189
36167
36135
36387
36249
36068
36171
36155
36113
36125
36106
36219
36141
35976
36040
35939
35935
36008
36143
35917
35956
36105
36108
35993
35971
35904
36105
36047
36040
36090
35967
36066
35943
36106
36027
35937
36029
36228
36099
35919
36121
36228
36089
36116
36157
36252
36176
36224
36309
36297
36152
36223
36154
36118
36214
36085
36051
36174
36105
36146
36164
36148
36104
36202
36297
36105
36238
36245
36219
36145
36311
36413
36284
36273
36345
36324
36265
36297
36292
36372
36347
36405
36591
36490
36460
36501
36359
36483
36287
36390
36374
36389
36547
36458
36470
36424
36514
36675
36609
36547
36686
36667
36538
36635
36565
36812
36509
36627
36661
36711
36480
36619
36574
36651
36678
36673
36587
36712
36547
36833
36727
36777
36606
36843
36841
36600
36754
36726
36783
36824
36820
36994
36929
36685
36815
36873
36967
36856
36914
36995
36928
36849
36802
36868
36761
36840
36968
36835
36746
36741
36804
36754
36600
36736
36672
36674
36557
36690
36532
36498
36559
36540
36507
36345
36494
36549
36356
36460
36479
36423
36170
36362
36415
36288
36167
36357
36315
36337
36242
36334
36396
36291
36184
36242
36201
36211
36365
36288
36336
36300
36381
36447
36361
36151
36364
36369
36329
36241
36472
36406
36250
36404
36343
36412
36367
36375
36457
36408
36279
36410
36554
36385
36315
36454
36454
36445
36369
36581
36417
36275
36439
36586
36420
36332
36535
36491
36442
36323
36480
36624
36554
36504
36594
36590
36393
36570
36648
36561
36361
36601
36774
36643
36652
36561
36787
36640
36467
36750
36720
36636
36651
36684
36557
36526
36778
36602
36581
36785
36805
36742
36630
36712
36914
36712
36558
36757
36700
36762
36780
36810
36838
36779
36830
36886
36826
36845
36771
37007
36880
36746
36808
36821
36827
36674
36888
36978
36962
36686
37012
36954
36873
36864
37026
36906
36904
37059
36928
36897
37004
37072
36905
36900
36861
36995
37150
36864
36885
37077
36993
36823
36948
36842
36900
36771
36886
36960
36811
36737
36803
36766
36653
36633
36639
36707
36485
36605
36522
36548
36369
36569
36648
36495
36341
36486
36463
36431
36434
36509
36350
36300
36483
36379
36359
36340
36435
36480
36464
36385
36321
36395
36435
36242
36486
36333
36282
36391
36401
36464
36252
36494
36413
36442
36399
36463
36574
36479
36452
36572
36506
36393
36517
36646
36518
36565
36515
36568
36493
36567
36480
36439
36558
36567
36640
36537
36542
36599
36674
36593
36589
36525
36704
36545
36426
36693
36522
36470
36613
36742
36681
36592
36621
36782
36618
36461
36640
36817
36678
36715
36624
36679
36648
36648
36820
36730
36681
36687
36753
36716
36746
36753
36809
36751
36703
36778
36891
36792
36786
36739
36836
36839
36767
36788
36851
36640
36909
36995
36866
36614
36774
36877
36886
36811
36818
36914
36853
36930
36798
36827
36927
36936
36917
36969
36833
37052
36853
36814
36885
36929
36886
36804
36931
36862
36952
36809
37015
37040
37024
37010
37046
37016
36997
36849
37031
36913
36774
36841
36820
36812
36800
36766
36668
36784
36558
36627
36560
36707
36566
36630
36472
36555
36567
36592
36436
36358
36449
36408
36485
36413
36520
36306
36365
36316
36471
36400
36263
36364
36244
36335
36102
36339
36292
36284
36164
36337
36322
36268
36304
36389
36380
36249
36306
36441
36367
36405
36395
36467
36406
36266
36506
36294
36275
36225
36423
36530
36318
36492
36600
36440
36402
36441
36503
36444
36255
36418
36550
36468
36415
36460
36506
36444
36320
36515
36385
36427
36463
36426
36464
36368
36491
36513
36522
36450
36464
36595
36517
36466
36452
36539
36388
36495
36505
36462
36441
36602
36538
36535
36438
36711
36613
36570
36556
36521
36641
36445
36593
36614
36596
36532
36655
36771
36630
36642
36806
36675
36681
36623
36711
36645
36651
36756
36838
36718
36641
36821
36887
36707
36782
36736
36733
36626
36658
36747
36752
36854
36804
36835
36869
36843
36826
36701
36808
36871
36794
36880
36776
36847
36837
36856
36886
36841
36876
36836
36743
36933
36948
36778
36811
37012
37015
36771
36809
36753
36801
36560
36630
36620
36544
36599
36633
36448
36567
36551
36378
36389
36300
36343
36427
36297
36046
36238
36219
36078
36042
36097
36159
35990
36094
35961
35873
35943
35962
35987
35972
35861
35930
35855
35873
35888
35859
35830
35718
35733
35790
35924
35853
35830
35814
35770
35773
35861
36008
35856
35925
35875
36036
35863
35723
35919
36046
35872
35995
35939
36048
35978
35935
36085
35882
35993
35890
36086
36000
35848
36078
36011
35934
35978
35987
36004
36026
36000
36158
35983
36067
36079
36026
35934
35934
36157
35963
36151
36003
36018
36064
36146
36157
36100
36175
35976
36179
36099
36130
36207
36197
36335
36132
36111
36301
36277
36311
36253
36233
36242
36137
36267
36347
36260
36189
36287
36443
36405
36441
36367
36428
36459
36450
36575
36439
36326
36364
36408
36470
36399
