7933
7994
8047
8088
8114
8125
8118
8094
8066
8034
7996
7952
7919
7902
7888
7876
7874
7881
7888
7895
7906
7919
7923
7915
7905
7899
7889
7874
7867
7868
7866
7858
7849
7834
7808
7785
7783
7794
7807
7825
7846
7854
7846
7835
7827
7822
7819
7822
7823
7805
7773
7737
7692
7632
7562
7493
7425
7360
7307
7264
7229
7199
7178
7168
7164
7155
7150
7154
7162
7166
7167
7164
7146
7111
7070
7025
6966
6896
6832
6775
6723
6676
6634
6597
6568
6543
6527
6519
6513
6513
6518
6526
6530
6529
6527
6521
6501
6462
6410
6346
6274
6205
6146
6095
6050
6019
6002
5989
5969
5938
5903
5868
5838
5819
5810
5801
5784
5768
5757
5749
5739
5732
5729
5723
5719
5719
5720
5719
5711
5693
5668
5642
5618
5594
5566
5520
5462
5413
5373
5334
5300
5279
5268
5258
5256
5278
5320
5382
5470
5586
5717
5860
6019
6192
6370
6544
6719
6903
7081
7240
7392
7545
7686
7806
7914
8011
8090
8151
8200
8238
8266
8284
8302
8323
8338
8352
8366
8373
8368
8355
8344
8334
8322
8315
8329
8358
8383
8400
8418
8435
8448
8460
8481
8505
8524
8544
8564
8567
8550
8530
8508
8476
8437
8399
8367
8340
8322
8321
8329
8321
8295
8273
8261
8247
8225
8206
8195
8190
8190
8199
8211
8218
8224
8237
8256
8271
8280
8289
8301
8310
8324
8348
8374
8384
8380
8372
8358
8332
8301
8274
8243
8206
8178
8165
8157
8151
8153
8164
8166
8151
8128
8106
8075
8031
7986
7943
7899
7856
7825
7802
7777
7751
7724
7690
7646
7599
7553
7509
7459
7406
7362
7329
7302
7289
7284
7271
7250
7228
7208
7181
7143
7104
7069
7035
6996
6954
6907
6856
6808
6769
6740
6719
6703
6695
6693
6681
6657
6641
6634
6614
6575
6542
6518
6495
6473
6461
6456
6440
6409
6375
6335
6285
6230
6182
6139
6096
6057
6030
6019
6007
5993
5982
5971
5958
5947
5944
5943
5935
5923
5907
5884
5857
5831
5808
5782
5756
5745
5757
5794
5853
5934
6031
6133
6233
6351
6489
6633
6781
6936
7087
7237
7391
7550
7710
7868
8028
8189
8336
8453
8548
8626
8683
8722
8755
8780
8792
8792
8793
8796
8796
8790
8787
8795
8801
8796
8784
8766
8742
8723
8713
8708
8700
8690
8694
8716
8739
8752
8774
8810
8844
8871
8886
8879
8860
8844
8840
8841
8835
8825
8820
8813
8800
8790
8788
8786
8775
8765
8762
8758
8756
8764
8775
8778
8774
8777
8790
8799
8797
8794
8790
8786
8784
8784
8779
8762
8736
8708
8676
8631
8580
8541
8516
8494
8474
8465
8464
8456
8439
8425
8412
8390
8360
8328
8295
8263
8245
8242
8236
8217
8188
8149
8094
8034
7985
7955
7929
7896
7861
7824
7779
7734
7693
7646
7598
7556
7523
7495
7466
7441
7419
7392
7359
7330
7310
7286
7259
7242
7239
7245
7240
7223
7208
7196
7184
7179
7188
7200
7203
7195
7179
7153
7107
7044
6972
6897
6830
6774
6726
6677
6628
6589
6562
6540
6522
6512
6508
6507
6515
6529
6536
6520
6487
6449
6400
6338
6275
6225
6183
6142
6109
6088
6068
6049
6039
6039
6042
6036
6025
6022
6026
6039
6075
6133
6199
6266
6341
6433
6540
6665
6807
6958
7115
7282
7456
7625
7780
7919
8053
8186
8304
8405
8499
8584
8656
8715
8755
8771
8764
8744
8725
8718
8715
8717
8726
8733
8718
8687
8656
8624
8585
8547
8518
8491
8461
8435
8422
8418
8426
8445
8461
8476
8498
8526
8555
8571
8569
8560
8545
8516
8479
8445
8409
8363
8313
8274
8247
8229
8223
8228
8241
8258
8285
8323
8364
8400
8430
8462
8496
8531
8572
8609
8623
8615
8594
8568
8535
8493
8448
8414
8381
8340
8304
8275
8251
8235
8222
8207
8184
8155
8129
8111
8097
8085
8075
8062
8043
8021
8004
7991
7971
7941
7912
7881
7838
7784
7730
7674
7617
7571
7533
7488
7440
7395
7354
7321
7293
7270
7254
7237
7212
7183
7155
7124
7090
7062
7036
7008
6973
6939
6913
6892
6882
6886
6893
6889
6876
6856
6824
6789
6765
6754
6747
6734
6720
6712
6709
6711
6714
6711
6693
6657
6610
6562
6513
6457
6400
6359
6335
6313
6300
6300
6320
6366
6439
6533
6641
6762
6899
7047
7195
7337
7476
7610
7734
7854
7977
8100
8224
8353
8477
8588
8686
8780
8869
8936
8971
8983
8995
9009
9012
9008
9011
9020
9020
9015
9013
9014
9017
9027
9044
9062
9074
9078
9074
9072
9083
9098
9105
9100
9092
9087
9085
9077
9060
9039
9012
8977
8945
8924
8911
8898
8884
8877
8876
8877
8884
8903
8928
8937
8930
8927
8927
8925
8934
8949
8956
8960
8971
8981
8978
8961
8940
8926
8912
8893
8875
8865
8856
8837
8818
8802
8780
8748
8725
8719
8717
8717
8727
8742
8755
8763
8761
8739
8698
8649
8608
8576
8536
8485
8436
8385
8323
8260
8207
8158
8111
8071
8047
8037
8029
8023
8023
8021
8009
7992
7980
7968
7956
7950
7948
7940
7925
7906
7881
7846
7795
7740
7687
7627
7561
7509
7473
7446
7425
7409
7396
7380
7358
7333
7304
7277
7261
7255
7244
7219
7191
7164
7135
7089
7031
6980
6934
6895
6872
6860
6850
6841
6836
6832
6823
6816
6824
6850
6891
6957
7049
7161
7269
7368
7482
7617
7766
7932
8107
8274
8424
8569
8713
8852
8979
9095
9209
9316
9408
9486
9563
9639
9701
9748
9790
9827
9857
9893
9937
9970
9980
9972
9960
9948
9938
9940
9958
9974
9983
9997
10016
10024
10024
10033
10052
10072
10102
10145
10189
10224
10254
10279
10293
10286
10264
10241
10216
10180
10142
10110
10082
10050
10019
10000
9989
9977
9971
9980
9994
9996
9985
9976
9971
9964
9962
9962
9961
9968
9986
10005
10021
10035
10046
10055
10054
10047
10038
10021
9984
9939
9901
9872
9839
9801
9770
9745
9718
9697
9682
9659
9631
9612
9605
9597
9572
9530
9484
9436
9381
9323
9273
9229
9180
9130
9089
9059
9028
8999
8978
8957
8936
8923
8916
8900
8871
8838
8800
8750
8689
8623
8558
8495
8437
8387
8339
8291
8254
8238
8235
8224
8200
8177
8157
8138
8126
8122
8111
8082
8042
7998
7947
7895
7841
7788
7733
7676
7630
7597
7562
7526
7504
7491
7470
7440
7422
7414
7398
7368
7340
7319
7305
7296
7283
7256
7213
7162
7111
7059
7003
6948
6900
6857
6819
6790
6772
6757
6736
6718
6708
6701
6696
6704
6729
6766
6817
6891
6985
7096
7227
7373
7528
7681
7834
7995
8165
8332
8495
8658
8815
8962
9103
9242
9369
9476
9571
9669
9765
9847
9919
9989
10044
10087
10131
10173
10206
10227
10245
10259
10261
10257
10262
10274
10281
10275
10263
10252
10236
10211
10184
10162
10143
10130
10129
10142
10161
10181
10210
10246
10276
10301
10324
10345
10356
10352
10342
10335
10315
10283
10253
10220
10179
10143
10131
10135
10131
10117
10105
10102
10099
10102
10125
10160
10197
10236
10271
10288
10284
10264
10242
10216
10182
10153
10130
10109
10091
10081
10069
10050
10033
10031
10033
10021
9996
9968
9926
9874
9821
9776
9737
9698
9666
9642
9620
9596
9576
9556
9525
9488
9457
9436
9413
9375
9327
9280
9228
9163
9088
9021
8967
8917
8873
8846
8834
8818
8797
8777
8751
8714
8683
8664
8642
8611
8576
8532
8480
8422
8368
8328
8301
8286
8281
8278
8266
8248
8226
8191
8143
8091
8050
8011
7961
7911
7874
7842
7810
7787
7767
7738
7707
7684
7666
7647
7620
7593
7567
7537
7503
7461
7416
7362
7298
7247
7210
7171
7131
7097
7066
7037
7010
6991
6975
6954
6933
6914
6890
6859
6826
6792
6748
6695
6643
6601
6569
6548
6548
6585
6659
6759
6881
7018
7160
7311
7474
7645
7822
7993
8158
8324
8481
8622
8757
8895
9026
9150
9270
9375
9458
9523
9584
9644
9696
9740
9777
9807
9831
9856
9887
9915
9929
9935
9948
9960
9966
9976
9993
10007
10012
10017
10015
10000
9981
9966
9960
9956
9941
9919
9903
9887
9861
9841
9832
9826
9821
9824
9836
9843
9841
9836
9824
9804
9788
9775
9761
9741
9720
9706
9694
9678
9662
9651
9642
9639
9645
9659
9669
9661
9646
9634
9622
9609
9609
9631
9660
9681
9695
9704
9700
9687
9672
9662
9649
9628
9601
9565
9514
9448
9386
9337
9283
9222
9173
9141
9110
9074
9038
9002
8972
8952
8942
8936
8920
8894
8870
8844
8808
8769
8739
8721
8705
8682
8657
8620
8565
8503
8445
8386
8327
8280
8242
8200
8152
8108
8068
8028
7990
7961
7941
7924
7912
7902
7887
7852
7798
7745
7702
7663
7625
7591
7561
7528
7500
7481
7457
7421
7382
7348
7319
7292
7272
7260
7238
7200
7155
7109
7064
7027
7008
6996
6976
6943
6916
6902
6890
6873
6858
6848
6826
6794
6758
6713
6668
6637
6637
6674
6736
6820
6930
7060
7201
7359
7536
7720
7894
8057
8216
8370
8518
8666
8809
8931
9031
9112
9190
9269
9344
9412
9482
9550
9608
9658
9692
9705
9704
9703
9708
9706
9695
9684
9676
9669
9667
9659
9637
9604
9563
9523
9487
9453
9424
9410
9406
9400
9392
9388
9388
9387
9384
9382
9377
9372
9370
9371
9363
9341
9320
9309
9304
9295
9281
9268
9253
9228
9202
9181
9156
9125
9099
9076
9058
9049
9052
9060
9073
9095
9114
9117
9108
9099
9100
9109
9117
9127
9134
9130
9117
9102
9088
9070
9039
9003
8976
8946
8903
8854
8813
8777
8732
8683
8641
8605
8564
8513
8460
8411
8361
8320
8292
8270
8245
8224
8207
8183
8149
8116
8086
8058
8038
8021
7991
7951
7911
7875
7834
7784
7732
7687
7646
7601
7557
7520
7481
7430
7374
7324
7276
7229
7195
7175
7164
7164
7174
7183
7175
7152
7130
7114
7090
7054
7014
6972
6923
6872
6829
6793
6760
6731
6708
6692
6685
6696
6727
6772
6827
6898
6988
7088
7200
7331
7480
7639
7787
7924
8068
8218
8372
8534
8710
8892
9072
9250
9421
9570
9685
9765
9822
9866
9894
9908
9911
9905
9894
9886
9883
9875
9860
9848
9835
9818
9805
9804
9817
9836
9861
9889
9909
9919
9928
9948
9978
10002
10017
10030
10035
10029
10021
10014
10001
9974
9937
9894
9841
9779
9719
9671
9639
9621
9620
9633
9651
9665
9672
9669
9662
9658
9656
9648
9631
9612
9598
9580
9559
9542
9536
9543
9556
9576
9599
9621
9636
9646
9658
9668
9667
9661
9656
9643
9615
9582
9544
9496
9436
9366
9299
9239
9182
9133
9091
9045
9002
8973
8949
8919
8887
8857
8822
8770
8706
8639
8574
8506
8439
8387
8351
8317
8275
8237
8209
8185
8165
8150
8131
8105
8077
8054
8038
8020
8000
7982
7956
7911
7852
7789
7724
7665
7620
7585
7548
7510
7490
7485
7477
7463
7449
7434
7413
7382
7347
7317
7284
7250
7213
7167
7114
7061
7013
6973
6937
6902
6872
6842
6812
6787
6766
6740
6718
6712
6718
6726
6731
6739
6748
6755
6769
6808
6875
6968
7075
7196
7333
7478
7627
7779
7936
8096
8258
8424
8588
8742
8883
9018
9146
9271
9397
9517
9624
9713
9786
9847
9894
9924
9949
9978
10000
10013
10024
10036
10042
10038
10023
10010
10000
9990
9990
10002
10015
10020
10026
10044
10069
10089
10103
10102
10083
10061
10044
10032
10017
10003
9996
9992
9986
9983
9987
9991
9997
10013
10030
10034
10021
9995
9970
9950
9925
9895
9876
9865
9853
9839
9819
9796
9773
9750
9735
9726
9717
9705
9697
9691
9682
9681
9700
9730
9747
9756
9769
9778
9775
9761
9737
9710
9680
9645
9607
9568
9529
9488
9444
9396
9340
9288
9245
9207
9173
9135
9089
9039
8990
8946
8905
8857
8805
8762
8722
8683
8650
8624
8598
8566
8531
8500
8468
8433
8399
8365
8324
8276
8229
8186
8144
8101
8057
8009
7967
7943
7938
7939
7928
7906
7883
7856
7818
7771
7733
7711
7687
7660
7636
7608
7569
7530
7503
7482
7455
7429
7413
7404
7392
7376
7353
7313
7256
7191
7124
7056
6996
6956
6937
6930
6927
6925
6922
6914
6905
6899
6888
6861
6819
6773
6729
6687
6645
6624
6630
6644
6669
6716
6777
6853
6954
7085
7237
7392
7540
7695
7856
8017
8184
8358
8531
8695
8857
9017
9163
9292
9415
9538
9653
9751
9831
9895
9936
9961
9974
9970
9951
9926
9907
9898
9897
9903
9916
9934
9948
9961
9981
10002
10011
10009
10014
10030
10040
10042
10048
10056
10055
10044
10032
10013
9984
9948
9923
9910
9892
9867
9852
9849
9851
9858
9874
9893
9909
9923
9938
9944
9939
9929
9915
9893
9864
9836
9813
9788
9761
9740
9725
9710
9699
9695
9696
9701
9716
9738
9750
9752
9756
9764
9772
9776
9782
9787
9785
9775
9755
9721
9666
9601
9549
9516
9489
9454
9419
9394
9375
9354
9334
9316
9289
9251
9206
9154
9097
9036
8975
8917
8859
8804
8758
8715
8678
8657
8647
8640
8629
8612
8594
8574
8542
8500
8456
8407
8354
8307
8266
8223
8178
8141
8113
8082
8051
8032
8017
7999
7982
7971
7965
7950
7924
7891
7851
7799
7744
7694
7637
7576
7532
7505
7489
7478
7468
7462
7463
7460
7450
7442
7431
7412
7391
7361
7311
7242
7163
7096
7047
7003
6965
6941
6926
6922
6926
6932
6930
6917
6896
6868
6832
6794
6766
6756
6768
6808
6874
6956
7057
7183
7338
7519
7705
7889
8075
8256
8429
8596
8749
8877
8985
9088
9188
9288
9379
9460
9524
9565
9589
9614
9641
9659
9670
9685
9698
9704
9705
9710
9710
9695
9671
9642
9605
9571
9546
9540
9546
9554
9562
9575
9592
9607
9620
9635
9653
9664
9665
9657
9634
9601
9569
9546
9524
9494
9459
9435
9421
9405
9389
9374
9358
9343
9332
9332
9338
9346
9361
9381
9396
9405
9415
9427
9437
9446
9451
9450
9442
9435
9432
9426
9406
9372
9338
9308
9279
9251
9227
9201
9173
9154
9148
9148
9140
9124
9107
9089
9066
9050
9040
9024
8997
8961
8919
8877
8825
8761
8701
8650
8602
8553
8506
8461
8416
8386
8375
8372
8367
8355
8339
8313
8282
8253
8223
8182
8132
8089
8060
8029
7992
7958
7928
7896
7862
7830
7800
7770
7749
7733
7718
7711
7709
7706
7694
7671
7640
7607
7571
7534
7500
7465
7421
7372
7331
7300
7270
7234
7198
7171
7146
7119
7100
7091
7082
7072
7068
7068
7057
7035
7011
6993
6979
6974
6973
6978
6989
7012
7052
7104
7171
7257
7365
7484
7603
7731
7874
8024
8171
8313
8445
8562
8658
8731
8799
8873
8946
9015
9078
9135
9187
9235
9272
9285
9274
9260
9247
9223
9195
9180
9181
9182
9178
9172
9174
9184
9196
9212
9237
9258
9266
9263
9252
9239
9232
9226
9211
9183
9148
9114
9081
9048
9016
8990
8969
8946
8924
8911
8905
8905
8917
8936
8954
8970
8988
9010
9025
9033
9045
9061
9074
9087
9105
9127
9139
9140
9155
9185
9208
9215
9209
9188
9151
9106
9070
9049
9030
9010
8997
8985
8964
8943
8926
8912
8889
8858
8833
8811
8785
8760
8735
8690
8626
8560
8500
8447
8402
8366
8338
8312
8287
8274
8266
8248
8222
8203
8190
8173
8152
8132
8108
8073
8032
7996
7967
7935
7901
7864
7816
7757
7702
7661
7633
7610
7594
7592
7595
7591
7580
7571
7563
7553
7538
7516
7485
7448
7409
7369
7326
7285
7248
7209
7175
7155
7154
7172
7197
7223
7262
7321
7388
7459
7544
7643
7747
7854
7973
8100
8230
8366
8499
8622
8736
8845
8954
9065
9179
9296
9416
9533
9637
9727
9806
9866
9911
9952
9988
10008
10015
10019
10025
10033
10043
10049
10044
10025
9996
9963
9928
9897
9880
9882
9891
9897
9900
9903
9911
9923
9935
9949
9964
9985
10009
10032
10049
10054
10053
10056
10054
10042
10023
9997
9963
9926
9894
9870
9853
9840
9837
9842
9845
9842
9840
9836
9832
9828
9828
9831
9834
9837
9849
9867
9878
9884
9890
9897
9899
9897
9898
9896
9882
9863
9854
9847
9840
9844
9854
9856
9843
9820
9785
9735
9677
9618
9560
9509
9467
9429
9389
9339
9279
9223
9174
9124
9079
9050
9030
9001
8964
8938
8924
8909
8892
8886
8886
8882
8872
8863
8852
8833
8811
8785
8753
8715
8669
8619
8566
8504
8438
8379
8330
8287
8254
8237
8233
8234
8247
8264
8269
8260
8244
8224
8202
8181
8158
8129
8090
8040
7996
7963
7931
7899
7865
7820
7767
7716
7677
7652
7633
7617
7612
7616
7628
7654
7709
7793
7881
7967
8065
8183
8322
8483
8660
8842
9016
9178
9337
9487
9626
9763
9905
10038
10153
10251
10332
10399
10459
10513
10558
10589
10602
10608
10616
10622
10617
10601
10578
10558
10550
10553
10567
10583
10597
10615
10636
10657
10681
10710
10740
10768
10803
10849
10894
10927
10957
10988
11016
11034
11043
11045
11037
11019
10993
10964
10930
10892
10854
10810
10767
10733
10701
10665
10631
10602
10585
10571
10556
10549
10554
10567
10582
10602
10622
10630
10627
10623
10626
10636
10640
10638
10639
10639
10637
10642
10650
10657
10659
10658
10653
10645
10637
10632
10623
10604
10573
10534
10487
10434
10381
10332
10288
10245
10203
10159
10103
10041
9983
9941
9914
9884
9843
9803
9763
9722
9688
9667
9648
9625
9606
9594
9584
9573
9565
9558
9545
9516
9479
9443
9409
9367
9317
9274
9237
9194
9150
9108
9067
9032
9007
8991
8978
8967
8963
8964
8957
8939
8920
8900
8872
8840
8805
8755
8694
8633
8580
8532
8491
8460
8436
8405
8363
8322
8292
8272
8257
8257
8268
8276
8278
8282
8280
8260
8228
8193
8153
8100
8040
7982
7932
7881
7827
7783
7747
7706
7664
7631
7611
7603
7619
7664
7731
7816
7924
8055
8205
8364
8530
8704
8877
9049
9223
9392
9548
9687
9817
9936
10032
10113
10186
10252
10313
10364
10405
10443
10483
10522
10562
10594
10615
10632
10661
10703
10744
10783
10817
10841
10845
10833
10812
10781
10747
10721
10704
10690
10682
10682
10693
10708
10728
10762
10800
10828
10839
10840
10845
10851
10850
10843
10831
10811
10786
10763
10743
10719
10684
10642
10602
10569
10543
10526
10520
10517
10517
10534
10567
10604
10642
10686
10730
10767
10794
10808
10801
10775
10738
10702
10671
10641
10616
10605
10597
10582
10566
10549
10521
10485
10455
10439
10430
10425
10423
10419
10405
10373
10328
10285
10242
10196
10147
10095
10045
10002
9969
9935
9896
9852
9812
9778
9742
9704
9672
9646
9626
9621
9630
9641
9637
9615
9591
9566
9540
9521
9502
9468
9411
9339
9266
9193
9122
9065
9031
9018
9016
9017
9013
9001
8988
8984
8985
8981
8965
8943
8920
8887
8849
8811
8764
8711
8661
8618
8580
8538
8500
8477
8469
8457
8435
8415
8400
8382
8357
8328
8291
8255
8224
8196
8166
8134
8105
8074
8029
7974
7919
7872
7832
7793
7762
7742
7719
7689
7666
7652
7643
7642
7650
7669
7695
7735
7790
7864
7955
8062
8190
8334
8478
8613
8749
8895
9038
9172
9306
9438
9564
9694
9815
9916
9995
10063
10126
10178
10209
10231
10262
10298
10327
10349
10364
10370
10370
10372
10378
10385
10388
10393
10399
10399
10398
10403
10408
10408
10406
10409
10415
10415
10406
10403
10408
10413
10416
10423
10429
10425
10418
10423
10433
10433
10424
10414
10400
10376
10357
10351
10351
10352
10362
10373
10364
10339
10319
10315
10322
10323
10314
10301
10287
10276
10265
10241
10210
10179
10155
10143
10132
10121
10127
10148
10155
10144
10131
10121
10106
10082
10063
10054
10044
10031
10021
10010
9996
9984
9965
9929
9875
9820
9775
9728
9666
9596
9539
9495
9446
9398
9363
9330
9291
9255
9229
9212
9203
9204
9209
9203
9184
9161
9135
9101
9054
8997
8926
8849
8777
8719
8671
8622
8575
8544
8533
8533
8541
8554
8568
8581
8590
8595
8588
8569
8546
8522
8487
8443
8401
8369
8342
8309
8278
8253
8229
8202
8174
8145
8113
8082
8054
8025
7998
7974
7947
7913
7866
7812
7765
7731
7694
7650
7609
7571
7533
7489
7443
7403
7371
7344
7318
7290
7255
7228
7231
7269
7334
7425
7538
7661
7788
7929
8089
8262
8436
8606
8770
8909
9017
9115
9213
9300
9375
9442
9491
9528
9567
9618
9675
9722
9755
9790
9824
9841
9849
9852
9844
9826
9803
9776
9742
9706
9671
9644
9620
9600
9591
9600
9614
9619
9617
9620
9632
9646
9666
9695
9721
9740
9749
9746
9724
9687
9645
9604
9561
9526
9507
9492
9474
9453
9444
9450
9455
9459
9469
9481
9482
9472
9469
9478
9487
9500
9520
9535
9545
9555
9569
9579
9572
9556
9536
9504
9461
9416
9376
9330
9280
9249
9241
9241
9240
9242
9243
9233
9216
9204
9198
9182
9156
9127
9095
9066
9040
9006
8958
8899
8835
8770
8703
8637
8582
8538
8501
8471
8451
8437
8419
8398
8382
8372
8356
8333
8305
8274
8239
8201
8160
8116
8073
8032
7994
7960
7938
7930
7931
7936
7940
7943
7952
7963
7951
7914
7872
7826
7775
7728
7686
7643
7595
7552
7517
7480
7442
7413
7389
7362
7326
7287
7257
7235
7222
7227
7242
7256
7279
7324
7389
7469
7558
7658
7773
7901
8036
8179
8329
8480
8631
8789
8946
9090
9227
9367
9499
9610
9701
9773
9820
9848
9871
9889
9897
9889
9875
9870
9870
9864
9848
9833
9821
9809
9806
9818
9835
9858
9898
9948
9989
10030
10086
10150
10201
10234
10258
10281
10301
10309
10305
10298
10281
10254
10225
10191
10151
10110
10071
10039
10005
9973
9949
9926
9902
9888
9887
9890
9891
9896
9913
9942
9976
10018
10055
10072
10070
10061
10057
10055
10039
10010
9984
9960
9934
9913
9904
9894
9880
9874
9872
9860
9837
9818
9808
9799
9794
9788
9772
9745
9705
9653
9590
9521
9458
9410
9373
9339
9311
9295
9286
9272
9257
9251
9248
9237
9217
9194
9173
9144
9108
9065
9005
8935
8868
8812
8761
8706
8662
8639
8628
8623
8622
8618
8604
8580
8557
8539
8513
8479
8446
8417
8394
8376
8362
8344
8314
8277
8242
8203
8161
8128
8103
8071
8028
7982
7940
7897
7852
7818
7792
7760
7721
7688
7676
7677
7670
7667
7670
7666
7655
7632
7596
7551
7499
7453
7416
7372
7324
7297
7296
7309
7339
7400
7495
7610
7743
7889
8034
8176
8317
8461
8607
8748
8887
9033
9172
9290
9400
9513
9624
9728
9827
9924
10018
10103
10180
10247
10298
10331
10348
10357
10355
10346
10341
10341
10338
10328
10325
10325
10326
10337
10366
10407
10438
10457
10475
10494
10505
10513
10523
10526
10524
10524
10525
10515
10493
10465
10444
10430
10417
10413
10421
10426
10420
10408
10397
10383
10355
10318
10289
10265
10239
10220
10198
10173
10158
10162
10179
10195
10210
10228
10243
10250
10256
10273
10300
10319
10325
10325
10315
10293
10263
10238
10214
10180
10137
10096
10053
10004
9956
9915
9876
9837
9808
9792
9782
9775
9775
9774
9762
9745
9728
9710
9678
9633
9586
9532
9465
9391
9327
9279
9243
9218
9201
9185
9161
9133
9108
9080
9049
9019
8987
8945
8896
8845
8794
8736
8676
8625
8587
8558
8530
8498
8469
8443
8407
8376
8361
8339
8303
8263
8226
8188
8151
8119
8092
8070
8057
8055
8057
8055
8049
8046
8040
8017
7975
7930
7880
7821
7766
7721
7681
7644
7616
7597
7575
7553
7541
7534
7523
7499
7461
7417
7374
7327
7275
7225
7177
7132
7098
7072
7053
7044
7048
7058
7066
7070
7073
7082
7099
7127
7182
7267
7363
7460
7582
7729
7887
8049
8214
8373
8531
8700
8881
9063
9233
9392
9552
9708
9850
9975
10072
10127
10150
10161
10166
10162
10155
10160
10182
10209
10227
10251
10281
10307
10326
10339
10341
10322
10289
10258
10235
10218
10203
10199
10216
10240
10268
10310
10362
10403
10429
10447
10459
10455
10433
10404
10373
10331
10283
10248
10227
10205
10185
10181
10190
10206
10230
10248
10246
10226
10193
10161
10126
10093
10082
10096
10123
10156
10199
10245
10282
10312
10334
10348
10345
10329
10305
10268
10219
10168
10123
10086
10056
10037
10026
10015
9997
9979
9962
9931
9887
9844
9800
9749
9689
9620
9552
9489
9431
9391
9372
9364
9356
9347
9336
9317
9292
9266
9239
9209
9174
9136
9097
9052
9005
8965
8920
8864
8806
8762
8734
8711
8688
8673
8658
8637
8619
8609
8596
8572
8545
8524
8501
8467
8432
8400
8360
8313
8274
8247
8215
8168
8120
8081
8047
8019
8006
8003
8001
7997
7990
7981
7968
7948
7923
7896
7864
7829
7801
7775
7734
7675
7623
7583
7542
7504
7475
7444
7403
7363
7331
7297
7265
7245
7235
7229
7227
7231
7238
7237
7223
7205
7184
7150
7100
7045
6992
6944
6917
6933
6987
7064
7157
7277
7428
7604
7799
8005
8210
8406
8590
8761
8920
9060
9178
9291
9399
9500
9599
9698
9786
9859
9922
9976
10014
10033
10045
10056
10059
10048
10032
10015
9986
9942
9907
9890
9883
9882
9899
9930
9964
9997
10024
10037
10035
10029
10031
10039
10051
10069
10101
10137
10161
10170
10167
10150
10123
10092
10056
10014
9961
9904
9859
9827
9804
9795
9806
9825
9831
9834
9849
9866
9878
9897
9924
9952
9969
9973
9970
9958
9936
9912
9892
9873
9851
9834
9821
9803
9786
9779
9774
9769
9767
9769
9764
9752
9744
9735
9715
9685
9652
9618
9579
9529
9473
9415
9348
9267
9188
9127
9079
9037
9009
8994
8980
8963
8945
8926
8902
8874
8848
8820
8778
8727
8677
8626
8566
8502
8450
8408
8360
8309
8278
8271
8267
8262
8264
8269
8270
8270
8274
8279
8268
8236
8196
8150
8106
8075
8052
8024
7986
7946
7907
7859
7804
7751
7710
7676
7652
7641
7634
7622
7612
7617
7631
7639
7640
7636
7621
7589
7548
7507
7460
7399
7330
7273
7224
7172
7120
7083
7065
7057
7063
7094
7152
7231
7335
7457
7593
7741
7891
8050
8218
8378
8526
8671
8810
8940
9068
9201
9332
9446
9552
9654
9741
9808
9863
9905
9935
9959
9986
10023
10052
10062
10061
10054
10040
10024
10006
9978
9944
9915
9901
9898
9899
9907
9919
9929
9935
9941
9942
9937
9927
9919
9909
9890
9861
9832
9802
9766
9723
9683
9656
9639
9626
9624
9630
9635
9635
9637
9644
9648
9641
9633
9632
9633
9641
9657
9673
9677
9667
9659
9654
9643
9633
9635
9640
9642
9645
9652
9657
9655
9656
9665
9668
9658
9646
9637
9615
9571
9516
9466
9419
9365
9312
9271
9235
9202
9175
9152
9122
9087
9056
9032
9009
8988
8972
8956
8931
8905
8883
8854
8807
8749
8695
8649
8605
8562
8523
8490
8457
8421
8381
8339
8296
8252
8203
8151
8111
8096
8099
8100
8090
8077
8063
8043
8016
7985
7950
7908
7865
7826
7787
7744
7700
7665
7642
7619
7598
7592
7598
7604
7603
7592
7573
7548
7522
7491
7448
7395
7346
7311
7289
7274
7267
7279
7313
7371
7465
7599
7757
7929
8117
8319
8516
8699
8866
9025
9175
9319
9461
9597
9721
9835
9951
10064
10161
10240
10321
10409
10491
10563
10625
10676
10711
10726
10728
10714
10686
10658
10641
10632
10622
10612
10606
10601
10600
10619
10655
10692
10716
10729
10743
10757
10760
10754
10748
10737
10721
10705
10691
10673
10649
10633
10629
10630
10631
10634
10638
10640
10643
10650
10657
10651
10638
10625
10614
10598
10577
10562
10551
10536
10523
10517
10515
10506
10493
10486
10481
10473
10469
10480
10505
10528
10551
10572
10582
10572
10550
10526
10503
10474
10443
10412
10376
10334
10289
10246
10203
10161
10128
10101
10066
10022
9977
9929
9875
9814
9751
9688
9626
9572
9530
9494
9453
9412
9378
9347
9308
9264
9222
9182
9140
9102
9078
9063
9048
9037
9023
8992
8950
8916
8897
8880
8858
8836
8816
8789
8751
8710
8673
8641
8613
8586
8548
8500
8449
8402
8359
8317
8279
8249
8219
8185
8156
8135
8110
8075
8037
8009
7990
7963
7930
7909
7901
7892
7879
7864
7843
7813
7779
7745
7711
7673
7626
7575
7523
7471
7431
7408
7392
7388
7403
7432
7457
7482
7529
7606
7708
7834
7985
8159
8348
8550
8764
8979
9181
9377
9577
9769
9940
10095
10251
10409
10551
10676
10795
10896
10966
11015
11060
11096
11113
11113
11104
11087
11065
11047
11035
11026
11016
11003
10989
10973
10960
10964
10981
10996
11009
11030
11057
11084
11113
11149
11185
11213
11238
11268
11293
11309
11325
11341
11348
11340
11328
11327
11324
11304
11283
11266
11243
11206
11163
11126
11097
11068
11042
11023
11009
10996
10992
10995
11000
11008
11030
11064
11092
11115
11140
11165
11181
11188
11190
11182
11151
11103
11053
11004
10953
10901
10849
10799
10749
10708
10680
10655
10627
10604
10595
10584
10565
10547
10528
10498
10457
10408
10352
10289
10219
10154
10092
10027
9965
9913
9869
9828
9797
9774
9745
9704
9660
9628
9602
9562
9507
9452
9399
9346
9301
9270
9245
9220
9203
9201
9203
9198
9185
9171
9154
9126
9098
9070
9029
8970
8902
8836
8773
8709
8654
8610
8572
8542
8528
8522
8510
8493
8483
8479
8473
8463
8455
8441
8414
8377
8335
8284
8224
8161
8106
8055
8002
7950
7904
7861
7818
7778
7752
7731
7705
7676
7648
7621
7601
7593
7591
7585
7577
7581
7600
7630
7674
7738
7825
7920
8021
8141
8286
8443
8605
8784
8974
9161
9339
9516
9694
9862
10020
10174
10321
10455
10577
10694
10801
10887
10955
11015
11066
11103
11131
11151
11159
11150
11129
11106
11080
11056
11043
11040
11036
11026
11016
11016
11022
11030
11043
11061
11082
11105
11134
11167
11193
11208
11228
11258
11281
11291
11293
11284
11262
11230
11199
11174
11152
11132
11117
11106
11093
11079
11062
11038
11014
11002
11000
10995
10983
10980
10984
10980
10967
10961
10963
10966
10966
10967
10968
10963
10953
10941
10933
10922
10909
10897
10878
10851
10825
10803
10777
10739
10694
10650
10601
10544
10483
10430
10386
10343
10294
10241
10185
10132
10084
10041
9996
9948
9904
9874
9854
9831
9804
9780
9756
9722
9690
9670
9650
9623
9589
9546
9493
9436
9380
9322
9261
9206
9157
9107
9057
9010
8971
8942
8917
8899
8890
8878
8854
8826
8800
8777
8753
8731
8715
8698
8674
8654
8646
8641
8630
8611
8591
8567
8530
8487
8447
8406
8365
8330
8301
8271
8243
8218
8196
8175
8149
8127
8111
8091
8065
8042
8020
7990
7949
7905
7860
7811
7759
7711
7664
7617
7574
7545
7526
7508
7491
7477
7463
7443
7423
7409
7400
7401
7426
7485
7575
7683
7807
7950
8108
8274
8452
8639
8824
9003
9181
9347
9492
9624
9753
9877
9989
10097
10200
10285
10349
10404
10457
10506
10546
10581
10614
10633
10638
10639
10643
10641
10626
10606
10588
10560
10519
10490
10480
10470
10457
10451
10453
10455
10449
10443
10444
10439
10424
10412
10407
10392
10362
10329
10291
10245
10203
10176
10161
10145
10130
10123
10126
10134
10144
10164
10193
10222
10248
10272
10288
10292
10288
10290
10301
10309
10317
10325
10326
10322
10324
10336
10347
10346
10338
10325
10300
10265
10227
10186
10142
10099
10059
10018
9978
9947
9932
9920
9893
9851
9805
9763
9713
9649
9587
9536
9490
9451
9420
9389
9352
9318
9296
9277
9250
9218
9187
9154
9115
9077
9047
9015
8982
8956
8936
8914
8888
8865
8850
8836
8816
8787
8752
8713
8670
8628
8580
8522
8465
8417
8369
8318
8273
8237
8202
8153
8097
8051
8016
7983
7957
7939
7922
7897
7871
7851
7831
7810
7789
7771
7754
7736
7722
7714
7703
7688
7673
7659
7646
7634
7619
7601
7582
7560
7539
7521
7502
7494
7514
7560
7621
7695
7793
7919
8062
8213
8377
8554
8729
8900
9074
9249
9413
9567
9712
9844
9960
10070
10179
10276
10356
10430
10506
10571
10621
10657
10676
10678
10665
10644
10617
10585
10549
10513
10480
10444
10405
10373
10351
10330
10305
10290
10293
10302
10315
10336
10358
10374
10392
10415
10435
10440
10432
10417
10401
10382
10363
10356
10352
10333
10303
10270
10235
10203
10181
10172
10171
10170
10168
10167
10159
10149
10151
10163
10172
10178
10191
10204
10205
10200
10201
10211
10220
10225
10235
10253
10267
10272
10274
10276
10271
10265
10261
10248
10220
10185
10153
10119
10076
10034
9999
9963
9922
9886
9864
9844
9820
9798
9772
9732
9682
9631
9585
9533
9476
9423
9375
9327
9283
9250
9219
9182
9140
9099
9055
9011
8973
8946
8925
8890
8843
8805
8781
8754
8719
8686
8656
8625
8592
8568
8546
8516
8487
8473
8461
8442
8427
8420
8406
8386
8370
8357
8336
8305
8274
8241
8200
8159
8128
8102
8070
8033
8000
7970
7942
7929
7945
7992
8056
8136
8249
8388
8537
8695
8867
9048
9234
9432
9645
9855
10050
10235
10418
10590
10740
10870
10985
11079
11153
11213
11262
11295
11313
11328
11341
11345
11339
11335
11337
11338
11335
11344
11371
11401
11427
11454
11480
11498
11510
11528
11555
11581
11603
11624
11641
11648
11650
11651
11647
11631
11609
11591
11578
11562
11548
11544
11540
11530
11527
11525
11510
11475
11426
11373
11320
11273
11248
11247
11256
11269
11288
11317
11342
11357
11368
11374
11373
11362
11349
11338
11332
11332
11342
11363
11382
11402
11422
11425
11410
11386
11363
11337
11296
11247
11200
11155
11110
11072
11051
11036
11016
10987
10948
10894
10827
10761
10698
10636
10577
10532
10500
10467
10425
10384
10351
10316
10278
10243
10215
10185
10145
10100
10051
9997
9942
9894
9854
9816
9781
9755
9737
9716
9692
9671
9645
9605
9565
9531
9492
9439
9385
9343
9306
9273
9254
9246
9236
9221
9204
9187
9166
9140
9117
9098
9071
9039
9016
9000
8975
8942
8904
8858
8808
8760
8719
8675
8629
8591
8568
8554
8537
8517
8501
8484
8459
8432
8410
8395
8387
8394
8424
8479
8559
8663
8796
8955
9130
9325
9538
9753
9964
10167
10358
10532
10690
10843
10990
11120
11232
11335
11424
11492
11549
11606
11664
11717
11768
11824
11880
11926
11971
12017
12053
12074
12091
12112
12131
12140
12146
12155
12160
12153
12141
12129
12117
12108
12117
12144
12177
12210
12246
12284
12317
12341
12357
12364
12355
12329
12300
12267
12230
12190
12157
12132
12113
12103
12100
12103
12099
12086
12070
12049
12022
11996
11979
11972
11969
11985
12031
12082
12118
12142
12164
12182
12182
12164
12136
12096
12044
11994
11953
11917
11884
11865
11855
11844
11829
11813
11794
11765
11725
11679
11627
11569
11512
11464
11423
11386
11357
11335
11313
11282
11252
11231
11211
11180
11144
11114
11081
11035
10992
10959
10919
10862
10793
10729
10668
10608
10557
10522
10490
10458
10433
10420
10412
10399
10379
10355
10328
10298
10267
10235
10200
10168
10146
10128
10098
10060
10028
9989
9933
9870
9810
9754
9702
9656
9617
9581
9540
9503
9482
9468
9449
9425
9404
9382
9357
9338
9329
9317
9296
9278
9265
9246
9219
9186
9149
9102
9056
9021
8983
8933
8881
8838
8802
8765
8725
8699
8688
8681
8680
8699
8738
8792
8864
8965
9091
9232
9390
9573
9775
9980
10187
10400
10615
10825
11030
11225
11392
11525
11632
11724
11798
11851
11892
11925
11950
11977
12014
12051
12075
12083
12092
12108
12128
12162
12210
12259
12298
12330
12356
12377
12390
12398
12409
12416
12417
12421
12434
12451
12458
12459
12458
12451
12434
12414
12397
12381
12358
12331
12307
12290
12274
12270
12279
12286
12288
12293
12303
12311
12310
12305
12300
12289
12274
12266
12268
12268
12259
12250
12244
12231
12213
12195
12170
12140
12117
12106
12103
12099
12094
12094
12095
12095
12097
12102
12099
12080
12055
12026
11985
11934
11880
11822
11754
11680
11610
11553
11502
11457
11420
11383
11344
11307
11282
11267
11246
11214
11182
11151
11125
11106
11092
11071
11037
10992
10949
10916
10888
10856
10823
10786
10743
10700
10664
10632
10593
10548
10501
10446
10383
10322
10272
10226
10179
10133
10092
10053
10012
9982
9967
9961
9956
9952
9947
9933
9911
9892
9872
9841
9806
9783
9773
9758
9734
9707
9679
9645
9606
9565
9520
9471
9426
9384
9330
9264
9206
9163
9118
9067
9024
8996
8974
8946
8917
8896
8875
8852
8832
8815
8795
8774
8754
8733
8709
8684
8663
8649
8646
8664
8703
8758
8820
8889
8979
9094
9225
9368
9525
9690
9861
10034
10211
10384
10546
10696
10838
10965
11080
11193
11306
11408
11492
11565
11632
11688
11730
11765
11790
11802
11804
11801
11798
11793
11785
11779
11777
11773
11772
11779
11786
11780
11770
11769
11769
11764
11760
11761
11755
11739
11723
11707
11688
11666
11642
11624
11611
11592
11565
11533
11496
11458
11430
11413
11396
11379
11366
11356
11349
11344
11348
11359
11372
11386
11409
11432
11449
11470
11498
11524
11539
11546
11556
11568
11570
11559
11545
11524
11487
11442
11406
11372
11334
11302
11284
11271
11253
11235
11222
11204
11178
11154
11133
11104
11062
11017
10977
10928
10869
10810
10753
10699
10651
10620
10599
10572
10538
10505
10469
10430
10397
10373
10354
10329
10297
10266
10232
10187
10136
10088
10046
10004
9964
9927
9892
9853
9819
9796
9775
9746
9721
9709
9702
9690
9676
9669
9665
9653
9635
9615
9583
9541
9498
9460
9424
9387
9351
9316
9279
9241
9215
9196
9169
9132
9089
9043
8995
8957
8937
8926
8905
8875
8845
8819
8795
8777
8773
8782
8799
8823
8868
8937
9023
9132
9259
9395
9536
9687
9843
9995
10134
10268
10402
10532
10657
10789
10924
11050
11163
11270
11373
11462
11537
11602
11653
11685
11705
11716
11713
11698
11675
11648
11614
11579
11551
11533
11523
11514
11503
11505
11513
11511
11506
11506
11503
11495
11491
11500
11520
11537
11548
11555
11549
11532
11513
11496
11479
11462
11453
11450
11440
11424
11415
11417
11417
11410
11408
11412
11418
11425
11439
11458
11475
11491
11510
11527
11533
11528
11522
11514
11501
11493
11496
11501
11497
11490
11486
11483
11473
11458
11445
11427
11402
11371
11337
11300
11263
11223
11181
11138
11099
11068
11040
11007
10971
10944
10923
10894
10850
10804
10756
10701
10644
10595
10552
10507
10466
10430
10388
10337
10298
10285
10284
10271
10246
10222
10197
10163
10123
10083
10036
9980
9926
9884
9845
9802
9763
9729
9693
9659
9636
9615
9585
9547
9519
9504
9489
9470
9452
9432
9407
9374
9342
9313
9285
9258
9235
9212
9180
9148
9119
9089
9057
9032
9015
8995
8964
8933
8915
8901
8885
8879
8889
8918
8973
9059
9176
9308
9450
9608
9780
9951
10122
10296
10469
10638
10814
10994
11164
11312
11438
11547
11637
11709
11770
11826
11867
11890
11906
11924
11943
11961
11984
12009
12020
12010
11992
11977
11960
11940
11925
11917
11913
11912
11918
11930
11944
11957
11973
11990
12001
12005
12019
12041
12060
12070
12078
12089
12093
12092
12095
12096
12085
12063
12038
12008
11973
11943
11921
11899
11873
11852
11848
11847
11839
11833
11832
11830
11828
11830
11838
11844
11838
11828
11818
11801
11779
11763
11752
11737
11714
11693
11679
11660
11640
11627
11623
11617
11607
11598
11591
11577
11551
11524
11497
11464
11424
11378
11319
11252
11187
11128
11070
11013
10960
10915
10867
10806
10740
10686
10639
10591
10546
10513
10486
10455
10425
10401
10380
10358
10338
10319
10291
10253
10214
10184
10159
10141
10127
10109
10080
10042
10000
9953
9900
9848
9809
9781
9747
9703
9658
9612
9559
9507
9464
9425
9383
9344
9317
9295
9274
9259
9256
9254
9246
9233
9215
9192
9160
9122
9079
9031
8981
8938
8902
8866
8829
8803
8781
8751
8718
8696
8682
8660
8625
8591
8562
8525
8483
8456
8448
8456
8483
8535
8603
8681
8779
8907
9050
9203
9370
9553
9739
9916
10097
10282
10456
10613
10762
10905
11033
11143
11240
11326
11397
11452
11500
11544
11569
11575
11574
11565
11548
11529
11516
11511
11506
11501
11500
11499
11497
11501
11518
11541
11557
11574
11600
11626
11640
11648
11659
11671
11676
11683
11696
11708
11716
11731
11754
11770
11775
11773
11762
11734
11696
11660
11627
11584
11531
11488
11457
11425
11392
11370
11358
11345
11330
11327
11332
11334
11333
11334
11332
11325
11320
11323
11326
11322
11315
11314
11310
11297
11284
11280
11282
11278
11274
11273
11269
11259
11247
11233
11209
11175
11135
11094
11049
11003
10963
10927
10885
10841
10801
10757
10703
10642
10576
10504
10430
10363
10308
10260
10211
10167
10131
10098
10061
10025
9998
9981
9966
9953
9938
9913
9880
9850
9832
9819
9798
9772
9740
9703
9670
9644
9619
9593
9570
9552
9533
9508
9477
9446
9404
9349
9289
9230
9172
9113
9058
9015
8984
8946
8901
8863
8829
8796
8767
8747
8727
8700
8679
8672
8667
8655
8645
8640
8631
8611
8589
8567
8534
8489
8447
8412
8366
8308
8251
8201
8154
8109
8067
8028
7992
7960
7943
7947
7967
8003
8069
8165
8283
8425
8590
8764
8940
9118
9304
9493
9675
9852
10022
10183
10331
10472
10607
10725
10824
10917
11009
11088
11150
11203
11244
11268
11284
11298
11310
11309
11296
11282
11273
11265
11260
11266
11275
11275
11268
11270
11279
11285
11285
11283
11277
11264
11247
11241
11242
11237
11229
11227
11224
11214
11203
11196
11187
11169
11155
11151
11142
11129
11128
11137
11144
11144
11145
11146
11133
11113
11099
11096
11096
11094
11090
11084
11071
11058
11058
11060
11047
11026
11006
10984
10955
10926
10904
10884
10861
10841
10829
10813
10785
10759
10737
10713
10679
10641
10608
10573
10523
10462
10403
10345
10286
10234
10188
10143
10102
10070
10045
10017
9982
9949
9919
9883
9844
9810
9776
9734
9687
9646
9610
9569
9528
9496
9472
9449
9427
9407
9385
9355
9319
9287
9258
9223
9184
9147
9111
9075
9043
9020
8998
8971
8953
8947
8935
8913
8891
8871
8844
8808
8773
8740
8707
8673
8646
8625
8603
8580
8564
8550
8518
8468
8412
8355
8293
8227
8171
8124
8080
8044
8021
8000
7973
7952
7940
7931
7918
7911
7913
7909
7898
7888
7882
7865
7831
7791
7748
7709
7679
7662
7664
7686
7730
7807
7912
8033
8172
8336
8511
8684
8856
9038
9226
9408
9586
9766
9937
10083
10211
10328
10428
10507
10570
10623
10659
10673
10672
10661
10643
10621
10601
10584
10561
10528
10492
10459
10423
10385
10358
10343
10332
10322
10324
10340
10355
10368
10388
10411
10422
10426
10433
10434
10424
10410
10403
10400
10386
10360
10334
10304
10269
10240
10224
10209
10193
10180
10172
10160
10141
10126
10116
10102
10077
10050
10035
10027
10023
10023
10025
10024
10019
10015
10014
10005
9987
9968
9953
9936
9917
9907
9908
9910
9908
9912
9915
9907
9896
9890
9880
9855
9819
9782
9737
9678
9614
9556
9498
9438
9387
9348
9310
9262
9212
9168
9127
9086
9048
9015
8982
8952
8935
8928
8912
8888
8868
8853
8835
8807
8776
8742
8705
8669
8639
8618
8599
8578
8558
8538
8510
8479
8451
8420
8382
8341
8304
8266
8226
8189
8158
8124
8080
8033
7996
7968
7938
7903
7876
7856
7835
7817
7801
7780
7753
7725
7699
7675
7655
7645
7642
7630
7610
7603
7607
7616
7634
7669
7722
7790
7872
7981
8113
8253
8401
8565
8739
8913
9090
9272
9444
9595
9732
9861
9970
10055
10127
10194
10250
10289
10318
10336
10331
10304
10270
10245
10226
10211
10204
10204
10208
10216
10226
10234
10240
10249
10265
10280
10278
10266
10256
10247
10231
10216
10211
10209
10205
10204
10206
10205
10202
10205
10206
10197
10175
10143
10111
10077
10040
10007
9983
9964
9948
9939
9936
9932
9927
9927
9933
9937
9942
9954
9970
9980
9989
10002
10011
10008
10002
10003
10007
10008
10002
9992
9974
9949
9921
9894
9873
9853
9833
9820
9799
9761
9715
9674
9635
9593
9552
9519
9488
9452
9419
9399
9384
9362
9334
9304
9277
9255
9236
9214
9187
9162
9138
9111
9073
9036
9008
8984
8953
8917
8888
8871
8854
8833
8813
8791
8759
8724
8696
8669
8641
8613
8590
8572
8553
8537
8524
8501
8465
8423
8381
8336
8288
8240
8199
8159
8120
8090
8061
8020
7974
7939
7911
7881
7851
7838
7843
7859
7887
7936
8007
8097
8208
8341
8489
8644
8806
8978
9151
9318
9481
9644
9811
9971
10123
10268
10391
10488
10572
10652
10723
10783
10832
10869
10890
10895
10898
10904
10902
10893
10891
10898
10907
10915
10928
10948
10967
10982
11005
11035
11062
11091
11128
11168
11196
11216
11236
11250
11246
11232
11217
11205
11192
11178
11170
11162
11147
11132
11125
11117
11102
11088
11076
11060
11041
11031
11026
11018
11008
11004
11006
11006
11004
11006
11006
11001
11003
11017
11037
11054
11067
11082
11095
11101
11100
11096
11085
11066
11046
11028
11007
10978
10950
10930
10906
10871
10833
10799
10763
10719
10670
10626
10582
10534
10490
10455
10422
10385
10346
10309
10273
10241
10212
10178
10138
10097
10064
10045
10026
9998
9969
9937
9894
9844
9797
9758
9719
9678
9643
9607
9566
9529
9503
9480
9446
9412
9382
9344
9292
9236
9189
9152
9117
9084
9054
9019
8986
8963
8944
8917
8880
8845
8812
8781
8747
8715
8687
8657
8625
8603
8592
8580
8566
8554
8545
8530
8513
8502
8490
8473
8465
8480
8510
8546
8596
8672
8765
8870
8997
9149
9317
9496
9683
9869
10048
10222
10392
10555
10708
10848
10976
11096
11202
11292
11375
11453
11516
11568
11618
11655
11671
11677
11679
11676
11669
11667
11675
11684
11691
11705
11722
11730
11728
11730
11750
11775
11794
11810
11834
11861
11884
11910
11943
11977
12005
12030
12050
12054
12041
12017
11989
11957
11926
11899
11873
11843
11817
11809
11809
11803
11791
11780
11767
11748
11726
11709
11697
11681
11659
11646
11639
11630
11621
11623
11625
11619
11610
11602
11593
11574
11553
11539
11523
11503
11491
11488
11481
11459
11433
11409
11381
11349
11322
11297
11264
11227
11193
11161
11117
11065
11015
10967
10920
10876
10839
10803
10763
10717
10672
10628
10579
10533
10494
10459
10420
10376
10333
10285
10227
10169
10121
10076
10032
9998
9974
9949
9922
9901
9885
9861
9832
9814
9805
9789
9763
9738
9715
9688
9663
9644
9626
9597
9556
9512
9464
9403
9336
9278
9232
9192
9157
9129
9101
9065
9026
8992
8961
8926
8898
8884
8876
8864
8857
8860
8865
8866
8869
8864
8847
8824
8802
8781
8753
8717
8683
8656
8625
8592
8564
8541
8522
8515
8535
8581
8637
8705
8793
8897
9018
9160
9323
9497
9672
9850
10034
10217
10386
10540
10682
10807
10912
11001
11083
11161
11228
11292
11365
11438
11500
11554
11604
11642
11663
11674
11683
11685
11682
11687
11694
11692
11692
11703
11719
11730
11737
11744
11746
11738
11725
11718
11715
11709
11705
11709
11713
11705
11702
11714
11721
11714
11703
11698
11691
11676
11658
11645
11631
11611
11595
11588
11583
11580
11587
11606
11624
11636
11647
11654
11653
11655
11667
11679
11678
11665
11656
11647
11626
11594
11565
11541
11512
11481
11459
11439
11410
11376
11347
11318
11281
11243
11213
11188
11162
11135
11116
11098
11075
11054
11041
11026
11006
10984
10958
10921
10876
10832
10789
10743
10700
10667
10635
10594
10547
10504
10467
10427
10380
10335
10289
10238
10188
10148
10113
10080
10051
10022
9987
9940
9885
9832
9778
9717
9658
9613
9572
9531
9499
9480
9467
9454
9448
9447
9436
9415
9398
9392
9384
9364
9338
9309
9274
9234
9202
9180
9158
9135
9115
9093
9067
9038
9013
8984
8945
8907
8876
8842
8798
8747
8696
8646
8592
8543
8507
8473
8432
8395
8370
8348
8327
8321
8335
8365
8413
8482
8574
8681
8799
8939
9092
9242
9389
9546
9711
9873
10033
10197
10354
10498
10635
10764
10876
10968
11043
11105
11153
11186
11213
11237
11251
11250
11248
11254
11259
11252
11242
11234
11227
11218
11215
11221
11229
11237
11243
11245
11243
11240
11236
11234
11224
11208
11203
11204
11200
11189
11181
11175
11163
11146
11132
11121
11096
11061
11025
10988
10956
10933
10916
10902
10889
10885
10893
10899
10895
10896
10909
10924
10931
10933
10937
10941
10938
10936
10941
10939
10928
10924
10925
10917
10896
10877
10863
10842
10817
10803
10800
10799
10796
10781
10748
10705
10666
10634
10601
10559
10515
10476
10437
10392
10353
10328
10303
10259
10206
10156
10107
10063
10032
10017
9998
9968
9935
9896
9849
9803
9763
9724
9687
9656
9635
9617
9584
9537
9497
9466
9433
9404
9383
9364
9340
9314
9289
9259
9216
9164
9119
9081
9044
9010
8981
8955
8929
8904
8880
8851
8818
8791
8775
8762
8749
8743
8743
8736
8718
8703
8691
8673
8650
8631
8619
8610
8603
8602
8606
8619
8648
8704
8786
8884
8996
9126
9270
9417
9566
9719
9866
9995
10114
10235
10355
10464
10565
10662
10752
10823
10881
10933
10974
11003
11028
11052
11068
11073
11077
11087
11097
11106
11115
11120
11118
11110
11106
11103
11090
11070
11056
11050
11046
11047
11054
11061
11060
11052
11044
11034
11020
11005
10995
10989
10980
10967
10954
10938
10915
10895
10884
10870
10849
10831
10819
10802
10784
10776
10778
10776
10771
10776
10789
10798
10803
10810
10820
10829
10841
10857
10873
10883
10883
10882
10881
10878
10870
10859
10846
10824
10792
10755
10708
10656
10610
10572
10535
10491
10450
10418
10382
10336
10284
10238
10200
10160
10123
10093
10061
10025
9985
9939
9887
9839
9800
9766
9731
9696
9671
9653
9631
9601
9568
9529
9487
9446
9415
9396
9378
9357
9336
9307
9269
9231
9200
9174
9147
9122
9100
9074
9042
9014
8991
8966
8940
8924
8917
8909
8898
8889
8880
8866
8853
8847
8845
8836
8821
8813
8813
8819
8837
8880
8946
9028
9127
9247
9386
9531
9677
9828
9980
10125
10265
10404
10540
10667
10792
10914
11019
11106
11184
11257
11315
11352
11374
11393
11406
11414
11427
11447
11467
11478
11485
11492
11499
11511
11534
11566
11592
11611
11633
11658
11679
11697
11719
11734
11739
11745
11758
11771
11773
11767
11757
11740
11715
11690
11670
11651
11624
11594
11564
11524
11479
11447
11426
11405
11381
11364
11358
11354
11352
11359
11370
11378
11386
11399
11412
11417
11420
11431
11446
11452
11454
11461
11470
11473
11473
11475
11476
11469
11458
11447
11427
11392
11349
11307
11264
11218
11175
11144
11112
11070
11025
10990
10960
10924
10887
10852
10811
10764
10718
10674
10629
10583
10539
10499
10464
10428
10399
10382
10359
10328
10299
10272
10230
10172
10117
10078
10044
10007
9973
9940
9903
9866
9834
9801
9764
9728
9700
9672
9635
9600
9570
9538
9498
9457
9424
9392
9360
9329
9295
9253
9205
9158
9113
9070
9034
9006
8979
8943
8903
8870
8839
8800
8758
8723
8691
8653
8613
8581
8549
8516
8489
8472
8451
8413
8373
8346
8331
8317
8313
8326
8351
8381
8426
8507
8618
8748
8901
9076
9261
9447
9637
9827
10012
10193
10372
10540
10685
10808
10925
11035
11120
11184
11247
11310
11361
11400
11436
11466
11484
11500
11517
11528
11529
11529
11531
11528
11521
11516
11519
11527
11530
11529
11538
11552
11564
11574
11582
11582
11573
11568
11573
11576
11575
11580
11589
11587
11583
11588
11598
11596
11587
11580
11575
11568
11560
11552
11543
11526
11506
11492
11482
11472
11469
11473
11475
11464
11451
11448
11444
11428
11417
11416
11412
11395
11367
11342
11321
11301
11283
11270
11250
11219
11192
11169
11142
11113
11092
11072
11043
11003
10960
10915
10864
10818
10776
10733
10687
10646
10618
10597
10574
10545
10513
10479
10437
10393
10355
10315
10265
10219
10184
10146
10101
10062
10033
10006
9976
9944
9912
9871
9828
9793
9766
9735
9694
9654
9618
9579
9545
9520
9499
9472
9443
9417
9392
9361
9328
9305
9286
9261
9227
9189
9153
9116
9085
9061
9028
8980
8935
8906
8887
8864
8841
8823
8804
8780
8760
8747
8736
8721
8707
8692
8671
8646
8621
8591
8553
8514
8485
8460
8432
8404
8378
8354
8328
8300
8270
8237
8202
8179
8172
8176
8194
8233
8295
8375
8470
8584
8719
8871
9033
9208
9395
9580
9757
9932
10106
10261
10393
10512
10625
10723
10807
10883
10946
10988
11011
11028
11044
11059
11074
11090
11105
11111
11114
11124
11136
11143
11150
11163
11173
11177
11180
11187
11191
11189
11190
11197
11205
11207
11211
11222
11233
11233
11225
11220
11217
11211
11205
11202
11191
11171
11150
11133
11116
11100
11085
11068
11046
11022
10998
10975
10952
10937
10934
10938
10942
10951
10970
10990
11002
11007
11012
11018
11017
11012
11007
10992
10964
10933
10911
10891
10867
10847
10836
10819
10793
10763
10726
10685
10645
10613
10588
10563
10532
10500
10474
10444
10404
10365
10329
10295
10263
10235
10213
10189
10162
10133
10098
10055
10015
9980
9939
9888
9834
9785
9741
9694
9652
9618
9584
9551
9523
9504
9486
9457
9429
9407
9380
9337
9286
9233
9175
9116
9070
9035
9000
8968
8946
8927
8903
8882
8874
8865
8839
8803
8770
8738
8696
8642
8590
8549
8513
8480
8453
8429
8403
8378
8363
8351
8331
8314
8307
8300
8288
8274
8263
8249
8229
8201
8165
8119
8063
8004
7951
7906
7869
7841
7819
7801
7792
7788
7772
7746
7731
7744
7784
7846
7927
8031
8153
8285
8427
8582
8742
8899
9058
9225
9391
9543
9681
9812
9934
10043
10141
10229
10303
10362
10415
10460
10484
10490
10490
10484
10467
10441
10420
10402
10375
10346
10331
10327
10319
10304
10296
10299
10308
10321
10342
10368
10385
10394
10401
10397
10379
10357
10342
10329
10306
10273
10239
10205
10169
10131
10096
10059
10019
9991
9979
9966
9947
9933
9934
9944
9954
9967
9983
9999
10011
10026
10043
10053
10058
10066
10074
10073
10068
10063
10058
10053
10051
10053
10050
10037
10021
10011
10001
9979
9951
9927
9899
9866
9836
9812
9781
9737
9696
9665
9633
9598
9567
9544
9519
9488
9466
9453
9438
9418
9408
9405
9391
9361
9329
9294
9246
9191
9140
9094
9045
8995
8946
8897
8850
8811
8783
8757
8725
8696
8676
8660
8639
8617
8597
8570
8528
8486
8449
8409
8365
8323
8293
8272
8250
8230
8208
8182
8154
8127
8099
8070
8039
8013
7989
7958
7923
7894
7872
7846
7815
7790
7772
7751
7730
7709
7683
7648
7614
7585
7553
7516
7485
7470
7476
7503
7552
7617
7694
7785
7895
8024
8162
8302
8453
8617
8784
8950
9120
9288
9441
9578
9703
9812
9903
9975
10034
10079
10110
10134
10156
10175
10186
10184
10178
10172
10163
10152
10147
10146
10142
10138
10134
10128
10115
10107
10117
10129
10130
10132
10148
10169
10184
10195
10204
10208
10209
10209
10203
10189
10170
10151
10135
10119
10101
10086
10071
10050
10027
10013
10003
9986
9967
9955
9948
9936
9925
9923
9927
9931
9938
9956
9983
10005
10019
10027
10025
10017
10016
10022
10027
10016
9995
9972
9942
9903
9861
9819
9774
9729
9691
9659
9624
9588
9560
9536
9502
9459
9423
9397
9369
9334
9304
9278
9240
9195
9161
9138
9113
9083
9049
9005
8950
8896
8848
8804
8764
8737
8721
8695
8655
8617
8590
8563
8527
8491
8463
8437
8411
8393
8380
8362
8339
8322
8306
8280
8246
8214
8189
8164
8144
8129
8109
8085
8063
8044
8019
7986
7958
7940
7925
7902
7871
7842
7810
7775
7744
7724
7710
7696
7686
7689
7695
7708
7742
7794
7854
7921
7999
8092
8199
8324
8470
8629
8789
8950
9120
9294
9452
9588
9715
9836
9946
10049
10150
10243
10319
10383
10450
10513
10560
10595
10621
10637
10642
10652
10678
10707
10722
10730
10743
10755
10758
10758
10763
10769
10770
10770
10772
10770
10762
10757
10759
10766
10783
10809
10834
10839
10827
10813
10799
10773
10737
10700
10662
10621
10586
10562
10542
10521
10502
10491
10484
10473
10462
10458
10456
10449
10439
10425
10405
10382
10365
10359
10357
10350
10345
10345
10345
10342
10349
10365
10380
10392
10400
10399
10382
10366
10362
10361
10348
10324
10296
10260
10210
10149
10088
10031
9974
9920
9876
9833
9787
9745
9713
9682
9643
9603
9570
9537
9502
9476
9461
9444
9421
9401
9380
9348
9303
9254
9209
9166
9127
9091
9051
9001
8945
8898
8856
8810
8765
8733
8704
8668
8634
8610
8589
8565
8540
8517
8488
8452
8421
8406
8395
8376
8357
8348
8336
8312
8283
8255
8219
8172
8121
8074
8030
7987
7949
7916
7880
7840
7804
7772
7740
7704
7667
7631
7596
7567
7545
7524
7498
7474
7457
7438
7416
7404
7406
7412
7418
7431
7464
7515
7576
7654
7765
7900
8048
8217
8404
8597
8797
8994
9177
9350
9517
9674
9822
9954
10068
10171
10269
10356
10427
10494
10555
10600
10632
10663
10690
10699
10692
10678
10661
10640
10619
10610
10613
10617
10621
10633
10649
10666
10686
10709
10732
10753
10771
10790
10805
10807
10804
10797
10775
10742
10708
10677
10646
10615
10594
10580
10565
10550
10543
10534
10509
10472
10443
10430
10419
10405
10396
10394
10394
10395
10399
10403
10404
10407
10417
10431
10437
10439
10445
10450
10449
10447
10449
10453
10455
10463
10474
10473
10459
10443
10424
10398
10361
10323
10291
10259
10218
10172
10125
10080
10042
10013
9983
9936
9872
9808
9745
9687
9642
9614
9591
9559
9518
9479
9443
9403
9363
9327
9290
9251
9215
9185
9151
9104
9050
9008
8971
8929
8889
8854
8818
8784
8765
8756
8745
8732
8719
8701
8674
8642
8608
8572
8533
8492
8455
8420
8384
8352
8326
8302
8277
8257
8244
8232
8212
8184
8155
8126
8092
8059
8035
8017
7999
7984
7975
7961
7937
7919
7913
7898
7866
7836
7802
7760
7718
7680
7646
7615
7587
7568
7553
7531
7498
7459
7419
7377
7331
7296
7281
7286
7317
7377
7458
7557
7677
7819
7977
8149
8331
8519
8705
8884
9057
9232
9407
9576
9739
9900
10043
10154
10242
10314
10371
10417
10458
10495
10521
10537
10551
10562
10566
10565
10570
10583
10594
10603
10617
10631
10641
10650
10662
10670
10664
10649
10636
10625
10616
10614
10618
10619
10616
10611
10608
10601
10585
10565
10545
10517
10479
10443
10424
10409
10389
10366
10342
10316
10291
10277
10274
10269
10259
10256
10259
10254
10242
10236
10240
10254
10280
10311
10337
10356
10371
10387
10399
10403
10406
10407
10397
10373
10348
10331
10320
10303
10283
10265
10240
10200
10155
10116
10084
10049
10014
9982
9947
9904
9857
9811
9767
9726
9685
9645
9597
9541
9492
9455
9418
9379
9343
9305
9256
9200
9148
9095
9039
8990
8953
8927
8903
8883
8874
8870
8855
8834
8821
8806
8775
8741
8710
8679
8645
8617
8593
8568
8541
8515
8493
8473
8449
8419
8389
8356
8318
8274
8220
8149
8069
8000
7946
7891
7836
7790
7750
7709
7676
7653
7632
7606
7581
7566
7555
7538
7514
7489
7463
7431
7402
7386
7374
7357
7336
7321
7307
7285
7264
7248
7231
7212
7194
7181
7172
7171
7192
7238
7306
7400
7524
7673
7831
7995
8171
8353
8532
8708
8884
9051
9198
9332
9461
9580
9680
9767
9840
9896
9937
9970
10005
10034
10050
10061
10070
10071
10065
10066
10076
10077
10068
10063
10066
10065
10057
10049
10045
10038
10029
10027
10030
10026
10015
10012
10016
10019
10025
10037
10047
10045
10034
10020
9998
9967
9935
9907
9878
9844
9813
9793
9775
9750
9730
9719
9708
9688
9671
9671
9677
9684
9696
9708
9712
9709
9709
9707
9702
9698
9702
9710
9713
9714
9718
9721
9714
9700
9689
9684
9674
9657
9635
9613
9591
9569
9548
9524
9488
9446
9409
9375
9340
9311
9283
9242
9188
9132
9082
9034
8988
8945
8902
8857
8810
8765
8722
8679
8632
8584
8531
8475
8423
8386
8357
8328
8303
8281
8258
8226
8190
8161
8138
8114
8090
8074
8058
8036
8013
7998
7983
7958
7926
7895
7857
7813
7778
7757
7739
7719
7703
7692
7681
7668
7657
7645
7628
7606
7587
7569
7544
7518
7497
7470
7435
7402
7372
7335
7282
7221
7171
7136
7105
7083
7080
7094
7121
7168
7245
7346
7463
7602
7768
7946
8130
8330
8540
8741
8925
9096
9256
9395
9518
9630
9726
9805
9865
9911
9944
9962
9966
9960
9946
9919
9882
9843
9795
9740
9690
9652
9618
9585
9562
9550
9544
9533
9519
9516
9528
9544
9565
9589
9606
9609
9609
9616
9622
9615
9595
9570
9540
9512
9483
9454
9419
9376
9328
9280
9237
9202
9183
9170
9152
9134
9133
9156
9190
9229
9274
9318
9349
9373
9395
9404
9399
9393
9393
9397
9402
9413
9426
9428
9414
9395
9382
9368
9340
9302
9263
9226
9182
9128
9067
9003
8938
8879
8834
8794
8758
8735
8723
8711
8693
8673
8653
8636
8623
8609
8587
8554
8513
8474
8438
8400
8361
8323
8282
8236
8190
8152
8113
8067
8022
7990
7969
7951
7938
7935
7930
7914
7905
7914
7924
7922
7912
7896
7869
7830
7789
7750
7707
7664
7628
7592
7551
7509
7474
7440
7399
7361
7339
7334
7334
7341
7373
7434
7520
7631
7768
7921
8082
8255
8441
8628
8806
8981
9155
9323
9476
9618
9754
9877
9985
10080
10164
10235
10292
10345
10393
10424
10438
10452
10464
10461
10449
10447
10452
10452
10452
10460
10470
10480
10497
10523
10549
10564
10568
10568
10565
10559
10563
10580
10594
10602
10613
10626
10624
10600
10568
10535
10499
10458
10420
10390
10359
10326
10301
10281
10264
10257
10266
10282
10290
10293
10301
10315
10334
10361
10393
10416
10427
10433
10444
10452
10443
10427
10415
10404
10391
10379
10365
10344
10313
10279
10250
10223
10195
10172
10156
10139
10122
10108
10093
10072
10049
10035
10026
10011
9985
9953
9920
9885
9853
9828
9803
9767
9727
9697
9667
9634
9605
9583
9562
9528
9483
9438
9391
9345
9303
9258
9208
9158
9120
9096
9073
9042
9014
9000
8990
8971
8946
8923
8893
8851
8806
8763
8719
8673
8635
8609
8582
8552
8527
8504
8478
8456
8439
8424
8404
8375
8347
8330
8307
8279
8258
8244
8231
8220
8203
8182
8158
8134
8108
8075
8041
8026
8037
8068
8113
8177
8269
8387
8526
8688
8872
9069
9271
9479
9686
9882
10065
10248
10437
10618
10785
10940
11076
11190
11290
11381
11462
11529
11584
11632
11668
11685
11691
11699
11711
11719
11726
11741
11760
11774
11792
11819
11845
11867
11890
11916
11938
11949
11958
11969
11974
11976
11984
11999
12012
12016
12017
12016
12009
12000
11996
11999
11994
11976
11959
11943
11916
11880
11849
11824
11798
11775
11758
11744
11729
11717
11714
11720
11724
11721
11719
11714
11699
11685
11682
11680
11671
11660
11654
11646
11633
11619
11613
11609
11601
11590
11576
11552
11520
11496
11481
11456
11420
11393
11379
11359
11329
11302
11278
11237
11179
11118
11059
10998
10940
10889
10837
10784
10732
10685
10636
10584
10539
10508
10482
10449
10417
10395
10376
10350
10321
10292
10256
10208
10159
10119
10084
10050
10025
10008
9990
9975
9966
9957
9938
9914
9898
9888
9869
9836
9801
9769
9734
9696
9662
9632
9602
9576
9559
9539
9505
9464
9429
9400
9365
9328
9297
9270
9241
9210
9179
9145
9114
9082
9051
9022
8992
8959
8930
8901
8871
8844
8808
8762
8717
8684
8656
8623
8591
8571
8566
8573
8595
8637
8702
8786
8896
9036
9197
9368
9554
9756
9963
10171
10385
10598
10798
10981
11152
11315
11466
11595
11701
11793
11869
11926
11977
12023
12060
12088
12115
12136
12142
12139
12143
12147
12140
12131
12136
12149
12157
12162
12178
12203
12228
12254
12281
12303
12319
12333
12349
12361
12369
12372
12377
12382
12378
12372
12374
12377
12371
12361
12350
12327
12295
12264
12243
12226
12210
12207
12213
12213
12206
12203
12203
12195
12180
12173
12178
12183
12184
12183
12176
12165
12162
12173
12188
12192
12193
12193
12190
12182
12173
12163
12146
12119
12096
12084
12069
12049
12039
12032
12011
11978
11945
11916
11884
11848
11810
11774
11741
11712
11681
11646
11603
11555
11511
11468
11416
11361
11312
11265
11215
11166
11123
11080
11032
10985
10942
10897
10848
10803
10771
10742
10702
10657
10619
10586
10551
10523
10501
10474
10437
10400
10369
10341
10312
10285
10261
10233
10195
10152
10116
10080
10046
10022
10006
9986
9960
9931
9899
9859
9821
9787
9754
9715
9678
9651
9624
9591
9558
9533
9509
9478
9450
9426
9397
9353
9312
9280
9242
9195
9151
9107
9059
9014
8977
8949
8923
8900
8887
8891
8908
8941
9001
9085
9175
9271
9386
9522
9667
9820
9986
10164
10351
10542
10737
10928
11103
11263
11417
11564
11700
11826
11939
12030
12092
12140
12185
12219
12235
12240
12243
12244
12244
12246
12247
12243
12231
12220
12216
12213
12212
12224
12245
12262
12276
12291
12305
12317
12326
12337
12346
12341
12331
12325
12315
12293
12268
12249
12224
12192
12167
12150
12130
12108
12096
12098
12098
12088
12080
12084
12088
12083
12079
12077
12066
12046
12029
12024
12020
12014
12016
12024
12028
12028
12032
12032
12016
11986
11954
11920
11881
11842
11812
11792
11775
11760
11746
11728
11702
11669
11637
11601
11556
11500
11441
11385
11333
11290
11261
11241
11217
11186
11155
11127
11099
11078
11067
11048
11018
10987
10949
10899
10844
10796
10757
10721
10682
10647
10616
10582
10544
10502
10450
10391
10336
10292
10257
10222
10191
10166
10142
10114
10090
10080
10072
10056
10033
10011
9992
9970
9945
9923
9902
9881
9864
9847
9816
9772
9733
9704
9674
9640
9612
9587
9560
9534
9518
9511
9503
9490
9475
9459
9437
9413
9389
9365
9345
9335
9344
9377
9429
9501
9603
9727
9866
10026
10208
10399
10585
10772
10961
11144
11317
11480
11635
11778
11910
12033
12146
12243
12320
12382
12427
12454
12472
12492
12510
12513
12504
12491
12472
12449
12426
12413
12411
12412
12419
12429
12434
12433
12433
12439
12444
12437
12428
12430
12437
12444
12458
12472
12469
12452
12429
12404
12373
12342
12314
12289
12257
12218
12180
12146
12114
12092
12084
12081
12077
12069
12066
12064
12062
12064
12077
12095
12109
12120
12139
12165
12191
12216
12249
12285
12309
12318
12322
12322
12313
12300
12290
12273
12243
12207
12169
12125
12075
12028
11991
11960
11930
11901
11874
11839
11797
11755
11712
11663
11616
11573
11530
11481
11430
11390
11367
11346
11322
11301
11281
11251
11211
11174
11141
11105
11071
11047
11025
10994
10958
10921
10878
10827
10782
10747
10715
10677
10644
10616
10586
10549
10513
10481
10448
10417
10394
10370
10341
10310
10289
10270
10242
10207
10176
10149
10116
10073
10032
9998
9956
9905
9859
9823
9799
9794
9810
9844
9895
9978
10100
10244
10401
10576
10769
10974
11180
11386
11602
11818
12022
12219
12407
12578
12734
12878
13003
13100
13172
13236
13296
13346
13385
13418
13445
13462
13476
13491
13502
13507
13509
13515
13519
13515
13515
13523
13533
13547
13568
13595
13619
13636
13660
13689
13708
13719
13742
13772
13791
13798
13803
13802
13786
13762
13738
13713
13682
13649
13625
13607
13586
13567
13556
13554
13551
13549
13554
13560
13552
13536
13527
13524
13519
13515
13517
13513
13500
13491
13495
13499
13495
13489
13487
13483
13466
13441
13416
13381
13333
13288
13255
13221
13182
13147
13118
13086
13048
13010
12973
12929
12885
12853
12830
12803
12770
12741
12709
12660
12597
12539
12489
12439
12390
12353
12319
12278
12232
12188
12140
12084
12032
11995
11963
11926
11885
11847
11807
11763
11719
11677
11640
11606
11576
11549
11512
11466
11427
11393
11353
11315
11287
11264
11234
11198
11163
11131
11102
11081
11068
11053
11031
11007
10984
10960
10925
10887
10861
10848
10837
10827
10818
10800
10770
10734
10704
10676
10640
10598
10560
10515
10465
10432
10427
10443
10478
10542
10639
10755
10886
11038
11206
11381
11566
11761
11954
12136
12317
12503
12681
12852
13027
13210
13385
13543
13680
13799
13898
13975
14037
14092
14134
14160
14180
14203
14226
14237
14237
14229
14217
14208
14214
14236
14256
14269
14292
14327
14356
14378
14407
14447
14486
14523
14560
14593
14620
14646
14680
14722
14749
14761
14764
14752
14726
14699
14675
14645
14603
14559
14529
14502
14468
14435
14408
14384
14360
14340
14325
14302
14274
14251
14236
14223
14217
14222
14234
14246
14253
14264
14277
14281
14282
14288
14299
14306
14307
14307
14303
14289
14267
14242
14213
14175
14131
14087
14047
14006
13963
13925
13887
13841
13792
13745
13698
13647
13591
13539
13490
13437
13381
13329
13282
13236
13190
13140
13085
13031
12984
12941
12891
12831
12777
12733
12686
12637
12601
12575
12545
12503
12457
12413
12371
12336
12311
12290
12262
12230
12200
12163
12114
12063
12022
11983
11935
11888
11853
11822
11787
11754
11727
11699
11668
11641
11617
11585
11544
11507
11474
11437
11399
11369
11341
11304
11263
11234
11219
11197
11161
11120
11074
11021
10968
10929
10905
10884
10862
10848
10839
10822
10801
10784
10763
10731
10717
10740
10772
10798
10845
10925
11027
11142
11281
11445
11619
11799
11989
12185
12381
12578
12782
12984
13172
13346
13519
13686
13828
13946
14055
14154
14234
14300
14358
14407
14443
14471
14498
14525
14547
14565
14582
14599
14615
14635
14663
14690
14712
14739
14772
14805
14838
14870
14898
14917
14927
14936
14947
14954
14956
14964
14971
14965
14952
14943
14932
14907
14875
14845
14816
14777
14724
14675
14631
14589
14556
14541
14537
14532
14528
14533
14546
14557
14569
14587
14605
14619
14639
14670
14698
14717
14727
14727
14710
14679
14640
14601
14561
14524
14493
14460
14420
14376
14333
14295
14260
14228
14206
14192
14172
14147
14126
14108
14084
14057
14031
14002
13963
13913
13863
13813
13758
13701
13651
13602
13542
13471
13398
13321
13240
13169
13109
13048
12990
12947
12918
12892
12865
12844
12830
12811
12781
12748
12710
12660
12608
12570
12537
12498
12455
12412
12365
12308
12247
12194
12148
12102
12062
12026
11982
11929
11883
11852
11819
11766
11706
11651
11602
11562
11532
11510
11490
11474
11469
11466
11453
11429
11404
11382
11360
11335
11312
11285
11255
11227
11200
11173
11141
11104
11070
11039
11006
10972
10942
10911
10870
10826
10791
10762
10734
10719
10722
10731
10746
10782
10849
10937
11038
11168
11335
11526
11733
11958
12188
12412
12627
12837
13038
13222
13388
13536
13659
13751
13822
13890
13950
13991
14010
14014
14006
13989
13968
13957
13955
13947
13932
13918
13904
13890
13884
13885
13886
13885
13885
13893
13907
13921
13944
13972
13993
14006
14019
14030
14032
14028
14028
14026
14012
13989
13971
13956
13933
13906
13883
13858
13823
13787
13762
13742
13718
13698
13689
13686
13683
13679
13677
13670
13653
13645
13655
13666
13666
13661
13659
13656
13639
13610
13579
13553
13531
13518
13514
13514
13511
13511
13514
13507
13489
13476
13468
13452
13425
13395
13360
13317
13272
13231
13188
13135
13078
13021
12957
12879
12801
12731
12662
12592
12528
12473
12423
12371
12325
12288
12253
12219
12196
12183
12168
12141
12117
12103
12088
12063
12039
12020
11997
11966
11930
11887
11837
11788
11744
11702
11648
11584
11533
11495
11457
11416
11383
11360
11342
11326
11316
11301
11278
11254
11233
11216
11199
11181
11160
11133
11099
11066
11032
10990
10943
10898
10861
10826
10789
10750
10711
10675
10645
10638
10655
10693
10750
10835
10945
11069
11210
11376
11556
11737
11917
12103
12283
12444
12593
12733
12857
12957
13034
13097
13153
13197
13235
13278
13316
13343
13361
13373
13377
13367
13352
13339
13327
13315
13315
13335
13361
13383
13408
13433
13445
13445
13450
13464
13474
13476
13482
13494
13497
13490
13489
13493
13487
13470
13450
13426
13400
13374
13354
13341
13328
13308
13287
13265
13238
13214
13199
13187
13177
13176
13182
13186
13185
13185
13189
13193
13193
13189
13183
13180
13186
13197
13203
13196
13180
13168
13152
13121
13079
13041
13011
12977
12937
12898
12858
12811
12764
12726
12692
12656
12623
12595
12566
12531
12497
12466
12428
12378
12327
12289
12258
12223
12183
12144
12108
12064
12015
11969
11923
11873
11826
11787
11747
11702
11664
11631
11596
11562
11535
11512
11482
11445
11415
11390
11361
11333
11305
11271
11228
11188
11164
11154
11143
11128
11108
11086
11064
11044
11031
11018
10994
10967
10947
10926
10905
10884
10858
10822
10779
10738
10701
10663
10627
10600
10576
10551
10537
10549
10575
10610
10666
10752
10863
10990
11128
11279
11437
11594
11746
11900
12055
12206
12352
12496
12632
12752
12864
12977
13077
13150
13209
13263
13311
13348
13375
13404
13431
13452
13474
13496
13510
13518
13524
13531
13532
13531
13534
13538
13539
13545
13561
13577
13586
13591
13601
13613
13621
13634
13655
13670
13670
13659
13645
13621
13587
13554
13530
13498
13457
13426
13414
13406
13394
13382
13370
13357
13342
13332
13324
13315
13310
13309
13311
13312
13309
13308
13304
13288
13268
13255
13245
13226
13201
13180
13168
13149
13117
13085
13052
13018
12989
12966
12939
12905
12876
12858
12846
12829
12806
12783
12753
12720
12688
12650
12604
12551
12509
12478
12444
12405
12366
12326
12278
12224
12177
12137
12093
12046
12004
11963
11909
11845
11789
11742
11700
11668
11643
11615
11584
11557
11536
11515
11487
11453
11424
11396
11364
11331
11302
11268
11217
11161
11112
11069
11021
10970
10922
10881
10840
10803
10773
10736
10696
10665
10639
10608
10574
10548
10532
10506
10469
10438
10414
10382
10343
10306
10264
10212
10167
10140
10126
10121
10135
10171
10218
10275
10349
10446
10556
10668
10786
10919
11065
11220
11383
11550
11712
11865
12019
12174
12313
12435
12550
12658
12756
12842
12923
12996
13051
13089
13119
13142
13152
13156
13160
13162
13162
13172
13195
13218
13236
13255
13278
13291
13295
13302
13317
13324
13314
13305
13308
13306
13291
13273
13267
13271
13277
13283
13287
13289
13284
13277
13270
13256
13238
13229
13230
13223
13205
13192
13183
13169
13155
13148
13143
13131
13113
13099
13084
13067
13050
13034
13018
13006
13000
13000
12994
12976
12957
12944
12932
12917
12905
12897
12889
12880
12880
12887
12889
12881
12867
12852
12834
12810
12780
12747
12709
12666
12623
12579
12526
12464
12406
12349
12290
12233
12181
12128
12072
12018
11974
11936
11892
11853
11826
11798
11763
11728
11699
11669
11634
11602
11570
11534
11497
11463
11438
11420
11400
11383
11372
